{
  "AcquisitionMatrixPE": 100,
  "AcquisitionNumber": 1,
  "AcquisitionTime": "10:45:11.105000",
  "BandwidthPerPixelPhaseEncode": 18.519,
  "BaseResolution": 100,
  "BodyPartExamined": "BRAIN",
  "ConsistencyInfo": "N4_VE11C_LATEST_20160120",
  "ConversionSoftware": "dcm2niix",
  "ConversionSoftwareVersion": "v1.0.20180622 GCC4.9.2",
  "DerivedVendorReportedEchoSpacing": 0.000539986,
  "DeviceSerialNumber": "166078",
  "DwellTime": 2.1e-06,
  "EchoTime": 0.034,
  "EchoTrainLength": 100,
  "EffectiveEchoSpacing": 0.000539986,
  "FlipAngle": 90,
  "ImageOrientationPatientDICOM": [1, 0, 0, 0, 0.986856, -0.161604],
  "ImageType": [
    "ORIGINAL",
    "PRIMARY",
    "M",
    "ND",
    "MOSAIC"
],
  "InPlanePhaseEncodingDirectionDICOM": "COL",
  "InstitutionAddress": "Street_StreetNo_Bei_Jing_District_CN_ZIP",
  "InstitutionName": "BeiJing_Normal_University",
  "InstitutionalDepartmentName": "Department",
  "MRAcquisitionType": "2D",
  "MagneticFieldStrength": 3,
  "Manufacturer": "Siemens",
  "ManufacturersModelName": "Prisma",
  "Modality": "MR",
  "MultibandAccelerationFactor": 3,
  "PartialFourier": 1,
  "PatientPosition": "HFS",
  "PercentPhaseFOV": 100,
  "PhaseEncodingDirection": "j-",
  "PhaseEncodingSteps": 100,
  "PhaseResolution": 1,
  "PixelBandwidth": 2380,
  "ProcedureStepDescription": "BNU_P2018_64CH_Zhen.ZongLei",
  "ProtocolName": "bold_100x100_s3_2x2x2_static_256",
  "PulseSequenceDetails": "%SiemensSeq%_ep2d_bold",
  "ReceiveCoilActiveElements": "HC1-7;NC1",
  "ReceiveCoilName": "HeadNeck_64",
  "ReconMatrixPE": 100,
  "RepetitionTime": 2,
  "SAR": 0.0621423,
  "ScanOptions": "FS",
  "ScanningSequence": "EP",
  "SequenceName": "_epfid2d1_100",
  "SequenceVariant": "SK",
  "SeriesDescription": "bold_100x100_s3_2x2x2_static_256",
  "SeriesNumber": 15,
  "ShimSetting": [-5455, -11461, -1290, 385, -16, -338, -269, 36],
  "SliceThickness": 2,
  "SliceTiming": [1.485, 0, 0.99, 0.0825, 1.0725, 0.165, 1.155, 0.2475, 1.2375, 0.33, 1.32, 0.4125, 1.4025, 0.5775, 1.5675, 0.66, 1.65, 0.7425, 1.7325, 0.825, 1.815, 0.9075, 1.8975, 0.495, 1.485, 0, 0.99, 0.0825, 1.0725, 0.165, 1.155, 0.2475, 1.2375, 0.33, 1.32, 0.4125, 1.4025, 0.5775, 1.5675, 0.66, 1.65, 0.7425, 1.7325, 0.825, 1.815, 0.9075, 1.8975, 0.495, 1.485, 0, 0.99, 0.0825, 1.0725, 0.165, 1.155, 0.2475, 1.2375, 0.33, 1.32, 0.4125, 1.4025, 0.5775, 1.5675, 0.66, 1.65, 0.7425, 1.7325, 0.825, 1.815, 0.9075, 1.8975, 0.495],
  "SoftwareVersions": "syngo_MR_E11",
  "SpacingBetweenSlices": 2,
  "StationName": "AWP166078",
  "TaskName": "naturalvision",
  "TotalReadoutTime": 0.0534586,
  "TxRefAmp": 208.559,
  "dcmmeta_affine": [
    [-2.0, 0.0, 0.0, 100.0],
    [0.0, 1.9737114906311035, -0.32320764660835266, -85.03076171875],
    [0.0, 0.32320764660835266, 1.973711371421814, -97.83645629882812],
    [0.0, 0.0, 0.0, 1.0]
],
  "dcmmeta_reorient_transform": [
    [0.0, -1.0, 0.0, 99.0],
    [1.0, 0.0, 0.0, 0.0],
    [0.0, 0.0, 1.0, 0.0],
    [0.0, 0.0, 0.0, 1.0]
],
  "dcmmeta_shape": [100, 100, 72, 256],
  "dcmmeta_slice_dim": 2,
  "dcmmeta_version": 0.6,
  "global": {
    "const": {
      "AcquisitionMatrix": [100, 0, 0, 100],
      "AngioFlag": "N",
      "BitsAllocated": 16,
      "BitsStored": 12,
      "BodyPartExamined": "BRAIN",
      "Columns": 900,
      "EchoNumbers": 1,
      "EchoTime": 34.0,
      "EchoTrainLength": 100,
      "FlipAngle": 90.0,
      "HighBit": 11,
      "ImageOrientationPatient": [1.0, 0.0, 0.0, 0.0, 0.98685571586892, -0.1616038243881],
      "ImagePositionPatient": [-900.0, -899.85124417369, 63.444159112358],
      "ImageType": [
        "ORIGINAL",
        "PRIMARY",
        "M",
        "ND",
        "MOSAIC"
],
      "ImagedNucleus": "1H",
      "ImagingFrequency": 123.257798,
      "InPlanePhaseEncodingDirection": "COL",
      "MRAcquisitionType": "2D",
      "MagneticFieldStrength": 3.0,
      "Manufacturer": "SIEMENS",
      "ManufacturerModelName": "Prisma",
      "Modality": "MR",
      "NumberOfAverages": 1.0,
      "NumberOfPhaseEncodingSteps": 100,
      "PercentPhaseFieldOfView": 100.0,
      "PercentSampling": 100.0,
      "PerformedProcedureStepStartTime": "090613.470000",
      "PhotometricInterpretation": "MONOCHROME2",
      "PixelBandwidth": 2380.0,
      "PixelRepresentation": 0,
      "PixelSpacing": [2.0, 2.0],
      "ProtocolName": "bold_100x100_s3_2x2x2_static_256",
      "RepetitionTime": 2000.0,
      "Rows": 900,
      "SAR": 0.06214227852428,
      "SamplesPerPixel": 1,
      "ScanOptions": "FS",
      "ScanningSequence": "EP",
      "SequenceName": "*epfid2d1_100",
      "SequenceVariant": "SK",
      "SeriesDescription": "bold_100x100_s3_2x2x2_static_256",
      "SeriesNumber": 15,
      "SeriesTime": "104513.994000",
      "SliceLocation": -82.809171380312,
      "SliceThickness": 2.0,
      "SmallestImagePixelValue": 0,
      "SoftwareVersions": "syngo MR E11",
      "SpacingBetweenSlices": 1.9999999308243,
      "SpecificCharacterSet": "ISO_IR 100",
      "StudyID": "1",
      "StudyTime": "090613.379000",
      "TransmitCoilName": "Body",
      "VariableFlipAngleFlag": "N",
      "WindowCenterWidthExplanation": "Algo1",
      "dBdt": 0.0},
    "slices": {}
  },
  "time": {
    "samples": {
      "AcquisitionNumber": [1, 2, 3, 4, 5, 6, 7, 8, 9, 10, 11, 12, 13, 14, 15, 16, 17, 18, 19, 20, 21, 22, 23, 24, 25, 26, 27, 28, 29, 30, 31, 32, 33, 34, 35, 36, 37, 38, 39, 40, 41, 42, 43, 44, 45, 46, 47, 48, 49, 50, 51, 52, 53, 54, 55, 56, 57, 58, 59, 60, 61, 62, 63, 64, 65, 66, 67, 68, 69, 70, 71, 72, 73, 74, 75, 76, 77, 78, 79, 80, 81, 82, 83, 84, 85, 86, 87, 88, 89, 90, 91, 92, 93, 94, 95, 96, 97, 98, 99, 100, 101, 102, 103, 104, 105, 106, 107, 108, 109, 110, 111, 112, 113, 114, 115, 116, 117, 118, 119, 120, 121, 122, 123, 124, 125, 126, 127, 128, 129, 130, 131, 132, 133, 134, 135, 136, 137, 138, 139, 140, 141, 142, 143, 144, 145, 146, 147, 148, 149, 150, 151, 152, 153, 154, 155, 156, 157, 158, 159, 160, 161, 162, 163, 164, 165, 166, 167, 168, 169, 170, 171, 172, 173, 174, 175, 176, 177, 178, 179, 180, 181, 182, 183, 184, 185, 186, 187, 188, 189, 190, 191, 192, 193, 194, 195, 196, 197, 198, 199, 200, 201, 202, 203, 204, 205, 206, 207, 208, 209, 210, 211, 212, 213, 214, 215, 216, 217, 218, 219, 220, 221, 222, 223, 224, 225, 226, 227, 228, 229, 230, 231, 232, 233, 234, 235, 236, 237, 238, 239, 240, 241, 242, 243, 244, 245, 246, 247, 248, 249, 250, 251, 252, 253, 254, 255, 256],
      "AcquisitionTime": ["104511.105000", "104513.105000", "104515.105000", "104517.105000", "104519.105000", "104521.105000", "104523.105000", "104525.105000", "104527.105000", "104529.105000", "104531.105000", "104533.105000", "104535.105000", "104537.105000", "104539.105000", "104541.105000", "104543.105000", "104545.105000", "104547.105000", "104549.105000", "104551.105000", "104553.105000", "104555.105000", "104557.105000", "104559.105000", "104601.105000", "104603.105000", "104605.105000", "104607.105000", "104609.105000", "104611.105000", "104613.105000", "104615.105000", "104617.105000", "104619.105000", "104621.105000", "104623.105000", "104625.105000", "104627.105000", "104629.105000", "104631.105000", "104633.105000", "104635.105000", "104637.105000", "104639.105000", "104641.105000", "104643.105000", "104645.105000", "104647.105000", "104649.105000", "104651.105000", "104653.105000", "104655.105000", "104657.105000", "104659.105000", "104701.105000", "104703.105000", "104705.105000", "104707.105000", "104709.105000", "104711.105000", "104713.105000", "104715.105000", "104717.105000", "104719.105000", "104721.105000", "104723.105000", "104725.105000", "104727.105000", "104729.105000", "104731.105000", "104733.105000", "104735.105000", "104737.105000", "104739.105000", "104741.105000", "104743.105000", "104745.105000", "104747.105000", "104749.105000", "104751.105000", "104753.105000", "104755.105000", "104757.105000", "104759.105000", "104801.105000", "104803.105000", "104805.105000", "104807.105000", "104809.105000", "104811.105000", "104813.105000", "104815.105000", "104817.105000", "104819.105000", "104821.105000", "104823.105000", "104825.105000", "104827.105000", "104829.105000", "104831.105000", "104833.105000", "104835.105000", "104837.105000", "104839.105000", "104841.105000", "104843.105000", "104845.105000", "104847.105000", "104849.105000", "104851.105000", "104853.105000", "104855.105000", "104857.105000", "104859.105000", "104901.105000", "104903.105000", "104905.105000", "104907.105000", "104909.105000", "104911.105000", "104913.105000", "104915.105000", "104917.105000", "104919.105000", "104921.105000", "104923.105000", "104925.105000", "104927.105000", "104929.105000", "104931.105000", "104933.105000", "104935.105000", "104937.105000", "104939.105000", "104941.105000", "104943.105000", "104945.105000", "104947.105000", "104949.105000", "104951.105000", "104953.105000", "104955.105000", "104957.105000", "104959.105000", "105001.105000", "105003.105000", "105005.105000", "105007.105000", "105009.105000", "105011.105000", "105013.105000", "105015.105000", "105017.105000", "105019.105000", "105021.105000", "105023.105000", "105025.105000", "105027.105000", "105029.105000", "105031.105000", "105033.105000", "105035.105000", "105037.105000", "105039.105000", "105041.105000", "105043.105000", "105045.105000", "105047.105000", "105049.105000", "105051.105000", "105053.105000", "105055.105000", "105057.105000", "105059.105000", "105101.105000", "105103.105000", "105105.105000", "105107.105000", "105109.105000", "105111.105000", "105113.105000", "105115.105000", "105117.105000", "105119.105000", "105121.105000", "105123.105000", "105125.105000", "105127.105000", "105129.105000", "105131.105000", "105133.105000", "105135.105000", "105137.105000", "105139.105000", "105141.105000", "105143.105000", "105145.105000", "105147.105000", "105149.105000", "105151.105000", "105153.105000", "105155.105000", "105157.105000", "105159.105000", "105201.105000", "105203.105000", "105205.105000", "105207.105000", "105209.105000", "105211.105000", "105213.105000", "105215.105000", "105217.105000", "105219.105000", "105221.105000", "105223.105000", "105225.105000", "105227.105000", "105229.105000", "105231.105000", "105233.105000", "105235.105000", "105237.105000", "105239.105000", "105241.105000", "105243.105000", "105245.105000", "105247.105000", "105249.105000", "105251.105000", "105253.105000", "105255.105000", "105257.105000", "105259.105000", "105301.105000", "105303.105000", "105305.105000", "105307.105000", "105309.105000", "105311.105000", "105313.105000", "105315.105000", "105317.105000", "105319.105000", "105321.105000", "105323.105000", "105325.105000", "105327.105000", "105329.105000", "105331.105000", "105333.105000", "105335.105000", "105337.105000", "105339.105000", "105341.105000"],
      "ContentTime": ["104513.998000", "104515.494000", "104517.492000", "104519.492000", "104521.492000", "104523.494000", "104525.493000", "104527.494000", "104529.494000", "104531.493000", "104533.494000", "104535.492000", "104537.493000", "104539.493000", "104541.494000", "104543.494000", "104545.493000", "104547.493000", "104549.494000", "104551.494000", "104553.493000", "104555.493000", "104557.493000", "104559.494000", "104601.493000", "104603.494000", "104605.494000", "104607.493000", "104609.494000", "104611.493000", "104613.492000", "104615.494000", "104617.494000", "104619.493000", "104621.493000", "104623.494000", "104625.494000", "104627.493000", "104629.493000", "104631.493000", "104633.494000", "104635.493000", "104637.493000", "104639.493000", "104641.494000", "104643.493000", "104645.493000", "104647.493000", "104649.493000", "104651.494000", "104653.494000", "104655.493000", "104657.494000", "104659.493000", "104701.493000", "104703.492000", "104705.492000", "104707.493000", "104709.493000", "104711.494000", "104713.493000", "104715.493000", "104717.493000", "104719.494000", "104721.493000", "104723.493000", "104725.493000", "104727.493000", "104729.494000", "104731.494000", "104733.493000", "104735.493000", "104737.493000", "104739.492000", "104741.492000", "104743.493000", "104745.494000", "104747.494000", "104749.493000", "104751.493000", "104753.494000", "104755.492000", "104757.493000", "104759.492000", "104801.494000", "104803.494000", "104805.494000", "104807.494000", "104809.493000", "104811.494000", "104813.492000", "104815.492000", "104817.492000", "104819.493000", "104821.494000", "104823.494000", "104825.494000", "104827.494000", "104829.494000", "104831.493000", "104833.493000", "104835.493000", "104837.493000", "104839.493000", "104841.494000", "104843.493000", "104845.493000", "104847.492000", "104849.493000", "104851.493000", "104853.494000", "104855.494000", "104857.494000", "104859.493000", "104901.493000", "104903.494000", "104905.492000", "104907.493000", "104909.493000", "104911.493000", "104913.494000", "104915.494000", "104917.494000", "104919.493000", "104921.494000", "104923.492000", "104925.493000", "104927.493000", "104929.493000", "104931.493000", "104933.493000", "104935.498000", "104937.493000", "104939.494000", "104941.493000", "104943.493000", "104945.493000", "104947.494000", "104949.494000", "104951.493000", "104953.494000", "104955.493000", "104957.493000", "104959.493000", "105001.492000", "105003.494000", "105005.494000", "105007.494000", "105009.494000", "105011.494000", "105013.494000", "105015.493000", "105017.492000", "105019.493000", "105021.493000", "105023.493000", "105025.494000", "105027.493000", "105029.493000", "105031.494000", "105033.493000", "105035.493000", "105037.494000", "105039.493000", "105041.493000", "105043.494000", "105045.494000", "105047.494000", "105049.494000", "105051.493000", "105053.493000", "105055.494000", "105057.494000", "105059.494000", "105101.493000", "105103.494000", "105105.494000", "105107.493000", "105109.493000", "105111.492000", "105113.494000", "105115.494000", "105117.494000", "105119.494000", "105121.493000", "105123.494000", "105125.493000", "105127.503000", "105129.493000", "105131.494000", "105133.494000", "105135.493000", "105137.493000", "105139.494000", "105141.493000", "105143.493000", "105145.493000", "105147.494000", "105149.494000", "105151.494000", "105153.494000", "105155.493000", "105157.493000", "105159.494000", "105201.493000", "105203.492000", "105205.493000", "105207.494000", "105209.494000", "105211.494000", "105213.493000", "105215.494000", "105217.492000", "105219.493000", "105221.492000", "105223.494000", "105225.494000", "105227.494000", "105229.494000", "105231.494000", "105233.494000", "105235.492000", "105237.493000", "105239.492000", "105241.494000", "105243.494000", "105245.493000", "105247.494000", "105249.494000", "105251.494000", "105253.493000", "105255.492000", "105257.494000", "105259.493000", "105301.494000", "105303.494000", "105305.494000", "105307.494000", "105309.493000", "105311.493000", "105313.493000", "105315.494000", "105317.494000", "105319.494000", "105321.493000", "105323.494000", "105325.494000", "105327.493000", "105329.493000", "105331.493000", "105333.493000", "105335.494000", "105337.494000", "105339.494000", "105341.494000", "105343.071000"],
      "InstanceCreationTime": ["104513.998000", "104515.494000", "104517.492000", "104519.492000", "104521.492000", "104523.494000", "104525.493000", "104527.494000", "104529.494000", "104531.493000", "104533.494000", "104535.492000", "104537.493000", "104539.493000", "104541.494000", "104543.494000", "104545.493000", "104547.493000", "104549.494000", "104551.494000", "104553.493000", "104555.493000", "104557.493000", "104559.494000", "104601.493000", "104603.494000", "104605.494000", "104607.493000", "104609.494000", "104611.493000", "104613.492000", "104615.494000", "104617.494000", "104619.493000", "104621.493000", "104623.494000", "104625.494000", "104627.493000", "104629.493000", "104631.493000", "104633.494000", "104635.493000", "104637.493000", "104639.493000", "104641.494000", "104643.493000", "104645.493000", "104647.493000", "104649.493000", "104651.494000", "104653.494000", "104655.493000", "104657.494000", "104659.493000", "104701.493000", "104703.492000", "104705.492000", "104707.493000", "104709.493000", "104711.494000", "104713.493000", "104715.493000", "104717.493000", "104719.494000", "104721.493000", "104723.493000", "104725.493000", "104727.493000", "104729.494000", "104731.494000", "104733.493000", "104735.493000", "104737.493000", "104739.492000", "104741.492000", "104743.493000", "104745.494000", "104747.494000", "104749.493000", "104751.493000", "104753.494000", "104755.492000", "104757.493000", "104759.492000", "104801.494000", "104803.494000", "104805.494000", "104807.494000", "104809.493000", "104811.494000", "104813.492000", "104815.492000", "104817.492000", "104819.493000", "104821.494000", "104823.494000", "104825.494000", "104827.494000", "104829.494000", "104831.493000", "104833.493000", "104835.493000", "104837.493000", "104839.493000", "104841.494000", "104843.493000", "104845.493000", "104847.492000", "104849.493000", "104851.493000", "104853.494000", "104855.494000", "104857.494000", "104859.493000", "104901.493000", "104903.494000", "104905.492000", "104907.493000", "104909.493000", "104911.493000", "104913.494000", "104915.494000", "104917.494000", "104919.493000", "104921.494000", "104923.492000", "104925.493000", "104927.493000", "104929.493000", "104931.493000", "104933.493000", "104935.498000", "104937.493000", "104939.494000", "104941.493000", "104943.493000", "104945.493000", "104947.494000", "104949.494000", "104951.493000", "104953.494000", "104955.493000", "104957.493000", "104959.493000", "105001.492000", "105003.494000", "105005.494000", "105007.494000", "105009.494000", "105011.494000", "105013.494000", "105015.493000", "105017.492000", "105019.493000", "105021.493000", "105023.493000", "105025.494000", "105027.493000", "105029.493000", "105031.494000", "105033.493000", "105035.493000", "105037.494000", "105039.493000", "105041.493000", "105043.494000", "105045.494000", "105047.494000", "105049.494000", "105051.493000", "105053.493000", "105055.494000", "105057.494000", "105059.494000", "105101.493000", "105103.494000", "105105.494000", "105107.493000", "105109.493000", "105111.492000", "105113.494000", "105115.494000", "105117.494000", "105119.494000", "105121.493000", "105123.494000", "105125.493000", "105127.503000", "105129.493000", "105131.494000", "105133.494000", "105135.493000", "105137.493000", "105139.494000", "105141.493000", "105143.493000", "105145.493000", "105147.494000", "105149.494000", "105151.494000", "105153.494000", "105155.493000", "105157.493000", "105159.494000", "105201.493000", "105203.492000", "105205.493000", "105207.494000", "105209.494000", "105211.494000", "105213.493000", "105215.494000", "105217.492000", "105219.493000", "105221.492000", "105223.494000", "105225.494000", "105227.494000", "105229.494000", "105231.494000", "105233.494000", "105235.492000", "105237.493000", "105239.492000", "105241.494000", "105243.494000", "105245.493000", "105247.494000", "105249.494000", "105251.494000", "105253.493000", "105255.492000", "105257.494000", "105259.493000", "105301.494000", "105303.494000", "105305.494000", "105307.494000", "105309.493000", "105311.493000", "105313.493000", "105315.494000", "105317.494000", "105319.494000", "105321.493000", "105323.494000", "105325.494000", "105327.493000", "105329.493000", "105331.493000", "105333.493000", "105335.494000", "105337.494000", "105339.494000", "105341.494000", "105343.071000"],
      "InstanceNumber": [1, 2, 3, 4, 5, 6, 7, 8, 9, 10, 11, 12, 13, 14, 15, 16, 17, 18, 19, 20, 21, 22, 23, 24, 25, 26, 27, 28, 29, 30, 31, 32, 33, 34, 35, 36, 37, 38, 39, 40, 41, 42, 43, 44, 45, 46, 47, 48, 49, 50, 51, 52, 53, 54, 55, 56, 57, 58, 59, 60, 61, 62, 63, 64, 65, 66, 67, 68, 69, 70, 71, 72, 73, 74, 75, 76, 77, 78, 79, 80, 81, 82, 83, 84, 85, 86, 87, 88, 89, 90, 91, 92, 93, 94, 95, 96, 97, 98, 99, 100, 101, 102, 103, 104, 105, 106, 107, 108, 109, 110, 111, 112, 113, 114, 115, 116, 117, 118, 119, 120, 121, 122, 123, 124, 125, 126, 127, 128, 129, 130, 131, 132, 133, 134, 135, 136, 137, 138, 139, 140, 141, 142, 143, 144, 145, 146, 147, 148, 149, 150, 151, 152, 153, 154, 155, 156, 157, 158, 159, 160, 161, 162, 163, 164, 165, 166, 167, 168, 169, 170, 171, 172, 173, 174, 175, 176, 177, 178, 179, 180, 181, 182, 183, 184, 185, 186, 187, 188, 189, 190, 191, 192, 193, 194, 195, 196, 197, 198, 199, 200, 201, 202, 203, 204, 205, 206, 207, 208, 209, 210, 211, 212, 213, 214, 215, 216, 217, 218, 219, 220, 221, 222, 223, 224, 225, 226, 227, 228, 229, 230, 231, 232, 233, 234, 235, 236, 237, 238, 239, 240, 241, 242, 243, 244, 245, 246, 247, 248, 249, 250, 251, 252, 253, 254, 255, 256],
      "LargestImagePixelValue": [3524, 3407, 3355, 3342, 3328, 3307, 3409, 3408, 3378, 3332, 3366, 3400, 3341, 3346, 3341, 3329, 3301, 3317, 3331, 3376, 3368, 3322, 3348, 3373, 3349, 3328, 3300, 3361, 3318, 3369, 3341, 3304, 3306, 3336, 3360, 3351, 3354, 3257, 3333, 3371, 3382, 3378, 3297, 3354, 3343, 3344, 3384, 3451, 3332, 3252, 3241, 3223, 3256, 3229, 3273, 3335, 3336, 3261, 3297, 3349, 3380, 3272, 3255, 3263, 3271, 3296, 3304, 3317, 3319, 3380, 3338, 3357, 3398, 3340, 3231, 3255, 3259, 3292, 3296, 3302, 3322, 3302, 3314, 3331, 3294, 3338, 3281, 3322, 3334, 3329, 3280, 3285, 3280, 3290, 3306, 3376, 3326, 3338, 3314, 3271, 3292, 3288, 3280, 3300, 3325, 3281, 3234, 3312, 3370, 3283, 3253, 3283, 3304, 3329, 3291, 3259, 3268, 3296, 3270, 3339, 3406, 3386, 3319, 3295, 3339, 3337, 3227, 3321, 3203, 3221, 3322, 3346, 3324, 3322, 3284, 3299, 3265, 3272, 3276, 3268, 3216, 3272, 3329, 3372, 3356, 3331, 3220, 3228, 3246, 3214, 3249, 3252, 3277, 3232, 3313, 3313, 3346, 3311, 3372, 3355, 3319, 3362, 3322, 3331, 3325, 3268, 3224, 3290, 3287, 3259, 3350, 3391, 3388, 3378, 3372, 3290, 3320, 3378, 3354, 3397, 3365, 3375, 3395, 3368, 3349, 3398, 3384, 3393, 3394, 3461, 3420, 3380, 3318, 3348, 3327, 3361, 3299, 3316, 3306, 3353, 3368, 3322, 3341, 3417, 3410, 3406, 3348, 3328, 3388, 3416, 3389, 3335, 3293, 3349, 3373, 3368, 3371, 3384, 3355, 3397, 3425, 3411, 3355, 3385, 3383, 3436, 3434, 3444, 3374, 3355, 3327, 3383, 3362, 3331, 3282, 3351, 3380, 3392, 3311, 3331, 3342, 3330, 3325, 3323, 3353, 3363, 3357, 3335, 3342, 3343, 3363, 3356, 3356, 3392, 3408, 3367],
      "WindowCenter": [776.0, 773.0, 771.0, 769.0, 769.0, 770.0, 773.0, 774.0, 772.0, 771.0, 771.0, 772.0, 772.0, 773.0, 773.0, 772.0, 770.0, 770.0, 772.0, 774.0, 774.0, 772.0, 771.0, 771.0, 771.0, 771.0, 772.0, 772.0, 771.0, 771.0, 771.0, 771.0, 772.0, 772.0, 772.0, 772.0, 772.0, 771.0, 773.0, 773.0, 773.0, 773.0, 772.0, 771.0, 771.0, 772.0, 775.0, 776.0, 772.0, 768.0, 767.0, 768.0, 770.0, 770.0, 772.0, 774.0, 774.0, 772.0, 772.0, 773.0, 773.0, 771.0, 770.0, 770.0, 773.0, 773.0, 774.0, 773.0, 772.0, 771.0, 773.0, 775.0, 774.0, 770.0, 767.0, 766.0, 767.0, 770.0, 772.0, 772.0, 772.0, 773.0, 774.0, 774.0, 772.0, 771.0, 771.0, 772.0, 773.0, 773.0, 772.0, 771.0, 771.0, 771.0, 773.0, 776.0, 775.0, 773.0, 770.0, 769.0, 770.0, 770.0, 771.0, 770.0, 771.0, 770.0, 770.0, 773.0, 772.0, 769.0, 767.0, 767.0, 769.0, 771.0, 772.0, 770.0, 769.0, 768.0, 769.0, 772.0, 774.0, 773.0, 773.0, 772.0, 771.0, 768.0, 767.0, 767.0, 766.0, 767.0, 770.0, 772.0, 773.0, 773.0, 771.0, 769.0, 769.0, 770.0, 771.0, 771.0, 771.0, 771.0, 774.0, 777.0, 775.0, 771.0, 768.0, 768.0, 768.0, 769.0, 769.0, 770.0, 770.0, 771.0, 772.0, 773.0, 773.0, 773.0, 773.0, 773.0, 773.0, 775.0, 774.0, 773.0, 772.0, 768.0, 766.0, 766.0, 767.0, 768.0, 771.0, 772.0, 773.0, 771.0, 770.0, 769.0, 770.0, 773.0, 774.0, 774.0, 772.0, 771.0, 772.0, 772.0, 773.0, 773.0, 774.0, 775.0, 773.0, 773.0, 772.0, 771.0, 771.0, 770.0, 770.0, 772.0, 773.0, 774.0, 774.0, 774.0, 772.0, 773.0, 774.0, 774.0, 773.0, 772.0, 773.0, 774.0, 775.0, 774.0, 774.0, 772.0, 772.0, 772.0, 773.0, 773.0, 772.0, 772.0, 773.0, 774.0, 776.0, 775.0, 774.0, 774.0, 775.0, 775.0, 776.0, 775.0, 774.0, 774.0, 773.0, 774.0, 774.0, 773.0, 773.0, 774.0, 774.0, 771.0, 771.0, 771.0, 772.0, 773.0, 773.0, 774.0, 774.0, 773.0, 773.0, 773.0, 773.0, 772.0, 771.0, 771.0, 773.0, 775.0, 775.0, 773.0],
      "WindowWidth": [1681.0, 1673.0, 1666.0, 1663.0, 1663.0, 1666.0, 1672.0, 1674.0, 1669.0, 1666.0, 1668.0, 1670.0, 1670.0, 1672.0, 1673.0, 1670.0, 1666.0, 1665.0, 1669.0, 1676.0, 1675.0, 1670.0, 1668.0, 1668.0, 1668.0, 1669.0, 1670.0, 1670.0, 1668.0, 1669.0, 1669.0, 1669.0, 1669.0, 1669.0, 1671.0, 1671.0, 1670.0, 1668.0, 1672.0, 1674.0, 1674.0, 1672.0, 1669.0, 1667.0, 1666.0, 1669.0, 1677.0, 1681.0, 1669.0, 1660.0, 1658.0, 1661.0, 1664.0, 1665.0, 1670.0, 1675.0, 1673.0, 1668.0, 1671.0, 1672.0, 1673.0, 1668.0, 1665.0, 1665.0, 1671.0, 1673.0, 1676.0, 1673.0, 1669.0, 1667.0, 1672.0, 1677.0, 1676.0, 1665.0, 1657.0, 1654.0, 1658.0, 1664.0, 1668.0, 1669.0, 1668.0, 1671.0, 1675.0, 1674.0, 1670.0, 1667.0, 1668.0, 1671.0, 1673.0, 1672.0, 1670.0, 1668.0, 1667.0, 1667.0, 1673.0, 1679.0, 1679.0, 1672.0, 1665.0, 1662.0, 1665.0, 1666.0, 1667.0, 1665.0, 1667.0, 1665.0, 1666.0, 1672.0, 1671.0, 1662.0, 1658.0, 1657.0, 1662.0, 1668.0, 1670.0, 1666.0, 1661.0, 1660.0, 1663.0, 1669.0, 1675.0, 1674.0, 1673.0, 1670.0, 1669.0, 1661.0, 1657.0, 1657.0, 1654.0, 1658.0, 1665.0, 1670.0, 1673.0, 1672.0, 1668.0, 1664.0, 1663.0, 1666.0, 1668.0, 1668.0, 1666.0, 1668.0, 1677.0, 1682.0, 1678.0, 1668.0, 1659.0, 1659.0, 1659.0, 1660.0, 1662.0, 1663.0, 1665.0, 1666.0, 1670.0, 1672.0, 1673.0, 1672.0, 1673.0, 1674.0, 1673.0, 1677.0, 1675.0, 1673.0, 1668.0, 1659.0, 1654.0, 1653.0, 1656.0, 1659.0, 1667.0, 1671.0, 1673.0, 1668.0, 1664.0, 1663.0, 1666.0, 1672.0, 1677.0, 1677.0, 1672.0, 1668.0, 1669.0, 1670.0, 1672.0, 1673.0, 1675.0, 1677.0, 1674.0, 1672.0, 1669.0, 1668.0, 1667.0, 1665.0, 1665.0, 1669.0, 1671.0, 1675.0, 1674.0, 1674.0, 1670.0, 1671.0, 1674.0, 1675.0, 1673.0, 1670.0, 1671.0, 1674.0, 1677.0, 1677.0, 1674.0, 1670.0, 1669.0, 1670.0, 1673.0, 1672.0, 1671.0, 1672.0, 1673.0, 1677.0, 1681.0, 1678.0, 1677.0, 1676.0, 1677.0, 1679.0, 1680.0, 1680.0, 1676.0, 1675.0, 1673.0, 1675.0, 1676.0, 1673.0, 1673.0, 1676.0, 1674.0, 1667.0, 1666.0, 1668.0, 1670.0, 1672.0, 1673.0, 1676.0, 1676.0, 1674.0, 1673.0, 1673.0, 1671.0, 1669.0, 1666.0, 1669.0, 1673.0, 1677.0, 1678.0, 1673.0]
    },
    "slices": {}
  }
}