{
 "AcquisitionMatrixPE": 100,
 "AcquisitionNumber": 1,
 "AcquisitionTime": "09:32:56.820000",
 "BandwidthPerPixelPhaseEncode": 18.519,
 "BaseResolution": 100,
 "BodyPartExamined": "BRAIN",
 "ConsistencyInfo": "N4_VE11C_LATEST_20160120",
 "ConversionSoftware": "dcm2niix",
 "ConversionSoftwareVersion": "v1.0.20180622 GCC4.9.2",
 "DerivedVendorReportedEchoSpacing": 0.000539986,
 "DeviceSerialNumber": "166078",
 "DwellTime": 2.1e-06,
 "EchoTime": 0.034,
 "EchoTrainLength": 100,
 "EffectiveEchoSpacing": 0.000539986,
 "FlipAngle": 90,
 "ImageOrientationPatientDICOM": [
  1,
  0,
  0,
  0,
  0.994881,
  -0.101056
 ],
 "ImageType": [
  "ORIGINAL",
  "PRIMARY",
  "M",
  "ND",
  "MOSAIC"
 ],
 "InPlanePhaseEncodingDirectionDICOM": "COL",
 "InstitutionAddress": "Street_StreetNo_Bei_Jing_District_CN_ZIP",
 "InstitutionName": "BeiJing_Normal_University",
 "InstitutionalDepartmentName": "Department",
 "MRAcquisitionType": "2D",
 "MagneticFieldStrength": 3,
 "Manufacturer": "Siemens",
 "ManufacturersModelName": "Prisma",
 "Modality": "MR",
 "MultibandAccelerationFactor": 3,
 "PartialFourier": 1,
 "PatientPosition": "HFS",
 "PercentPhaseFOV": 100,
 "PhaseEncodingDirection": "j-",
 "PhaseEncodingSteps": 100,
 "PhaseResolution": 1,
 "PixelBandwidth": 2380,
 "ProcedureStepDescription": "BNU_P2018_64CH_Zhen.ZongLei",
 "ProtocolName": "bold_100x100_s3_2x2x2_static_test_241",
 "PulseSequenceDetails": "%SiemensSeq%_ep2d_bold",
 "ReceiveCoilActiveElements": "HC1-7;NC1",
 "ReceiveCoilName": "HeadNeck_64",
 "ReconMatrixPE": 100,
 "RepetitionTime": 2,
 "SAR": 0.065392,
 "ScanOptions": "FS",
 "ScanningSequence": "EP",
 "SequenceName": "_epfid2d1_100",
 "SequenceVariant": "SK",
 "SeriesDescription": "bold_100x100_s3_2x2x2_static_test_241",
 "SeriesNumber": 6,
 "ShimSetting": [
  -5447,
  -11475,
  -1302,
  268,
  37,
  -87,
  -192,
  94
 ],
 "SliceThickness": 2,
 "SliceTiming": [
  1.485,
  0,
  0.99,
  0.0825,
  1.0725,
  0.165,
  1.155,
  0.2475,
  1.2375,
  0.33,
  1.32,
  0.4125,
  1.4025,
  0.5775,
  1.5675,
  0.66,
  1.65,
  0.7425,
  1.7325,
  0.825,
  1.815,
  0.9075,
  1.8975,
  0.495,
  1.485,
  0,
  0.99,
  0.0825,
  1.0725,
  0.165,
  1.155,
  0.2475,
  1.2375,
  0.33,
  1.32,
  0.4125,
  1.4025,
  0.5775,
  1.5675,
  0.66,
  1.65,
  0.7425,
  1.7325,
  0.825,
  1.815,
  0.9075,
  1.8975,
  0.495,
  1.485,
  0,
  0.99,
  0.0825,
  1.0725,
  0.165,
  1.155,
  0.2475,
  1.2375,
  0.33,
  1.32,
  0.4125,
  1.4025,
  0.5775,
  1.5675,
  0.66,
  1.65,
  0.7425,
  1.7325,
  0.825,
  1.815,
  0.9075,
  1.8975,
  0.495
 ],
 "SoftwareVersions": "syngo_MR_E11",
 "SpacingBetweenSlices": 2,
 "StationName": "AWP166078",
 "TaskName": "coco",
 "TotalReadoutTime": 0.0534586,
 "TxRefAmp": 222.721,
 "dcmmeta_affine": [
  [
   -2.0,
   0.0,
   0.0,
   102.69879150390625
  ],
  [
   0.0,
   1.989761471748352,
   -0.2021125853061676,
   -85.5859603881836
  ],
  [
   0.0,
   0.2021125853061676,
   1.989761471748352,
   -80.63643646240234
  ],
  [
   0.0,
   0.0,
   0.0,
   1.0
  ]
 ],
 "dcmmeta_reorient_transform": [
  [
   0.0,
   -1.0,
   0.0,
   99.0
  ],
  [
   1.0,
   0.0,
   0.0,
   0.0
  ],
  [
   0.0,
   0.0,
   1.0,
   0.0
  ],
  [
   0.0,
   0.0,
   0.0,
   1.0
  ]
 ],
 "dcmmeta_shape": [
  100,
  100,
  72,
  241
 ],
 "dcmmeta_slice_dim": 2,
 "dcmmeta_version": 0.6,
 "global": {
  "const": {
   "AcquisitionMatrix": [
    100,
    0,
    0,
    100
   ],
   "AngioFlag": "N",
   "BitsAllocated": 16,
   "BitsStored": 12,
   "BodyPartExamined": "BRAIN",
   "Columns": 900,
   "EchoNumbers": 1,
   "EchoTime": 34.0,
   "EchoTrainLength": 100,
   "FlipAngle": 90.0,
   "HighBit": 11,
   "ImageOrientationPatient": [
    1.0,
    0.0,
    0.0,
    0.0,
    0.99488070921592,
    -0.1010562933717
   ],
   "ImagePositionPatient": [
    -902.69879508018,
    -907.30498513423,
    20.217746248858
   ],
   "ImageType": [
    "ORIGINAL",
    "PRIMARY",
    "M",
    "ND",
    "MOSAIC"
   ],
   "ImagedNucleus": "1H",
   "ImagingFrequency": 123.257769,
   "InPlanePhaseEncodingDirection": "COL",
   "MRAcquisitionType": "2D",
   "MagneticFieldStrength": 3.0,
   "Manufacturer": "SIEMENS",
   "ManufacturerModelName": "Prisma",
   "Modality": "MR",
   "NumberOfAverages": 1.0,
   "NumberOfPhaseEncodingSteps": 100,
   "PercentPhaseFieldOfView": 100.0,
   "PercentSampling": 100.0,
   "PerformedProcedureStepStartTime": "085951.111000",
   "PhotometricInterpretation": "MONOCHROME2",
   "PixelBandwidth": 2380.0,
   "PixelRepresentation": 0,
   "PixelSpacing": [
    2.0,
    2.0
   ],
   "ProtocolName": "bold_100x100_s3_2x2x2_static_test_241",
   "RepetitionTime": 2000.0,
   "Rows": 900,
   "SAR": 0.06539198227493,
   "SamplesPerPixel": 1,
   "ScanOptions": "FS",
   "ScanningSequence": "EP",
   "SequenceName": "*epfid2d1_100",
   "SequenceVariant": "SK",
   "SeriesDescription": "bold_100x100_s3_2x2x2_static_test_241",
   "SeriesNumber": 6,
   "SeriesTime": "093259.052000",
   "SliceLocation": -71.574633028492,
   "SliceThickness": 2.0,
   "SmallestImagePixelValue": 0,
   "SoftwareVersions": "syngo MR E11",
   "SpacingBetweenSlices": 2.0000000427749,
   "SpecificCharacterSet": "ISO_IR 100",
   "StudyID": "1",
   "StudyTime": "085950.984000",
   "TransmitCoilName": "Body",
   "VariableFlipAngleFlag": "N",
   "WindowCenterWidthExplanation": "Algo1",
   "dBdt": 0.0
  },
  "slices": {}
 },
 "time": {
  "samples": {
   "AcquisitionNumber": [
    1,
    2,
    3,
    4,
    5,
    6,
    7,
    8,
    9,
    10,
    11,
    12,
    13,
    14,
    15,
    16,
    17,
    18,
    19,
    20,
    21,
    22,
    23,
    24,
    25,
    26,
    27,
    28,
    29,
    30,
    31,
    32,
    33,
    34,
    35,
    36,
    37,
    38,
    39,
    40,
    41,
    42,
    43,
    44,
    45,
    46,
    47,
    48,
    49,
    50,
    51,
    52,
    53,
    54,
    55,
    56,
    57,
    58,
    59,
    60,
    61,
    62,
    63,
    64,
    65,
    66,
    67,
    68,
    69,
    70,
    71,
    72,
    73,
    74,
    75,
    76,
    77,
    78,
    79,
    80,
    81,
    82,
    83,
    84,
    85,
    86,
    87,
    88,
    89,
    90,
    91,
    92,
    93,
    94,
    95,
    96,
    97,
    98,
    99,
    100,
    101,
    102,
    103,
    104,
    105,
    106,
    107,
    108,
    109,
    110,
    111,
    112,
    113,
    114,
    115,
    116,
    117,
    118,
    119,
    120,
    121,
    122,
    123,
    124,
    125,
    126,
    127,
    128,
    129,
    130,
    131,
    132,
    133,
    134,
    135,
    136,
    137,
    138,
    139,
    140,
    141,
    142,
    143,
    144,
    145,
    146,
    147,
    148,
    149,
    150,
    151,
    152,
    153,
    154,
    155,
    156,
    157,
    158,
    159,
    160,
    161,
    162,
    163,
    164,
    165,
    166,
    167,
    168,
    169,
    170,
    171,
    172,
    173,
    174,
    175,
    176,
    177,
    178,
    179,
    180,
    181,
    182,
    183,
    184,
    185,
    186,
    187,
    188,
    189,
    190,
    191,
    192,
    193,
    194,
    195,
    196,
    197,
    198,
    199,
    200,
    201,
    202,
    203,
    204,
    205,
    206,
    207,
    208,
    209,
    210,
    211,
    212,
    213,
    214,
    215,
    216,
    217,
    218,
    219,
    220,
    221,
    222,
    223,
    224,
    225,
    226,
    227,
    228,
    229,
    230,
    231,
    232,
    233,
    234,
    235,
    236,
    237,
    238,
    239,
    240,
    241
   ],
   "AcquisitionTime": [
    "093256.820000",
    "093258.820000",
    "093300.820000",
    "093302.820000",
    "093304.820000",
    "093306.820000",
    "093308.820000",
    "093310.820000",
    "093312.820000",
    "093314.820000",
    "093316.820000",
    "093318.820000",
    "093320.820000",
    "093322.820000",
    "093324.820000",
    "093326.820000",
    "093328.820000",
    "093330.820000",
    "093332.820000",
    "093334.820000",
    "093336.820000",
    "093338.820000",
    "093340.820000",
    "093342.820000",
    "093344.820000",
    "093346.820000",
    "093348.820000",
    "093350.820000",
    "093352.820000",
    "093354.820000",
    "093356.820000",
    "093358.820000",
    "093400.820000",
    "093402.820000",
    "093404.820000",
    "093406.820000",
    "093408.820000",
    "093410.820000",
    "093412.820000",
    "093414.820000",
    "093416.820000",
    "093418.820000",
    "093420.820000",
    "093422.820000",
    "093424.820000",
    "093426.820000",
    "093428.820000",
    "093430.820000",
    "093432.820000",
    "093434.820000",
    "093436.820000",
    "093438.820000",
    "093440.820000",
    "093442.820000",
    "093444.820000",
    "093446.820000",
    "093448.820000",
    "093450.820000",
    "093452.820000",
    "093454.820000",
    "093456.820000",
    "093458.820000",
    "093500.820000",
    "093502.820000",
    "093504.820000",
    "093506.820000",
    "093508.820000",
    "093510.820000",
    "093512.820000",
    "093514.820000",
    "093516.820000",
    "093518.820000",
    "093520.820000",
    "093522.820000",
    "093524.820000",
    "093526.820000",
    "093528.820000",
    "093530.820000",
    "093532.820000",
    "093534.820000",
    "093536.820000",
    "093538.820000",
    "093540.820000",
    "093542.820000",
    "093544.820000",
    "093546.820000",
    "093548.820000",
    "093550.820000",
    "093552.820000",
    "093554.820000",
    "093556.820000",
    "093558.820000",
    "093600.820000",
    "093602.820000",
    "093604.820000",
    "093606.820000",
    "093608.820000",
    "093610.820000",
    "093612.820000",
    "093614.820000",
    "093616.820000",
    "093618.820000",
    "093620.820000",
    "093622.820000",
    "093624.820000",
    "093626.820000",
    "093628.820000",
    "093630.820000",
    "093632.820000",
    "093634.820000",
    "093636.820000",
    "093638.820000",
    "093640.820000",
    "093642.820000",
    "093644.820000",
    "093646.820000",
    "093648.820000",
    "093650.820000",
    "093652.820000",
    "093654.820000",
    "093656.820000",
    "093658.820000",
    "093700.820000",
    "093702.820000",
    "093704.820000",
    "093706.820000",
    "093708.820000",
    "093710.820000",
    "093712.820000",
    "093714.820000",
    "093716.820000",
    "093718.820000",
    "093720.820000",
    "093722.820000",
    "093724.820000",
    "093726.820000",
    "093728.820000",
    "093730.820000",
    "093732.820000",
    "093734.820000",
    "093736.820000",
    "093738.820000",
    "093740.820000",
    "093742.820000",
    "093744.820000",
    "093746.820000",
    "093748.820000",
    "093750.820000",
    "093752.820000",
    "093754.820000",
    "093756.820000",
    "093758.820000",
    "093800.820000",
    "093802.820000",
    "093804.820000",
    "093806.820000",
    "093808.820000",
    "093810.820000",
    "093812.820000",
    "093814.820000",
    "093816.820000",
    "093818.820000",
    "093820.820000",
    "093822.820000",
    "093824.820000",
    "093826.820000",
    "093828.820000",
    "093830.820000",
    "093832.820000",
    "093834.820000",
    "093836.820000",
    "093838.820000",
    "093840.820000",
    "093842.820000",
    "093844.820000",
    "093846.820000",
    "093848.820000",
    "093850.820000",
    "093852.820000",
    "093854.820000",
    "093856.820000",
    "093858.820000",
    "093900.820000",
    "093902.820000",
    "093904.820000",
    "093906.820000",
    "093908.820000",
    "093910.820000",
    "093912.820000",
    "093914.820000",
    "093916.820000",
    "093918.820000",
    "093920.820000",
    "093922.820000",
    "093924.820000",
    "093926.820000",
    "093928.820000",
    "093930.820000",
    "093932.820000",
    "093934.820000",
    "093936.820000",
    "093938.820000",
    "093940.820000",
    "093942.820000",
    "093944.820000",
    "093946.820000",
    "093948.820000",
    "093950.820000",
    "093952.820000",
    "093954.820000",
    "093956.820000",
    "093958.820000",
    "094000.820000",
    "094002.820000",
    "094004.820000",
    "094006.820000",
    "094008.820000",
    "094010.820000",
    "094012.820000",
    "094014.820000",
    "094016.820000",
    "094018.820000",
    "094020.820000",
    "094022.820000",
    "094024.820000",
    "094026.820000",
    "094028.820000",
    "094030.820000",
    "094032.820000",
    "094034.820000",
    "094036.820000",
    "094038.820000",
    "094040.820000",
    "094042.820000",
    "094044.820000",
    "094046.820000",
    "094048.820000",
    "094050.820000",
    "094052.820000",
    "094054.820000",
    "094056.820000"
   ],
   "ContentTime": [
    "093259.055000",
    "093300.550000",
    "093302.550000",
    "093304.550000",
    "093306.549000",
    "093308.550000",
    "093310.551000",
    "093312.550000",
    "093314.551000",
    "093316.550000",
    "093318.551000",
    "093320.550000",
    "093322.549000",
    "093324.551000",
    "093326.551000",
    "093328.550000",
    "093330.550000",
    "093332.550000",
    "093334.551000",
    "093336.550000",
    "093338.551000",
    "093340.550000",
    "093342.550000",
    "093344.550000",
    "093346.551000",
    "093348.550000",
    "093350.551000",
    "093352.550000",
    "093354.550000",
    "093356.549000",
    "093358.550000",
    "093400.551000",
    "093402.550000",
    "093404.551000",
    "093406.555000",
    "093408.550000",
    "093410.551000",
    "093412.550000",
    "093414.550000",
    "093416.550000",
    "093418.551000",
    "093420.550000",
    "093422.551000",
    "093424.550000",
    "093426.550000",
    "093428.551000",
    "093430.550000",
    "093432.550000",
    "093434.551000",
    "093436.550000",
    "093438.551000",
    "093440.551000",
    "093442.551000",
    "093444.551000",
    "093446.551000",
    "093448.551000",
    "093450.549000",
    "093452.550000",
    "093454.550000",
    "093456.550000",
    "093458.550000",
    "093500.550000",
    "093502.550000",
    "093504.550000",
    "093506.549000",
    "093508.550000",
    "093510.550000",
    "093512.550000",
    "093514.550000",
    "093516.550000",
    "093518.551000",
    "093520.551000",
    "093522.551000",
    "093524.549000",
    "093526.550000",
    "093528.551000",
    "093530.551000",
    "093532.550000",
    "093534.551000",
    "093536.551000",
    "093538.551000",
    "093540.550000",
    "093542.549000",
    "093544.550000",
    "093546.551000",
    "093548.551000",
    "093550.550000",
    "093552.551000",
    "093554.550000",
    "093556.550000",
    "093558.551000",
    "093600.550000",
    "093602.551000",
    "093604.551000",
    "093606.551000",
    "093608.551000",
    "093610.550000",
    "093612.550000",
    "093614.550000",
    "093616.549000",
    "093618.549000",
    "093620.550000",
    "093622.550000",
    "093624.550000",
    "093626.550000",
    "093628.550000",
    "093630.550000",
    "093632.551000",
    "093634.550000",
    "093636.550000",
    "093638.550000",
    "093640.550000",
    "093642.550000",
    "093644.550000",
    "093646.550000",
    "093648.551000",
    "093650.550000",
    "093652.549000",
    "093654.550000",
    "093656.550000",
    "093658.550000",
    "093700.550000",
    "093702.550000",
    "093704.551000",
    "093706.551000",
    "093708.551000",
    "093710.550000",
    "093712.550000",
    "093714.550000",
    "093716.551000",
    "093718.550000",
    "093720.550000",
    "093722.550000",
    "093724.551000",
    "093726.549000",
    "093728.549000",
    "093730.551000",
    "093732.550000",
    "093734.550000",
    "093736.550000",
    "093739.051000",
    "093740.550000",
    "093742.550000",
    "093744.549000",
    "093746.550000",
    "093748.551000",
    "093750.551000",
    "093752.550000",
    "093754.550000",
    "093756.550000",
    "093758.551000",
    "093800.551000",
    "093802.549000",
    "093804.550000",
    "093806.550000",
    "093808.551000",
    "093810.551000",
    "093812.550000",
    "093814.551000",
    "093816.551000",
    "093818.551000",
    "093820.549000",
    "093822.551000",
    "093824.550000",
    "093826.550000",
    "093828.550000",
    "093830.551000",
    "093832.551000",
    "093834.550000",
    "093836.550000",
    "093838.550000",
    "093840.551000",
    "093842.551000",
    "093844.551000",
    "093846.551000",
    "093848.550000",
    "093850.551000",
    "093852.550000",
    "093854.550000",
    "093856.551000",
    "093858.550000",
    "093900.550000",
    "093902.551000",
    "093904.551000",
    "093906.550000",
    "093908.551000",
    "093910.550000",
    "093912.550000",
    "093914.550000",
    "093916.550000",
    "093918.550000",
    "093920.550000",
    "093922.550000",
    "093924.551000",
    "093926.551000",
    "093928.551000",
    "093930.549000",
    "093932.550000",
    "093934.551000",
    "093936.550000",
    "093938.551000",
    "093940.550000",
    "093942.551000",
    "093944.551000",
    "093946.549000",
    "093948.550000",
    "093950.551000",
    "093952.550000",
    "093954.551000",
    "093956.551000",
    "093958.551000",
    "094000.551000",
    "094002.551000",
    "094004.549000",
    "094006.551000",
    "094008.550000",
    "094010.551000",
    "094012.551000",
    "094014.551000",
    "094016.551000",
    "094018.551000",
    "094020.551000",
    "094022.550000",
    "094024.551000",
    "094026.551000",
    "094028.551000",
    "094030.551000",
    "094032.550000",
    "094034.550000",
    "094036.550000",
    "094038.550000",
    "094040.550000",
    "094042.551000",
    "094044.550000",
    "094046.551000",
    "094048.551000",
    "094050.551000",
    "094052.550000",
    "094054.551000",
    "094056.550000",
    "094058.421000"
   ],
   "InstanceCreationTime": [
    "093259.055000",
    "093300.550000",
    "093302.550000",
    "093304.550000",
    "093306.549000",
    "093308.550000",
    "093310.551000",
    "093312.550000",
    "093314.551000",
    "093316.550000",
    "093318.551000",
    "093320.550000",
    "093322.549000",
    "093324.551000",
    "093326.551000",
    "093328.550000",
    "093330.550000",
    "093332.550000",
    "093334.551000",
    "093336.550000",
    "093338.551000",
    "093340.550000",
    "093342.550000",
    "093344.550000",
    "093346.551000",
    "093348.550000",
    "093350.551000",
    "093352.550000",
    "093354.550000",
    "093356.549000",
    "093358.550000",
    "093400.551000",
    "093402.550000",
    "093404.551000",
    "093406.555000",
    "093408.550000",
    "093410.551000",
    "093412.550000",
    "093414.550000",
    "093416.550000",
    "093418.551000",
    "093420.550000",
    "093422.551000",
    "093424.550000",
    "093426.550000",
    "093428.551000",
    "093430.550000",
    "093432.550000",
    "093434.551000",
    "093436.550000",
    "093438.551000",
    "093440.551000",
    "093442.551000",
    "093444.551000",
    "093446.551000",
    "093448.551000",
    "093450.549000",
    "093452.550000",
    "093454.550000",
    "093456.550000",
    "093458.550000",
    "093500.550000",
    "093502.550000",
    "093504.550000",
    "093506.549000",
    "093508.550000",
    "093510.550000",
    "093512.550000",
    "093514.550000",
    "093516.550000",
    "093518.551000",
    "093520.551000",
    "093522.551000",
    "093524.549000",
    "093526.550000",
    "093528.551000",
    "093530.551000",
    "093532.550000",
    "093534.551000",
    "093536.551000",
    "093538.551000",
    "093540.550000",
    "093542.549000",
    "093544.550000",
    "093546.551000",
    "093548.551000",
    "093550.550000",
    "093552.551000",
    "093554.550000",
    "093556.550000",
    "093558.551000",
    "093600.550000",
    "093602.551000",
    "093604.551000",
    "093606.551000",
    "093608.551000",
    "093610.550000",
    "093612.550000",
    "093614.550000",
    "093616.549000",
    "093618.549000",
    "093620.550000",
    "093622.550000",
    "093624.550000",
    "093626.550000",
    "093628.550000",
    "093630.550000",
    "093632.551000",
    "093634.550000",
    "093636.550000",
    "093638.550000",
    "093640.550000",
    "093642.550000",
    "093644.550000",
    "093646.550000",
    "093648.551000",
    "093650.550000",
    "093652.549000",
    "093654.550000",
    "093656.550000",
    "093658.550000",
    "093700.550000",
    "093702.550000",
    "093704.551000",
    "093706.551000",
    "093708.551000",
    "093710.550000",
    "093712.550000",
    "093714.550000",
    "093716.551000",
    "093718.550000",
    "093720.550000",
    "093722.550000",
    "093724.551000",
    "093726.549000",
    "093728.549000",
    "093730.551000",
    "093732.550000",
    "093734.550000",
    "093736.550000",
    "093739.051000",
    "093740.550000",
    "093742.550000",
    "093744.549000",
    "093746.550000",
    "093748.551000",
    "093750.551000",
    "093752.550000",
    "093754.550000",
    "093756.550000",
    "093758.551000",
    "093800.551000",
    "093802.549000",
    "093804.550000",
    "093806.550000",
    "093808.551000",
    "093810.551000",
    "093812.550000",
    "093814.551000",
    "093816.551000",
    "093818.551000",
    "093820.549000",
    "093822.551000",
    "093824.550000",
    "093826.550000",
    "093828.550000",
    "093830.551000",
    "093832.551000",
    "093834.550000",
    "093836.550000",
    "093838.550000",
    "093840.551000",
    "093842.551000",
    "093844.551000",
    "093846.551000",
    "093848.550000",
    "093850.551000",
    "093852.550000",
    "093854.550000",
    "093856.551000",
    "093858.550000",
    "093900.550000",
    "093902.551000",
    "093904.551000",
    "093906.550000",
    "093908.551000",
    "093910.550000",
    "093912.550000",
    "093914.550000",
    "093916.550000",
    "093918.550000",
    "093920.550000",
    "093922.550000",
    "093924.551000",
    "093926.551000",
    "093928.551000",
    "093930.549000",
    "093932.550000",
    "093934.551000",
    "093936.550000",
    "093938.551000",
    "093940.550000",
    "093942.551000",
    "093944.551000",
    "093946.549000",
    "093948.550000",
    "093950.551000",
    "093952.550000",
    "093954.551000",
    "093956.551000",
    "093958.551000",
    "094000.551000",
    "094002.551000",
    "094004.549000",
    "094006.551000",
    "094008.550000",
    "094010.551000",
    "094012.551000",
    "094014.551000",
    "094016.551000",
    "094018.551000",
    "094020.551000",
    "094022.550000",
    "094024.551000",
    "094026.551000",
    "094028.551000",
    "094030.551000",
    "094032.550000",
    "094034.550000",
    "094036.550000",
    "094038.550000",
    "094040.550000",
    "094042.551000",
    "094044.550000",
    "094046.551000",
    "094048.551000",
    "094050.551000",
    "094052.550000",
    "094054.551000",
    "094056.550000",
    "094058.421000"
   ],
   "InstanceNumber": [
    1,
    2,
    3,
    4,
    5,
    6,
    7,
    8,
    9,
    10,
    11,
    12,
    13,
    14,
    15,
    16,
    17,
    18,
    19,
    20,
    21,
    22,
    23,
    24,
    25,
    26,
    27,
    28,
    29,
    30,
    31,
    32,
    33,
    34,
    35,
    36,
    37,
    38,
    39,
    40,
    41,
    42,
    43,
    44,
    45,
    46,
    47,
    48,
    49,
    50,
    51,
    52,
    53,
    54,
    55,
    56,
    57,
    58,
    59,
    60,
    61,
    62,
    63,
    64,
    65,
    66,
    67,
    68,
    69,
    70,
    71,
    72,
    73,
    74,
    75,
    76,
    77,
    78,
    79,
    80,
    81,
    82,
    83,
    84,
    85,
    86,
    87,
    88,
    89,
    90,
    91,
    92,
    93,
    94,
    95,
    96,
    97,
    98,
    99,
    100,
    101,
    102,
    103,
    104,
    105,
    106,
    107,
    108,
    109,
    110,
    111,
    112,
    113,
    114,
    115,
    116,
    117,
    118,
    119,
    120,
    121,
    122,
    123,
    124,
    125,
    126,
    127,
    128,
    129,
    130,
    131,
    132,
    133,
    134,
    135,
    136,
    137,
    138,
    139,
    140,
    141,
    142,
    143,
    144,
    145,
    146,
    147,
    148,
    149,
    150,
    151,
    152,
    153,
    154,
    155,
    156,
    157,
    158,
    159,
    160,
    161,
    162,
    163,
    164,
    165,
    166,
    167,
    168,
    169,
    170,
    171,
    172,
    173,
    174,
    175,
    176,
    177,
    178,
    179,
    180,
    181,
    182,
    183,
    184,
    185,
    186,
    187,
    188,
    189,
    190,
    191,
    192,
    193,
    194,
    195,
    196,
    197,
    198,
    199,
    200,
    201,
    202,
    203,
    204,
    205,
    206,
    207,
    208,
    209,
    210,
    211,
    212,
    213,
    214,
    215,
    216,
    217,
    218,
    219,
    220,
    221,
    222,
    223,
    224,
    225,
    226,
    227,
    228,
    229,
    230,
    231,
    232,
    233,
    234,
    235,
    236,
    237,
    238,
    239,
    240,
    241
   ],
   "LargestImagePixelValue": [
    3188,
    3087,
    3062,
    3056,
    3001,
    3074,
    3046,
    3035,
    3012,
    3099,
    3030,
    3076,
    3052,
    3065,
    2989,
    3058,
    2995,
    3055,
    2990,
    3066,
    3006,
    3048,
    3021,
    3011,
    2982,
    3041,
    3018,
    3119,
    3040,
    3029,
    3061,
    3038,
    3034,
    3057,
    3000,
    2996,
    2971,
    3075,
    2965,
    3079,
    2958,
    3056,
    3005,
    3068,
    3003,
    2978,
    3003,
    3011,
    2996,
    2976,
    2984,
    2983,
    2995,
    2971,
    3014,
    3009,
    3019,
    3026,
    3033,
    3057,
    3007,
    3008,
    3012,
    2999,
    3031,
    3001,
    3020,
    3011,
    3044,
    2934,
    3096,
    2962,
    3161,
    2983,
    3151,
    3000,
    3188,
    3009,
    3024,
    3026,
    3079,
    3012,
    3171,
    3023,
    3183,
    3026,
    3161,
    2971,
    3106,
    3006,
    3072,
    3018,
    3019,
    3088,
    3020,
    3109,
    3029,
    3154,
    3147,
    3006,
    3150,
    2980,
    3151,
    3012,
    3168,
    2989,
    3157,
    3023,
    3174,
    3003,
    3188,
    2990,
    3203,
    3036,
    3125,
    3083,
    3141,
    3158,
    3027,
    3191,
    3023,
    3177,
    3016,
    3167,
    3040,
    3146,
    3038,
    3179,
    2992,
    3210,
    3006,
    3221,
    3112,
    3079,
    3033,
    3056,
    2948,
    3188,
    3000,
    3197,
    3033,
    3207,
    3045,
    3201,
    3181,
    3044,
    3192,
    3043,
    3220,
    3031,
    3260,
    3044,
    3205,
    3020,
    3240,
    3040,
    3223,
    3030,
    3188,
    3054,
    3179,
    3069,
    3217,
    3076,
    3191,
    3094,
    3239,
    3085,
    3247,
    3108,
    3101,
    3101,
    3132,
    3161,
    3069,
    3193,
    3068,
    3150,
    3084,
    3157,
    3117,
    3162,
    3035,
    3100,
    3066,
    3113,
    3138,
    3101,
    3160,
    3123,
    3159,
    3145,
    3117,
    3151,
    3142,
    3146,
    3123,
    3196,
    3149,
    3242,
    3177,
    3278,
    3166,
    3236,
    3172,
    3243,
    3158,
    3262,
    3223,
    3162,
    3210,
    3136,
    3138,
    3193,
    3186,
    3197,
    3178,
    3173,
    3201,
    3194,
    3134,
    3238,
    3136,
    3229,
    3157,
    3244,
    3145,
    3248,
    3188,
    3205,
    3195,
    3186,
    3282,
    3206,
    3209,
    3185,
    3273,
    3195,
    3270,
    3218,
    3255
   ],
   "WindowCenter": [
    801.0,
    799.0,
    798.0,
    798.0,
    798.0,
    800.0,
    800.0,
    801.0,
    801.0,
    803.0,
    803.0,
    803.0,
    801.0,
    799.0,
    798.0,
    799.0,
    798.0,
    800.0,
    800.0,
    801.0,
    800.0,
    800.0,
    799.0,
    799.0,
    799.0,
    801.0,
    802.0,
    801.0,
    800.0,
    799.0,
    799.0,
    797.0,
    796.0,
    798.0,
    798.0,
    797.0,
    796.0,
    796.0,
    796.0,
    799.0,
    800.0,
    800.0,
    799.0,
    799.0,
    799.0,
    799.0,
    799.0,
    798.0,
    797.0,
    797.0,
    797.0,
    797.0,
    797.0,
    797.0,
    798.0,
    797.0,
    797.0,
    799.0,
    800.0,
    799.0,
    798.0,
    799.0,
    800.0,
    800.0,
    799.0,
    797.0,
    797.0,
    798.0,
    798.0,
    798.0,
    799.0,
    797.0,
    798.0,
    797.0,
    798.0,
    798.0,
    800.0,
    798.0,
    799.0,
    800.0,
    800.0,
    800.0,
    801.0,
    800.0,
    801.0,
    800.0,
    800.0,
    798.0,
    798.0,
    797.0,
    797.0,
    797.0,
    796.0,
    797.0,
    797.0,
    799.0,
    798.0,
    799.0,
    798.0,
    799.0,
    801.0,
    801.0,
    801.0,
    799.0,
    799.0,
    798.0,
    801.0,
    802.0,
    803.0,
    799.0,
    798.0,
    796.0,
    799.0,
    799.0,
    800.0,
    799.0,
    800.0,
    798.0,
    798.0,
    799.0,
    798.0,
    798.0,
    796.0,
    797.0,
    796.0,
    797.0,
    797.0,
    800.0,
    800.0,
    802.0,
    799.0,
    799.0,
    800.0,
    802.0,
    801.0,
    800.0,
    797.0,
    798.0,
    797.0,
    798.0,
    797.0,
    798.0,
    797.0,
    800.0,
    800.0,
    800.0,
    802.0,
    800.0,
    800.0,
    799.0,
    801.0,
    800.0,
    800.0,
    798.0,
    799.0,
    800.0,
    802.0,
    801.0,
    801.0,
    798.0,
    798.0,
    796.0,
    797.0,
    797.0,
    800.0,
    801.0,
    801.0,
    798.0,
    797.0,
    796.0,
    797.0,
    799.0,
    799.0,
    798.0,
    797.0,
    798.0,
    799.0,
    799.0,
    798.0,
    798.0,
    799.0,
    799.0,
    799.0,
    800.0,
    799.0,
    800.0,
    799.0,
    799.0,
    799.0,
    799.0,
    800.0,
    799.0,
    799.0,
    799.0,
    799.0,
    800.0,
    801.0,
    801.0,
    801.0,
    801.0,
    801.0,
    802.0,
    802.0,
    802.0,
    800.0,
    799.0,
    798.0,
    799.0,
    799.0,
    801.0,
    803.0,
    801.0,
    798.0,
    797.0,
    797.0,
    798.0,
    799.0,
    799.0,
    798.0,
    797.0,
    796.0,
    797.0,
    797.0,
    796.0,
    797.0,
    797.0,
    797.0,
    798.0,
    798.0,
    799.0,
    800.0,
    801.0,
    801.0,
    801.0,
    800.0,
    800.0,
    801.0,
    800.0,
    800.0,
    799.0,
    799.0
   ],
   "WindowWidth": [
    1713.0,
    1707.0,
    1705.0,
    1704.0,
