{
 "AcquisitionMatrixPE": 100,
 "AcquisitionNumber": 1,
 "AcquisitionTime": "16:28:13.020000",
 "BandwidthPerPixelPhaseEncode": 18.519,
 "BaseResolution": 100,
 "BodyPartExamined": "BRAIN",
 "ConsistencyInfo": "N4_VE11C_LATEST_20160120",
 "ConversionSoftware": "dcm2niix",
 "ConversionSoftwareVersion": "v1.0.20180622 GCC4.9.2",
 "DerivedVendorReportedEchoSpacing": 0.000539986,
 "DeviceSerialNumber": "166078",
 "DwellTime": 2.1e-06,
 "EchoTime": 0.034,
 "EchoTrainLength": 100,
 "EffectiveEchoSpacing": 0.000539986,
 "FlipAngle": 90,
 "ImageOrientationPatientDICOM": [
  1,
  0,
  0,
  0,
  0.977416,
  -0.211325
 ],
 "ImageType": [
  "ORIGINAL",
  "PRIMARY",
  "M",
  "ND",
  "MOSAIC"
 ],
 "InPlanePhaseEncodingDirectionDICOM": "COL",
 "InstitutionAddress": "Street_StreetNo_Bei_Jing_District_CN_ZIP",
 "InstitutionName": "BeiJing_Normal_University",
 "InstitutionalDepartmentName": "Department",
 "MRAcquisitionType": "2D",
 "MagneticFieldStrength": 3,
 "Manufacturer": "Siemens",
 "ManufacturersModelName": "Prisma",
 "Modality": "MR",
 "MultibandAccelerationFactor": 3,
 "PartialFourier": 1,
 "PatientPosition": "HFS",
 "PercentPhaseFOV": 100,
 "PhaseEncodingDirection": "j-",
 "PhaseEncodingSteps": 100,
 "PhaseResolution": 1,
 "PixelBandwidth": 2380,
 "ProcedureStepDescription": "BNU_P2018_64CH_Zhen.ZongLei",
 "ProtocolName": "bold_100x100_s3_2x2x2_static_256",
 "PulseSequenceDetails": "%SiemensSeq%_ep2d_bold",
 "ReceiveCoilActiveElements": "HC1-7;NC1",
 "ReceiveCoilName": "HeadNeck_64",
 "ReconMatrixPE": 100,
 "RepetitionTime": 2,
 "SAR": 0.0682582,
 "ScanOptions": "FS",
 "ScanningSequence": "EP",
 "SequenceName": "_epfid2d1_100",
 "SequenceVariant": "SK",
 "SeriesDescription": "bold_100x100_s3_2x2x2_static_256",
 "SeriesNumber": 13,
 "ShimSetting": [
  -5412,
  -11519,
  -1322,
  422,
  35,
  -288,
  -292,
  -21
 ],
 "SliceThickness": 2,
 "SliceTiming": [
  1.485,
  0,
  0.99,
  0.0825,
  1.0725,
  0.165,
  1.155,
  0.2475,
  1.2375,
  0.33,
  1.32,
  0.4125,
  1.4025,
  0.5775,
  1.5675,
  0.66,
  1.65,
  0.7425,
  1.7325,
  0.825,
  1.815,
  0.9075,
  1.8975,
  0.495,
  1.485,
  0,
  0.99,
  0.0825,
  1.0725,
  0.165,
  1.155,
  0.2475,
  1.2375,
  0.33,
  1.32,
  0.4125,
  1.4025,
  0.5775,
  1.5675,
  0.66,
  1.65,
  0.7425,
  1.7325,
  0.825,
  1.815,
  0.9075,
  1.8975,
  0.495,
  1.485,
  0,
  0.99,
  0.0825,
  1.0725,
  0.165,
  1.155,
  0.2475,
  1.2375,
  0.33,
  1.32,
  0.4125,
  1.4025,
  0.5775,
  1.5675,
  0.66,
  1.65,
  0.7425,
  1.7325,
  0.825,
  1.815,
  0.9075,
  1.8975,
  0.495
 ],
 "SoftwareVersions": "syngo_MR_E11",
 "SpacingBetweenSlices": 2,
 "StationName": "AWP166078",
 "TaskName": "imagenet",
 "TotalReadoutTime": 0.0534586,
 "TxRefAmp": 216.68,
 "dcmmeta_affine": [
  [
   -2.0,
   0.0,
   0.0,
   100.67796325683594
  ],
  [
   0.0,
   1.954831838607788,
   -0.4226495921611786,
   -73.9981918334961
  ],
  [
   0.0,
   0.4226495623588562,
   1.954831838607788,
   -85.14752197265625
  ],
  [
   0.0,
   0.0,
   0.0,
   1.0
  ]
 ],
 "dcmmeta_reorient_transform": [
  [
   0.0,
   -1.0,
   0.0,
   99.0
  ],
  [
   1.0,
   0.0,
   0.0,
   0.0
  ],
  [
   0.0,
   0.0,
   1.0,
   0.0
  ],
  [
   0.0,
   0.0,
   0.0,
   1.0
  ]
 ],
 "dcmmeta_shape": [
  100,
  100,
  72,
  256
 ],
 "dcmmeta_slice_dim": 2,
 "dcmmeta_version": 0.6,
 "global": {
  "const": {
   "AcquisitionMatrix": [
    100,
    0,
    0,
    100
   ],
   "AngioFlag": "N",
   "BitsAllocated": 16,
   "BitsStored": 12,
   "BodyPartExamined": "BRAIN",
   "Columns": 900,
   "EchoNumbers": 1,
   "EchoTime": 34.0,
   "EchoTrainLength": 100,
   "FlipAngle": 90.0,
   "HighBit": 11,
   "ImageOrientationPatient": [
    1.0,
    0.0,
    0.0,
    0.0,
    0.97741589648343,
    -0.2113247862923
   ],
   "ImagePositionPatient": [
    -900.67796611786,
    -901.46287151709,
    125.75461692821
   ],
   "ImageType": [
    "ORIGINAL",
    "PRIMARY",
    "M",
    "ND",
    "MOSAIC"
   ],
   "ImagedNucleus": "1H",
   "ImagingFrequency": 123.257811,
   "InPlanePhaseEncodingDirection": "COL",
   "MRAcquisitionType": "2D",
   "MagneticFieldStrength": 3.0,
   "Manufacturer": "SIEMENS",
   "ManufacturerModelName": "Prisma",
   "Modality": "MR",
   "NumberOfAverages": 1.0,
   "NumberOfPhaseEncodingSteps": 100,
   "PercentPhaseFieldOfView": 100.0,
   "PercentSampling": 100.0,
   "PerformedProcedureStepStartTime": "145722.228000",
   "PhotometricInterpretation": "MONOCHROME2",
   "PixelBandwidth": 2380.0,
   "PixelRepresentation": 0,
   "PixelSpacing": [
    2.0,
    2.0
   ],
   "ProtocolName": "bold_100x100_s3_2x2x2_static_256",
   "RepetitionTime": 2000.0,
   "Rows": 900,
   "SAR": 0.06825822162355,
   "SamplesPerPixel": 1,
   "ScanOptions": "FS",
   "ScanningSequence": "EP",
   "SequenceName": "*epfid2d1_100",
   "SequenceVariant": "SK",
   "SeriesDescription": "bold_100x100_s3_2x2x2_static_256",
   "SeriesNumber": 13,
   "SeriesTime": "162816.134000",
   "SliceLocation": -67.58688703198,
   "SliceThickness": 2.0,
   "SmallestImagePixelValue": 0,
   "SoftwareVersions": "syngo MR E11",
   "SpacingBetweenSlices": 2.0000000467956,
   "SpecificCharacterSet": "ISO_IR 100",
   "StudyID": "1",
   "StudyTime": "145722.150000",
   "TransmitCoilName": "Body",
   "VariableFlipAngleFlag": "N",
   "WindowCenterWidthExplanation": "Algo1",
   "dBdt": 0.0
  },
  "slices": {}
 },
 "time": {
  "samples": {
   "AcquisitionNumber": [
    1,
    2,
    3,
    4,
    5,
    6,
    7,
    8,
    9,
    10,
    11,
    12,
    13,
    14,
    15,
    16,
    17,
    18,
    19,
    20,
    21,
    22,
    23,
    24,
    25,
    26,
    27,
    28,
    29,
    30,
    31,
    32,
    33,
    34,
    35,
    36,
    37,
    38,
    39,
    40,
    41,
    42,
    43,
    44,
    45,
    46,
    47,
    48,
    49,
    50,
    51,
    52,
    53,
    54,
    55,
    56,
    57,
    58,
    59,
    60,
    61,
    62,
    63,
    64,
    65,
    66,
    67,
    68,
    69,
    70,
    71,
    72,
    73,
    74,
    75,
    76,
    77,
    78,
    79,
    80,
    81,
    82,
    83,
    84,
    85,
    86,
    87,
    88,
    89,
    90,
    91,
    92,
    93,
    94,
    95,
    96,
    97,
    98,
    99,
    100,
    101,
    102,
    103,
    104,
    105,
    106,
    107,
    108,
    109,
    110,
    111,
    112,
    113,
    114,
    115,
    116,
    117,
    118,
    119,
    120,
    121,
    122,
    123,
    124,
    125,
    126,
    127,
    128,
    129,
    130,
    131,
    132,
    133,
    134,
    135,
    136,
    137,
    138,
    139,
    140,
    141,
    142,
    143,
    144,
    145,
    146,
    147,
    148,
    149,
    150,
    151,
    152,
    153,
    154,
    155,
    156,
    157,
    158,
    159,
    160,
    161,
    162,
    163,
    164,
    165,
    166,
    167,
    168,
    169,
    170,
    171,
    172,
    173,
    174,
    175,
    176,
    177,
    178,
    179,
    180,
    181,
    182,
    183,
    184,
    185,
    186,
    187,
    188,
    189,
    190,
    191,
    192,
    193,
    194,
    195,
    196,
    197,
    198,
    199,
    200,
    201,
    202,
    203,
    204,
    205,
    206,
    207,
    208,
    209,
    210,
    211,
    212,
    213,
    214,
    215,
    216,
    217,
    218,
    219,
    220,
    221,
    222,
    223,
    224,
    225,
    226,
    227,
    228,
    229,
    230,
    231,
    232,
    233,
    234,
    235,
    236,
    237,
    238,
    239,
    240,
    241,
    242,
    243,
    244,
    245,
    246,
    247,
    248,
    249,
    250,
    251,
    252,
    253,
    254,
    255,
    256
   ],
   "AcquisitionTime": [
    "162813.020000",
    "162815.020000",
    "162817.020000",
    "162819.020000",
    "162821.020000",
    "162823.020000",
    "162825.020000",
    "162827.020000",
    "162829.020000",
    "162831.020000",
    "162833.020000",
    "162835.020000",
    "162837.020000",
    "162839.020000",
    "162841.020000",
    "162843.020000",
    "162845.020000",
    "162847.020000",
    "162849.020000",
    "162851.020000",
    "162853.020000",
    "162855.020000",
    "162857.020000",
    "162859.020000",
    "162901.020000",
    "162903.020000",
    "162905.020000",
    "162907.020000",
    "162909.020000",
    "162911.020000",
    "162913.020000",
    "162915.020000",
    "162917.020000",
    "162919.020000",
    "162921.020000",
    "162923.020000",
    "162925.020000",
    "162927.020000",
    "162929.020000",
    "162931.020000",
    "162933.020000",
    "162935.020000",
    "162937.020000",
    "162939.020000",
    "162941.020000",
    "162943.020000",
    "162945.020000",
    "162947.020000",
    "162949.020000",
    "162951.020000",
    "162953.020000",
    "162955.020000",
    "162957.020000",
    "162959.020000",
    "163001.020000",
    "163003.020000",
    "163005.020000",
    "163007.020000",
    "163009.020000",
    "163011.020000",
    "163013.020000",
    "163015.020000",
    "163017.020000",
    "163019.020000",
    "163021.020000",
    "163023.020000",
    "163025.020000",
    "163027.020000",
    "163029.020000",
    "163031.020000",
    "163033.020000",
    "163035.020000",
    "163037.020000",
    "163039.020000",
    "163041.020000",
    "163043.020000",
    "163045.020000",
    "163047.020000",
    "163049.020000",
    "163051.020000",
    "163053.020000",
    "163055.020000",
    "163057.020000",
    "163059.020000",
    "163101.020000",
    "163103.020000",
    "163105.020000",
    "163107.020000",
    "163109.020000",
    "163111.020000",
    "163113.020000",
    "163115.020000",
    "163117.020000",
    "163119.020000",
    "163121.020000",
    "163123.020000",
    "163125.020000",
    "163127.020000",
    "163129.020000",
    "163131.020000",
    "163133.020000",
    "163135.020000",
    "163137.020000",
    "163139.020000",
    "163141.020000",
    "163143.020000",
    "163145.020000",
    "163147.020000",
    "163149.020000",
    "163151.020000",
    "163153.020000",
    "163155.020000",
    "163157.020000",
    "163159.020000",
    "163201.020000",
    "163203.020000",
    "163205.020000",
    "163207.020000",
    "163209.020000",
    "163211.020000",
    "163213.020000",
    "163215.020000",
    "163217.020000",
    "163219.020000",
    "163221.020000",
    "163223.020000",
    "163225.020000",
    "163227.020000",
    "163229.020000",
    "163231.020000",
    "163233.020000",
    "163235.020000",
    "163237.020000",
    "163239.020000",
    "163241.020000",
    "163243.020000",
    "163245.020000",
    "163247.020000",
    "163249.020000",
    "163251.020000",
    "163253.020000",
    "163255.020000",
    "163257.020000",
    "163259.020000",
    "163301.020000",
    "163303.020000",
    "163305.020000",
    "163307.020000",
    "163309.020000",
    "163311.020000",
    "163313.020000",
    "163315.020000",
    "163317.020000",
    "163319.020000",
    "163321.020000",
    "163323.020000",
    "163325.020000",
    "163327.020000",
    "163329.020000",
    "163331.020000",
    "163333.020000",
    "163335.020000",
    "163337.020000",
    "163339.020000",
    "163341.020000",
    "163343.020000",
    "163345.020000",
    "163347.020000",
    "163349.020000",
    "163351.020000",
    "163353.020000",
    "163355.020000",
    "163357.020000",
    "163359.020000",
    "163401.020000",
    "163403.020000",
    "163405.020000",
    "163407.020000",
    "163409.020000",
    "163411.020000",
    "163413.020000",
    "163415.020000",
    "163417.020000",
    "163419.020000",
    "163421.020000",
    "163423.020000",
    "163425.020000",
    "163427.020000",
    "163429.020000",
    "163431.020000",
    "163433.020000",
    "163435.020000",
    "163437.020000",
    "163439.020000",
    "163441.020000",
    "163443.020000",
    "163445.020000",
    "163447.020000",
    "163449.020000",
    "163451.020000",
    "163453.020000",
    "163455.020000",
    "163457.020000",
    "163459.020000",
    "163501.020000",
    "163503.020000",
    "163505.020000",
    "163507.020000",
    "163509.020000",
    "163511.020000",
    "163513.020000",
    "163515.020000",
    "163517.020000",
    "163519.020000",
    "163521.020000",
    "163523.020000",
    "163525.020000",
    "163527.020000",
    "163529.020000",
    "163531.020000",
    "163533.020000",
    "163535.020000",
    "163537.020000",
    "163539.020000",
    "163541.020000",
    "163543.020000",
    "163545.020000",
    "163547.020000",
    "163549.020000",
    "163551.020000",
    "163553.020000",
    "163555.020000",
    "163557.020000",
    "163559.020000",
    "163601.020000",
    "163603.020000",
    "163605.020000",
    "163607.020000",
    "163609.020000",
    "163611.020000",
    "163613.020000",
    "163615.020000",
    "163617.020000",
    "163619.020000",
    "163621.020000",
    "163623.020000",
    "163625.020000",
    "163627.020000",
    "163629.020000",
    "163631.020000",
    "163633.020000",
    "163635.020000",
    "163637.020000",
    "163639.020000",
    "163641.020000",
    "163643.020000"
   ],
   "ContentTime": [
    "162816.137000",
    "162817.618000",
    "162819.618000",
    "162821.618000",
    "162823.119000",
    "162825.619000",
    "162827.620000",
    "162829.619000",
    "162831.120000",
    "162833.118000",
    "162835.618000",
    "162837.118000",
    "162839.118000",
    "162841.619000",
    "162843.119000",
    "162845.620000",
    "162847.119000",
    "162849.619000",
    "162851.618000",
    "162853.118000",
    "162855.618000",
    "162857.619000",
    "162859.619000",
    "162901.619000",
    "162903.119000",
    "162905.619000",
    "162907.120000",
    "162909.618000",
    "162911.618000",
    "162913.619000",
    "162915.119000",
    "162917.619000",
    "162919.119000",
    "162921.620000",
    "162923.120000",
    "162925.618000",
    "162927.618000",
    "162929.118000",
    "162931.619000",
    "162933.119000",
    "162935.619000",
    "162937.120000",
    "162939.619000",
    "162941.119000",
    "162943.119000",
    "162945.119000",
    "162947.118000",
    "162949.620000",
    "162951.620000",
    "162953.620000",
    "162955.619000",
    "162957.620000",
    "162959.619000",
    "163001.118000",
    "163003.118000",
    "163005.619000",
    "163007.119000",
    "163009.619000",
    "163011.119000",
    "163013.120000",
    "163015.119000",
    "163017.119000",
    "163019.118000",
    "163021.618000",
    "163023.619000",
    "163025.120000",
    "163027.619000",
    "163029.619000",
    "163031.619000",
    "163033.120000",
    "163035.119000",
    "163037.618000",
    "163039.118000",
    "163041.618000",
    "163043.119000",
    "163045.120000",
    "163047.120000",
    "163049.120000",
    "163051.119000",
    "163053.119000",
    "163055.618000",
    "163057.618000",
    "163059.119000",
    "163101.119000",
    "163103.120000",
    "163105.120000",
    "163107.619000",
    "163109.120000",
    "163111.619000",
    "163113.619000",
    "163115.119000",
    "163117.619000",
    "163119.119000",
    "163121.619000",
    "163123.119000",
    "163125.620000",
    "163127.119000",
    "163129.118000",
    "163131.118000",
    "163133.118000",
    "163135.619000",
    "163137.119000",
    "163139.619000",
    "163141.619000",
    "163143.619000",
    "163145.618000",
    "163147.619000",
    "163149.118000",
    "163151.618000",
    "163153.119000",
    "163155.619000",
    "163157.120000",
    "163159.619000",
    "163201.119000",
    "163203.618000",
    "163205.619000",
    "163207.119000",
    "163209.620000",
    "163211.120000",
    "163213.120000",
    "163215.620000",
    "163217.620000",
    "163219.120000",
    "163221.618000",
    "163223.618000",
    "163225.618000",
    "163227.620000",
    "163229.620000",
    "163231.619000",
    "163233.619000",
    "163235.619000",
    "163237.119000",
    "163239.619000",
    "163241.619000",
    "163243.619000",
    "163245.119000",
    "163247.119000",
    "163249.619000",
    "163251.619000",
    "163253.139000",
    "163255.619000",
    "163257.118000",
    "163259.619000",
    "163301.619000",
    "163303.619000",
    "163305.620000",
    "163307.620000",
    "163309.120000",
    "163311.119000",
    "163313.618000",
    "163315.619000",
    "163317.618000",
    "163319.119000",
    "163321.620000",
    "163323.119000",
    "163325.119000",
    "163327.120000",
    "163329.619000",
    "163331.119000",
    "163333.619000",
    "163335.618000",
    "163337.619000",
    "163339.620000",
    "163341.620000",
    "163343.620000",
    "163345.631000",
    "163347.620000",
    "163349.118000",
    "163351.618000",
    "163353.618000",
    "163355.119000",
    "163357.119000",
    "163359.119000",
    "163401.119000",
    "163403.119000",
    "163405.618000",
    "163407.618000",
    "163409.119000",
    "163411.118000",
    "163413.619000",
    "163415.120000",
    "163417.120000",
    "163419.619000",
    "163421.119000",
    "163423.619000",
    "163425.119000",
    "163427.618000",
    "163429.620000",
    "163431.620000",
    "163433.120000",
    "163435.620000",
    "163437.620000",
    "163439.120000",
    "163441.619000",
    "163443.118000",
    "163445.118000",
    "163447.120000",
    "163449.120000",
    "163451.120000",
    "163453.140000",
    "163455.619000",
    "163457.119000",
    "163459.619000",
    "163501.118000",
    "163503.119000",
    "163505.119000",
    "163507.619000",
    "163509.120000",
    "163511.119000",
    "163513.119000",
    "163515.119000",
    "163517.119000",
    "163519.119000",
    "163521.620000",
    "163523.619000",
    "163525.620000",
    "163527.120000",
    "163529.620000",
    "163531.119000",
    "163533.119000",
    "163535.119000",
    "163537.118000",
    "163539.119000",
    "163541.620000",
    "163543.619000",
    "163545.120000",
    "163547.120000",
    "163549.620000",
    "163551.118000",
    "163553.618000",
    "163555.619000",
    "163557.120000",
    "163559.120000",
    "163601.120000",
    "163603.620000",
    "163605.120000",
    "163607.120000",
    "163609.118000",
    "163611.119000",
    "163613.118000",
    "163615.619000",
    "163617.619000",
    "163619.620000",
    "163621.620000",
    "163623.120000",
    "163625.619000",
    "163627.619000",
    "163629.118000",
    "163631.118000",
    "163633.620000",
    "163635.620000",
    "163637.119000",
    "163639.620000",
    "163641.620000",
    "163643.619000",
    "163645.171000"
   ],
   "InstanceCreationTime": [
    "162816.137000",
    "162817.618000",
    "162819.618000",
    "162821.618000",
    "162823.119000",
    "162825.619000",
    "162827.620000",
    "162829.619000",
    "162831.120000",
    "162833.118000",
    "162835.618000",
    "162837.118000",
    "162839.118000",
    "162841.619000",
    "162843.119000",
    "162845.620000",
    "162847.119000",
    "162849.619000",
    "162851.618000",
    "162853.118000",
    "162855.618000",
    "162857.619000",
    "162859.619000",
    "162901.619000",
    "162903.119000",
    "162905.619000",
    "162907.120000",
    "162909.618000",
    "162911.618000",
    "162913.619000",
    "162915.119000",
    "162917.619000",
    "162919.119000",
    "162921.620000",
    "162923.120000",
    "162925.618000",
    "162927.618000",
    "162929.118000",
    "162931.619000",
    "162933.119000",
    "162935.619000",
    "162937.120000",
    "162939.619000",
    "162941.119000",
    "162943.119000",
    "162945.119000",
    "162947.118000",
    "162949.620000",
    "162951.620000",
    "162953.620000",
    "162955.619000",
    "162957.620000",
    "162959.619000",
    "163001.118000",
    "163003.118000",
    "163005.619000",
    "163007.119000",
    "163009.619000",
    "163011.119000",
    "163013.120000",
    "163015.119000",
    "163017.119000",
    "163019.118000",
    "163021.618000",
    "163023.619000",
    "163025.120000",
    "163027.619000",
    "163029.619000",
    "163031.619000",
    "163033.120000",
    "163035.119000",
    "163037.618000",
    "163039.118000",
    "163041.618000",
    "163043.119000",
    "163045.120000",
    "163047.120000",
    "163049.120000",
    "163051.119000",
    "163053.119000",
    "163055.618000",
    "163057.618000",
    "163059.119000",
    "163101.119000",
    "163103.120000",
    "163105.120000",
    "163107.619000",
    "163109.120000",
    "163111.619000",
    "163113.619000",
    "163115.119000",
    "163117.619000",
    "163119.119000",
    "163121.619000",
    "163123.119000",
    "163125.620000",
    "163127.119000",
    "163129.118000",
    "163131.118000",
    "163133.118000",
    "163135.619000",
    "163137.119000",
    "163139.619000",
    "163141.619000",
    "163143.619000",
    "163145.618000",
    "163147.619000",
    "163149.118000",
    "163151.618000",
    "163153.119000",
    "163155.619000",
    "163157.120000",
    "163159.619000",
    "163201.119000",
    "163203.618000",
    "163205.619000",
    "163207.119000",
    "163209.620000",
    "163211.120000",
    "163213.120000",
    "163215.620000",
    "163217.620000",
    "163219.120000",
    "163221.618000",
    "163223.618000",
    "163225.618000",
    "163227.620000",
    "163229.620000",
    "163231.619000",
    "163233.619000",
    "163235.619000",
    "163237.119000",
    "163239.619000",
    "163241.619000",
    "163243.619000",
    "163245.119000",
    "163247.119000",
    "163249.619000",
    "163251.619000",
    "163253.139000",
    "163255.619000",
    "163257.118000",
    "163259.619000",
    "163301.619000",
    "163303.619000",
    "163305.620000",
    "163307.620000",
    "163309.120000",
    "163311.119000",
    "163313.618000",
    "163315.619000",
    "163317.618000",
    "163319.119000",
    "163321.620000",
    "163323.119000",
    "163325.119000",
    "163327.120000",
    "163329.619000",
    "163331.119000",
    "163333.619000",
    "163335.618000",
    "163337.619000",
    "163339.620000",
    "163341.620000",
    "163343.620000",
    "163345.631000",
    "163347.620000",
    "163349.118000",
    "163351.618000",
    "163353.618000",
    "163355.119000",
    "163357.119000",
    "163359.119000",
    "163401.119000",
    "163403.119000",
    "163405.618000",
    "163407.618000",
    "163409.119000",
    "163411.118000",
    "163413.619000",
    "163415.120000",
    "163417.120000",
    "163419.619000",
    "163421.119000",
    "163423.619000",
    "163425.119000",
    "163427.618000",
    "163429.620000",
    "163431.620000",
    "163433.120000",
    "163435.620000",
    "163437.620000",
    "163439.120000",
    "163441.619000",
    "163443.118000",
    "163445.118000",
    "163447.120000",
    "163449.120000",
    "163451.120000",
    "163453.140000",
    "163455.619000",
    "163457.119000",
    "163459.619000",
    "163501.118000",
    "163503.119000",
    "163505.119000",
    "163507.619000",
    "163509.120000",
    "163511.119000",
    "163513.119000",
    "163515.119000",
    "163517.119000",
    "163519.119000",
    "163521.620000",
    "163523.619000",
    "163525.620000",
    "163527.120000",
    "163529.620000",
    "163531.119000",
    "163533.119000",
    "163535.119000",
    "163537.118000",
    "163539.119000",
    "163541.620000",
    "163543.619000",
    "163545.120000",
    "163547.120000",
    "163549.620000",
    "163551.118000",
    "163553.618000",
    "163555.619000",
    "163557.120000",
    "163559.120000",
    "163601.120000",
    "163603.620000",
    "163605.120000",
    "163607.120000",
    "163609.118000",
    "163611.119000",
    "163613.118000",
    "163615.619000",
    "163617.619000",
    "163619.620000",
    "163621.620000",
    "163623.120000",
    "163625.619000",
    "163627.619000",
    "163629.118000",
    "163631.118000",
    "163633.620000",
    "163635.620000",
    "163637.119000",
    "163639.620000",
    "163641.620000",
    "163643.619000",
    "163645.171000"
   ],
   "InstanceNumber": [
    1,
    2,
    3,
    4,
    5,
    6,
    7,
    8,
    9,
    10,
    11,
    12,
    13,
    14,
    15,
    16,
    17,
    18,
    19,
    20,
    21,
    22,
    23,
    24,
    25,
    26,
    27,
    28,
    29,
    30,
    31,
    32,
    33,
    34,
    35,
    36,
    37,
    38,
    39,
    40,
    41,
    42,
    43,
    44,
    45,
    46,
    47,
    48,
    49,
    50,
    51,
    52,
    53,
    54,
    55,
    56,
    57,
    58,
    59,
    60,
    61,
    62,
    63,
    64,
    65,
    66,
    67,
    68,
    69,
    70,
    71,
    72,
    73,
    74,
    75,
    76,
    77,
    78,
    79,
    80,
    81,
    82,
    83,
    84,
    85,
    86,
    87,
    88,
    89,
    90,
    91,
    92,
    93,
    94,
    95,
    96,
    97,
    98,
    99,
    100,
    101,
    102,
    103,
    104,
    105,
    106,
    107,
    108,
    109,
    110,
    111,
    112,
    113,
    114,
    115,
    116,
    117,
    118,
    119,
    120,
    121,
    122,
    123,
    124,
    125,
    126,
    127,
    128,
    129,
    130,
    131,
    132,
    133,
    134,
    135,
    136,
    137,
    138,
    139,
    140,
    141,
    142,
    143,
    144,
    145,
    146,
    147,
    148,
    149,
    150,
    151,
    152,
    153,
    154,
    155,
    156,
    157,
    158,
    159,
    160,
    161,
    162,
    163,
    164,
    165,
    166,
    167,
    168,
    169,
    170,
    171,
    172,
    173,
    174,
    175,
    176,
    177,
    178,
    179,
    180,
    181,
    182,
    183,
    184,
    185,
    186,
    187,
    188,
    189,
    190,
    191,
    192,
    193,
    194,
    195,
    196,
    197,
    198,
    199,
    200,
    201,
    202,
    203,
    204,
    205,
    206,
    207,
    208,
    209,
    210,
    211,
    212,
    213,
    214,
    215,
    216,
    217,
    218,
    219,
    220,
    221,
    222,
    223,
    224,
    225,
    226,
    227,
    228,
    229,
    230,
    231,
    232,
    233,
    234,
    235,
    236,
    237,
    238,
    239,
    240,
    241,
    242,
    243,
    244,
    245,
    246,
    247,
    248,
    249,
    250,
    251,
    252,
    253,
    254,
    255,
    256
   ],
   "LargestImagePixelValue": [
    2551,
    2416,
    2550,
    2357,
    2354,
    2338,
    2316,
    2410,
    2324,
    2363,
    2330,
    2341,
    2351,
    2435,
    2305,
    2310,
    2308,
    2325,
    2288,
    2294,
    2334,
    2302,
    2318,
    2316,
    2309,
    2330,
    2319,
    2335,
    2304,
    2349,
    2314,
    2346,
    2364,
    2352,
    2353,
    2314,
    2326,
    2312,
    2328,
    2297,
    2344,
    2317,
    2302,
    2352,
    2329,
    2344,
    2340,
    2378,
    2344,
    2382,
    2329,
    2332,
    2328,
    2302,
    2372,
    2322,
    2332,
    2332,
    2315,
    2340,
    2432,
    2306,
    2317,
    2317,
    2344,
    2307,
    2329,
    2360,
    2422,
    2367,
    2294,
    2401,
    2323,
    2292,
    2321,
    2342,
    2300,
    2333,
    2323,
    2327,
    2349,
    2327,
    2317,
    2322,
    2328,
    2332,
    2330,
    2322,
    2352,
    2298,
    2310,
    2301,
    2289,
    2298,
    2307,
    2318,
    2347,
    2306,
    2342,
    2300,
    2312,
    2339,
    2324,
    2295,
    2342,
    2345,
    2325,
    2337,
    2318,
    2317,
    2326,
    2323,
    2343,
    2300,
    2317,
    2303,
    2310,
    2287,
    2406,
    2329,
    2435,
    2314,
    2320,
    2311,
    2333,
    2335,
    2335,
    2340,
    2354,
    2312,
    2290,
    2328,
    2319,
    2364,
    2343,
    2292,
    2563,
    2327,
    2311,
    2327,
    2314,
    2311,
    2319,
    2311,
    2324,
    2318,
    2332,
    2431,
    2301,
    2311,
    2304,
    2334,
    2316,
    2349,
    2436,
    2321,
    2315,
    2324,
    2342,
    2322,
    2339,
    2315,
    2306,
    2309,
    2327,
    2375,
    2448,
    2332,
    2297,
    2316,
    2333,
    2396,
    2324,
    2306,
    2297,
    2306,
    2345,
    2307,
    2312,
    2317,
    2368,
    2305,
    2472,
    2560,
    2377,
    2287,
    2275,
    2285,
    2302,
    2293,
    2312,
    2277,
    2333,
    2298,
    2309,
    2286,
    2344,
    2284,
    2295,
    2316,
    2326,
    2302,
    2288,
    2401,
    2336,
    2354,
    2305,
    2337,
    2327,
    2303,
    2329,
    2335,
    2333,
    2328,
    2336,
    2317,
    2309,
    2320,
    2454,
    2331,
    2322,
    2360,
    2326,
    2313,
    2350,
    2458,
    2323,
    2372,
    2337,
    2353,
    2381,
    2389,
    2327,
    2315,
    2320,
    2335,
    2342,
    2329,
    2348,
    2323,
    2322,
    2317,
    2331,
    2351,
    2331,
    2336,
    2326,
    2333,
    2334,
    2321,
    2333,
    2352,
    2422,
    2338,
    2397,
    2364
   ],
   "WindowCenter": [
    725.0,
    722.0,
    724.0,
    720.0,
    719.0,
    718.0,
    717.0,
    719.0,
    718.0,
    718.0,
    718.0,
    719.0,
    720.0,
    721.0,
    719.0,
    718.0,
    717.0,
    717.0,
    715.0,
    716.0,
    717.0,
    717.0,
    718.0,
    718.0,
    717.0,
    718.0,
    718.0,
    719.0,
    719.0,
    719.0,
    718.0,
    717.0,
    718.0,
    718.0,
    719.0,
    718.0,
    718.0,
    718.0,
    718.0,
    717.0,
    718.0,
    718.0,
    717.0,
    719.0,
    718.0,
    718.0,
    718.0,
    719.0,
    719.0,
    719.0,
    718.0,
    718.0,
    719.0,
    719.0,
    720.0,
    718.0,
    718.0,
    717.0,
    717.0,
    717.0,
    719.0,
    717.0,
    718.0,
    718.0,
    718.0,
    717.0,
    718.0,
    719.0,
    720.0,
    720.0,
    718.0,
    719.0,
    718.0,
    717.0,
    717.0,
    718.0,
    717.0,
    718.0,
    718.0,
    717.0,
    718.0,
    718.0,
    718.0,
    718.0,
    718.0,
    719.0,
    719.0,
    718.0,
    718.0,
    717.0,
    718.0,
    718.0,
    717.0,
    717.0,
    717.0,
    719.0,
    719.0,
    718.0,
    719.0,
    718.0,
    717.0,
    719.0,
    719.0,
    718.0,
    718.0,
    718.0,
    718.0,
    718.0,
    717.0,
    717.0,
    717.0,
    717.0,
    717.0,
    716.0,
    716.0,
    716.0,
    717.0,
    717.0,
    719.0,
    717.0,
    719.0,
    717.0,
    718.0,
    718.0,
    718.0,
