{
 "AcquisitionMatrixPE": 100,
 "AcquisitionNumber": 1,
 "AcquisitionTime": "16:08:46.162500",
 "BandwidthPerPixelPhaseEncode": 18.519,
 "BaseResolution": 100,
 "BodyPartExamined": "BRAIN",
 "ConsistencyInfo": "N4_VE11C_LATEST_20160120",
 "ConversionSoftware": "dcm2niix",
 "ConversionSoftwareVersion": "v1.0.20180622 GCC4.9.2",
 "DerivedVendorReportedEchoSpacing": 0.000539986,
 "DeviceSerialNumber": "166078",
 "DwellTime": 2.1e-06,
 "EchoTime": 0.034,
 "EchoTrainLength": 100,
 "EffectiveEchoSpacing": 0.000539986,
 "FlipAngle": 90,
 "ImageOrientationPatientDICOM": [
  1,
  0,
  0,
  0,
  0.977416,
  -0.211325
 ],
 "ImageType": [
  "ORIGINAL",
  "PRIMARY",
  "M",
  "ND",
  "MOSAIC"
 ],
 "InPlanePhaseEncodingDirectionDICOM": "COL",
 "InstitutionAddress": "Street_StreetNo_Bei_Jing_District_CN_ZIP",
 "InstitutionName": "BeiJing_Normal_University",
 "InstitutionalDepartmentName": "Department",
 "MRAcquisitionType": "2D",
 "MagneticFieldStrength": 3,
 "Manufacturer": "Siemens",
 "ManufacturersModelName": "Prisma",
 "Modality": "MR",
 "MultibandAccelerationFactor": 3,
 "PartialFourier": 1,
 "PatientPosition": "HFS",
 "PercentPhaseFOV": 100,
 "PhaseEncodingDirection": "j-",
 "PhaseEncodingSteps": 100,
 "PhaseResolution": 1,
 "PixelBandwidth": 2380,
 "ProcedureStepDescription": "BNU_P2018_64CH_Zhen.ZongLei",
 "ProtocolName": "bold_100x100_s3_2x2x2_static_256",
 "PulseSequenceDetails": "%SiemensSeq%_ep2d_bold",
 "ReceiveCoilActiveElements": "HC1-7;NC1",
 "ReceiveCoilName": "HeadNeck_64",
 "ReconMatrixPE": 100,
 "RepetitionTime": 2,
 "SAR": 0.0682582,
 "ScanOptions": "FS",
 "ScanningSequence": "EP",
 "SequenceName": "_epfid2d1_100",
 "SequenceVariant": "SK",
 "SeriesDescription": "bold_100x100_s3_2x2x2_static_256",
 "SeriesNumber": 11,
 "ShimSetting": [
  -5412,
  -11519,
  -1322,
  422,
  35,
  -288,
  -292,
  -21
 ],
 "SliceThickness": 2,
 "SliceTiming": [
  1.4825,
  0,
  0.9875,
  0.08,
  1.07,
  0.1625,
  1.1525,
  0.245,
  1.235,
  0.3275,
  1.3175,
  0.41,
  1.4,
  0.575,
  1.565,
  0.6575,
  1.6475,
  0.74,
  1.73,
  0.8225,
  1.8125,
  0.905,
  1.895,
  0.4925,
  1.4825,
  0,
  0.9875,
  0.08,
  1.07,
  0.1625,
  1.1525,
  0.245,
  1.235,
  0.3275,
  1.3175,
  0.41,
  1.4,
  0.575,
  1.565,
  0.6575,
  1.6475,
  0.74,
  1.73,
  0.8225,
  1.8125,
  0.905,
  1.895,
  0.4925,
  1.4825,
  0,
  0.9875,
  0.08,
  1.07,
  0.1625,
  1.1525,
  0.245,
  1.235,
  0.3275,
  1.3175,
  0.41,
  1.4,
  0.575,
  1.565,
  0.6575,
  1.6475,
  0.74,
  1.73,
  0.8225,
  1.8125,
  0.905,
  1.895,
  0.4925
 ],
 "SoftwareVersions": "syngo_MR_E11",
 "SpacingBetweenSlices": 2,
 "StationName": "AWP166078",
 "TaskName": "imagenet",
 "TotalReadoutTime": 0.0534586,
 "TxRefAmp": 216.68,
 "dcmmeta_affine": [
  [
   -2.0,
   0.0,
   0.0,
   100.67796325683594
  ],
  [
   0.0,
   1.954831838607788,
   -0.4226495921611786,
   -73.9981918334961
  ],
  [
   0.0,
   0.4226495623588562,
   1.954831838607788,
   -85.14752197265625
  ],
  [
   0.0,
   0.0,
   0.0,
   1.0
  ]
 ],
 "dcmmeta_reorient_transform": [
  [
   0.0,
   -1.0,
   0.0,
   99.0
  ],
  [
   1.0,
   0.0,
   0.0,
   0.0
  ],
  [
   0.0,
   0.0,
   1.0,
   0.0
  ],
  [
   0.0,
   0.0,
   0.0,
   1.0
  ]
 ],
 "dcmmeta_shape": [
  100,
  100,
  72,
  256
 ],
 "dcmmeta_slice_dim": 2,
 "dcmmeta_version": 0.6,
 "global": {
  "const": {
   "AcquisitionMatrix": [
    100,
    0,
    0,
    100
   ],
   "AngioFlag": "N",
   "BitsAllocated": 16,
   "BitsStored": 12,
   "BodyPartExamined": "BRAIN",
   "Columns": 900,
   "EchoNumbers": 1,
   "EchoTime": 34.0,
   "EchoTrainLength": 100,
   "FlipAngle": 90.0,
   "HighBit": 11,
   "ImageOrientationPatient": [
    1.0,
    0.0,
    0.0,
    0.0,
    0.97741589648343,
    -0.2113247862923
   ],
   "ImagePositionPatient": [
    -900.67796611786,
    -901.46287151709,
    125.75461692821
   ],
   "ImageType": [
    "ORIGINAL",
    "PRIMARY",
    "M",
    "ND",
    "MOSAIC"
   ],
   "ImagedNucleus": "1H",
   "ImagingFrequency": 123.257807,
   "InPlanePhaseEncodingDirection": "COL",
   "MRAcquisitionType": "2D",
   "MagneticFieldStrength": 3.0,
   "Manufacturer": "SIEMENS",
   "ManufacturerModelName": "Prisma",
   "Modality": "MR",
   "NumberOfAverages": 1.0,
   "NumberOfPhaseEncodingSteps": 100,
   "PercentPhaseFieldOfView": 100.0,
   "PercentSampling": 100.0,
   "PerformedProcedureStepStartTime": "145722.228000",
   "PhotometricInterpretation": "MONOCHROME2",
   "PixelBandwidth": 2380.0,
   "PixelRepresentation": 0,
   "PixelSpacing": [
    2.0,
    2.0
   ],
   "ProtocolName": "bold_100x100_s3_2x2x2_static_256",
   "RepetitionTime": 2000.0,
   "Rows": 900,
   "SAR": 0.06825822162355,
   "SamplesPerPixel": 1,
   "ScanOptions": "FS",
   "ScanningSequence": "EP",
   "SequenceName": "*epfid2d1_100",
   "SequenceVariant": "SK",
   "SeriesDescription": "bold_100x100_s3_2x2x2_static_256",
   "SeriesNumber": 11,
   "SeriesTime": "160848.707000",
   "SliceLocation": -67.58688703198,
   "SliceThickness": 2.0,
   "SmallestImagePixelValue": 0,
   "SoftwareVersions": "syngo MR E11",
   "SpacingBetweenSlices": 2.0000000467956,
   "SpecificCharacterSet": "ISO_IR 100",
   "StudyID": "1",
   "StudyTime": "145722.150000",
   "TransmitCoilName": "Body",
   "VariableFlipAngleFlag": "N",
   "WindowCenterWidthExplanation": "Algo1",
   "dBdt": 0.0
  },
  "slices": {}
 },
 "time": {
  "samples": {
   "AcquisitionNumber": [
    1,
    2,
    3,
    4,
    5,
    6,
    7,
    8,
    9,
    10,
    11,
    12,
    13,
    14,
    15,
    16,
    17,
    18,
    19,
    20,
    21,
    22,
    23,
    24,
    25,
    26,
    27,
    28,
    29,
    30,
    31,
    32,
    33,
    34,
    35,
    36,
    37,
    38,
    39,
    40,
    41,
    42,
    43,
    44,
    45,
    46,
    47,
    48,
    49,
    50,
    51,
    52,
    53,
    54,
    55,
    56,
    57,
    58,
    59,
    60,
    61,
    62,
    63,
    64,
    65,
    66,
    67,
    68,
    69,
    70,
    71,
    72,
    73,
    74,
    75,
    76,
    77,
    78,
    79,
    80,
    81,
    82,
    83,
    84,
    85,
    86,
    87,
    88,
    89,
    90,
    91,
    92,
    93,
    94,
    95,
    96,
    97,
    98,
    99,
    100,
    101,
    102,
    103,
    104,
    105,
    106,
    107,
    108,
    109,
    110,
    111,
    112,
    113,
    114,
    115,
    116,
    117,
    118,
    119,
    120,
    121,
    122,
    123,
    124,
    125,
    126,
    127,
    128,
    129,
    130,
    131,
    132,
    133,
    134,
    135,
    136,
    137,
    138,
    139,
    140,
    141,
    142,
    143,
    144,
    145,
    146,
    147,
    148,
    149,
    150,
    151,
    152,
    153,
    154,
    155,
    156,
    157,
    158,
    159,
    160,
    161,
    162,
    163,
    164,
    165,
    166,
    167,
    168,
    169,
    170,
    171,
    172,
    173,
    174,
    175,
    176,
    177,
    178,
    179,
    180,
    181,
    182,
    183,
    184,
    185,
    186,
    187,
    188,
    189,
    190,
    191,
    192,
    193,
    194,
    195,
    196,
    197,
    198,
    199,
    200,
    201,
    202,
    203,
    204,
    205,
    206,
    207,
    208,
    209,
    210,
    211,
    212,
    213,
    214,
    215,
    216,
    217,
    218,
    219,
    220,
    221,
    222,
    223,
    224,
    225,
    226,
    227,
    228,
    229,
    230,
    231,
    232,
    233,
    234,
    235,
    236,
    237,
    238,
    239,
    240,
    241,
    242,
    243,
    244,
    245,
    246,
    247,
    248,
    249,
    250,
    251,
    252,
    253,
    254,
    255,
    256
   ],
   "AcquisitionTime": [
    "160846.162500",
    "160848.162500",
    "160850.162500",
    "160852.162500",
    "160854.162500",
    "160856.162500",
    "160858.162500",
    "160900.162500",
    "160902.162500",
    "160904.162500",
    "160906.162500",
    "160908.162500",
    "160910.162500",
    "160912.162500",
    "160914.162500",
    "160916.162500",
    "160918.162500",
    "160920.162500",
    "160922.162500",
    "160924.162500",
    "160926.162500",
    "160928.162500",
    "160930.162500",
    "160932.162500",
    "160934.162500",
    "160936.162500",
    "160938.162500",
    "160940.162500",
    "160942.162500",
    "160944.162500",
    "160946.162500",
    "160948.162500",
    "160950.162500",
    "160952.162500",
    "160954.162500",
    "160956.162500",
    "160958.162500",
    "161000.162500",
    "161002.162500",
    "161004.162500",
    "161006.162500",
    "161008.162500",
    "161010.162500",
    "161012.162500",
    "161014.162500",
    "161016.162500",
    "161018.162500",
    "161020.162500",
    "161022.162500",
    "161024.162500",
    "161026.162500",
    "161028.162500",
    "161030.162500",
    "161032.162500",
    "161034.162500",
    "161036.162500",
    "161038.162500",
    "161040.162500",
    "161042.162500",
    "161044.162500",
    "161046.162500",
    "161048.162500",
    "161050.162500",
    "161052.162500",
    "161054.162500",
    "161056.162500",
    "161058.162500",
    "161100.162500",
    "161102.162500",
    "161104.162500",
    "161106.162500",
    "161108.162500",
    "161110.162500",
    "161112.162500",
    "161114.162500",
    "161116.162500",
    "161118.162500",
    "161120.162500",
    "161122.162500",
    "161124.162500",
    "161126.162500",
    "161128.162500",
    "161130.162500",
    "161132.162500",
    "161134.162500",
    "161136.162500",
    "161138.162500",
    "161140.162500",
    "161142.162500",
    "161144.162500",
    "161146.162500",
    "161148.162500",
    "161150.162500",
    "161152.162500",
    "161154.162500",
    "161156.162500",
    "161158.162500",
    "161200.162500",
    "161202.162500",
    "161204.162500",
    "161206.162500",
    "161208.162500",
    "161210.162500",
    "161212.162500",
    "161214.162500",
    "161216.162500",
    "161218.162500",
    "161220.162500",
    "161222.162500",
    "161224.162500",
    "161226.162500",
    "161228.162500",
    "161230.162500",
    "161232.162500",
    "161234.162500",
    "161236.162500",
    "161238.162500",
    "161240.162500",
    "161242.162500",
    "161244.162500",
    "161246.162500",
    "161248.162500",
    "161250.162500",
    "161252.162500",
    "161254.162500",
    "161256.162500",
    "161258.162500",
    "161300.162500",
    "161302.162500",
    "161304.162500",
    "161306.162500",
    "161308.162500",
    "161310.162500",
    "161312.162500",
    "161314.162500",
    "161316.162500",
    "161318.162500",
    "161320.162500",
    "161322.162500",
    "161324.162500",
    "161326.162500",
    "161328.162500",
    "161330.162500",
    "161332.162500",
    "161334.162500",
    "161336.162500",
    "161338.162500",
    "161340.162500",
    "161342.162500",
    "161344.162500",
    "161346.162500",
    "161348.162500",
    "161350.162500",
    "161352.162500",
    "161354.162500",
    "161356.162500",
    "161358.162500",
    "161400.162500",
    "161402.162500",
    "161404.162500",
    "161406.162500",
    "161408.162500",
    "161410.162500",
    "161412.162500",
    "161414.162500",
    "161416.162500",
    "161418.162500",
    "161420.162500",
    "161422.162500",
    "161424.162500",
    "161426.162500",
    "161428.162500",
    "161430.162500",
    "161432.162500",
    "161434.162500",
    "161436.162500",
    "161438.162500",
    "161440.162500",
    "161442.162500",
    "161444.162500",
    "161446.162500",
    "161448.162500",
    "161450.162500",
    "161452.162500",
    "161454.162500",
    "161456.162500",
    "161458.162500",
    "161500.162500",
    "161502.162500",
    "161504.162500",
    "161506.162500",
    "161508.162500",
    "161510.162500",
    "161512.162500",
    "161514.162500",
    "161516.162500",
    "161518.162500",
    "161520.162500",
    "161522.162500",
    "161524.162500",
    "161526.162500",
    "161528.162500",
    "161530.162500",
    "161532.162500",
    "161534.162500",
    "161536.162500",
    "161538.162500",
    "161540.162500",
    "161542.162500",
    "161544.162500",
    "161546.162500",
    "161548.162500",
    "161550.162500",
    "161552.162500",
    "161554.162500",
    "161556.162500",
    "161558.162500",
    "161600.162500",
    "161602.162500",
    "161604.162500",
    "161606.162500",
    "161608.162500",
    "161610.162500",
    "161612.162500",
    "161614.162500",
    "161616.162500",
    "161618.162500",
    "161620.162500",
    "161622.162500",
    "161624.162500",
    "161626.162500",
    "161628.162500",
    "161630.162500",
    "161632.162500",
    "161634.162500",
    "161636.162500",
    "161638.162500",
    "161640.162500",
    "161642.162500",
    "161644.162500",
    "161646.162500",
    "161648.162500",
    "161650.162500",
    "161652.162500",
    "161654.162500",
    "161656.162500",
    "161658.162500",
    "161700.162500",
    "161702.162500",
    "161704.162500",
    "161706.162500",
    "161708.162500",
    "161710.162500",
    "161712.162500",
    "161714.162500",
    "161716.162500"
   ],
   "ContentTime": [
    "160848.711000",
    "160850.207000",
    "160852.207000",
    "160854.207000",
    "160856.206000",
    "160858.206000",
    "160900.206000",
    "160902.206000",
    "160904.206000",
    "160906.207000",
    "160908.208000",
    "160910.207000",
    "160912.207000",
    "160914.206000",
    "160916.207000",
    "160918.207000",
    "160920.206000",
    "160922.207000",
    "160924.206000",
    "160926.207000",
    "160928.207000",
    "160930.207000",
    "160932.206000",
    "160934.207000",
    "160936.207000",
    "160938.206000",
    "160940.207000",
    "160942.206000",
    "160944.208000",
    "160946.208000",
    "160948.206000",
    "160950.206000",
    "160952.206000",
    "160954.207000",
    "160956.207000",
    "160958.207000",
    "161000.206000",
    "161002.207000",
    "161004.206000",
    "161006.206000",
    "161008.207000",
    "161010.206000",
    "161012.207000",
    "161014.207000",
    "161016.207000",
    "161018.208000",
    "161020.208000",
    "161022.206000",
    "161024.206000",
    "161026.207000",
    "161028.206000",
    "161030.207000",
    "161032.207000",
    "161034.207000",
    "161036.208000",
    "161038.208000",
    "161040.206000",
    "161042.207000",
    "161044.206000",
    "161046.207000",
    "161048.207000",
    "161050.207000",
    "161052.206000",
    "161054.207000",
    "161056.208000",
    "161058.207000",
    "161100.207000",
    "161102.207000",
    "161104.206000",
    "161106.206000",
    "161108.206000",
    "161110.206000",
    "161112.207000",
    "161114.207000",
    "161116.206000",
    "161118.207000",
    "161120.206000",
    "161122.207000",
    "161124.206000",
    "161126.206000",
    "161128.208000",
    "161130.208000",
    "161132.206000",
    "161134.207000",
    "161136.207000",
    "161138.207000",
    "161140.207000",
    "161142.207000",
    "161144.206000",
    "161146.208000",
    "161148.208000",
    "161150.206000",
    "161152.207000",
    "161154.207000",
    "161156.206000",
    "161158.206000",
    "161200.207000",
    "161202.206000",
    "161204.208000",
    "161206.207000",
    "161208.206000",
    "161210.207000",
    "161212.206000",
    "161214.207000",
    "161216.207000",
    "161218.206000",
    "161220.207000",
    "161222.207000",
    "161224.206000",
    "161226.207000",
    "161228.207000",
    "161230.207000",
    "161232.207000",
    "161234.206000",
    "161236.206000",
    "161238.207000",
    "161240.207000",
    "161242.207000",
    "161244.207000",
    "161246.207000",
    "161248.206000",
    "161250.207000",
    "161252.207000",
    "161254.206000",
    "161256.207000",
    "161258.208000",
    "161300.207000",
    "161302.207000",
    "161304.207000",
    "161306.206000",
    "161308.206000",
    "161310.207000",
    "161312.207000",
    "161314.207000",
    "161316.208000",
    "161318.206000",
    "161320.206000",
    "161322.207000",
    "161324.207000",
    "161326.207000",
    "161328.207000",
    "161330.207000",
    "161332.207000",
    "161334.216000",
    "161336.207000",
    "161338.207000",
    "161340.206000",
    "161342.207000",
    "161344.206000",
    "161346.206000",
    "161348.207000",
    "161350.208000",
    "161352.207000",
    "161354.207000",
    "161356.207000",
    "161358.206000",
    "161400.206000",
    "161402.206000",
    "161404.207000",
    "161406.208000",
    "161408.208000",
    "161410.207000",
    "161412.207000",
    "161414.207000",
    "161416.206000",
    "161418.207000",
    "161420.207000",
    "161422.207000",
    "161424.208000",
    "161426.207000",
    "161428.207000",
    "161430.207000",
    "161432.207000",
    "161434.207000",
    "161436.206000",
    "161438.206000",
    "161440.207000",
    "161442.208000",
    "161444.206000",
    "161446.207000",
    "161448.207000",
    "161450.207000",
    "161452.207000",
    "161454.207000",
    "161456.207000",
    "161458.207000",
    "161500.208000",
    "161502.207000",
    "161504.207000",
    "161506.207000",
    "161508.207000",
    "161510.207000",
    "161512.207000",
    "161514.207000",
    "161516.207000",
    "161518.208000",
    "161520.207000",
    "161522.207000",
    "161524.206000",
    "161526.206000",
    "161528.207000",
    "161530.207000",
    "161532.206000",
    "161534.207000",
    "161536.207000",
    "161538.207000",
    "161540.207000",
    "161542.207000",
    "161544.207000",
    "161546.207000",
    "161548.207000",
    "161550.208000",
    "161552.207000",
    "161554.207000",
    "161556.206000",
    "161558.207000",
    "161600.207000",
    "161602.207000",
    "161604.206000",
    "161606.207000",
    "161608.207000",
    "161610.208000",
    "161612.206000",
    "161614.207000",
    "161616.207000",
    "161618.207000",
    "161620.207000",
    "161622.207000",
    "161624.207000",
    "161626.208000",
    "161628.208000",
    "161630.207000",
    "161632.207000",
    "161634.207000",
    "161636.207000",
    "161638.207000",
    "161640.207000",
    "161642.207000",
    "161644.208000",
    "161646.207000",
    "161648.207000",
    "161650.207000",
    "161652.207000",
    "161654.207000",
    "161656.207000",
    "161658.207000",
    "161700.207000",
    "161702.208000",
    "161704.206000",
    "161706.207000",
    "161708.207000",
    "161710.207000",
    "161712.206000",
    "161714.207000",
    "161716.207000",
    "161717.829000"
   ],
   "InstanceCreationTime": [
    "160848.711000",
    "160850.207000",
    "160852.207000",
    "160854.207000",
    "160856.206000",
    "160858.206000",
    "160900.206000",
    "160902.206000",
    "160904.206000",
    "160906.207000",
    "160908.208000",
    "160910.207000",
    "160912.207000",
    "160914.206000",
    "160916.207000",
    "160918.207000",
    "160920.206000",
    "160922.207000",
    "160924.206000",
    "160926.207000",
    "160928.207000",
    "160930.207000",
    "160932.206000",
    "160934.207000",
    "160936.207000",
    "160938.206000",
    "160940.207000",
    "160942.206000",
    "160944.208000",
    "160946.208000",
    "160948.206000",
    "160950.206000",
    "160952.206000",
    "160954.207000",
    "160956.207000",
    "160958.207000",
    "161000.206000",
    "161002.207000",
    "161004.206000",
    "161006.206000",
    "161008.207000",
    "161010.206000",
    "161012.207000",
    "161014.207000",
    "161016.207000",
    "161018.208000",
    "161020.208000",
    "161022.206000",
    "161024.206000",
    "161026.207000",
    "161028.206000",
    "161030.207000",
    "161032.207000",
    "161034.207000",
    "161036.208000",
    "161038.208000",
    "161040.206000",
    "161042.207000",
    "161044.206000",
    "161046.207000",
    "161048.207000",
    "161050.207000",
    "161052.206000",
    "161054.207000",
    "161056.208000",
    "161058.207000",
    "161100.207000",
    "161102.207000",
    "161104.206000",
    "161106.206000",
    "161108.206000",
    "161110.206000",
    "161112.207000",
    "161114.207000",
    "161116.206000",
    "161118.207000",
    "161120.206000",
    "161122.207000",
    "161124.206000",
    "161126.206000",
    "161128.208000",
    "161130.208000",
    "161132.206000",
    "161134.207000",
    "161136.207000",
    "161138.207000",
    "161140.207000",
    "161142.207000",
    "161144.206000",
    "161146.208000",
    "161148.208000",
    "161150.206000",
    "161152.207000",
    "161154.207000",
    "161156.206000",
    "161158.206000",
    "161200.207000",
    "161202.206000",
    "161204.208000",
    "161206.207000",
    "161208.206000",
    "161210.207000",
    "161212.206000",
    "161214.207000",
    "161216.207000",
    "161218.206000",
    "161220.207000",
    "161222.207000",
    "161224.206000",
    "161226.207000",
    "161228.207000",
    "161230.207000",
    "161232.207000",
    "161234.206000",
    "161236.206000",
    "161238.207000",
    "161240.207000",
    "161242.207000",
    "161244.207000",
    "161246.207000",
    "161248.206000",
    "161250.207000",
    "161252.207000",
    "161254.206000",
    "161256.207000",
    "161258.208000",
    "161300.207000",
    "161302.207000",
    "161304.207000",
    "161306.206000",
    "161308.206000",
    "161310.207000",
    "161312.207000",
    "161314.207000",
    "161316.208000",
    "161318.206000",
    "161320.206000",
    "161322.207000",
    "161324.207000",
    "161326.207000",
    "161328.207000",
    "161330.207000",
    "161332.207000",
    "161334.216000",
    "161336.207000",
    "161338.207000",
    "161340.206000",
    "161342.207000",
    "161344.206000",
    "161346.206000",
    "161348.207000",
    "161350.208000",
    "161352.207000",
    "161354.207000",
    "161356.207000",
    "161358.206000",
    "161400.206000",
    "161402.206000",
    "161404.207000",
    "161406.208000",
    "161408.208000",
    "161410.207000",
    "161412.207000",
    "161414.207000",
    "161416.206000",
    "161418.207000",
    "161420.207000",
    "161422.207000",
    "161424.208000",
    "161426.207000",
    "161428.207000",
    "161430.207000",
    "161432.207000",
    "161434.207000",
    "161436.206000",
    "161438.206000",
    "161440.207000",
    "161442.208000",
    "161444.206000",
    "161446.207000",
    "161448.207000",
    "161450.207000",
    "161452.207000",
    "161454.207000",
    "161456.207000",
    "161458.207000",
    "161500.208000",
    "161502.207000",
    "161504.207000",
    "161506.207000",
    "161508.207000",
    "161510.207000",
    "161512.207000",
    "161514.207000",
    "161516.207000",
    "161518.208000",
    "161520.207000",
    "161522.207000",
    "161524.206000",
    "161526.206000",
    "161528.207000",
    "161530.207000",
    "161532.206000",
    "161534.207000",
    "161536.207000",
    "161538.207000",
    "161540.207000",
    "161542.207000",
    "161544.207000",
    "161546.207000",
    "161548.207000",
    "161550.208000",
    "161552.207000",
    "161554.207000",
    "161556.206000",
    "161558.207000",
    "161600.207000",
    "161602.207000",
    "161604.206000",
    "161606.207000",
    "161608.207000",
    "161610.208000",
    "161612.206000",
    "161614.207000",
    "161616.207000",
    "161618.207000",
    "161620.207000",
    "161622.207000",
    "161624.207000",
    "161626.208000",
    "161628.208000",
    "161630.207000",
    "161632.207000",
    "161634.207000",
    "161636.207000",
    "161638.207000",
    "161640.207000",
    "161642.207000",
    "161644.208000",
    "161646.207000",
    "161648.207000",
    "161650.207000",
    "161652.207000",
    "161654.207000",
    "161656.207000",
    "161658.207000",
    "161700.207000",
    "161702.208000",
    "161704.206000",
    "161706.207000",
    "161708.207000",
    "161710.207000",
    "161712.206000",
    "161714.207000",
    "161716.207000",
    "161717.829000"
   ],
   "InstanceNumber": [
    1,
    2,
    3,
    4,
    5,
    6,
    7,
    8,
    9,
    10,
    11,
    12,
    13,
    14,
    15,
    16,
    17,
    18,
    19,
    20,
    21,
    22,
    23,
    24,
    25,
    26,
    27,
    28,
    29,
    30,
    31,
    32,
    33,
    34,
    35,
    36,
    37,
    38,
    39,
    40,
    41,
    42,
    43,
    44,
    45,
    46,
    47,
    48,
    49,
    50,
    51,
    52,
    53,
    54,
    55,
    56,
    57,
    58,
    59,
    60,
    61,
    62,
    63,
    64,
    65,
    66,
    67,
    68,
    69,
    70,
    71,
    72,
    73,
    74,
    75,
    76,
    77,
    78,
    79,
    80,
    81,
    82,
    83,
    84,
    85,
    86,
    87,
    88,
    89,
    90,
    91,
    92,
    93,
    94,
    95,
    96,
    97,
    98,
    99,
    100,
    101,
    102,
    103,
    104,
    105,
    106,
    107,
    108,
    109,
    110,
    111,
    112,
    113,
    114,
    115,
    116,
    117,
    118,
    119,
    120,
    121,
    122,
    123,
    124,
    125,
    126,
    127,
    128,
    129,
    130,
    131,
    132,
    133,
    134,
    135,
    136,
    137,
    138,
    139,
    140,
    141,
    142,
    143,
    144,
    145,
    146,
    147,
    148,
    149,
    150,
    151,
    152,
    153,
    154,
    155,
    156,
    157,
    158,
    159,
    160,
    161,
    162,
    163,
    164,
    165,
    166,
    167,
    168,
    169,
    170,
    171,
    172,
    173,
    174,
    175,
    176,
    177,
    178,
    179,
    180,
    181,
    182,
    183,
    184,
    185,
    186,
    187,
    188,
    189,
    190,
    191,
    192,
    193,
    194,
    195,
    196,
    197,
    198,
    199,
    200,
    201,
    202,
    203,
    204,
    205,
    206,
    207,
    208,
    209,
    210,
    211,
    212,
    213,
    214,
    215,
    216,
    217,
    218,
    219,
    220,
    221,
    222,
    223,
    224,
    225,
    226,
    227,
    228,
    229,
    230,
    231,
    232,
    233,
    234,
    235,
    236,
    237,
    238,
    239,
    240,
    241,
    242,
    243,
    244,
    245,
    246,
    247,
    248,
    249,
    250,
    251,
    252,
    253,
    254,
    255,
    256
   ],
   "LargestImagePixelValue": [
    2468,
    2380,
    2362,
    2369,
    2377,
    2361,
    2352,
    2447,
    2350,
    2376,
    2342,
    2364,
    2374,
    2382,
    2362,
    2349,
    2376,
    2360,
    2362,
    2349,
    2347,
    2355,
    2341,
    2336,
    2354,
    2353,
    2362,
    2357,
    2374,
    2364,
    2359,
    2358,
    2352,
    2366,
    2376,
    2400,
    2376,
    2384,
    2371,
    2377,
    2361,
    2376,
    2375,
    2406,
    2356,
    2380,
    2385,
    2359,
    2358,
    2360,
    2369,
    2385,
    2354,
    2357,
    2379,
    2345,
    2387,
    2364,
    2363,
    2350,
    2368,
    2371,
    2360,
    2371,
    2370,
    2367,
    2371,
    2378,
    2364,
    2390,
    2368,
    2368,
    2364,
    2363,
    2372,
    2354,
    2358,
    2358,
    2371,
    2420,
    2434,
    2392,
    2401,
    2371,
    2380,
    2346,
    2375,
    2380,
    2365,
    2389,
    2384,
    2360,
    2365,
    2363,
    2369,
    2364,
    2385,
    2377,
    2378,
    2384,
    2346,
    2358,
    2382,
    2350,
    2358,
    2525,
    2361,
    2365,
    2360,
    2374,
    2354,
    2359,
    2355,
    2361,
    2370,
    2398,
    2373,
    2369,
    2366,
    2368,
    2394,
    2378,
    2334,
    2362,
    2370,
    2352,
    2386,
    2361,
    2366,
    2355,
    2366,
    2360,
    2358,
    2355,
    2369,
    2351,
    2352,
    2368,
    2351,
    2354,
    2331,
    2358,
    2360,
    2340,
    2334,
    2344,
    2360,
    2370,
    2381,
    2360,
    2370,
    2335,
    2396,
    2354,
    2351,
    2347,
    2369,
    2355,
    2377,
    2360,
    2379,
    2353,
    2354,
    2333,
    2470,
    2430,
    2329,
    2337,
    2362,
    2354,
    2365,
    2340,
    2363,
    2361,
    2376,
    2349,
    2355,
    2346,
    2365,
    2370,
    2355,
    2332,
    2346,
    2341,
    2349,
    2363,
    2335,
    2337,
    2331,
    2362,
    2357,
    2328,
    2350,
    2333,
    2345,
    2319,
    2331,
    2326,
    2356,
    2348,
    2327,
    2336,
    2332,
    2340,
    2338,
    2328,
    2336,
    2330,
    2357,
    2321,
    2343,
    2366,
    2347,
    2341,
    2343,
    2339,
    2362,
    2352,
    2334,
    2381,
    2352,
    2342,
    2336,
    2331,
    2342,
    2347,
    2339,
    2333,
    2361,
    2383,
    2331,
    2333,
    2323,
    2328,
    2338,
    2315,
    2332,
    2334,
    2352,
    2337,
    2447,
    2350,
    2343,
    2332,
    2337,
    2333,
    2355,
    2347,
    2346,
    2333,
    2348,
    2338,
    2334,
    2339,
    2331,
    2323
   ],
   "WindowCenter": [
    720.0,
    717.0,
    716.0,
    716.0,
    715.0,
    714.0,
    714.0,
    716.0,
    716.0,
    716.0,
    716.0,
    717.0,
    717.0,
    716.0,
    715.0,
    715.0,
    716.0,
    715.0,
    715.0,
    715.0,
    715.0,
    716.0,
    716.0,
    716.0,
    716.0,
    715.0,
    715.0,
    716.0,
    716.0,
    716.0,
    715.0,
    715.0,
    715.0,
    715.0,
    715.0,
    716.0,
    715.0,
    715.0,
    715.0,
    715.0,
    715.0,
    716.0,
    716.0,
    715.0,
    713.0,
    714.0,
    715.0,
    715.0,
    715.0,
    714.0,
    714.0,
    714.0,
    713.0,
    714.0,
    714.0,
    714.0,
    715.0,
    714.0,
    715.0,
    714.0,
    715.0,
    715.0,
    715.0,
    716.0,
    716.0,
    715.0,
    715.0,
    716.0,
    716.0,
    715.0,
    714.0,
    713.0,
    713.0,
    713.0,
    713.0,
    714.0,
    715.0,
    715.0,
    715.0,
    715.0,
    715.0,
    715.0,
    715.0,
    714.0,
    714.0,
    713.0,
    714.0,
    715.0,
    717.0,
    717.0,
    716.0,
    714.0,
    714.0,
    713.0,
    713.0,
    714.0,
    715.0,
    714.0,
    714.0,
    715.0,
    715.0,
    715.0,
    715.0,
    714.0,
    714.0,
    717.0,
    715.0,
    716.0,
    716.0,
    715.0,
    715.0,
    715.0,
    715.0,
    715.0,
    715.0,
    715.0,
    714.0,
    715.0,
    716.0,
    716.0,
    715.0,
    715.0,
    714.0,
    715.0,
    715.0,
    716.0,
