{
 "AcquisitionMatrixPE": 100,
 "AcquisitionNumber": 1,
 "AcquisitionTime": "15:58:52.122500",
 "BandwidthPerPixelPhaseEncode": 18.519,
 "BaseResolution": 100,
 "BodyPartExamined": "BRAIN",
 "ConsistencyInfo": "N4_VE11C_LATEST_20160120",
 "ConversionSoftware": "dcm2niix",
 "ConversionSoftwareVersion": "v1.0.20180622 GCC4.9.2",
 "DerivedVendorReportedEchoSpacing": 0.000539986,
 "DeviceSerialNumber": "166078",
 "DwellTime": 2.1e-06,
 "EchoTime": 0.034,
 "EchoTrainLength": 100,
 "EffectiveEchoSpacing": 0.000539986,
 "FlipAngle": 90,
 "ImageOrientationPatientDICOM": [
  1,
  0,
  0,
  0,
  0.977416,
  -0.211325
 ],
 "ImageType": [
  "ORIGINAL",
  "PRIMARY",
  "M",
  "ND",
  "MOSAIC"
 ],
 "InPlanePhaseEncodingDirectionDICOM": "COL",
 "InstitutionAddress": "Street_StreetNo_Bei_Jing_District_CN_ZIP",
 "InstitutionName": "BeiJing_Normal_University",
 "InstitutionalDepartmentName": "Department",
 "MRAcquisitionType": "2D",
 "MagneticFieldStrength": 3,
 "Manufacturer": "Siemens",
 "ManufacturersModelName": "Prisma",
 "Modality": "MR",
 "MultibandAccelerationFactor": 3,
 "PartialFourier": 1,
 "PatientPosition": "HFS",
 "PercentPhaseFOV": 100,
 "PhaseEncodingDirection": "j-",
 "PhaseEncodingSteps": 100,
 "PhaseResolution": 1,
 "PixelBandwidth": 2380,
 "ProcedureStepDescription": "BNU_P2018_64CH_Zhen.ZongLei",
 "ProtocolName": "bold_100x100_s3_2x2x2_static_256",
 "PulseSequenceDetails": "%SiemensSeq%_ep2d_bold",
 "ReceiveCoilActiveElements": "HC1-7;NC1",
 "ReceiveCoilName": "HeadNeck_64",
 "ReconMatrixPE": 100,
 "RepetitionTime": 2,
 "SAR": 0.0682582,
 "ScanOptions": "FS",
 "ScanningSequence": "EP",
 "SequenceName": "_epfid2d1_100",
 "SequenceVariant": "SK",
 "SeriesDescription": "bold_100x100_s3_2x2x2_static_256",
 "SeriesNumber": 10,
 "ShimSetting": [
  -5412,
  -11519,
  -1322,
  422,
  35,
  -288,
  -292,
  -21
 ],
 "SliceThickness": 2,
 "SliceTiming": [
  1.485,
  0,
  0.99,
  0.0825,
  1.0725,
  0.165,
  1.155,
  0.2475,
  1.2375,
  0.33,
  1.32,
  0.4125,
  1.4025,
  0.5775,
  1.5675,
  0.66,
  1.65,
  0.7425,
  1.7325,
  0.825,
  1.815,
  0.9075,
  1.8975,
  0.495,
  1.485,
  0,
  0.99,
  0.0825,
  1.0725,
  0.165,
  1.155,
  0.2475,
  1.2375,
  0.33,
  1.32,
  0.4125,
  1.4025,
  0.5775,
  1.5675,
  0.66,
  1.65,
  0.7425,
  1.7325,
  0.825,
  1.815,
  0.9075,
  1.8975,
  0.495,
  1.485,
  0,
  0.99,
  0.0825,
  1.0725,
  0.165,
  1.155,
  0.2475,
  1.2375,
  0.33,
  1.32,
  0.4125,
  1.4025,
  0.5775,
  1.5675,
  0.66,
  1.65,
  0.7425,
  1.7325,
  0.825,
  1.815,
  0.9075,
  1.8975,
  0.495
 ],
 "SoftwareVersions": "syngo_MR_E11",
 "SpacingBetweenSlices": 2,
 "StationName": "AWP166078",
 "TaskName": "imagenet",
 "TotalReadoutTime": 0.0534586,
 "TxRefAmp": 216.68,
 "dcmmeta_affine": [
  [
   -2.0,
   0.0,
   0.0,
   100.67796325683594
  ],
  [
   0.0,
   1.954831838607788,
   -0.4226495921611786,
   -73.9981918334961
  ],
  [
   0.0,
   0.4226495623588562,
   1.954831838607788,
   -85.14752197265625
  ],
  [
   0.0,
   0.0,
   0.0,
   1.0
  ]
 ],
 "dcmmeta_reorient_transform": [
  [
   0.0,
   -1.0,
   0.0,
   99.0
  ],
  [
   1.0,
   0.0,
   0.0,
   0.0
  ],
  [
   0.0,
   0.0,
   1.0,
   0.0
  ],
  [
   0.0,
   0.0,
   0.0,
   1.0
  ]
 ],
 "dcmmeta_shape": [
  100,
  100,
  72,
  256
 ],
 "dcmmeta_slice_dim": 2,
 "dcmmeta_version": 0.6,
 "global": {
  "const": {
   "AcquisitionMatrix": [
    100,
    0,
    0,
    100
   ],
   "AngioFlag": "N",
   "BitsAllocated": 16,
   "BitsStored": 12,
   "BodyPartExamined": "BRAIN",
   "Columns": 900,
   "EchoNumbers": 1,
   "EchoTime": 34.0,
   "EchoTrainLength": 100,
   "FlipAngle": 90.0,
   "HighBit": 11,
   "ImageOrientationPatient": [
    1.0,
    0.0,
    0.0,
    0.0,
    0.97741589648343,
    -0.2113247862923
   ],
   "ImagePositionPatient": [
    -900.67796611786,
    -901.46287151709,
    125.75461692821
   ],
   "ImageType": [
    "ORIGINAL",
    "PRIMARY",
    "M",
    "ND",
    "MOSAIC"
   ],
   "ImagedNucleus": "1H",
   "ImagingFrequency": 123.257803,
   "InPlanePhaseEncodingDirection": "COL",
   "MRAcquisitionType": "2D",
   "MagneticFieldStrength": 3.0,
   "Manufacturer": "SIEMENS",
   "ManufacturerModelName": "Prisma",
   "Modality": "MR",
   "NumberOfAverages": 1.0,
   "NumberOfPhaseEncodingSteps": 100,
   "PercentPhaseFieldOfView": 100.0,
   "PercentSampling": 100.0,
   "PerformedProcedureStepStartTime": "145722.228000",
   "PhotometricInterpretation": "MONOCHROME2",
   "PixelBandwidth": 2380.0,
   "PixelRepresentation": 0,
   "PixelSpacing": [
    2.0,
    2.0
   ],
   "ProtocolName": "bold_100x100_s3_2x2x2_static_256",
   "RepetitionTime": 2000.0,
   "Rows": 900,
   "SAR": 0.06825822162355,
   "SamplesPerPixel": 1,
   "ScanOptions": "FS",
   "ScanningSequence": "EP",
   "SequenceName": "*epfid2d1_100",
   "SequenceVariant": "SK",
   "SeriesDescription": "bold_100x100_s3_2x2x2_static_256",
   "SeriesNumber": 10,
   "SeriesTime": "155855.332000",
   "SliceLocation": -67.58688703198,
   "SliceThickness": 2.0,
   "SmallestImagePixelValue": 0,
   "SoftwareVersions": "syngo MR E11",
   "SpacingBetweenSlices": 2.0000000467956,
   "SpecificCharacterSet": "ISO_IR 100",
   "StudyID": "1",
   "StudyTime": "145722.150000",
   "TransmitCoilName": "Body",
   "VariableFlipAngleFlag": "N",
   "WindowCenterWidthExplanation": "Algo1",
   "dBdt": 0.0
  },
  "slices": {}
 },
 "time": {
  "samples": {
   "AcquisitionNumber": [
    1,
    2,
    3,
    4,
    5,
    6,
    7,
    8,
    9,
    10,
    11,
    12,
    13,
    14,
    15,
    16,
    17,
    18,
    19,
    20,
    21,
    22,
    23,
    24,
    25,
    26,
    27,
    28,
    29,
    30,
    31,
    32,
    33,
    34,
    35,
    36,
    37,
    38,
    39,
    40,
    41,
    42,
    43,
    44,
    45,
    46,
    47,
    48,
    49,
    50,
    51,
    52,
    53,
    54,
    55,
    56,
    57,
    58,
    59,
    60,
    61,
    62,
    63,
    64,
    65,
    66,
    67,
    68,
    69,
    70,
    71,
    72,
    73,
    74,
    75,
    76,
    77,
    78,
    79,
    80,
    81,
    82,
    83,
    84,
    85,
    86,
    87,
    88,
    89,
    90,
    91,
    92,
    93,
    94,
    95,
    96,
    97,
    98,
    99,
    100,
    101,
    102,
    103,
    104,
    105,
    106,
    107,
    108,
    109,
    110,
    111,
    112,
    113,
    114,
    115,
    116,
    117,
    118,
    119,
    120,
    121,
    122,
    123,
    124,
    125,
    126,
    127,
    128,
    129,
    130,
    131,
    132,
    133,
    134,
    135,
    136,
    137,
    138,
    139,
    140,
    141,
    142,
    143,
    144,
    145,
    146,
    147,
    148,
    149,
    150,
    151,
    152,
    153,
    154,
    155,
    156,
    157,
    158,
    159,
    160,
    161,
    162,
    163,
    164,
    165,
    166,
    167,
    168,
    169,
    170,
    171,
    172,
    173,
    174,
    175,
    176,
    177,
    178,
    179,
    180,
    181,
    182,
    183,
    184,
    185,
    186,
    187,
    188,
    189,
    190,
    191,
    192,
    193,
    194,
    195,
    196,
    197,
    198,
    199,
    200,
    201,
    202,
    203,
    204,
    205,
    206,
    207,
    208,
    209,
    210,
    211,
    212,
    213,
    214,
    215,
    216,
    217,
    218,
    219,
    220,
    221,
    222,
    223,
    224,
    225,
    226,
    227,
    228,
    229,
    230,
    231,
    232,
    233,
    234,
    235,
    236,
    237,
    238,
    239,
    240,
    241,
    242,
    243,
    244,
    245,
    246,
    247,
    248,
    249,
    250,
    251,
    252,
    253,
    254,
    255,
    256
   ],
   "AcquisitionTime": [
    "155852.122500",
    "155854.122500",
    "155856.122500",
    "155858.122500",
    "155900.122500",
    "155902.122500",
    "155904.122500",
    "155906.122500",
    "155908.122500",
    "155910.122500",
    "155912.122500",
    "155914.122500",
    "155916.122500",
    "155918.122500",
    "155920.122500",
    "155922.122500",
    "155924.122500",
    "155926.122500",
    "155928.122500",
    "155930.122500",
    "155932.122500",
    "155934.122500",
    "155936.122500",
    "155938.122500",
    "155940.122500",
    "155942.122500",
    "155944.122500",
    "155946.122500",
    "155948.122500",
    "155950.122500",
    "155952.122500",
    "155954.122500",
    "155956.122500",
    "155958.122500",
    "160000.122500",
    "160002.122500",
    "160004.122500",
    "160006.122500",
    "160008.122500",
    "160010.122500",
    "160012.122500",
    "160014.122500",
    "160016.122500",
    "160018.122500",
    "160020.122500",
    "160022.122500",
    "160024.122500",
    "160026.122500",
    "160028.122500",
    "160030.122500",
    "160032.122500",
    "160034.122500",
    "160036.122500",
    "160038.122500",
    "160040.122500",
    "160042.122500",
    "160044.122500",
    "160046.122500",
    "160048.122500",
    "160050.122500",
    "160052.122500",
    "160054.122500",
    "160056.122500",
    "160058.122500",
    "160100.122500",
    "160102.122500",
    "160104.122500",
    "160106.122500",
    "160108.122500",
    "160110.122500",
    "160112.122500",
    "160114.122500",
    "160116.122500",
    "160118.122500",
    "160120.122500",
    "160122.122500",
    "160124.122500",
    "160126.122500",
    "160128.122500",
    "160130.122500",
    "160132.122500",
    "160134.122500",
    "160136.122500",
    "160138.122500",
    "160140.122500",
    "160142.122500",
    "160144.122500",
    "160146.122500",
    "160148.122500",
    "160150.122500",
    "160152.122500",
    "160154.122500",
    "160156.122500",
    "160158.122500",
    "160200.122500",
    "160202.122500",
    "160204.122500",
    "160206.122500",
    "160208.122500",
    "160210.122500",
    "160212.122500",
    "160214.122500",
    "160216.122500",
    "160218.122500",
    "160220.122500",
    "160222.122500",
    "160224.122500",
    "160226.122500",
    "160228.122500",
    "160230.122500",
    "160232.122500",
    "160234.122500",
    "160236.122500",
    "160238.122500",
    "160240.122500",
    "160242.122500",
    "160244.122500",
    "160246.122500",
    "160248.122500",
    "160250.122500",
    "160252.122500",
    "160254.122500",
    "160256.122500",
    "160258.122500",
    "160300.122500",
    "160302.122500",
    "160304.122500",
    "160306.122500",
    "160308.122500",
    "160310.122500",
    "160312.122500",
    "160314.122500",
    "160316.122500",
    "160318.122500",
    "160320.122500",
    "160322.122500",
    "160324.122500",
    "160326.122500",
    "160328.122500",
    "160330.122500",
    "160332.122500",
    "160334.122500",
    "160336.122500",
    "160338.122500",
    "160340.122500",
    "160342.122500",
    "160344.122500",
    "160346.122500",
    "160348.122500",
    "160350.122500",
    "160352.122500",
    "160354.122500",
    "160356.122500",
    "160358.122500",
    "160400.122500",
    "160402.122500",
    "160404.122500",
    "160406.122500",
    "160408.122500",
    "160410.122500",
    "160412.122500",
    "160414.122500",
    "160416.122500",
    "160418.122500",
    "160420.122500",
    "160422.122500",
    "160424.122500",
    "160426.122500",
    "160428.122500",
    "160430.122500",
    "160432.122500",
    "160434.122500",
    "160436.122500",
    "160438.122500",
    "160440.122500",
    "160442.122500",
    "160444.122500",
    "160446.122500",
    "160448.122500",
    "160450.122500",
    "160452.122500",
    "160454.122500",
    "160456.122500",
    "160458.122500",
    "160500.122500",
    "160502.122500",
    "160504.122500",
    "160506.122500",
    "160508.122500",
    "160510.122500",
    "160512.122500",
    "160514.122500",
    "160516.122500",
    "160518.122500",
    "160520.122500",
    "160522.122500",
    "160524.122500",
    "160526.122500",
    "160528.122500",
    "160530.122500",
    "160532.122500",
    "160534.122500",
    "160536.122500",
    "160538.122500",
    "160540.122500",
    "160542.122500",
    "160544.122500",
    "160546.122500",
    "160548.122500",
    "160550.122500",
    "160552.122500",
    "160554.122500",
    "160556.122500",
    "160558.122500",
    "160600.122500",
    "160602.122500",
    "160604.122500",
    "160606.122500",
    "160608.122500",
    "160610.122500",
    "160612.122500",
    "160614.122500",
    "160616.122500",
    "160618.122500",
    "160620.122500",
    "160622.122500",
    "160624.122500",
    "160626.122500",
    "160628.122500",
    "160630.122500",
    "160632.122500",
    "160634.122500",
    "160636.122500",
    "160638.122500",
    "160640.122500",
    "160642.122500",
    "160644.122500",
    "160646.122500",
    "160648.122500",
    "160650.122500",
    "160652.122500",
    "160654.122500",
    "160656.122500",
    "160658.122500",
    "160700.122500",
    "160702.122500",
    "160704.122500",
    "160706.122500",
    "160708.122500",
    "160710.122500",
    "160712.122500",
    "160714.122500",
    "160716.122500",
    "160718.122500",
    "160720.122500",
    "160722.122500"
   ],
   "ContentTime": [
    "155855.336000",
    "155856.833000",
    "155858.832000",
    "155900.832000",
    "155902.832000",
    "155904.832000",
    "155906.831000",
    "155908.831000",
    "155910.831000",
    "155912.832000",
    "155914.833000",
    "155916.832000",
    "155918.833000",
    "155920.833000",
    "155922.831000",
    "155924.831000",
    "155926.831000",
    "155928.832000",
    "155930.831000",
    "155932.833000",
    "155934.832000",
    "155936.832000",
    "155938.832000",
    "155940.833000",
    "155942.831000",
    "155944.831000",
    "155946.832000",
    "155948.832000",
    "155950.833000",
    "155952.833000",
    "155954.833000",
    "155956.831000",
    "155958.831000",
    "160000.832000",
    "160002.831000",
    "160004.831000",
    "160006.833000",
    "160008.832000",
    "160010.833000",
    "160012.833000",
    "160014.831000",
    "160016.831000",
    "160018.832000",
    "160020.831000",
    "160022.831000",
    "160024.832000",
    "160026.832000",
    "160028.832000",
    "160030.832000",
    "160032.832000",
    "160034.832000",
    "160036.832000",
    "160038.832000",
    "160040.832000",
    "160042.833000",
    "160044.833000",
    "160046.833000",
    "160048.833000",
    "160050.832000",
    "160052.832000",
    "160054.832000",
    "160056.832000",
    "160058.833000",
    "160100.833000",
    "160102.832000",
    "160104.833000",
    "160106.831000",
    "160108.831000",
    "160110.831000",
    "160112.832000",
    "160114.831000",
    "160116.832000",
    "160118.833000",
    "160120.832000",
    "160122.832000",
    "160124.832000",
    "160126.832000",
    "160128.832000",
    "160130.831000",
    "160132.831000",
    "160134.832000",
    "160136.832000",
    "160138.833000",
    "160140.832000",
    "160142.831000",
    "160144.831000",
    "160146.831000",
    "160148.831000",
    "160150.832000",
    "160152.832000",
    "160154.832000",
    "160156.832000",
    "160158.832000",
    "160200.832000",
    "160202.832000",
    "160204.831000",
    "160206.832000",
    "160208.832000",
    "160210.832000",
    "160212.833000",
    "160214.832000",
    "160216.832000",
    "160218.831000",
    "160220.831000",
    "160222.831000",
    "160224.831000",
    "160226.832000",
    "160228.832000",
    "160230.832000",
    "160232.832000",
    "160234.832000",
    "160236.831000",
    "160238.832000",
    "160240.832000",
    "160242.832000",
    "160244.833000",
    "160246.833000",
    "160248.833000",
    "160250.833000",
    "160252.831000",
    "160254.832000",
    "160256.832000",
    "160258.832000",
    "160300.833000",
    "160302.833000",
    "160304.832000",
    "160306.832000",
    "160308.832000",
    "160310.832000",
    "160312.831000",
    "160314.832000",
    "160316.832000",
    "160318.833000",
    "160320.833000",
    "160322.833000",
    "160324.833000",
    "160326.832000",
    "160328.831000",
    "160330.831000",
    "160332.832000",
    "160334.831000",
    "160336.832000",
    "160338.832000",
    "160340.832000",
    "160342.832000",
    "160344.832000",
    "160346.831000",
    "160348.831000",
    "160350.832000",
    "160352.831000",
    "160354.833000",
    "160356.833000",
    "160358.833000",
    "160400.832000",
    "160402.832000",
    "160404.832000",
    "160406.831000",
    "160408.832000",
    "160410.833000",
    "160412.832000",
    "160414.833000",
    "160416.833000",
    "160418.833000",
    "160420.832000",
    "160422.831000",
    "160424.831000",
    "160426.832000",
    "160428.832000",
    "160430.833000",
    "160432.833000",
    "160434.833000",
    "160436.832000",
    "160438.831000",
    "160440.832000",
    "160442.831000",
    "160444.832000",
    "160446.833000",
    "160448.833000",
    "160450.833000",
    "160452.832000",
    "160454.831000",
    "160456.832000",
    "160458.832000",
    "160500.832000",
    "160502.832000",
    "160504.832000",
    "160506.832000",
    "160508.833000",
    "160510.832000",
    "160512.831000",
    "160514.831000",
    "160516.832000",
    "160518.832000",
    "160520.833000",
    "160522.832000",
    "160524.833000",
    "160526.833000",
    "160528.833000",
    "160530.831000",
    "160532.831000",
    "160534.831000",
    "160536.832000",
    "160538.832000",
    "160540.832000",
    "160542.833000",
    "160544.833000",
    "160546.831000",
    "160548.831000",
    "160550.832000",
    "160552.832000",
    "160554.832000",
    "160556.833000",
    "160558.833000",
    "160600.833000",
    "160602.833000",
    "160604.832000",
    "160606.832000",
    "160608.832000",
    "160610.832000",
    "160612.832000",
    "160614.833000",
    "160616.833000",
    "160618.833000",
    "160620.832000",
    "160622.832000",
    "160624.831000",
    "160626.832000",
    "160628.832000",
    "160630.832000",
    "160632.833000",
    "160634.833000",
    "160636.833000",
    "160638.832000",
    "160640.832000",
    "160642.832000",
    "160644.831000",
    "160646.831000",
    "160648.833000",
    "160650.832000",
    "160652.832000",
    "160654.833000",
    "160656.831000",
    "160658.832000",
    "160700.831000",
    "160702.832000",
    "160704.832000",
    "160706.833000",
    "160708.832000",
    "160710.832000",
    "160712.833000",
    "160714.832000",
    "160716.832000",
    "160718.831000",
    "160720.832000",
    "160722.832000",
    "160724.405000"
   ],
   "InstanceCreationTime": [
    "155855.336000",
    "155856.833000",
    "155858.832000",
    "155900.832000",
    "155902.832000",
    "155904.832000",
    "155906.831000",
    "155908.831000",
    "155910.831000",
    "155912.832000",
    "155914.833000",
    "155916.832000",
    "155918.833000",
    "155920.833000",
    "155922.831000",
    "155924.831000",
    "155926.831000",
    "155928.832000",
    "155930.831000",
    "155932.833000",
    "155934.832000",
    "155936.832000",
    "155938.832000",
    "155940.833000",
    "155942.831000",
    "155944.831000",
    "155946.832000",
    "155948.832000",
    "155950.833000",
    "155952.833000",
    "155954.833000",
    "155956.831000",
    "155958.831000",
    "160000.832000",
    "160002.831000",
    "160004.831000",
    "160006.833000",
    "160008.832000",
    "160010.833000",
    "160012.833000",
    "160014.831000",
    "160016.831000",
    "160018.832000",
    "160020.831000",
    "160022.831000",
    "160024.832000",
    "160026.832000",
    "160028.832000",
    "160030.832000",
    "160032.832000",
    "160034.832000",
    "160036.832000",
    "160038.832000",
    "160040.832000",
    "160042.833000",
    "160044.833000",
    "160046.833000",
    "160048.833000",
    "160050.832000",
    "160052.832000",
    "160054.832000",
    "160056.832000",
    "160058.833000",
    "160100.833000",
    "160102.832000",
    "160104.833000",
    "160106.831000",
    "160108.831000",
    "160110.831000",
    "160112.832000",
    "160114.831000",
    "160116.832000",
    "160118.833000",
    "160120.832000",
    "160122.832000",
    "160124.832000",
    "160126.832000",
    "160128.832000",
    "160130.831000",
    "160132.831000",
    "160134.832000",
    "160136.832000",
    "160138.833000",
    "160140.832000",
    "160142.831000",
    "160144.831000",
    "160146.831000",
    "160148.831000",
    "160150.832000",
    "160152.832000",
    "160154.832000",
    "160156.832000",
    "160158.832000",
    "160200.832000",
    "160202.832000",
    "160204.831000",
    "160206.832000",
    "160208.832000",
    "160210.832000",
    "160212.833000",
    "160214.832000",
    "160216.832000",
    "160218.831000",
    "160220.831000",
    "160222.831000",
    "160224.831000",
    "160226.832000",
    "160228.832000",
    "160230.832000",
    "160232.832000",
    "160234.832000",
    "160236.831000",
    "160238.832000",
    "160240.832000",
    "160242.832000",
    "160244.833000",
    "160246.833000",
    "160248.833000",
    "160250.833000",
    "160252.831000",
    "160254.832000",
    "160256.832000",
    "160258.832000",
    "160300.833000",
    "160302.833000",
    "160304.832000",
    "160306.832000",
    "160308.832000",
    "160310.832000",
    "160312.831000",
    "160314.832000",
    "160316.832000",
    "160318.833000",
    "160320.833000",
    "160322.833000",
    "160324.833000",
    "160326.832000",
    "160328.831000",
    "160330.831000",
    "160332.832000",
    "160334.831000",
    "160336.832000",
    "160338.832000",
    "160340.832000",
    "160342.832000",
    "160344.832000",
    "160346.831000",
    "160348.831000",
    "160350.832000",
    "160352.831000",
    "160354.833000",
    "160356.833000",
    "160358.833000",
    "160400.832000",
    "160402.832000",
    "160404.832000",
    "160406.831000",
    "160408.832000",
    "160410.833000",
    "160412.832000",
    "160414.833000",
    "160416.833000",
    "160418.833000",
    "160420.832000",
    "160422.831000",
    "160424.831000",
    "160426.832000",
    "160428.832000",
    "160430.833000",
    "160432.833000",
    "160434.833000",
    "160436.832000",
    "160438.831000",
    "160440.832000",
    "160442.831000",
    "160444.832000",
    "160446.833000",
    "160448.833000",
    "160450.833000",
    "160452.832000",
    "160454.831000",
    "160456.832000",
    "160458.832000",
    "160500.832000",
    "160502.832000",
    "160504.832000",
    "160506.832000",
    "160508.833000",
    "160510.832000",
    "160512.831000",
    "160514.831000",
    "160516.832000",
    "160518.832000",
    "160520.833000",
    "160522.832000",
    "160524.833000",
    "160526.833000",
    "160528.833000",
    "160530.831000",
    "160532.831000",
    "160534.831000",
    "160536.832000",
    "160538.832000",
    "160540.832000",
    "160542.833000",
    "160544.833000",
    "160546.831000",
    "160548.831000",
    "160550.832000",
    "160552.832000",
    "160554.832000",
    "160556.833000",
    "160558.833000",
    "160600.833000",
    "160602.833000",
    "160604.832000",
    "160606.832000",
    "160608.832000",
    "160610.832000",
    "160612.832000",
    "160614.833000",
    "160616.833000",
    "160618.833000",
    "160620.832000",
    "160622.832000",
    "160624.831000",
    "160626.832000",
    "160628.832000",
    "160630.832000",
    "160632.833000",
    "160634.833000",
    "160636.833000",
    "160638.832000",
    "160640.832000",
    "160642.832000",
    "160644.831000",
    "160646.831000",
    "160648.833000",
    "160650.832000",
    "160652.832000",
    "160654.833000",
    "160656.831000",
    "160658.832000",
    "160700.831000",
    "160702.832000",
    "160704.832000",
    "160706.833000",
    "160708.832000",
    "160710.832000",
    "160712.833000",
    "160714.832000",
    "160716.832000",
    "160718.831000",
    "160720.832000",
    "160722.832000",
    "160724.405000"
   ],
   "InstanceNumber": [
    1,
    2,
    3,
    4,
    5,
    6,
    7,
    8,
    9,
    10,
    11,
    12,
    13,
    14,
    15,
    16,
    17,
    18,
    19,
    20,
    21,
    22,
    23,
    24,
    25,
    26,
    27,
    28,
    29,
    30,
    31,
    32,
    33,
    34,
    35,
    36,
    37,
    38,
    39,
    40,
    41,
    42,
    43,
    44,
    45,
    46,
    47,
    48,
    49,
    50,
    51,
    52,
    53,
    54,
    55,
    56,
    57,
    58,
    59,
    60,
    61,
    62,
    63,
    64,
    65,
    66,
    67,
    68,
    69,
    70,
    71,
    72,
    73,
    74,
    75,
    76,
    77,
    78,
    79,
    80,
    81,
    82,
    83,
    84,
    85,
    86,
    87,
    88,
    89,
    90,
    91,
    92,
    93,
    94,
    95,
    96,
    97,
    98,
    99,
    100,
    101,
    102,
    103,
    104,
    105,
    106,
    107,
    108,
    109,
    110,
    111,
    112,
    113,
    114,
    115,
    116,
    117,
    118,
    119,
    120,
    121,
    122,
    123,
    124,
    125,
    126,
    127,
    128,
    129,
    130,
    131,
    132,
    133,
    134,
    135,
    136,
    137,
    138,
    139,
    140,
    141,
    142,
    143,
    144,
    145,
    146,
    147,
    148,
    149,
    150,
    151,
    152,
    153,
    154,
    155,
    156,
    157,
    158,
    159,
    160,
    161,
    162,
    163,
    164,
    165,
    166,
    167,
    168,
    169,
    170,
    171,
    172,
    173,
    174,
    175,
    176,
    177,
    178,
    179,
    180,
    181,
    182,
    183,
    184,
    185,
    186,
    187,
    188,
    189,
    190,
    191,
    192,
    193,
    194,
    195,
    196,
    197,
    198,
    199,
    200,
    201,
    202,
    203,
    204,
    205,
    206,
    207,
    208,
    209,
    210,
    211,
    212,
    213,
    214,
    215,
    216,
    217,
    218,
    219,
    220,
    221,
    222,
    223,
    224,
    225,
    226,
    227,
    228,
    229,
    230,
    231,
    232,
    233,
    234,
    235,
    236,
    237,
    238,
    239,
    240,
    241,
    242,
    243,
    244,
    245,
    246,
    247,
    248,
    249,
    250,
    251,
    252,
    253,
    254,
    255,
    256
   ],
   "LargestImagePixelValue": [
    2494,
    2493,
    2459,
    2442,
    2471,
    2472,
    2458,
    2447,
    2449,
    2455,
    2450,
    2456,
    2477,
    2472,
    2472,
    2448,
    2439,
    2463,
    2437,
    2468,
    2441,
    2434,
    2457,
    2442,
    2460,
    2480,
    2454,
    2455,
    2452,
    2460,
    2442,
    2459,
    2451,
    2456,
    2466,
    2462,
    2448,
    2453,
    2444,
    2474,
    2448,
    2466,
    2453,
    2448,
    2443,
    2443,
    2455,
    2454,
    2447,
    2436,
    2471,
    2440,
    2440,
    2446,
    2437,
    2427,
    2461,
    2439,
    2435,
    2446,
    2475,
    2436,
    2441,
    2448,
    2448,
    2434,
    2428,
    2428,
    2447,
    2448,
    2424,
    2428,
    2440,
    2430,
    2451,
    2449,
    2458,
    2462,
    2457,
    2450,
    2453,
    2447,
    2423,
    2441,
    2444,
    2410,
    2437,
    2429,
    2431,
    2436,
    2443,
    2467,
    2436,
    2443,
    2460,
    2447,
    2439,
    2462,
    2416,
    2426,
    2452,
    2442,
    2447,
    2425,
    2408,
    2453,
    2449,
    2438,
    2421,
    2433,
    2407,
    2447,
    2409,
    2407,
    2417,
    2422,
    2420,
    2436,
    2448,
    2415,
    2401,
    2421,
    2406,
    2431,
    2396,
    2432,
    2406,
    2403,
    2409,
    2377,
    2418,
    2406,
    2366,
    2376,
    2393,
    2386,
    2398,
    2391,
    2409,
    2375,
    2380,
    2373,
    2401,
    2398,
    2414,
    2393,
    2398,
    2415,
    2384,
    2400,
    2393,
    2400,
    2390,
    2376,
    2382,
    2398,
    2416,
    2377,
    2403,
    2380,
    2394,
    2386,
    2403,
    2396,
    2381,
    2369,
    2420,
    2394,
    2381,
    2376,
    2392,
    2401,
    2394,
    2410,
    2366,
    2398,
    2376,
    2365,
    2397,
    2360,
    2399,
    2399,
    2374,
    2396,
    2399,
    2394,
    2348,
    2394,
    2370,
    2363,
    2379,
    2384,
    2390,
    2375,
    2381,
    2385,
    2404,
    2396,
    2383,
    2376,
    2410,
    2377,
    2399,
    2396,
    2398,
    2400,
    2388,
    2367,
    2356,
    2393,
    2391,
    2343,
    2372,
    2382,
    2386,
    2386,
    2372,
    2347,
    2386,
    2354,
    2735,
    2380,
    2388,
    2388,
    2377,
    2380,
    2394,
    2373,
    2370,
    2397,
    2368,
    2413,
    2374,
    2378,
    2403,
    2360,
    2376,
    2371,
    2380,
    2375,
    2360,
    2358,
    2380,
    2401,
    2363,
    2371,
    2371,
    2385,
    2381,
    2370,
    2344,
    2385,
    2362,
    2378,
    2388,
    2456
   ],
   "WindowCenter": [
    719.0,
    717.0,
    716.0,
    716.0,
    716.0,
    716.0,
    715.0,
    715.0,
    716.0,
    716.0,
    716.0,
    717.0,
    717.0,
    717.0,
    717.0,
    716.0,
    716.0,
    716.0,
    716.0,
    716.0,
    716.0,
    715.0,
    715.0,
    715.0,
    715.0,
    715.0,
    715.0,
    716.0,
    716.0,
    716.0,
    715.0,
    715.0,
    715.0,
    715.0,
    715.0,
    715.0,
    716.0,
    716.0,
    715.0,
    716.0,
    715.0,
    716.0,
    716.0,
    715.0,
    715.0,
    715.0,
    715.0,
    715.0,
    715.0,
    715.0,
    716.0,
    716.0,
    716.0,
    715.0,
    714.0,
    714.0,
    716.0,
    715.0,
    715.0,
    715.0,
    715.0,
    715.0,
    715.0,
    715.0,
    714.0,
    714.0,
    714.0,
    715.0,
    715.0,
    715.0,
    715.0,
    715.0,
    715.0,
    714.0,
    715.0,
    716.0,
    717.0,
    716.0,
    714.0,
    714.0,
    715.0,
    715.0,
    714.0,
    714.0,
    714.0,
    714.0,
    714.0,
    714.0,
    714.0,
    715.0,
    715.0,
    716.0,
    716.0,
    716.0,
    716.0,
    715.0,
    715.0,
    715.0,
    714.0,
    714.0,
    714.0,
    714.0,
    714.0,
    714.0,
    714.0,
    715.0,
    715.0,
    715.0,
    715.0,
    714.0,
    714.0,
    715.0,
    714.0,
    713.0,
    714.0,
    715.0,
    715.0,
    714.0,
    714.0,
    715.0,
    715.0,
    716.0,
    717.0,
    717.0,
    715.0,
