{
  "AcquisitionMatrixPE": 100,
  "AcquisitionNumber": 1,
  "AcquisitionTime": "15:25:39.187500",
  "BandwidthPerPixelPhaseEncode": 18.519,
  "BaseResolution": 100,
  "BodyPartExamined": "BRAIN",
  "ConsistencyInfo": "N4_VE11C_LATEST_20160120",
  "ConversionSoftware": "dcm2niix",
  "ConversionSoftwareVersion": "v1.0.20180622 GCC4.9.2",
  "DerivedVendorReportedEchoSpacing": 0.000539986,
  "DeviceSerialNumber": "166078",
  "DwellTime": 2.1e-06,
  "EchoTime": 0.034,
  "EchoTrainLength": 100,
  "EffectiveEchoSpacing": 0.000539986,
  "FlipAngle": 90,
  "ImageOrientationPatientDICOM": [1, 0, 0, 0, 0.977416, -0.211325],
  "ImageType": [
    "ORIGINAL",
    "PRIMARY",
    "M",
    "ND",
    "MOSAIC"
],
  "InPlanePhaseEncodingDirectionDICOM": "COL",
  "InstitutionAddress": "Street_StreetNo_Bei_Jing_District_CN_ZIP",
  "InstitutionName": "BeiJing_Normal_University",
  "InstitutionalDepartmentName": "Department",
  "MRAcquisitionType": "2D",
  "MagneticFieldStrength": 3,
  "Manufacturer": "Siemens",
  "ManufacturersModelName": "Prisma",
  "Modality": "MR",
  "MultibandAccelerationFactor": 3,
  "PartialFourier": 1,
  "PatientPosition": "HFS",
  "PercentPhaseFOV": 100,
  "PhaseEncodingDirection": "j-",
  "PhaseEncodingSteps": 100,
  "PhaseResolution": 1,
  "PixelBandwidth": 2380,
  "ProcedureStepDescription": "BNU_P2018_64CH_Zhen.ZongLei",
  "ProtocolName": "bold_100x100_s3_2x2x2_static_256",
  "PulseSequenceDetails": "%SiemensSeq%_ep2d_bold",
  "ReceiveCoilActiveElements": "HC1-7;NC1",
  "ReceiveCoilName": "HeadNeck_64",
  "ReconMatrixPE": 100,
  "RepetitionTime": 2,
  "SAR": 0.0682582,
  "ScanOptions": "FS",
  "ScanningSequence": "EP",
  "SequenceName": "_epfid2d1_100",
  "SequenceVariant": "SK",
  "SeriesDescription": "bold_100x100_s3_2x2x2_static_256",
  "SeriesNumber": 5,
  "ShimSetting": [-5412, -11519, -1322, 422, 35, -288, -292, -21],
  "SliceThickness": 2,
  "SliceTiming": [1.485, 0, 0.99, 0.0825, 1.0725, 0.165, 1.155, 0.2475, 1.2375, 0.33, 1.32, 0.4125, 1.4025, 0.5775, 1.5675, 0.66, 1.65, 0.7425, 1.7325, 0.825, 1.815, 0.9075, 1.8975, 0.495, 1.485, 0, 0.99, 0.0825, 1.0725, 0.165, 1.155, 0.2475, 1.2375, 0.33, 1.32, 0.4125, 1.4025, 0.5775, 1.5675, 0.66, 1.65, 0.7425, 1.7325, 0.825, 1.815, 0.9075, 1.8975, 0.495, 1.485, 0, 0.99, 0.0825, 1.0725, 0.165, 1.155, 0.2475, 1.2375, 0.33, 1.32, 0.4125, 1.4025, 0.5775, 1.5675, 0.66, 1.65, 0.7425, 1.7325, 0.825, 1.815, 0.9075, 1.8975, 0.495],
  "SoftwareVersions": "syngo_MR_E11",
  "SpacingBetweenSlices": 2,
  "StationName": "AWP166078",
  "TaskName": "naturalvision",
  "TotalReadoutTime": 0.0534586,
  "TxRefAmp": 216.68,
  "dcmmeta_affine": [
    [-2.0, 0.0, 0.0, 100.67796325683594],
    [0.0, 1.954831838607788, -0.4226495921611786, -73.9981918334961],
    [0.0, 0.4226495623588562, 1.954831838607788, -85.14752197265625],
    [0.0, 0.0, 0.0, 1.0]
],
  "dcmmeta_reorient_transform": [
    [0.0, -1.0, 0.0, 99.0],
    [1.0, 0.0, 0.0, 0.0],
    [0.0, 0.0, 1.0, 0.0],
    [0.0, 0.0, 0.0, 1.0]
],
  "dcmmeta_shape": [100, 100, 72, 256],
  "dcmmeta_slice_dim": 2,
  "dcmmeta_version": 0.6,
  "global": {
    "const": {
      "AcquisitionMatrix": [100, 0, 0, 100],
      "AngioFlag": "N",
      "BitsAllocated": 16,
      "BitsStored": 12,
      "BodyPartExamined": "BRAIN",
      "Columns": 900,
      "EchoNumbers": 1,
      "EchoTime": 34.0,
      "EchoTrainLength": 100,
      "FlipAngle": 90.0,
      "HighBit": 11,
      "ImageOrientationPatient": [1.0, 0.0, 0.0, 0.0, 0.97741589648343, -0.2113247862923],
      "ImagePositionPatient": [-900.67796611786, -901.46287151709, 125.75461692821],
      "ImageType": [
        "ORIGINAL",
        "PRIMARY",
        "M",
        "ND",
        "MOSAIC"
],
      "ImagedNucleus": "1H",
      "ImagingFrequency": 123.257805,
      "InPlanePhaseEncodingDirection": "COL",
      "MRAcquisitionType": "2D",
      "MagneticFieldStrength": 3.0,
      "Manufacturer": "SIEMENS",
      "ManufacturerModelName": "Prisma",
      "Modality": "MR",
      "NumberOfAverages": 1.0,
      "NumberOfPhaseEncodingSteps": 100,
      "PercentPhaseFieldOfView": 100.0,
      "PercentSampling": 100.0,
      "PerformedProcedureStepStartTime": "145722.228000",
      "PhotometricInterpretation": "MONOCHROME2",
      "PixelBandwidth": 2380.0,
      "PixelRepresentation": 0,
      "PixelSpacing": [2.0, 2.0],
      "ProtocolName": "bold_100x100_s3_2x2x2_static_256",
      "RepetitionTime": 2000.0,
      "Rows": 900,
      "SAR": 0.06825822162355,
      "SamplesPerPixel": 1,
      "ScanOptions": "FS",
      "ScanningSequence": "EP",
      "SequenceName": "*epfid2d1_100",
      "SequenceVariant": "SK",
      "SeriesDescription": "bold_100x100_s3_2x2x2_static_256",
      "SeriesNumber": 5,
      "SeriesTime": "152541.656000",
      "SliceLocation": -67.58688703198,
      "SliceThickness": 2.0,
      "SmallestImagePixelValue": 0,
      "SoftwareVersions": "syngo MR E11",
      "SpacingBetweenSlices": 2.0000000467956,
      "SpecificCharacterSet": "ISO_IR 100",
      "StudyID": "1",
      "StudyTime": "145722.150000",
      "TransmitCoilName": "Body",
      "VariableFlipAngleFlag": "N",
      "WindowCenterWidthExplanation": "Algo1",
      "dBdt": 0.0},
    "slices": {}
  },
  "time": {
    "samples": {
      "AcquisitionNumber": [1, 2, 3, 4, 5, 6, 7, 8, 9, 10, 11, 12, 13, 14, 15, 16, 17, 18, 19, 20, 21, 22, 23, 24, 25, 26, 27, 28, 29, 30, 31, 32, 33, 34, 35, 36, 37, 38, 39, 40, 41, 42, 43, 44, 45, 46, 47, 48, 49, 50, 51, 52, 53, 54, 55, 56, 57, 58, 59, 60, 61, 62, 63, 64, 65, 66, 67, 68, 69, 70, 71, 72, 73, 74, 75, 76, 77, 78, 79, 80, 81, 82, 83, 84, 85, 86, 87, 88, 89, 90, 91, 92, 93, 94, 95, 96, 97, 98, 99, 100, 101, 102, 103, 104, 105, 106, 107, 108, 109, 110, 111, 112, 113, 114, 115, 116, 117, 118, 119, 120, 121, 122, 123, 124, 125, 126, 127, 128, 129, 130, 131, 132, 133, 134, 135, 136, 137, 138, 139, 140, 141, 142, 143, 144, 145, 146, 147, 148, 149, 150, 151, 152, 153, 154, 155, 156, 157, 158, 159, 160, 161, 162, 163, 164, 165, 166, 167, 168, 169, 170, 171, 172, 173, 174, 175, 176, 177, 178, 179, 180, 181, 182, 183, 184, 185, 186, 187, 188, 189, 190, 191, 192, 193, 194, 195, 196, 197, 198, 199, 200, 201, 202, 203, 204, 205, 206, 207, 208, 209, 210, 211, 212, 213, 214, 215, 216, 217, 218, 219, 220, 221, 222, 223, 224, 225, 226, 227, 228, 229, 230, 231, 232, 233, 234, 235, 236, 237, 238, 239, 240, 241, 242, 243, 244, 245, 246, 247, 248, 249, 250, 251, 252, 253, 254, 255, 256],
      "AcquisitionTime": ["152539.187500", "152541.187500", "152543.187500", "152545.187500", "152547.187500", "152549.187500", "152551.187500", "152553.187500", "152555.187500", "152557.187500", "152559.187500", "152601.187500", "152603.187500", "152605.187500", "152607.187500", "152609.187500", "152611.187500", "152613.187500", "152615.187500", "152617.187500", "152619.187500", "152621.187500", "152623.187500", "152625.187500", "152627.187500", "152629.187500", "152631.187500", "152633.187500", "152635.187500", "152637.187500", "152639.187500", "152641.187500", "152643.187500", "152645.187500", "152647.187500", "152649.187500", "152651.187500", "152653.187500", "152655.187500", "152657.187500", "152659.187500", "152701.187500", "152703.187500", "152705.187500", "152707.187500", "152709.187500", "152711.187500", "152713.187500", "152715.187500", "152717.187500", "152719.187500", "152721.187500", "152723.187500", "152725.187500", "152727.187500", "152729.187500", "152731.187500", "152733.187500", "152735.187500", "152737.187500", "152739.187500", "152741.187500", "152743.187500", "152745.187500", "152747.187500", "152749.187500", "152751.187500", "152753.187500", "152755.187500", "152757.187500", "152759.187500", "152801.187500", "152803.187500", "152805.187500", "152807.187500", "152809.187500", "152811.187500", "152813.187500", "152815.187500", "152817.187500", "152819.187500", "152821.187500", "152823.187500", "152825.187500", "152827.187500", "152829.187500", "152831.187500", "152833.187500", "152835.187500", "152837.187500", "152839.187500", "152841.187500", "152843.187500", "152845.187500", "152847.187500", "152849.187500", "152851.187500", "152853.187500", "152855.187500", "152857.187500", "152859.187500", "152901.187500", "152903.187500", "152905.187500", "152907.187500", "152909.187500", "152911.187500", "152913.187500", "152915.187500", "152917.187500", "152919.187500", "152921.187500", "152923.187500", "152925.187500", "152927.187500", "152929.187500", "152931.187500", "152933.187500", "152935.187500", "152937.187500", "152939.187500", "152941.187500", "152943.187500", "152945.187500", "152947.187500", "152949.187500", "152951.187500", "152953.187500", "152955.187500", "152957.187500", "152959.187500", "153001.187500", "153003.187500", "153005.187500", "153007.187500", "153009.187500", "153011.187500", "153013.187500", "153015.187500", "153017.187500", "153019.187500", "153021.187500", "153023.187500", "153025.187500", "153027.187500", "153029.187500", "153031.187500", "153033.187500", "153035.187500", "153037.187500", "153039.187500", "153041.187500", "153043.187500", "153045.187500", "153047.187500", "153049.187500", "153051.187500", "153053.187500", "153055.187500", "153057.187500", "153059.187500", "153101.187500", "153103.187500", "153105.187500", "153107.187500", "153109.187500", "153111.187500", "153113.187500", "153115.187500", "153117.187500", "153119.187500", "153121.187500", "153123.187500", "153125.187500", "153127.187500", "153129.187500", "153131.187500", "153133.187500", "153135.187500", "153137.187500", "153139.187500", "153141.187500", "153143.187500", "153145.187500", "153147.187500", "153149.187500", "153151.187500", "153153.187500", "153155.187500", "153157.187500", "153159.187500", "153201.187500", "153203.187500", "153205.187500", "153207.187500", "153209.187500", "153211.187500", "153213.187500", "153215.187500", "153217.187500", "153219.187500", "153221.187500", "153223.187500", "153225.187500", "153227.187500", "153229.187500", "153231.187500", "153233.187500", "153235.187500", "153237.187500", "153239.187500", "153241.187500", "153243.187500", "153245.187500", "153247.187500", "153249.187500", "153251.187500", "153253.187500", "153255.187500", "153257.187500", "153259.187500", "153301.187500", "153303.187500", "153305.187500", "153307.187500", "153309.187500", "153311.187500", "153313.187500", "153315.187500", "153317.187500", "153319.187500", "153321.187500", "153323.187500", "153325.187500", "153327.187500", "153329.187500", "153331.187500", "153333.187500", "153335.187500", "153337.187500", "153339.187500", "153341.187500", "153343.187500", "153345.187500", "153347.187500", "153349.187500", "153351.187500", "153353.187500", "153355.187500", "153357.187500", "153359.187500", "153401.187500", "153403.187500", "153405.187500", "153407.187500", "153409.187500"],
      "ContentTime": ["152541.659000", "152543.154000", "152545.155000", "152547.154000", "152549.154000", "152551.155000", "152553.154000", "152555.154000", "152557.155000", "152559.154000", "152601.154000", "152603.155000", "152605.155000", "152607.155000", "152609.154000", "152611.155000", "152613.154000", "152615.155000", "152617.154000", "152619.154000", "152621.154000", "152623.154000", "152625.154000", "152627.154000", "152629.154000", "152631.154000", "152633.154000", "152635.154000", "152637.155000", "152639.155000", "152641.155000", "152643.154000", "152645.154000", "152647.155000", "152649.154000", "152651.155000", "152653.155000", "152655.155000", "152657.155000", "152659.155000", "152701.155000", "152703.154000", "152705.155000", "152707.154000", "152709.155000", "152711.155000", "152713.155000", "152715.154000", "152717.154000", "152719.154000", "152721.154000", "152723.154000", "152725.154000", "152727.154000", "152729.154000", "152731.154000", "152733.154000", "152735.154000", "152737.154000", "152739.155000", "152741.155000", "152743.155000", "152745.154000", "152747.155000", "152749.155000", "152751.155000", "152753.155000", "152755.154000", "152757.154000", "152759.155000", "152801.155000", "152803.154000", "152805.154000", "152807.154000", "152809.155000", "152811.154000", "152813.154000", "152815.154000", "152817.154000", "152819.154000", "152821.155000", "152823.155000", "152825.155000", "152827.155000", "152829.154000", "152831.154000", "152833.155000", "152835.154000", "152837.154000", "152839.155000", "152841.155000", "152843.154000", "152845.155000", "152847.154000", "152849.155000", "152851.154000", "152853.154000", "152855.155000", "152857.155000", "152859.155000", "152901.154000", "152903.154000", "152905.154000", "152907.155000", "152909.155000", "152911.154000", "152913.154000", "152915.154000", "152917.154000", "152919.154000", "152921.154000", "152923.154000", "152925.154000", "152927.154000", "152929.154000", "152931.155000", "152933.154000", "152935.155000", "152937.155000", "152939.155000", "152941.155000", "152943.155000", "152945.155000", "152947.154000", "152949.154000", "152951.154000", "152953.154000", "152955.154000", "152957.155000", "152959.154000", "153001.154000", "153003.154000", "153005.156000", "153007.155000", "153009.155000", "153011.154000", "153013.155000", "153015.155000", "153017.155000", "153019.154000", "153021.155000", "153023.155000", "153025.155000", "153027.155000", "153029.155000", "153031.155000", "153033.154000", "153035.154000", "153037.155000", "153039.155000", "153041.155000", "153043.154000", "153045.155000", "153047.155000", "153049.155000", "153051.154000", "153053.155000", "153055.155000", "153057.154000", "153059.154000", "153101.154000", "153103.154000", "153105.154000", "153107.154000", "153109.154000", "153111.154000", "153113.155000", "153115.155000", "153117.154000", "153119.155000", "153121.155000", "153123.154000", "153125.154000", "153127.154000", "153129.154000", "153131.155000", "153133.155000", "153135.154000", "153137.155000", "153139.155000", "153141.155000", "153143.154000", "153145.155000", "153147.154000", "153149.154000", "153151.154000", "153153.155000", "153155.155000", "153157.154000", "153159.155000", "153201.154000", "153203.154000", "153205.154000", "153207.154000", "153209.154000", "153211.154000", "153213.154000", "153215.154000", "153217.167000", "153219.154000", "153221.154000", "153223.154000", "153225.156000", "153227.154000", "153229.154000", "153231.154000", "153233.155000", "153235.154000", "153237.155000", "153239.155000", "153241.155000", "153243.155000", "153245.154000", "153247.155000", "153249.154000", "153251.155000", "153253.154000", "153255.154000", "153257.154000", "153259.154000", "153301.154000", "153303.154000", "153305.154000", "153307.154000", "153309.154000", "153311.154000", "153313.155000", "153315.155000", "153317.155000", "153319.154000", "153321.155000", "153323.155000", "153325.155000", "153327.154000", "153329.155000", "153331.155000", "153333.154000", "153335.154000", "153337.155000", "153339.154000", "153341.155000", "153343.154000", "153345.155000", "153347.155000", "153349.155000", "153351.155000", "153353.155000", "153355.155000", "153357.155000", "153359.155000", "153401.155000", "153403.154000", "153405.155000", "153407.155000", "153409.154000", "153410.785000"],
      "InstanceCreationTime": ["152541.659000", "152543.154000", "152545.155000", "152547.154000", "152549.154000", "152551.155000", "152553.154000", "152555.154000", "152557.155000", "152559.154000", "152601.154000", "152603.155000", "152605.155000", "152607.155000", "152609.154000", "152611.155000", "152613.154000", "152615.155000", "152617.154000", "152619.154000", "152621.154000", "152623.154000", "152625.154000", "152627.154000", "152629.154000", "152631.154000", "152633.154000", "152635.154000", "152637.155000", "152639.155000", "152641.155000", "152643.154000", "152645.154000", "152647.155000", "152649.154000", "152651.155000", "152653.155000", "152655.155000", "152657.155000", "152659.155000", "152701.155000", "152703.154000", "152705.155000", "152707.154000", "152709.155000", "152711.155000", "152713.155000", "152715.154000", "152717.154000", "152719.154000", "152721.154000", "152723.154000", "152725.154000", "152727.154000", "152729.154000", "152731.154000", "152733.154000", "152735.154000", "152737.154000", "152739.155000", "152741.155000", "152743.155000", "152745.154000", "152747.155000", "152749.155000", "152751.155000", "152753.155000", "152755.154000", "152757.154000", "152759.155000", "152801.155000", "152803.154000", "152805.154000", "152807.154000", "152809.155000", "152811.154000", "152813.154000", "152815.154000", "152817.154000", "152819.154000", "152821.155000", "152823.155000", "152825.155000", "152827.155000", "152829.154000", "152831.154000", "152833.155000", "152835.154000", "152837.154000", "152839.155000", "152841.155000", "152843.154000", "152845.155000", "152847.154000", "152849.155000", "152851.154000", "152853.154000", "152855.155000", "152857.155000", "152859.155000", "152901.154000", "152903.154000", "152905.154000", "152907.155000", "152909.155000", "152911.154000", "152913.154000", "152915.154000", "152917.154000", "152919.154000", "152921.154000", "152923.154000", "152925.154000", "152927.154000", "152929.154000", "152931.155000", "152933.154000", "152935.155000", "152937.155000", "152939.155000", "152941.155000", "152943.155000", "152945.155000", "152947.154000", "152949.154000", "152951.154000", "152953.154000", "152955.154000", "152957.155000", "152959.154000", "153001.154000", "153003.154000", "153005.156000", "153007.155000", "153009.155000", "153011.154000", "153013.155000", "153015.155000", "153017.155000", "153019.154000", "153021.155000", "153023.155000", "153025.155000", "153027.155000", "153029.155000", "153031.155000", "153033.154000", "153035.154000", "153037.155000", "153039.155000", "153041.155000", "153043.154000", "153045.155000", "153047.155000", "153049.155000", "153051.154000", "153053.155000", "153055.155000", "153057.154000", "153059.154000", "153101.154000", "153103.154000", "153105.154000", "153107.154000", "153109.154000", "153111.154000", "153113.155000", "153115.155000", "153117.154000", "153119.155000", "153121.155000", "153123.154000", "153125.154000", "153127.154000", "153129.154000", "153131.155000", "153133.155000", "153135.154000", "153137.155000", "153139.155000", "153141.155000", "153143.154000", "153145.155000", "153147.154000", "153149.154000", "153151.154000", "153153.155000", "153155.155000", "153157.154000", "153159.155000", "153201.154000", "153203.154000", "153205.154000", "153207.154000", "153209.154000", "153211.154000", "153213.154000", "153215.154000", "153217.167000", "153219.154000", "153221.154000", "153223.154000", "153225.156000", "153227.154000", "153229.154000", "153231.154000", "153233.155000", "153235.154000", "153237.155000", "153239.155000", "153241.155000", "153243.155000", "153245.154000", "153247.155000", "153249.154000", "153251.155000", "153253.154000", "153255.154000", "153257.154000", "153259.154000", "153301.154000", "153303.154000", "153305.154000", "153307.154000", "153309.154000", "153311.154000", "153313.155000", "153315.155000", "153317.155000", "153319.154000", "153321.155000", "153323.155000", "153325.155000", "153327.154000", "153329.155000", "153331.155000", "153333.154000", "153335.154000", "153337.155000", "153339.154000", "153341.155000", "153343.154000", "153345.155000", "153347.155000", "153349.155000", "153351.155000", "153353.155000", "153355.155000", "153357.155000", "153359.155000", "153401.155000", "153403.154000", "153405.155000", "153407.155000", "153409.154000", "153410.785000"],
      "InstanceNumber": [1, 2, 3, 4, 5, 6, 7, 8, 9, 10, 11, 12, 13, 14, 15, 16, 17, 18, 19, 20, 21, 22, 23, 24, 25, 26, 27, 28, 29, 30, 31, 32, 33, 34, 35, 36, 37, 38, 39, 40, 41, 42, 43, 44, 45, 46, 47, 48, 49, 50, 51, 52, 53, 54, 55, 56, 57, 58, 59, 60, 61, 62, 63, 64, 65, 66, 67, 68, 69, 70, 71, 72, 73, 74, 75, 76, 77, 78, 79, 80, 81, 82, 83, 84, 85, 86, 87, 88, 89, 90, 91, 92, 93, 94, 95, 96, 97, 98, 99, 100, 101, 102, 103, 104, 105, 106, 107, 108, 109, 110, 111, 112, 113, 114, 115, 116, 117, 118, 119, 120, 121, 122, 123, 124, 125, 126, 127, 128, 129, 130, 131, 132, 133, 134, 135, 136, 137, 138, 139, 140, 141, 142, 143, 144, 145, 146, 147, 148, 149, 150, 151, 152, 153, 154, 155, 156, 157, 158, 159, 160, 161, 162, 163, 164, 165, 166, 167, 168, 169, 170, 171, 172, 173, 174, 175, 176, 177, 178, 179, 180, 181, 182, 183, 184, 185, 186, 187, 188, 189, 190, 191, 192, 193, 194, 195, 196, 197, 198, 199, 200, 201, 202, 203, 204, 205, 206, 207, 208, 209, 210, 211, 212, 213, 214, 215, 216, 217, 218, 219, 220, 221, 222, 223, 224, 225, 226, 227, 228, 229, 230, 231, 232, 233, 234, 235, 236, 237, 238, 239, 240, 241, 242, 243, 244, 245, 246, 247, 248, 249, 250, 251, 252, 253, 254, 255, 256],
      "LargestImagePixelValue": [2396, 2379, 2355, 2353, 2326, 2287, 2301, 2348, 2359, 2341, 2363, 2344, 2365, 2360, 2356, 2339, 2328, 2336, 2374, 2353, 2369, 2351, 2403, 2443, 2362, 2332, 2340, 2350, 2366, 2361, 2372, 2372, 2331, 2329, 2322, 2362, 2340, 2361, 2363, 2361, 2367, 2372, 2335, 2372, 2348, 2357, 2386, 2379, 2346, 2352, 2367, 2361, 2341, 2340, 2363, 2366, 2368, 2364, 2385, 2355, 2324, 2387, 2363, 2359, 2346, 2354, 2355, 2353, 2402, 2374, 2372, 2370, 2340, 2384, 2394, 2393, 2380, 2373, 2384, 2375, 2390, 2375, 2357, 2342, 2356, 2391, 2384, 2367, 2370, 2391, 2397, 2350, 2382, 2377, 2376, 2336, 2351, 2359, 2364, 2375, 2359, 2338, 2366, 2385, 2368, 2369, 2403, 2349, 2364, 2384, 2368, 2372, 2343, 2329, 2367, 2369, 2310, 2357, 2376, 2361, 2349, 2343, 2389, 2360, 2347, 2386, 2334, 2321, 2353, 2351, 2355, 2365, 2376, 2336, 2327, 2331, 2380, 2336, 2344, 2336, 2370, 2373, 2333, 2326, 2344, 2375, 2351, 2368, 2377, 2346, 2340, 2342, 2338, 2320, 2329, 2320, 2313, 2318, 2361, 2340, 2328, 2311, 2346, 2360, 2295, 2311, 2345, 2344, 2366, 2331, 2306, 2357, 2328, 2320, 2349, 2334, 2336, 2356, 2303, 2312, 2362, 2358, 2306, 2305, 2379, 2337, 2346, 2379, 2295, 2286, 2300, 2263, 2314, 2320, 2333, 2292, 2332, 2316, 2299, 2329, 2302, 2323, 2382, 2350, 2326, 2310, 2342, 2348, 2318, 2312, 2352, 2349, 2307, 2339, 2311, 2326, 2303, 2347, 2328, 2312, 2351, 2309, 2303, 2434, 2302, 2309, 2304, 2314, 2322, 2323, 2328, 2318, 2340, 2312, 2345, 2318, 2316, 2331, 2319, 2311, 2316, 2373, 2292, 2315, 2344, 2295, 2302, 2292, 2325, 2304, 2380, 2353, 2354, 2296, 2390, 2383],
      "WindowCenter": [711.0, 707.0, 706.0, 707.0, 709.0, 710.0, 711.0, 711.0, 712.0, 711.0, 711.0, 711.0, 711.0, 711.0, 710.0, 710.0, 710.0, 711.0, 712.0, 713.0, 712.0, 712.0, 712.0, 713.0, 711.0, 711.0, 711.0, 711.0, 710.0, 710.0, 710.0, 711.0, 711.0, 712.0, 712.0, 711.0, 710.0, 711.0, 711.0, 711.0, 711.0, 711.0, 711.0, 712.0, 710.0, 710.0, 711.0, 711.0, 711.0, 711.0, 710.0, 710.0, 710.0, 710.0, 710.0, 710.0, 710.0, 710.0, 710.0, 711.0, 711.0, 711.0, 710.0, 710.0, 710.0, 711.0, 711.0, 711.0, 712.0, 712.0, 712.0, 712.0, 711.0, 711.0, 710.0, 710.0, 711.0, 711.0, 710.0, 711.0, 711.0, 711.0, 711.0, 711.0, 712.0, 712.0, 711.0, 712.0, 712.0, 713.0, 713.0, 713.0, 712.0, 712.0, 712.0, 711.0, 711.0, 711.0, 710.0, 711.0, 711.0, 712.0, 712.0, 712.0, 712.0, 712.0, 712.0, 711.0, 712.0, 711.0, 711.0, 712.0, 711.0, 711.0, 711.0, 711.0, 711.0, 711.0, 711.0, 711.0, 712.0, 713.0, 712.0, 711.0, 710.0, 711.0, 711.0, 711.0, 712.0, 712.0, 711.0, 711.0, 711.0, 711.0, 711.0, 711.0, 711.0, 711.0, 711.0, 711.0, 712.0, 711.0, 711.0, 711.0, 710.0, 711.0, 712.0, 712.0, 712.0, 711.0, 711.0, 711.0, 711.0, 710.0, 711.0, 711.0, 711.0, 711.0, 712.0, 711.0, 712.0, 712.0, 712.0, 712.0, 711.0, 711.0, 711.0, 711.0, 710.0, 710.0, 709.0, 711.0, 710.0, 711.0, 712.0, 712.0, 712.0, 712.0, 711.0, 712.0, 713.0, 713.0, 711.0, 711.0, 713.0, 713.0, 713.0, 713.0, 711.0, 710.0, 710.0, 711.0, 712.0, 712.0, 712.0, 711.0, 712.0, 712.0, 712.0, 712.0, 711.0, 711.0, 712.0, 712.0, 711.0, 711.0, 712.0, 712.0, 712.0, 712.0, 713.0, 712.0, 711.0, 712.0, 712.0, 712.0, 711.0, 711.0, 711.0, 711.0, 712.0, 712.0, 713.0, 715.0, 713.0, 712.0, 712.0, 712.0, 712.0, 712.0, 712.0, 712.0, 712.0, 712.0, 712.0, 711.0, 712.0, 713.0, 712.0, 711.0, 711.0, 712.0, 712.0, 713.0, 712.0, 711.0, 711.0, 712.0, 713.0, 712.0, 713.0, 712.0, 713.0, 712.0, 714.0, 714.0],
      "WindowWidth": [1504.0, 1494.0, 1493.0, 1496.0, 1499.0, 1503.0, 1505.0, 1505.0, 1506.0, 1505.0, 1505.0, 1504.0, 1504.0, 1504.0, 1503.0, 1503.0, 1504.0, 1506.0, 1508.0, 1509.0, 1507.0, 1506.0, 1508.0, 1510.0, 1506.0, 1505.0, 1505.0, 1504.0, 1502.0, 1502.0, 1503.0, 1504.0, 1505.0, 1508.0, 1507.0, 1505.0, 1503.0, 1505.0, 1505.0, 1504.0, 1504.0, 1505.0, 1506.0, 1507.0, 1503.0, 1502.0, 1504.0, 1505.0, 1505.0, 1504.0, 1503.0, 1503.0, 1502.0, 1502.0, 1503.0, 1502.0, 1502.0, 1501.0, 1503.0, 1506.0, 1505.0, 1506.0, 1504.0, 1503.0, 1503.0, 1504.0, 1505.0, 1506.0, 1507.0, 1506.0, 1506.0, 1508.0, 1506.0, 1504.0, 1503.0, 1503.0, 1504.0, 1504.0, 1503.0, 1504.0, 1504.0, 1505.0, 1506.0, 1506.0, 1507.0, 1507.0, 1506.0, 1506.0, 1508.0, 1509.0, 1511.0, 1510.0, 1507.0, 1507.0, 1507.0, 1506.0, 1506.0, 1505.0, 1504.0, 1504.0, 1505.0, 1506.0, 1507.0, 1508.0, 1507.0, 1506.0, 1507.0, 1506.0, 1506.0, 1506.0, 1506.0, 1507.0, 1506.0, 1505.0, 1505.0, 1505.0, 1504.0, 1504.0, 1505.0, 1506.0, 1507.0, 1509.0, 1508.0, 1504.0, 1503.0, 1506.0, 1506.0, 1505.0, 1507.0, 1506.0, 1505.0, 1504.0, 1505.0, 1505.0, 1504.0, 1505.0, 1505.0, 1504.0, 1504.0, 1504.0, 1506.0, 1505.0, 1504.0, 1503.0, 1503.0, 1505.0, 1507.0, 1507.0, 1507.0, 1504.0, 1504.0, 1504.0, 1504.0, 1503.0, 1504.0, 1504.0, 1505.0, 1506.0, 1507.0, 1506.0, 1507.0, 1507.0, 1506.0, 1507.0, 1504.0, 1505.0, 1504.0, 1504.0, 1503.0, 1501.0, 1501.0, 1503.0, 1503.0, 1504.0, 1507.0, 1506.0, 1507.0, 1508.0, 1506.0, 1507.0, 1509.0, 1508.0, 1505.0, 1506.0, 1510.0, 1509.0, 1509.0, 1509.0, 1505.0, 1502.0, 1503.0, 1505.0, 1507.0, 1507.0, 1508.0, 1506.0, 1507.0, 1507.0, 1507.0, 1507.0, 1506.0, 1506.0, 1508.0, 1506.0, 1505.0, 1505.0, 1508.0, 1508.0, 1508.0, 1508.0, 1509.0, 1506.0, 1505.0, 1507.0, 1507.0, 1507.0, 1504.0, 1506.0, 1504.0, 1505.0, 1506.0, 1507.0, 1509.0, 1513.0, 1509.0, 1508.0, 1507.0, 1508.0, 1508.0, 1507.0, 1507.0, 1507.0, 1508.0, 1507.0, 1507.0, 1506.0, 1507.0, 1508.0, 1507.0, 1505.0, 1505.0, 1507.0, 1507.0, 1509.0, 1508.0, 1506.0, 1506.0, 1507.0, 1508.0, 1507.0, 1508.0, 1508.0, 1509.0, 1508.0, 1512.0, 1511.0]
    },
    "slices": {}
  }
}