{
  "AcquisitionMatrixPE": 100,
  "AcquisitionNumber": 1,
  "AcquisitionTime": "16:18:48.687500",
  "BandwidthPerPixelPhaseEncode": 18.519,
  "BaseResolution": 100,
  "BodyPartExamined": "BRAIN",
  "ConsistencyInfo": "N4_VE11C_LATEST_20160120",
  "ConversionSoftware": "dcm2niix",
  "ConversionSoftwareVersion": "v1.0.20180622 GCC4.9.2",
  "DerivedVendorReportedEchoSpacing": 0.000539986,
  "DeviceSerialNumber": "166078",
  "DwellTime": 2.1e-06,
  "EchoTime": 0.034,
  "EchoTrainLength": 100,
  "EffectiveEchoSpacing": 0.000539986,
  "FlipAngle": 90,
  "ImageOrientationPatientDICOM": [1, 0, 0, 0, 0.977416, -0.211325],
  "ImageType": [
    "ORIGINAL",
    "PRIMARY",
    "M",
    "ND",
    "MOSAIC"
],
  "InPlanePhaseEncodingDirectionDICOM": "COL",
  "InstitutionAddress": "Street_StreetNo_Bei_Jing_District_CN_ZIP",
  "InstitutionName": "BeiJing_Normal_University",
  "InstitutionalDepartmentName": "Department",
  "MRAcquisitionType": "2D",
  "MagneticFieldStrength": 3,
  "Manufacturer": "Siemens",
  "ManufacturersModelName": "Prisma",
  "Modality": "MR",
  "MultibandAccelerationFactor": 3,
  "PartialFourier": 1,
  "PatientPosition": "HFS",
  "PercentPhaseFOV": 100,
  "PhaseEncodingDirection": "j-",
  "PhaseEncodingSteps": 100,
  "PhaseResolution": 1,
  "PixelBandwidth": 2380,
  "ProcedureStepDescription": "BNU_P2018_64CH_Zhen.ZongLei",
  "ProtocolName": "bold_100x100_s3_2x2x2_static_256",
  "PulseSequenceDetails": "%SiemensSeq%_ep2d_bold",
  "ReceiveCoilActiveElements": "HC1-7;NC1",
  "ReceiveCoilName": "HeadNeck_64",
  "ReconMatrixPE": 100,
  "RepetitionTime": 2,
  "SAR": 0.0682582,
  "ScanOptions": "FS",
  "ScanningSequence": "EP",
  "SequenceName": "_epfid2d1_100",
  "SequenceVariant": "SK",
  "SeriesDescription": "bold_100x100_s3_2x2x2_static_256",
  "SeriesNumber": 12,
  "ShimSetting": [-5412, -11519, -1322, 422, 35, -288, -292, -21],
  "SliceThickness": 2,
  "SliceTiming": [1.485, 0, 0.99, 0.0825, 1.0725, 0.165, 1.155, 0.2475, 1.2375, 0.33, 1.32, 0.4125, 1.4025, 0.5775, 1.5675, 0.66, 1.65, 0.7425, 1.7325, 0.825, 1.815, 0.9075, 1.8975, 0.495, 1.485, 0, 0.99, 0.0825, 1.0725, 0.165, 1.155, 0.2475, 1.2375, 0.33, 1.32, 0.4125, 1.4025, 0.5775, 1.5675, 0.66, 1.65, 0.7425, 1.7325, 0.825, 1.815, 0.9075, 1.8975, 0.495, 1.485, 0, 0.99, 0.0825, 1.0725, 0.165, 1.155, 0.2475, 1.2375, 0.33, 1.32, 0.4125, 1.4025, 0.5775, 1.5675, 0.66, 1.65, 0.7425, 1.7325, 0.825, 1.815, 0.9075, 1.8975, 0.495],
  "SoftwareVersions": "syngo_MR_E11",
  "SpacingBetweenSlices": 2,
  "StationName": "AWP166078",
  "TaskName": "naturalvision",
  "TotalReadoutTime": 0.0534586,
  "TxRefAmp": 216.68,
  "dcmmeta_affine": [
    [-2.0, 0.0, 0.0, 100.67796325683594],
    [0.0, 1.954831838607788, -0.4226495921611786, -73.9981918334961],
    [0.0, 0.4226495623588562, 1.954831838607788, -85.14752197265625],
    [0.0, 0.0, 0.0, 1.0]
],
  "dcmmeta_reorient_transform": [
    [0.0, -1.0, 0.0, 99.0],
    [1.0, 0.0, 0.0, 0.0],
    [0.0, 0.0, 1.0, 0.0],
    [0.0, 0.0, 0.0, 1.0]
],
  "dcmmeta_shape": [100, 100, 72, 256],
  "dcmmeta_slice_dim": 2,
  "dcmmeta_version": 0.6,
  "global": {
    "const": {
      "AcquisitionMatrix": [100, 0, 0, 100],
      "AngioFlag": "N",
      "BitsAllocated": 16,
      "BitsStored": 12,
      "BodyPartExamined": "BRAIN",
      "Columns": 900,
      "EchoNumbers": 1,
      "EchoTime": 34.0,
      "EchoTrainLength": 100,
      "FlipAngle": 90.0,
      "HighBit": 11,
      "ImageOrientationPatient": [1.0, 0.0, 0.0, 0.0, 0.97741589648343, -0.2113247862923],
      "ImagePositionPatient": [-900.67796611786, -901.46287151709, 125.75461692821],
      "ImageType": [
        "ORIGINAL",
        "PRIMARY",
        "M",
        "ND",
        "MOSAIC"
],
      "ImagedNucleus": "1H",
      "ImagingFrequency": 123.257809,
      "InPlanePhaseEncodingDirection": "COL",
      "MRAcquisitionType": "2D",
      "MagneticFieldStrength": 3.0,
      "Manufacturer": "SIEMENS",
      "ManufacturerModelName": "Prisma",
      "Modality": "MR",
      "NumberOfAverages": 1.0,
      "NumberOfPhaseEncodingSteps": 100,
      "PercentPhaseFieldOfView": 100.0,
      "PercentSampling": 100.0,
      "PerformedProcedureStepStartTime": "145722.228000",
      "PhotometricInterpretation": "MONOCHROME2",
      "PixelBandwidth": 2380.0,
      "PixelRepresentation": 0,
      "PixelSpacing": [2.0, 2.0],
      "ProtocolName": "bold_100x100_s3_2x2x2_static_256",
      "RepetitionTime": 2000.0,
      "Rows": 900,
      "SAR": 0.06825822162355,
      "SamplesPerPixel": 1,
      "ScanOptions": "FS",
      "ScanningSequence": "EP",
      "SequenceName": "*epfid2d1_100",
      "SequenceVariant": "SK",
      "SeriesDescription": "bold_100x100_s3_2x2x2_static_256",
      "SeriesNumber": 12,
      "SeriesTime": "161851.692000",
      "SliceLocation": -67.58688703198,
      "SliceThickness": 2.0,
      "SmallestImagePixelValue": 0,
      "SoftwareVersions": "syngo MR E11",
      "SpacingBetweenSlices": 2.0000000467956,
      "SpecificCharacterSet": "ISO_IR 100",
      "StudyID": "1",
      "StudyTime": "145722.150000",
      "TransmitCoilName": "Body",
      "VariableFlipAngleFlag": "N",
      "WindowCenterWidthExplanation": "Algo1",
      "dBdt": 0.0},
    "slices": {}
  },
  "time": {
    "samples": {
      "AcquisitionNumber": [1, 2, 3, 4, 5, 6, 7, 8, 9, 10, 11, 12, 13, 14, 15, 16, 17, 18, 19, 20, 21, 22, 23, 24, 25, 26, 27, 28, 29, 30, 31, 32, 33, 34, 35, 36, 37, 38, 39, 40, 41, 42, 43, 44, 45, 46, 47, 48, 49, 50, 51, 52, 53, 54, 55, 56, 57, 58, 59, 60, 61, 62, 63, 64, 65, 66, 67, 68, 69, 70, 71, 72, 73, 74, 75, 76, 77, 78, 79, 80, 81, 82, 83, 84, 85, 86, 87, 88, 89, 90, 91, 92, 93, 94, 95, 96, 97, 98, 99, 100, 101, 102, 103, 104, 105, 106, 107, 108, 109, 110, 111, 112, 113, 114, 115, 116, 117, 118, 119, 120, 121, 122, 123, 124, 125, 126, 127, 128, 129, 130, 131, 132, 133, 134, 135, 136, 137, 138, 139, 140, 141, 142, 143, 144, 145, 146, 147, 148, 149, 150, 151, 152, 153, 154, 155, 156, 157, 158, 159, 160, 161, 162, 163, 164, 165, 166, 167, 168, 169, 170, 171, 172, 173, 174, 175, 176, 177, 178, 179, 180, 181, 182, 183, 184, 185, 186, 187, 188, 189, 190, 191, 192, 193, 194, 195, 196, 197, 198, 199, 200, 201, 202, 203, 204, 205, 206, 207, 208, 209, 210, 211, 212, 213, 214, 215, 216, 217, 218, 219, 220, 221, 222, 223, 224, 225, 226, 227, 228, 229, 230, 231, 232, 233, 234, 235, 236, 237, 238, 239, 240, 241, 242, 243, 244, 245, 246, 247, 248, 249, 250, 251, 252, 253, 254, 255, 256],
      "AcquisitionTime": ["161848.687500", "161850.687500", "161852.687500", "161854.687500", "161856.687500", "161858.687500", "161900.687500", "161902.687500", "161904.687500", "161906.687500", "161908.687500", "161910.687500", "161912.687500", "161914.687500", "161916.687500", "161918.687500", "161920.687500", "161922.687500", "161924.687500", "161926.687500", "161928.687500", "161930.687500", "161932.687500", "161934.687500", "161936.687500", "161938.687500", "161940.687500", "161942.687500", "161944.687500", "161946.687500", "161948.687500", "161950.687500", "161952.687500", "161954.687500", "161956.687500", "161958.687500", "162000.687500", "162002.687500", "162004.687500", "162006.687500", "162008.687500", "162010.687500", "162012.687500", "162014.687500", "162016.687500", "162018.687500", "162020.687500", "162022.687500", "162024.687500", "162026.687500", "162028.687500", "162030.687500", "162032.687500", "162034.687500", "162036.687500", "162038.687500", "162040.687500", "162042.687500", "162044.687500", "162046.687500", "162048.687500", "162050.687500", "162052.687500", "162054.687500", "162056.687500", "162058.687500", "162100.687500", "162102.687500", "162104.687500", "162106.687500", "162108.687500", "162110.687500", "162112.687500", "162114.687500", "162116.687500", "162118.687500", "162120.687500", "162122.687500", "162124.687500", "162126.687500", "162128.687500", "162130.687500", "162132.687500", "162134.687500", "162136.687500", "162138.687500", "162140.687500", "162142.687500", "162144.687500", "162146.687500", "162148.687500", "162150.687500", "162152.687500", "162154.687500", "162156.687500", "162158.687500", "162200.687500", "162202.687500", "162204.687500", "162206.687500", "162208.687500", "162210.687500", "162212.687500", "162214.687500", "162216.687500", "162218.687500", "162220.687500", "162222.687500", "162224.687500", "162226.687500", "162228.687500", "162230.687500", "162232.687500", "162234.687500", "162236.687500", "162238.687500", "162240.687500", "162242.687500", "162244.687500", "162246.687500", "162248.687500", "162250.687500", "162252.687500", "162254.687500", "162256.687500", "162258.687500", "162300.687500", "162302.687500", "162304.687500", "162306.687500", "162308.687500", "162310.687500", "162312.687500", "162314.687500", "162316.687500", "162318.687500", "162320.687500", "162322.687500", "162324.687500", "162326.687500", "162328.687500", "162330.687500", "162332.687500", "162334.687500", "162336.687500", "162338.687500", "162340.687500", "162342.687500", "162344.687500", "162346.687500", "162348.687500", "162350.687500", "162352.687500", "162354.687500", "162356.687500", "162358.687500", "162400.687500", "162402.687500", "162404.687500", "162406.687500", "162408.687500", "162410.687500", "162412.687500", "162414.687500", "162416.687500", "162418.687500", "162420.687500", "162422.687500", "162424.687500", "162426.687500", "162428.687500", "162430.687500", "162432.687500", "162434.687500", "162436.687500", "162438.687500", "162440.687500", "162442.687500", "162444.687500", "162446.687500", "162448.687500", "162450.687500", "162452.687500", "162454.687500", "162456.687500", "162458.687500", "162500.687500", "162502.687500", "162504.687500", "162506.687500", "162508.687500", "162510.687500", "162512.687500", "162514.687500", "162516.687500", "162518.687500", "162520.687500", "162522.687500", "162524.687500", "162526.687500", "162528.687500", "162530.687500", "162532.687500", "162534.687500", "162536.687500", "162538.687500", "162540.687500", "162542.687500", "162544.687500", "162546.687500", "162548.687500", "162550.687500", "162552.687500", "162554.687500", "162556.687500", "162558.687500", "162600.687500", "162602.687500", "162604.687500", "162606.687500", "162608.687500", "162610.687500", "162612.687500", "162614.687500", "162616.687500", "162618.687500", "162620.687500", "162622.687500", "162624.687500", "162626.687500", "162628.687500", "162630.687500", "162632.687500", "162634.687500", "162636.687500", "162638.687500", "162640.687500", "162642.687500", "162644.687500", "162646.687500", "162648.687500", "162650.687500", "162652.687500", "162654.687500", "162656.687500", "162658.687500", "162700.687500", "162702.687500", "162704.687500", "162706.687500", "162708.687500", "162710.687500", "162712.687500", "162714.687500", "162716.687500", "162718.687500"],
      "ContentTime": ["161851.696000", "161853.191000", "161855.191000", "161857.191000", "161859.192000", "161901.191000", "161903.192000", "161905.191000", "161907.192000", "161909.192000", "161911.191000", "161913.191000", "161915.192000", "161917.192000", "161919.191000", "161921.193000", "161923.192000", "161925.192000", "161927.191000", "161929.192000", "161931.191000", "161933.192000", "161935.191000", "161937.191000", "161939.193000", "161941.192000", "161943.191000", "161945.192000", "161947.192000", "161949.192000", "161951.192000", "161953.191000", "161955.192000", "161957.193000", "161959.192000", "162001.192000", "162003.191000", "162005.191000", "162007.191000", "162009.192000", "162011.192000", "162013.193000", "162015.191000", "162017.191000", "162019.192000", "162021.191000", "162023.192000", "162025.191000", "162027.191000", "162029.192000", "162031.193000", "162033.191000", "162035.191000", "162037.191000", "162039.191000", "162041.192000", "162043.192000", "162045.192000", "162047.192000", "162049.192000", "162051.191000", "162053.192000", "162055.191000", "162057.191000", "162059.191000", "162101.191000", "162103.192000", "162105.193000", "162107.192000", "162109.191000", "162111.191000", "162113.191000", "162115.192000", "162117.191000", "162119.191000", "162121.192000", "162123.193000", "162125.191000", "162127.191000", "162129.192000", "162131.192000", "162133.192000", "162135.192000", "162137.191000", "162139.192000", "162141.193000", "162143.192000", "162145.191000", "162147.192000", "162149.192000", "162151.192000", "162153.191000", "162155.192000", "162157.193000", "162159.193000", "162201.192000", "162203.192000", "162205.191000", "162207.191000", "162209.192000", "162211.192000", "162213.192000", "162215.193000", "162217.193000", "162219.191000", "162221.191000", "162223.191000", "162225.191000", "162227.192000", "162229.191000", "162231.192000", "162233.193000", "162235.192000", "162237.192000", "162239.192000", "162241.192000", "162243.191000", "162245.191000", "162247.191000", "162249.192000", "162251.193000", "162253.192000", "162255.192000", "162257.192000", "162259.191000", "162301.191000", "162303.191000", "162305.191000", "162307.192000", "162309.193000", "162311.192000", "162313.192000", "162315.192000", "162317.191000", "162319.191000", "162321.192000", "162323.192000", "162325.192000", "162327.193000", "162329.191000", "162331.192000", "162333.192000", "162335.192000", "162337.192000", "162339.191000", "162341.192000", "162343.193000", "162345.192000", "162347.191000", "162349.192000", "162351.192000", "162353.192000", "162355.191000", "162357.192000", "162359.200000", "162401.193000", "162403.192000", "162405.191000", "162407.192000", "162409.191000", "162411.192000", "162413.192000", "162415.192000", "162417.192000", "162419.192000", "162421.192000", "162423.192000", "162425.191000", "162427.191000", "162429.192000", "162431.192000", "162433.192000", "162435.192000", "162437.193000", "162439.192000", "162441.192000", "162443.191000", "162445.192000", "162447.191000", "162449.192000", "162451.192000", "162453.193000", "162455.191000", "162457.191000", "162459.191000", "162501.192000", "162503.191000", "162505.192000", "162507.192000", "162509.192000", "162511.193000", "162513.192000", "162515.192000", "162517.192000", "162519.191000", "162521.191000", "162523.192000", "162525.192000", "162527.193000", "162529.193000", "162531.192000", "162533.191000", "162535.192000", "162537.191000", "162539.192000", "162541.192000", "162543.192000", "162545.193000", "162547.193000", "162549.192000", "162551.192000", "162553.192000", "162555.191000", "162557.191000", "162559.192000", "162601.192000", "162603.193000", "162605.192000", "162607.191000", "162609.192000", "162611.192000", "162613.192000", "162615.192000", "162617.192000", "162619.191000", "162621.193000", "162623.192000", "162625.192000", "162627.192000", "162629.191000", "162631.192000", "162633.192000", "162635.192000", "162637.193000", "162639.192000", "162641.192000", "162643.192000", "162645.191000", "162647.191000", "162649.191000", "162651.192000", "162653.192000", "162655.193000", "162657.192000", "162659.192000", "162701.192000", "162703.191000", "162705.192000", "162707.192000", "162709.191000", "162711.192000", "162713.192000", "162715.191000", "162717.192000", "162719.192000", "162720.828000"],
      "InstanceCreationTime": ["161851.696000", "161853.191000", "161855.191000", "161857.191000", "161859.192000", "161901.191000", "161903.192000", "161905.191000", "161907.192000", "161909.192000", "161911.191000", "161913.191000", "161915.192000", "161917.192000", "161919.191000", "161921.193000", "161923.192000", "161925.192000", "161927.191000", "161929.192000", "161931.191000", "161933.192000", "161935.191000", "161937.191000", "161939.193000", "161941.192000", "161943.191000", "161945.192000", "161947.192000", "161949.192000", "161951.192000", "161953.191000", "161955.192000", "161957.193000", "161959.192000", "162001.192000", "162003.191000", "162005.191000", "162007.191000", "162009.192000", "162011.192000", "162013.193000", "162015.191000", "162017.191000", "162019.192000", "162021.191000", "162023.192000", "162025.191000", "162027.191000", "162029.192000", "162031.193000", "162033.191000", "162035.191000", "162037.191000", "162039.191000", "162041.192000", "162043.192000", "162045.192000", "162047.192000", "162049.192000", "162051.191000", "162053.192000", "162055.191000", "162057.191000", "162059.191000", "162101.191000", "162103.192000", "162105.193000", "162107.192000", "162109.191000", "162111.191000", "162113.191000", "162115.192000", "162117.191000", "162119.191000", "162121.192000", "162123.193000", "162125.191000", "162127.191000", "162129.192000", "162131.192000", "162133.192000", "162135.192000", "162137.191000", "162139.192000", "162141.193000", "162143.192000", "162145.191000", "162147.192000", "162149.192000", "162151.192000", "162153.191000", "162155.192000", "162157.193000", "162159.193000", "162201.192000", "162203.192000", "162205.191000", "162207.191000", "162209.192000", "162211.192000", "162213.192000", "162215.193000", "162217.193000", "162219.191000", "162221.191000", "162223.191000", "162225.191000", "162227.192000", "162229.191000", "162231.192000", "162233.193000", "162235.192000", "162237.192000", "162239.192000", "162241.192000", "162243.191000", "162245.191000", "162247.191000", "162249.192000", "162251.193000", "162253.192000", "162255.192000", "162257.192000", "162259.191000", "162301.191000", "162303.191000", "162305.191000", "162307.192000", "162309.193000", "162311.192000", "162313.192000", "162315.192000", "162317.191000", "162319.191000", "162321.192000", "162323.192000", "162325.192000", "162327.193000", "162329.191000", "162331.192000", "162333.192000", "162335.192000", "162337.192000", "162339.191000", "162341.192000", "162343.193000", "162345.192000", "162347.191000", "162349.192000", "162351.192000", "162353.192000", "162355.191000", "162357.192000", "162359.200000", "162401.193000", "162403.192000", "162405.191000", "162407.192000", "162409.191000", "162411.192000", "162413.192000", "162415.192000", "162417.192000", "162419.192000", "162421.192000", "162423.192000", "162425.191000", "162427.191000", "162429.192000", "162431.192000", "162433.192000", "162435.192000", "162437.193000", "162439.192000", "162441.192000", "162443.191000", "162445.192000", "162447.191000", "162449.192000", "162451.192000", "162453.193000", "162455.191000", "162457.191000", "162459.191000", "162501.192000", "162503.191000", "162505.192000", "162507.192000", "162509.192000", "162511.193000", "162513.192000", "162515.192000", "162517.192000", "162519.191000", "162521.191000", "162523.192000", "162525.192000", "162527.193000", "162529.193000", "162531.192000", "162533.191000", "162535.192000", "162537.191000", "162539.192000", "162541.192000", "162543.192000", "162545.193000", "162547.193000", "162549.192000", "162551.192000", "162553.192000", "162555.191000", "162557.191000", "162559.192000", "162601.192000", "162603.193000", "162605.192000", "162607.191000", "162609.192000", "162611.192000", "162613.192000", "162615.192000", "162617.192000", "162619.191000", "162621.193000", "162623.192000", "162625.192000", "162627.192000", "162629.191000", "162631.192000", "162633.192000", "162635.192000", "162637.193000", "162639.192000", "162641.192000", "162643.192000", "162645.191000", "162647.191000", "162649.191000", "162651.192000", "162653.192000", "162655.193000", "162657.192000", "162659.192000", "162701.192000", "162703.191000", "162705.192000", "162707.192000", "162709.191000", "162711.192000", "162713.192000", "162715.191000", "162717.192000", "162719.192000", "162720.828000"],
      "InstanceNumber": [1, 2, 3, 4, 5, 6, 7, 8, 9, 10, 11, 12, 13, 14, 15, 16, 17, 18, 19, 20, 21, 22, 23, 24, 25, 26, 27, 28, 29, 30, 31, 32, 33, 34, 35, 36, 37, 38, 39, 40, 41, 42, 43, 44, 45, 46, 47, 48, 49, 50, 51, 52, 53, 54, 55, 56, 57, 58, 59, 60, 61, 62, 63, 64, 65, 66, 67, 68, 69, 70, 71, 72, 73, 74, 75, 76, 77, 78, 79, 80, 81, 82, 83, 84, 85, 86, 87, 88, 89, 90, 91, 92, 93, 94, 95, 96, 97, 98, 99, 100, 101, 102, 103, 104, 105, 106, 107, 108, 109, 110, 111, 112, 113, 114, 115, 116, 117, 118, 119, 120, 121, 122, 123, 124, 125, 126, 127, 128, 129, 130, 131, 132, 133, 134, 135, 136, 137, 138, 139, 140, 141, 142, 143, 144, 145, 146, 147, 148, 149, 150, 151, 152, 153, 154, 155, 156, 157, 158, 159, 160, 161, 162, 163, 164, 165, 166, 167, 168, 169, 170, 171, 172, 173, 174, 175, 176, 177, 178, 179, 180, 181, 182, 183, 184, 185, 186, 187, 188, 189, 190, 191, 192, 193, 194, 195, 196, 197, 198, 199, 200, 201, 202, 203, 204, 205, 206, 207, 208, 209, 210, 211, 212, 213, 214, 215, 216, 217, 218, 219, 220, 221, 222, 223, 224, 225, 226, 227, 228, 229, 230, 231, 232, 233, 234, 235, 236, 237, 238, 239, 240, 241, 242, 243, 244, 245, 246, 247, 248, 249, 250, 251, 252, 253, 254, 255, 256],
      "LargestImagePixelValue": [2426, 2328, 2462, 2411, 2327, 2392, 2642, 2471, 2329, 2543, 2427, 2336, 2358, 2365, 2371, 2329, 2351, 2338, 2357, 2387, 2366, 2374, 2366, 2339, 2349, 2340, 2361, 2347, 2328, 2331, 2396, 2356, 2397, 2311, 2429, 2354, 2362, 2421, 2394, 2333, 2381, 2387, 2330, 2335, 2359, 2355, 2332, 2426, 2345, 2324, 2356, 2330, 2375, 2340, 2339, 2331, 2352, 2511, 2354, 2317, 2467, 2348, 2359, 2353, 2350, 2342, 2351, 2334, 2446, 2358, 2351, 2313, 2346, 2332, 2336, 2355, 2384, 2353, 2411, 2352, 2363, 2321, 2443, 2341, 2352, 2348, 2421, 2330, 2380, 2367, 2323, 2328, 2333, 2344, 2411, 2362, 2350, 2344, 2399, 2356, 2358, 2374, 2321, 2324, 2406, 2333, 2330, 2328, 2350, 2327, 2354, 2345, 2366, 2344, 2327, 2369, 2369, 2383, 2327, 2360, 2365, 2339, 2320, 2340, 2357, 2377, 2327, 2329, 2345, 2339, 2328, 2352, 2358, 2357, 2399, 2353, 2346, 2343, 2346, 2331, 2331, 2346, 2332, 2329, 2362, 2407, 2349, 2357, 2595, 2310, 2449, 2410, 2397, 2352, 2328, 2333, 2339, 2382, 2319, 2339, 2328, 2354, 2335, 2336, 2344, 2346, 2336, 2347, 2342, 2329, 2330, 2343, 2372, 2351, 2340, 2354, 2362, 2343, 2340, 2369, 2356, 2354, 2653, 2348, 2317, 2328, 2410, 2350, 2331, 2349, 2328, 2452, 2356, 2349, 2388, 2359, 2370, 2342, 2342, 2345, 2366, 2380, 2335, 2351, 2366, 2347, 2369, 2355, 2396, 2349, 2409, 2354, 2392, 2382, 2391, 2444, 2401, 2342, 2355, 2343, 2358, 2335, 2402, 2329, 2399, 2332, 2335, 2340, 2395, 2335, 2318, 2347, 2397, 2350, 2412, 2347, 2387, 2334, 2318, 2347, 2352, 2342, 2344, 2338, 2349, 2333, 2328, 2342, 2330, 2451, 2395, 2359, 2439, 2382, 2452, 2349],
      "WindowCenter": [719.0, 717.0, 720.0, 719.0, 718.0, 719.0, 721.0, 718.0, 715.0, 718.0, 718.0, 717.0, 717.0, 717.0, 718.0, 717.0, 717.0, 716.0, 716.0, 717.0, 717.0, 718.0, 717.0, 716.0, 716.0, 716.0, 717.0, 717.0, 716.0, 716.0, 717.0, 716.0, 717.0, 716.0, 717.0, 717.0, 718.0, 719.0, 719.0, 717.0, 718.0, 718.0, 717.0, 717.0, 717.0, 716.0, 716.0, 717.0, 716.0, 716.0, 717.0, 717.0, 717.0, 717.0, 716.0, 716.0, 717.0, 719.0, 717.0, 717.0, 719.0, 716.0, 716.0, 716.0, 716.0, 717.0, 717.0, 717.0, 719.0, 717.0, 717.0, 716.0, 716.0, 715.0, 715.0, 715.0, 716.0, 716.0, 718.0, 717.0, 717.0, 717.0, 719.0, 718.0, 717.0, 717.0, 718.0, 717.0, 717.0, 716.0, 716.0, 716.0, 717.0, 716.0, 717.0, 717.0, 717.0, 717.0, 717.0, 716.0, 717.0, 717.0, 717.0, 716.0, 717.0, 715.0, 715.0, 716.0, 716.0, 716.0, 717.0, 717.0, 717.0, 716.0, 716.0, 717.0, 718.0, 719.0, 717.0, 717.0, 717.0, 716.0, 715.0, 716.0, 717.0, 719.0, 718.0, 717.0, 716.0, 716.0, 716.0, 717.0, 718.0, 719.0, 719.0, 717.0, 716.0, 716.0, 716.0, 715.0, 715.0, 715.0, 716.0, 716.0, 717.0, 718.0, 718.0, 717.0, 721.0, 717.0, 719.0, 718.0, 717.0, 716.0, 716.0, 717.0, 717.0, 718.0, 717.0, 716.0, 716.0, 717.0, 716.0, 715.0, 715.0, 716.0, 717.0, 716.0, 716.0, 716.0, 717.0, 716.0, 718.0, 718.0, 717.0, 717.0, 717.0, 717.0, 717.0, 717.0, 718.0, 718.0, 722.0, 717.0, 718.0, 718.0, 719.0, 718.0, 716.0, 716.0, 715.0, 718.0, 718.0, 717.0, 718.0, 717.0, 717.0, 717.0, 717.0, 717.0, 718.0, 719.0, 718.0, 718.0, 718.0, 717.0, 717.0, 717.0, 718.0, 717.0, 718.0, 718.0, 718.0, 718.0, 718.0, 718.0, 717.0, 715.0, 716.0, 716.0, 717.0, 718.0, 719.0, 717.0, 718.0, 718.0, 718.0, 717.0, 718.0, 718.0, 717.0, 717.0, 718.0, 718.0, 719.0, 718.0, 719.0, 718.0, 717.0, 717.0, 717.0, 717.0, 717.0, 718.0, 717.0, 717.0, 716.0, 717.0, 718.0, 721.0, 719.0, 718.0, 720.0, 720.0, 720.0, 718.0],
      "WindowWidth": [1523.0, 1518.0, 1525.0, 1524.0, 1521.0, 1523.0, 1526.0, 1520.0, 1515.0, 1521.0, 1520.0, 1519.0, 1518.0, 1519.0, 1520.0, 1519.0, 1517.0, 1517.0, 1517.0, 1519.0, 1519.0, 1520.0, 1518.0, 1516.0, 1516.0, 1517.0, 1518.0, 1518.0, 1517.0, 1517.0, 1518.0, 1517.0, 1517.0, 1515.0, 1519.0, 1518.0, 1520.0, 1524.0, 1523.0, 1520.0, 1521.0, 1522.0, 1520.0, 1519.0, 1518.0, 1517.0, 1517.0, 1519.0, 1516.0, 1517.0, 1519.0, 1519.0, 1520.0, 1518.0, 1518.0, 1517.0, 1518.0, 1522.0, 1518.0, 1518.0, 1522.0, 1518.0, 1517.0, 1517.0, 1517.0, 1518.0, 1520.0, 1519.0, 1524.0, 1520.0, 1519.0, 1517.0, 1517.0, 1515.0, 1514.0, 1515.0, 1515.0, 1517.0, 1521.0, 1520.0, 1520.0, 1519.0, 1524.0, 1521.0, 1520.0, 1519.0, 1522.0, 1519.0, 1519.0, 1517.0, 1515.0, 1517.0, 1518.0, 1516.0, 1518.0, 1520.0, 1520.0, 1519.0, 1519.0, 1516.0, 1517.0, 1520.0, 1519.0, 1517.0, 1519.0, 1515.0, 1514.0, 1515.0, 1517.0, 1516.0, 1518.0, 1518.0, 1518.0, 1517.0, 1517.0, 1520.0, 1521.0, 1523.0, 1519.0, 1520.0, 1518.0, 1516.0, 1515.0, 1517.0, 1519.0, 1523.0, 1521.0, 1518.0, 1517.0, 1516.0, 1516.0, 1519.0, 1521.0, 1523.0, 1523.0, 1518.0, 1517.0, 1518.0, 1517.0, 1515.0, 1513.0, 1513.0, 1516.0, 1517.0, 1520.0, 1522.0, 1520.0, 1520.0, 1529.0, 1519.0, 1523.0, 1522.0, 1520.0, 1517.0, 1517.0, 1518.0, 1519.0, 1520.0, 1518.0, 1517.0, 1517.0, 1518.0, 1516.0, 1514.0, 1515.0, 1516.0, 1518.0, 1517.0, 1517.0, 1517.0, 1518.0, 1517.0, 1520.0, 1520.0, 1519.0, 1519.0, 1519.0, 1519.0, 1518.0, 1519.0, 1520.0, 1520.0, 1529.0, 1519.0, 1520.0, 1522.0, 1524.0, 1521.0, 1518.0, 1515.0, 1515.0, 1521.0, 1521.0, 1520.0, 1520.0, 1519.0, 1519.0, 1518.0, 1519.0, 1520.0, 1521.0, 1524.0, 1522.0, 1521.0, 1520.0, 1518.0, 1518.0, 1518.0, 1520.0, 1519.0, 1522.0, 1521.0, 1522.0, 1520.0, 1521.0, 1520.0, 1518.0, 1514.0, 1515.0, 1516.0, 1520.0, 1521.0, 1523.0, 1520.0, 1522.0, 1520.0, 1520.0, 1520.0, 1522.0, 1520.0, 1519.0, 1519.0, 1521.0, 1520.0, 1522.0, 1521.0, 1523.0, 1520.0, 1519.0, 1519.0, 1519.0, 1518.0, 1520.0, 1520.0, 1519.0, 1518.0, 1516.0, 1519.0, 1522.0, 1527.0, 1523.0, 1521.0, 1525.0, 1525.0, 1527.0, 1522.0]
    },
    "slices": {}
  }
}