{
 "AcquisitionMatrixPE": 100,
 "AcquisitionNumber": 1,
 "AcquisitionTime": "12:13:13.607500",
 "BandwidthPerPixelPhaseEncode": 18.519,
 "BaseResolution": 100,
 "BodyPartExamined": "BRAIN",
 "ConsistencyInfo": "N4_VE11C_LATEST_20160120",
 "ConversionSoftware": "dcm2niix",
 "ConversionSoftwareVersion": "v1.0.20180622 GCC4.9.2",
 "DerivedVendorReportedEchoSpacing": 0.000539986,
 "DeviceSerialNumber": "166078",
 "DwellTime": 2.1e-06,
 "EchoTime": 0.034,
 "EchoTrainLength": 100,
 "EffectiveEchoSpacing": 0.000539986,
 "FlipAngle": 90,
 "ImageOrientationPatientDICOM": [
  1,
  0,
  0,
  0,
  0.982287,
  -0.187381
 ],
 "ImageType": [
  "ORIGINAL",
  "PRIMARY",
  "M",
  "ND",
  "MOSAIC"
 ],
 "InPlanePhaseEncodingDirectionDICOM": "COL",
 "InstitutionAddress": "Street_StreetNo_Bei_Jing_District_CN_ZIP",
 "InstitutionName": "BeiJing_Normal_University",
 "InstitutionalDepartmentName": "Department",
 "MRAcquisitionType": "2D",
 "MagneticFieldStrength": 3,
 "Manufacturer": "Siemens",
 "ManufacturersModelName": "Prisma",
 "Modality": "MR",
 "MultibandAccelerationFactor": 3,
 "PartialFourier": 1,
 "PatientPosition": "HFS",
 "PercentPhaseFOV": 100,
 "PhaseEncodingDirection": "j-",
 "PhaseEncodingSteps": 100,
 "PhaseResolution": 1,
 "PixelBandwidth": 2380,
 "ProcedureStepDescription": "BNU_P2018_64CH_Zhen.ZongLei",
 "ProtocolName": "bold_100x100_s3_2x2x2_static_256",
 "PulseSequenceDetails": "%SiemensSeq%_ep2d_bold",
 "ReceiveCoilActiveElements": "HC1-7;NC1",
 "ReceiveCoilName": "HeadNeck_64",
 "ReconMatrixPE": 100,
 "RepetitionTime": 2,
 "SAR": 0.06884,
 "ScanOptions": "FS",
 "ScanningSequence": "EP",
 "SequenceName": "_epfid2d1_100",
 "SequenceVariant": "SK",
 "SeriesDescription": "bold_100x100_s3_2x2x2_static_256",
 "SeriesNumber": 10,
 "ShimSetting": [
  -5457,
  -11504,
  -1285,
  306,
  -53,
  -246,
  -125,
  39
 ],
 "SliceThickness": 2,
 "SliceTiming": [
  1.485,
  0,
  0.99,
  0.0825,
  1.0725,
  0.165,
  1.155,
  0.2475,
  1.2375,
  0.33,
  1.32,
  0.4125,
  1.4025,
  0.5775,
  1.5675,
  0.66,
  1.65,
  0.7425,
  1.7325,
  0.825,
  1.815,
  0.9075,
  1.8975,
  0.495,
  1.485,
  0,
  0.99,
  0.0825,
  1.0725,
  0.165,
  1.155,
  0.2475,
  1.2375,
  0.33,
  1.32,
  0.4125,
  1.4025,
  0.5775,
  1.5675,
  0.66,
  1.65,
  0.7425,
  1.7325,
  0.825,
  1.815,
  0.9075,
  1.8975,
  0.495,
  1.485,
  0,
  0.99,
  0.0825,
  1.0725,
  0.165,
  1.155,
  0.2475,
  1.2375,
  0.33,
  1.32,
  0.4125,
  1.4025,
  0.5775,
  1.5675,
  0.66,
  1.65,
  0.7425,
  1.7325,
  0.825,
  1.815,
  0.9075,
  1.8975,
  0.495
 ],
 "SoftwareVersions": "syngo_MR_E11",
 "SpacingBetweenSlices": 2,
 "StationName": "AWP166078",
 "TaskName": "imagenet",
 "TotalReadoutTime": 0.0534586,
 "TxRefAmp": 211.901,
 "dcmmeta_affine": [
  [
   -2.0,
   0.0,
   0.0,
   103.38983154296875
  ],
  [
   0.0,
   1.9645744562149048,
   -0.374762624502182,
   -78.19866943359375
  ],
  [
   0.0,
   0.374762624502182,
   1.9645744562149048,
   -100.270751953125
  ],
  [
   0.0,
   0.0,
   0.0,
   1.0
  ]
 ],
 "dcmmeta_reorient_transform": [
  [
   0.0,
   -1.0,
   0.0,
   99.0
  ],
  [
   1.0,
   0.0,
   0.0,
   0.0
  ],
  [
   0.0,
   0.0,
   1.0,
   0.0
  ],
  [
   0.0,
   0.0,
   0.0,
   1.0
  ]
 ],
 "dcmmeta_shape": [
  100,
  100,
  72,
  256
 ],
 "dcmmeta_slice_dim": 2,
 "dcmmeta_version": 0.6,
 "global": {
  "const": {
   "AcquisitionMatrix": [
    100,
    0,
    0,
    100
   ],
   "AngioFlag": "N",
   "BitsAllocated": 16,
   "BitsStored": 12,
   "BodyPartExamined": "BRAIN",
   "Columns": 900,
   "EchoNumbers": 1,
   "EchoTime": 34.0,
   "EchoTrainLength": 100,
   "FlipAngle": 90.0,
   "HighBit": 11,
   "ImageOrientationPatient": [
    1.0,
    0.0,
    0.0,
    0.0,
    0.98228725047307,
    -0.1873813159257
   ],
   "ImagePositionPatient": [
    -903.38983058929,
    -902.12400279698,
    86.735797553354
   ],
   "ImageType": [
    "ORIGINAL",
    "PRIMARY",
    "M",
    "ND",
    "MOSAIC"
   ],
   "ImagedNucleus": "1H",
   "ImagingFrequency": 123.25776,
   "InPlanePhaseEncodingDirection": "COL",
   "MRAcquisitionType": "2D",
   "MagneticFieldStrength": 3.0,
   "Manufacturer": "SIEMENS",
   "ManufacturerModelName": "Prisma",
   "Modality": "MR",
   "NumberOfAverages": 1.0,
   "NumberOfPhaseEncodingSteps": 100,
   "PercentPhaseFieldOfView": 100.0,
   "PercentSampling": 100.0,
   "PerformedProcedureStepStartTime": "111946.085000",
   "PhotometricInterpretation": "MONOCHROME2",
   "PixelBandwidth": 2380.0,
   "PixelRepresentation": 0,
   "PixelSpacing": [
    2.0,
    2.0
   ],
   "ProtocolName": "bold_100x100_s3_2x2x2_static_256",
   "RepetitionTime": 2000.0,
   "Rows": 900,
   "SAR": 0.06884001428517,
   "SamplesPerPixel": 1,
   "ScanOptions": "FS",
   "ScanningSequence": "EP",
   "SequenceName": "*epfid2d1_100",
   "SequenceVariant": "SK",
   "SeriesDescription": "bold_100x100_s3_2x2x2_static_256",
   "SeriesNumber": 10,
   "SeriesTime": "121316.680000",
   "SliceLocation": -83.841714675994,
   "SliceThickness": 2.0,
   "SmallestImagePixelValue": 0,
   "SoftwareVersions": "syngo MR E11",
   "SpacingBetweenSlices": 2.000000014055,
   "SpecificCharacterSet": "ISO_IR 100",
   "StudyID": "1",
   "StudyTime": "111945.951000",
   "TransmitCoilName": "Body",
   "VariableFlipAngleFlag": "N",
   "WindowCenterWidthExplanation": "Algo1",
   "dBdt": 0.0
  },
  "slices": {}
 },
 "time": {
  "samples": {
   "AcquisitionNumber": [
    1,
    2,
    3,
    4,
    5,
    6,
    7,
    8,
    9,
    10,
    11,
    12,
    13,
    14,
    15,
    16,
    17,
    18,
    19,
    20,
    21,
    22,
    23,
    24,
    25,
    26,
    27,
    28,
    29,
    30,
    31,
    32,
    33,
    34,
    35,
    36,
    37,
    38,
    39,
    40,
    41,
    42,
    43,
    44,
    45,
    46,
    47,
    48,
    49,
    50,
    51,
    52,
    53,
    54,
    55,
    56,
    57,
    58,
    59,
    60,
    61,
    62,
    63,
    64,
    65,
    66,
    67,
    68,
    69,
    70,
    71,
    72,
    73,
    74,
    75,
    76,
    77,
    78,
    79,
    80,
    81,
    82,
    83,
    84,
    85,
    86,
    87,
    88,
    89,
    90,
    91,
    92,
    93,
    94,
    95,
    96,
    97,
    98,
    99,
    100,
    101,
    102,
    103,
    104,
    105,
    106,
    107,
    108,
    109,
    110,
    111,
    112,
    113,
    114,
    115,
    116,
    117,
    118,
    119,
    120,
    121,
    122,
    123,
    124,
    125,
    126,
    127,
    128,
    129,
    130,
    131,
    132,
    133,
    134,
    135,
    136,
    137,
    138,
    139,
    140,
    141,
    142,
    143,
    144,
    145,
    146,
    147,
    148,
    149,
    150,
    151,
    152,
    153,
    154,
    155,
    156,
    157,
    158,
    159,
    160,
    161,
    162,
    163,
    164,
    165,
    166,
    167,
    168,
    169,
    170,
    171,
    172,
    173,
    174,
    175,
    176,
    177,
    178,
    179,
    180,
    181,
    182,
    183,
    184,
    185,
    186,
    187,
    188,
    189,
    190,
    191,
    192,
    193,
    194,
    195,
    196,
    197,
    198,
    199,
    200,
    201,
    202,
    203,
    204,
    205,
    206,
    207,
    208,
    209,
    210,
    211,
    212,
    213,
    214,
    215,
    216,
    217,
    218,
    219,
    220,
    221,
    222,
    223,
    224,
    225,
    226,
    227,
    228,
    229,
    230,
    231,
    232,
    233,
    234,
    235,
    236,
    237,
    238,
    239,
    240,
    241,
    242,
    243,
    244,
    245,
    246,
    247,
    248,
    249,
    250,
    251,
    252,
    253,
    254,
    255,
    256
   ],
   "AcquisitionTime": [
    "121313.607500",
    "121315.607500",
    "121317.607500",
    "121319.607500",
    "121321.607500",
    "121323.607500",
    "121325.607500",
    "121327.607500",
    "121329.607500",
    "121331.607500",
    "121333.607500",
    "121335.607500",
    "121337.607500",
    "121339.607500",
    "121341.607500",
    "121343.607500",
    "121345.607500",
    "121347.607500",
    "121349.607500",
    "121351.607500",
    "121353.607500",
    "121355.607500",
    "121357.607500",
    "121359.607500",
    "121401.607500",
    "121403.607500",
    "121405.607500",
    "121407.607500",
    "121409.607500",
    "121411.607500",
    "121413.607500",
    "121415.607500",
    "121417.607500",
    "121419.607500",
    "121421.607500",
    "121423.607500",
    "121425.607500",
    "121427.607500",
    "121429.607500",
    "121431.607500",
    "121433.607500",
    "121435.607500",
    "121437.607500",
    "121439.607500",
    "121441.607500",
    "121443.607500",
    "121445.607500",
    "121447.607500",
    "121449.607500",
    "121451.607500",
    "121453.607500",
    "121455.607500",
    "121457.607500",
    "121459.607500",
    "121501.607500",
    "121503.607500",
    "121505.607500",
    "121507.607500",
    "121509.607500",
    "121511.607500",
    "121513.607500",
    "121515.607500",
    "121517.607500",
    "121519.607500",
    "121521.607500",
    "121523.607500",
    "121525.607500",
    "121527.607500",
    "121529.607500",
    "121531.607500",
    "121533.607500",
    "121535.607500",
    "121537.607500",
    "121539.607500",
    "121541.607500",
    "121543.607500",
    "121545.607500",
    "121547.607500",
    "121549.607500",
    "121551.607500",
    "121553.607500",
    "121555.607500",
    "121557.607500",
    "121559.607500",
    "121601.607500",
    "121603.607500",
    "121605.607500",
    "121607.607500",
    "121609.607500",
    "121611.607500",
    "121613.607500",
    "121615.607500",
    "121617.607500",
    "121619.607500",
    "121621.607500",
    "121623.607500",
    "121625.607500",
    "121627.607500",
    "121629.607500",
    "121631.607500",
    "121633.607500",
    "121635.607500",
    "121637.607500",
    "121639.607500",
    "121641.607500",
    "121643.607500",
    "121645.607500",
    "121647.607500",
    "121649.607500",
    "121651.607500",
    "121653.607500",
    "121655.607500",
    "121657.607500",
    "121659.607500",
    "121701.607500",
    "121703.607500",
    "121705.607500",
    "121707.607500",
    "121709.607500",
    "121711.607500",
    "121713.607500",
    "121715.607500",
    "121717.607500",
    "121719.607500",
    "121721.607500",
    "121723.607500",
    "121725.607500",
    "121727.607500",
    "121729.607500",
    "121731.607500",
    "121733.607500",
    "121735.607500",
    "121737.607500",
    "121739.607500",
    "121741.607500",
    "121743.607500",
    "121745.607500",
    "121747.607500",
    "121749.607500",
    "121751.607500",
    "121753.607500",
    "121755.607500",
    "121757.607500",
    "121759.607500",
    "121801.607500",
    "121803.607500",
    "121805.607500",
    "121807.607500",
    "121809.607500",
    "121811.607500",
    "121813.607500",
    "121815.607500",
    "121817.607500",
    "121819.607500",
    "121821.607500",
    "121823.607500",
    "121825.607500",
    "121827.607500",
    "121829.607500",
    "121831.607500",
    "121833.607500",
    "121835.607500",
    "121837.607500",
    "121839.607500",
    "121841.607500",
    "121843.607500",
    "121845.607500",
    "121847.607500",
    "121849.607500",
    "121851.607500",
    "121853.607500",
    "121855.607500",
    "121857.607500",
    "121859.607500",
    "121901.607500",
    "121903.607500",
    "121905.607500",
    "121907.607500",
    "121909.607500",
    "121911.607500",
    "121913.607500",
    "121915.607500",
    "121917.607500",
    "121919.607500",
    "121921.607500",
    "121923.607500",
    "121925.607500",
    "121927.607500",
    "121929.607500",
    "121931.607500",
    "121933.607500",
    "121935.607500",
    "121937.607500",
    "121939.607500",
    "121941.607500",
    "121943.607500",
    "121945.607500",
    "121947.607500",
    "121949.607500",
    "121951.607500",
    "121953.607500",
    "121955.607500",
    "121957.607500",
    "121959.607500",
    "122001.607500",
    "122003.607500",
    "122005.607500",
    "122007.607500",
    "122009.607500",
    "122011.607500",
    "122013.607500",
    "122015.607500",
    "122017.607500",
    "122019.607500",
    "122021.607500",
    "122023.607500",
    "122025.607500",
    "122027.607500",
    "122029.607500",
    "122031.607500",
    "122033.607500",
    "122035.607500",
    "122037.607500",
    "122039.607500",
    "122041.607500",
    "122043.607500",
    "122045.607500",
    "122047.607500",
    "122049.607500",
    "122051.607500",
    "122053.607500",
    "122055.607500",
    "122057.607500",
    "122059.607500",
    "122101.607500",
    "122103.607500",
    "122105.607500",
    "122107.607500",
    "122109.607500",
    "122111.607500",
    "122113.607500",
    "122115.607500",
    "122117.607500",
    "122119.607500",
    "122121.607500",
    "122123.607500",
    "122125.607500",
    "122127.607500",
    "122129.607500",
    "122131.607500",
    "122133.607500",
    "122135.607500",
    "122137.607500",
    "122139.607500",
    "122141.607500",
    "122143.607500"
   ],
   "ContentTime": [
    "121316.684000",
    "121318.180000",
    "121320.181000",
    "121322.180000",
    "121324.181000",
    "121326.181000",
    "121328.180000",
    "121330.180000",
    "121332.181000",
    "121334.179000",
    "121336.180000",
    "121338.180000",
    "121340.181000",
    "121342.180000",
    "121344.181000",
    "121346.181000",
    "121348.181000",
    "121350.179000",
    "121352.180000",
    "121354.181000",
    "121356.181000",
    "121358.181000",
    "121400.181000",
    "121402.180000",
    "121404.180000",
    "121406.180000",
    "121408.180000",
    "121410.180000",
    "121412.181000",
    "121414.180000",
    "121416.181000",
    "121418.180000",
    "121420.180000",
    "121422.181000",
    "121424.180000",
    "121426.180000",
    "121428.180000",
    "121430.181000",
    "121432.181000",
    "121434.180000",
    "121436.181000",
    "121438.181000",
    "121440.180000",
    "121442.181000",
    "121444.180000",
    "121446.180000",
    "121448.181000",
    "121450.181000",
    "121452.180000",
    "121454.181000",
    "121456.180000",
    "121458.181000",
    "121500.180000",
    "121502.181000",
    "121504.181000",
    "121506.180000",
    "121508.181000",
    "121510.180000",
    "121512.181000",
    "121514.180000",
    "121516.181000",
    "121518.180000",
    "121520.180000",
    "121522.181000",
    "121524.180000",
    "121526.180000",
    "121528.181000",
    "121530.180000",
    "121532.180000",
    "121534.181000",
    "121536.180000",
    "121538.181000",
    "121540.181000",
    "121542.180000",
    "121544.180000",
    "121546.181000",
    "121548.180000",
    "121550.181000",
    "121552.181000",
    "121554.180000",
    "121556.180000",
    "121558.181000",
    "121600.181000",
    "121602.180000",
    "121604.180000",
    "121606.181000",
    "121608.180000",
    "121610.179000",
    "121612.181000",
    "121614.181000",
    "121616.180000",
    "121618.180000",
    "121620.181000",
    "121622.180000",
    "121624.181000",
    "121626.181000",
    "121628.179000",
    "121630.201000",
    "121632.181000",
    "121634.180000",
    "121636.181000",
    "121638.181000",
    "121640.181000",
    "121642.181000",
    "121644.180000",
    "121646.180000",
    "121648.180000",
    "121650.181000",
    "121652.181000",
    "121654.180000",
    "121656.181000",
    "121658.181000",
    "121700.180000",
    "121702.181000",
    "121704.180000",
    "121706.181000",
    "121708.181000",
    "121710.181000",
    "121712.181000",
    "121714.181000",
    "121716.181000",
    "121718.190000",
    "121720.180000",
    "121722.180000",
    "121724.181000",
    "121726.180000",
    "121728.181000",
    "121730.181000",
    "121732.181000",
    "121734.181000",
    "121736.200000",
    "121738.179000",
    "121740.181000",
    "121742.181000",
    "121744.181000",
    "121746.181000",
    "121748.180000",
    "121750.180000",
    "121752.180000",
    "121754.181000",
    "121756.180000",
    "121758.181000",
    "121800.181000",
    "121802.181000",
    "121804.181000",
    "121806.181000",
    "121808.181000",
    "121810.180000",
    "121812.180000",
    "121814.180000",
    "121816.181000",
    "121818.180000",
    "121820.180000",
    "121822.181000",
    "121824.181000",
    "121826.180000",
    "121828.180000",
    "121830.180000",
    "121832.181000",
    "121834.180000",
    "121836.181000",
    "121838.181000",
    "121840.181000",
    "121842.180000",
    "121844.180000",
    "121846.181000",
    "121848.180000",
    "121850.180000",
    "121852.181000",
    "121854.181000",
    "121856.181000",
    "121858.181000",
    "121900.180000",
    "121902.181000",
    "121904.180000",
    "121906.179000",
    "121908.181000",
    "121910.181000",
    "121912.181000",
    "121914.181000",
    "121916.180000",
    "121918.181000",
    "121920.181000",
    "121922.181000",
    "121924.180000",
    "121926.181000",
    "121928.180000",
    "121930.180000",
    "121932.181000",
    "121934.181000",
    "121936.181000",
    "121938.180000",
    "121940.180000",
    "121942.180000",
    "121944.180000",
    "121946.180000",
    "121948.181000",
    "121950.180000",
    "121952.181000",
    "121954.181000",
    "121956.180000",
    "121958.180000",
    "122000.180000",
    "122002.181000",
    "122004.180000",
    "122006.181000",
    "122008.180000",
    "122010.180000",
    "122012.180000",
    "122014.181000",
    "122016.179000",
    "122018.180000",
    "122020.181000",
    "122022.181000",
    "122024.181000",
    "122026.181000",
    "122028.181000",
    "122030.181000",
    "122032.180000",
    "122034.181000",
    "122036.180000",
    "122038.181000",
    "122040.180000",
    "122042.181000",
    "122044.181000",
    "122046.181000",
    "122048.181000",
    "122050.179000",
    "122052.181000",
    "122054.181000",
    "122056.181000",
    "122058.181000",
    "122100.181000",
    "122102.181000",
    "122104.181000",
    "122106.180000",
    "122108.179000",
    "122110.181000",
    "122112.180000",
    "122114.180000",
    "122116.181000",
    "122118.181000",
    "122120.181000",
    "122122.181000",
    "122124.181000",
    "122126.180000",
    "122128.181000",
    "122130.180000",
    "122132.180000",
    "122134.181000",
    "122136.181000",
    "122138.180000",
    "122140.180000",
    "122142.180000",
    "122144.181000",
    "122145.758000"
   ],
   "InstanceCreationTime": [
    "121316.684000",
    "121318.180000",
    "121320.181000",
    "121322.180000",
    "121324.181000",
    "121326.181000",
    "121328.180000",
    "121330.180000",
    "121332.181000",
    "121334.179000",
    "121336.180000",
    "121338.180000",
    "121340.181000",
    "121342.180000",
    "121344.181000",
    "121346.181000",
    "121348.181000",
    "121350.179000",
    "121352.180000",
    "121354.181000",
    "121356.181000",
    "121358.181000",
    "121400.181000",
    "121402.180000",
    "121404.180000",
    "121406.180000",
    "121408.180000",
    "121410.180000",
    "121412.181000",
    "121414.180000",
    "121416.181000",
    "121418.180000",
    "121420.180000",
    "121422.181000",
    "121424.180000",
    "121426.180000",
    "121428.180000",
    "121430.181000",
    "121432.181000",
    "121434.180000",
    "121436.181000",
    "121438.181000",
    "121440.180000",
    "121442.181000",
    "121444.180000",
    "121446.180000",
    "121448.181000",
    "121450.181000",
    "121452.180000",
    "121454.181000",
    "121456.180000",
    "121458.181000",
    "121500.180000",
    "121502.181000",
    "121504.181000",
    "121506.180000",
    "121508.181000",
    "121510.180000",
    "121512.181000",
    "121514.180000",
    "121516.181000",
    "121518.180000",
    "121520.180000",
    "121522.181000",
    "121524.180000",
    "121526.180000",
    "121528.181000",
    "121530.180000",
    "121532.180000",
    "121534.181000",
    "121536.180000",
    "121538.181000",
    "121540.181000",
    "121542.180000",
    "121544.180000",
    "121546.181000",
    "121548.180000",
    "121550.181000",
    "121552.181000",
    "121554.180000",
    "121556.180000",
    "121558.181000",
    "121600.181000",
    "121602.180000",
    "121604.180000",
    "121606.181000",
    "121608.180000",
    "121610.179000",
    "121612.181000",
    "121614.181000",
    "121616.180000",
    "121618.180000",
    "121620.181000",
    "121622.180000",
    "121624.181000",
    "121626.181000",
    "121628.179000",
    "121630.201000",
    "121632.181000",
    "121634.180000",
    "121636.181000",
    "121638.181000",
    "121640.181000",
    "121642.181000",
    "121644.180000",
    "121646.180000",
    "121648.180000",
    "121650.181000",
    "121652.181000",
    "121654.180000",
    "121656.181000",
    "121658.181000",
    "121700.180000",
    "121702.181000",
    "121704.180000",
    "121706.181000",
    "121708.181000",
    "121710.181000",
    "121712.181000",
    "121714.181000",
    "121716.181000",
    "121718.190000",
    "121720.180000",
    "121722.180000",
    "121724.181000",
    "121726.180000",
    "121728.181000",
    "121730.181000",
    "121732.181000",
    "121734.181000",
    "121736.200000",
    "121738.179000",
    "121740.181000",
    "121742.181000",
    "121744.181000",
    "121746.181000",
    "121748.180000",
    "121750.180000",
    "121752.180000",
    "121754.181000",
    "121756.180000",
    "121758.181000",
    "121800.181000",
    "121802.181000",
    "121804.181000",
    "121806.181000",
    "121808.181000",
    "121810.180000",
    "121812.180000",
    "121814.180000",
    "121816.181000",
    "121818.180000",
    "121820.180000",
    "121822.181000",
    "121824.181000",
    "121826.180000",
    "121828.180000",
    "121830.180000",
    "121832.181000",
    "121834.180000",
    "121836.181000",
    "121838.181000",
    "121840.181000",
    "121842.180000",
    "121844.180000",
    "121846.181000",
    "121848.180000",
    "121850.180000",
    "121852.181000",
    "121854.181000",
    "121856.181000",
    "121858.181000",
    "121900.180000",
    "121902.181000",
    "121904.180000",
    "121906.179000",
    "121908.181000",
    "121910.181000",
    "121912.181000",
    "121914.181000",
    "121916.180000",
    "121918.181000",
    "121920.181000",
    "121922.181000",
    "121924.180000",
    "121926.181000",
    "121928.180000",
    "121930.180000",
    "121932.181000",
    "121934.181000",
    "121936.181000",
    "121938.180000",
    "121940.180000",
    "121942.180000",
    "121944.180000",
    "121946.180000",
    "121948.181000",
    "121950.180000",
    "121952.181000",
    "121954.181000",
    "121956.180000",
    "121958.180000",
    "122000.180000",
    "122002.181000",
    "122004.180000",
    "122006.181000",
    "122008.180000",
    "122010.180000",
    "122012.180000",
    "122014.181000",
    "122016.179000",
    "122018.180000",
    "122020.181000",
    "122022.181000",
    "122024.181000",
    "122026.181000",
    "122028.181000",
    "122030.181000",
    "122032.180000",
    "122034.181000",
    "122036.180000",
    "122038.181000",
    "122040.180000",
    "122042.181000",
    "122044.181000",
    "122046.181000",
    "122048.181000",
    "122050.179000",
    "122052.181000",
    "122054.181000",
    "122056.181000",
    "122058.181000",
    "122100.181000",
    "122102.181000",
    "122104.181000",
    "122106.180000",
    "122108.179000",
    "122110.181000",
    "122112.180000",
    "122114.180000",
    "122116.181000",
    "122118.181000",
    "122120.181000",
    "122122.181000",
    "122124.181000",
    "122126.180000",
    "122128.181000",
    "122130.180000",
    "122132.180000",
    "122134.181000",
    "122136.181000",
    "122138.180000",
    "122140.180000",
    "122142.180000",
    "122144.181000",
    "122145.758000"
   ],
   "InstanceNumber": [
    1,
    2,
    3,
    4,
    5,
    6,
    7,
    8,
    9,
    10,
    11,
    12,
    13,
    14,
    15,
    16,
    17,
    18,
    19,
    20,
    21,
    22,
    23,
    24,
    25,
    26,
    27,
    28,
    29,
    30,
    31,
    32,
    33,
    34,
    35,
    36,
    37,
    38,
    39,
    40,
    41,
    42,
    43,
    44,
    45,
    46,
    47,
    48,
    49,
    50,
    51,
    52,
    53,
    54,
    55,
    56,
    57,
    58,
    59,
    60,
    61,
    62,
    63,
    64,
    65,
    66,
    67,
    68,
    69,
    70,
    71,
    72,
    73,
    74,
    75,
    76,
    77,
    78,
    79,
    80,
    81,
    82,
    83,
    84,
    85,
    86,
    87,
    88,
    89,
    90,
    91,
    92,
    93,
    94,
    95,
    96,
    97,
    98,
    99,
    100,
    101,
    102,
    103,
    104,
    105,
    106,
    107,
    108,
    109,
    110,
    111,
    112,
    113,
    114,
    115,
    116,
    117,
    118,
    119,
    120,
    121,
    122,
    123,
    124,
    125,
    126,
    127,
    128,
    129,
    130,
    131,
    132,
    133,
    134,
    135,
    136,
    137,
    138,
    139,
    140,
    141,
    142,
    143,
    144,
    145,
    146,
    147,
    148,
    149,
    150,
    151,
    152,
    153,
    154,
    155,
    156,
    157,
    158,
    159,
    160,
    161,
    162,
    163,
    164,
    165,
    166,
    167,
    168,
    169,
    170,
    171,
    172,
    173,
    174,
    175,
    176,
    177,
    178,
    179,
    180,
    181,
    182,
    183,
    184,
    185,
    186,
    187,
    188,
    189,
    190,
    191,
    192,
    193,
    194,
    195,
    196,
    197,
    198,
    199,
    200,
    201,
    202,
    203,
    204,
    205,
    206,
    207,
    208,
    209,
    210,
    211,
    212,
    213,
    214,
    215,
    216,
    217,
    218,
    219,
    220,
    221,
    222,
    223,
    224,
    225,
    226,
    227,
    228,
    229,
    230,
    231,
    232,
    233,
    234,
    235,
    236,
    237,
    238,
    239,
    240,
    241,
    242,
    243,
    244,
    245,
    246,
    247,
    248,
    249,
    250,
    251,
    252,
    253,
    254,
    255,
    256
   ],
   "LargestImagePixelValue": [
    2676,
    2632,
    2589,
    2614,
    2616,
    2619,
    2623,
    2650,
    2643,
    2653,
    2630,
    2656,
    2678,
    2653,
    2647,
    2675,
    2654,
    2647,
    2657,
    2680,
    2688,
    2650,
    2646,
    2666,
    2647,
    2651,
    2661,
    2671,
    2660,
    2646,
    2693,
    2656,
    2667,
    2667,
    2678,
    2679,
    2684,
    2640,
    2669,
    2656,
    2658,
    2698,
    2644,
    2620,
    2657,
    2682,
    2664,
    2697,
    2720,
    2702,
    2705,
    2689,
    2669,
    2674,
    2682,
    2681,
    2684,
    2685,
    2673,
    2695,
    2713,
    2678,
    2675,
    2670,
    2665,
    2689,
    2714,
    2724,
    2731,
    2716,
    2738,
    2730,
    2711,
    2692,
    2738,
    2727,
    2729,
    2714,
    2728,
    2713,
    2688,
    2749,
    2739,
    2714,
    2772,
    2766,
    2727,
    2714,
    2758,
    2761,
    2756,
    2750,
    2758,
    2738,
    2736,
    2740,
    2761,
    2713,
    2722,
    2725,
    2732,
    2719,
    2737,
    2740,
    2724,
    2752,
    2728,
    2721,
    2696,
    2741,
    2743,
    2757,
    2766,
    2723,
    2734,
    2739,
    2705,
    2768,
    2733,
    2713,
    2746,
    2762,
    2768,
    2724,
    2732,
    2788,
    2767,
    2740,
    2733,
    2731,
    2760,
    2722,
    2722,
    2717,
    2726,
    2742,
    2753,
    2721,
    2733,
    2738,
    2757,
    2755,
    2783,
    2769,
    2772,
    2774,
    2773,
    2763,
    2743,
    2740,
    2761,
    2751,
    2735,
    2750,
    2792,
    2780,
    2763,
    2764,
    2769,
    2762,
    2794,
    2776,
    2798,
    2793,
    2798,
    2777,
    2780,
    2845,
    2796,
    2801,
    2811,
    2792,
    2818,
    2789,
    2778,
    2763,
    2775,
    2784,
    2779,
    2772,
    2781,
    2768,
    2816,
    2812,
    2755,
    2783,
    2805,
    2767,
    2780,
    2774,
    2798,
    2770,
    2768,
    2781,
    2776,
    2767,
    2736,
    2768,
    2794,
    2803,
    2790,
    2784,
    2756,
    2773,
    2771,
    2757,
    2776,
    2763,
    2805,
    2751,
    2761,
    2770,
    2770,
    2758,
    2744,
    2755,
    2767,
    2741,
    2782,
    2760,
    2759,
    2750,
    2758,
    2735,
    2773,
    2782,
    2764,
    2748,
    2733,
    2758,
    2749,
    2698,
    2730,
    2737,
    2746,
    2746,
    2719,
    2743,
    2740,
    2761,
    2736,
    2720,
    2719,
    2724,
    2691,
    2724,
    2758,
    2689,
    2738,
    2722,
    2719,
    2727,
    2765,
    2736,
    2786,
    2744
   ],
   "WindowCenter": [
    731.0,
    730.0,
    730.0,
    730.0,
    729.0,
    728.0,
    728.0,
    729.0,
    729.0,
    729.0,
    729.0,
    729.0,
    730.0,
    729.0,
    729.0,
    729.0,
    729.0,
    728.0,
    729.0,
    729.0,
    729.0,
    729.0,
    728.0,
    729.0,
    728.0,
    728.0,
    728.0,
    729.0,
    729.0,
    729.0,
    728.0,
    727.0,
    727.0,
    727.0,
    728.0,
    728.0,
    728.0,
    727.0,
    728.0,
    728.0,
    728.0,
    729.0,
    728.0,
    727.0,
    728.0,
    729.0,
    729.0,
    729.0,
    729.0,
    729.0,
    730.0,
    729.0,
    729.0,
    728.0,
    728.0,
    728.0,
    727.0,
    728.0,
    729.0,
    730.0,
    730.0,
    729.0,
    729.0,
    728.0,
    728.0,
    728.0,
    729.0,
    729.0,
    728.0,
    727.0,
    728.0,
    729.0,
    729.0,
    729.0,
    728.0,
    728.0,
    728.0,
    729.0,
    729.0,
    729.0,
    729.0,
    730.0,
    730.0,
    729.0,
    729.0,
    729.0,
    729.0,
    730.0,
    730.0,
    730.0,
    729.0,
    729.0,
    730.0,
    730.0,
    730.0,
    730.0,
    731.0,
    730.0,
    730.0,
    730.0,
    729.0,
    729.0,
    729.0,
    729.0,
    730.0,
    730.0,
    730.0,
    731.0,
    730.0,
    730.0,
    730.0,
    729.0,
    730.0,
    730.0,
    731.0,
    730.0,
    729.0,
    730.0,
    730.0,
    730.0,
    730.0,
    730.0,
    730.0,
    729.0,
    730.0,
