{
 "AcquisitionMatrixPE": 100,
 "AcquisitionNumber": 1,
 "AcquisitionTime": "11:23:46.787500",
 "BandwidthPerPixelPhaseEncode": 18.519,
 "BaseResolution": 100,
 "BodyPartExamined": "BRAIN",
 "ConsistencyInfo": "N4_VE11C_LATEST_20160120",
 "ConversionSoftware": "dcm2niix",
 "ConversionSoftwareVersion": "v1.0.20180622 GCC4.9.2",
 "DerivedVendorReportedEchoSpacing": 0.000539986,
 "DeviceSerialNumber": "166078",
 "DwellTime": 2.1e-06,
 "EchoTime": 0.034,
 "EchoTrainLength": 100,
 "EffectiveEchoSpacing": 0.000539986,
 "FlipAngle": 90,
 "ImageOrientationPatientDICOM": [
  1,
  0,
  0,
  0,
  0.982287,
  -0.187381
 ],
 "ImageType": [
  "ORIGINAL",
  "PRIMARY",
  "M",
  "ND",
  "MOSAIC"
 ],
 "InPlanePhaseEncodingDirectionDICOM": "COL",
 "InstitutionAddress": "Street_StreetNo_Bei_Jing_District_CN_ZIP",
 "InstitutionName": "BeiJing_Normal_University",
 "InstitutionalDepartmentName": "Department",
 "MRAcquisitionType": "2D",
 "MagneticFieldStrength": 3,
 "Manufacturer": "Siemens",
 "ManufacturersModelName": "Prisma",
 "Modality": "MR",
 "MultibandAccelerationFactor": 3,
 "PartialFourier": 1,
 "PatientPosition": "HFS",
 "PercentPhaseFOV": 100,
 "PhaseEncodingDirection": "j-",
 "PhaseEncodingSteps": 100,
 "PhaseResolution": 1,
 "PixelBandwidth": 2380,
 "ProcedureStepDescription": "BNU_P2018_64CH_Zhen.ZongLei",
 "ProtocolName": "bold_100x100_s3_2x2x2_static_256",
 "PulseSequenceDetails": "%SiemensSeq%_ep2d_bold",
 "ReceiveCoilActiveElements": "HC1-7;NC1",
 "ReceiveCoilName": "HeadNeck_64",
 "ReconMatrixPE": 100,
 "RepetitionTime": 2,
 "SAR": 0.06884,
 "ScanOptions": "FS",
 "ScanningSequence": "EP",
 "SequenceName": "_epfid2d1_100",
 "SequenceVariant": "SK",
 "SeriesDescription": "bold_100x100_s3_2x2x2_static_256",
 "SeriesNumber": 3,
 "ShimSetting": [
  -5457,
  -11504,
  -1285,
  306,
  -53,
  -246,
  -125,
  39
 ],
 "SliceThickness": 2,
 "SliceTiming": [
  1.485,
  0,
  0.99,
  0.0825,
  1.0725,
  0.165,
  1.155,
  0.2475,
  1.2375,
  0.33,
  1.32,
  0.4125,
  1.4025,
  0.5775,
  1.5675,
  0.66,
  1.65,
  0.7425,
  1.7325,
  0.825,
  1.815,
  0.9075,
  1.8975,
  0.495,
  1.485,
  0,
  0.99,
  0.0825,
  1.0725,
  0.165,
  1.155,
  0.2475,
  1.2375,
  0.33,
  1.32,
  0.4125,
  1.4025,
  0.5775,
  1.5675,
  0.66,
  1.65,
  0.7425,
  1.7325,
  0.825,
  1.815,
  0.9075,
  1.8975,
  0.495,
  1.485,
  0,
  0.99,
  0.0825,
  1.0725,
  0.165,
  1.155,
  0.2475,
  1.2375,
  0.33,
  1.32,
  0.4125,
  1.4025,
  0.5775,
  1.5675,
  0.66,
  1.65,
  0.7425,
  1.7325,
  0.825,
  1.815,
  0.9075,
  1.8975,
  0.495
 ],
 "SoftwareVersions": "syngo_MR_E11",
 "SpacingBetweenSlices": 2,
 "StationName": "AWP166078",
 "TaskName": "imagenet",
 "TotalReadoutTime": 0.0534586,
 "TxRefAmp": 211.901,
 "dcmmeta_affine": [
  [
   -2.0,
   0.0,
   0.0,
   103.38983154296875
  ],
  [
   0.0,
   1.9645744562149048,
   -0.374762624502182,
   -78.19866943359375
  ],
  [
   0.0,
   0.374762624502182,
   1.9645744562149048,
   -100.270751953125
  ],
  [
   0.0,
   0.0,
   0.0,
   1.0
  ]
 ],
 "dcmmeta_reorient_transform": [
  [
   0.0,
   -1.0,
   0.0,
   99.0
  ],
  [
   1.0,
   0.0,
   0.0,
   0.0
  ],
  [
   0.0,
   0.0,
   1.0,
   0.0
  ],
  [
   0.0,
   0.0,
   0.0,
   1.0
  ]
 ],
 "dcmmeta_shape": [
  100,
  100,
  72,
  256
 ],
 "dcmmeta_slice_dim": 2,
 "dcmmeta_version": 0.6,
 "global": {
  "const": {
   "AcquisitionMatrix": [
    100,
    0,
    0,
    100
   ],
   "AngioFlag": "N",
   "BitsAllocated": 16,
   "BitsStored": 12,
   "BodyPartExamined": "BRAIN",
   "Columns": 900,
   "EchoNumbers": 1,
   "EchoTime": 34.0,
   "EchoTrainLength": 100,
   "FlipAngle": 90.0,
   "HighBit": 11,
   "ImageOrientationPatient": [
    1.0,
    0.0,
    0.0,
    0.0,
    0.98228725047307,
    -0.1873813159257
   ],
   "ImagePositionPatient": [
    -903.38983058929,
    -902.12400279698,
    86.735797553354
   ],
   "ImageType": [
    "ORIGINAL",
    "PRIMARY",
    "M",
    "ND",
    "MOSAIC"
   ],
   "ImagedNucleus": "1H",
   "ImagingFrequency": 123.257742,
   "InPlanePhaseEncodingDirection": "COL",
   "MRAcquisitionType": "2D",
   "MagneticFieldStrength": 3.0,
   "Manufacturer": "SIEMENS",
   "ManufacturerModelName": "Prisma",
   "Modality": "MR",
   "NumberOfAverages": 1.0,
   "NumberOfPhaseEncodingSteps": 100,
   "PercentPhaseFieldOfView": 100.0,
   "PercentSampling": 100.0,
   "PerformedProcedureStepStartTime": "111946.085000",
   "PhotometricInterpretation": "MONOCHROME2",
   "PixelBandwidth": 2380.0,
   "PixelRepresentation": 0,
   "PixelSpacing": [
    2.0,
    2.0
   ],
   "ProtocolName": "bold_100x100_s3_2x2x2_static_256",
   "RepetitionTime": 2000.0,
   "Rows": 900,
   "SAR": 0.06884001428517,
   "SamplesPerPixel": 1,
   "ScanOptions": "FS",
   "ScanningSequence": "EP",
   "SequenceName": "*epfid2d1_100",
   "SequenceVariant": "SK",
   "SeriesDescription": "bold_100x100_s3_2x2x2_static_256",
   "SeriesNumber": 3,
   "SeriesTime": "112349.341000",
   "SliceLocation": -83.841714675994,
   "SliceThickness": 2.0,
   "SmallestImagePixelValue": 0,
   "SoftwareVersions": "syngo MR E11",
   "SpacingBetweenSlices": 2.000000014055,
   "SpecificCharacterSet": "ISO_IR 100",
   "StudyID": "1",
   "StudyTime": "111945.951000",
   "TransmitCoilName": "Body",
   "VariableFlipAngleFlag": "N",
   "WindowCenterWidthExplanation": "Algo1",
   "dBdt": 0.0
  },
  "slices": {}
 },
 "time": {
  "samples": {
   "AcquisitionNumber": [
    1,
    2,
    3,
    4,
    5,
    6,
    7,
    8,
    9,
    10,
    11,
    12,
    13,
    14,
    15,
    16,
    17,
    18,
    19,
    20,
    21,
    22,
    23,
    24,
    25,
    26,
    27,
    28,
    29,
    30,
    31,
    32,
    33,
    34,
    35,
    36,
    37,
    38,
    39,
    40,
    41,
    42,
    43,
    44,
    45,
    46,
    47,
    48,
    49,
    50,
    51,
    52,
    53,
    54,
    55,
    56,
    57,
    58,
    59,
    60,
    61,
    62,
    63,
    64,
    65,
    66,
    67,
    68,
    69,
    70,
    71,
    72,
    73,
    74,
    75,
    76,
    77,
    78,
    79,
    80,
    81,
    82,
    83,
    84,
    85,
    86,
    87,
    88,
    89,
    90,
    91,
    92,
    93,
    94,
    95,
    96,
    97,
    98,
    99,
    100,
    101,
    102,
    103,
    104,
    105,
    106,
    107,
    108,
    109,
    110,
    111,
    112,
    113,
    114,
    115,
    116,
    117,
    118,
    119,
    120,
    121,
    122,
    123,
    124,
    125,
    126,
    127,
    128,
    129,
    130,
    131,
    132,
    133,
    134,
    135,
    136,
    137,
    138,
    139,
    140,
    141,
    142,
    143,
    144,
    145,
    146,
    147,
    148,
    149,
    150,
    151,
    152,
    153,
    154,
    155,
    156,
    157,
    158,
    159,
    160,
    161,
    162,
    163,
    164,
    165,
    166,
    167,
    168,
    169,
    170,
    171,
    172,
    173,
    174,
    175,
    176,
    177,
    178,
    179,
    180,
    181,
    182,
    183,
    184,
    185,
    186,
    187,
    188,
    189,
    190,
    191,
    192,
    193,
    194,
    195,
    196,
    197,
    198,
    199,
    200,
    201,
    202,
    203,
    204,
    205,
    206,
    207,
    208,
    209,
    210,
    211,
    212,
    213,
    214,
    215,
    216,
    217,
    218,
    219,
    220,
    221,
    222,
    223,
    224,
    225,
    226,
    227,
    228,
    229,
    230,
    231,
    232,
    233,
    234,
    235,
    236,
    237,
    238,
    239,
    240,
    241,
    242,
    243,
    244,
    245,
    246,
    247,
    248,
    249,
    250,
    251,
    252,
    253,
    254,
    255,
    256
   ],
   "AcquisitionTime": [
    "112346.787500",
    "112348.787500",
    "112350.787500",
    "112352.787500",
    "112354.787500",
    "112356.787500",
    "112358.787500",
    "112400.787500",
    "112402.787500",
    "112404.787500",
    "112406.787500",
    "112408.787500",
    "112410.787500",
    "112412.787500",
    "112414.787500",
    "112416.787500",
    "112418.787500",
    "112420.787500",
    "112422.787500",
    "112424.787500",
    "112426.787500",
    "112428.787500",
    "112430.787500",
    "112432.787500",
    "112434.787500",
    "112436.787500",
    "112438.787500",
    "112440.787500",
    "112442.787500",
    "112444.787500",
    "112446.787500",
    "112448.787500",
    "112450.787500",
    "112452.787500",
    "112454.787500",
    "112456.787500",
    "112458.787500",
    "112500.787500",
    "112502.787500",
    "112504.787500",
    "112506.787500",
    "112508.787500",
    "112510.787500",
    "112512.787500",
    "112514.787500",
    "112516.787500",
    "112518.787500",
    "112520.787500",
    "112522.787500",
    "112524.787500",
    "112526.787500",
    "112528.787500",
    "112530.787500",
    "112532.787500",
    "112534.787500",
    "112536.787500",
    "112538.787500",
    "112540.787500",
    "112542.787500",
    "112544.787500",
    "112546.787500",
    "112548.787500",
    "112550.787500",
    "112552.787500",
    "112554.787500",
    "112556.787500",
    "112558.787500",
    "112600.787500",
    "112602.787500",
    "112604.787500",
    "112606.787500",
    "112608.787500",
    "112610.787500",
    "112612.787500",
    "112614.787500",
    "112616.787500",
    "112618.787500",
    "112620.787500",
    "112622.787500",
    "112624.787500",
    "112626.787500",
    "112628.787500",
    "112630.787500",
    "112632.787500",
    "112634.787500",
    "112636.787500",
    "112638.787500",
    "112640.787500",
    "112642.787500",
    "112644.787500",
    "112646.787500",
    "112648.787500",
    "112650.787500",
    "112652.787500",
    "112654.787500",
    "112656.787500",
    "112658.787500",
    "112700.787500",
    "112702.787500",
    "112704.787500",
    "112706.787500",
    "112708.787500",
    "112710.787500",
    "112712.787500",
    "112714.787500",
    "112716.787500",
    "112718.787500",
    "112720.787500",
    "112722.787500",
    "112724.787500",
    "112726.787500",
    "112728.787500",
    "112730.787500",
    "112732.787500",
    "112734.787500",
    "112736.787500",
    "112738.787500",
    "112740.787500",
    "112742.787500",
    "112744.787500",
    "112746.787500",
    "112748.787500",
    "112750.787500",
    "112752.787500",
    "112754.787500",
    "112756.787500",
    "112758.787500",
    "112800.787500",
    "112802.787500",
    "112804.787500",
    "112806.787500",
    "112808.787500",
    "112810.787500",
    "112812.787500",
    "112814.787500",
    "112816.787500",
    "112818.787500",
    "112820.787500",
    "112822.787500",
    "112824.787500",
    "112826.787500",
    "112828.787500",
    "112830.787500",
    "112832.787500",
    "112834.787500",
    "112836.787500",
    "112838.787500",
    "112840.787500",
    "112842.787500",
    "112844.787500",
    "112846.787500",
    "112848.787500",
    "112850.787500",
    "112852.787500",
    "112854.787500",
    "112856.787500",
    "112858.787500",
    "112900.787500",
    "112902.787500",
    "112904.787500",
    "112906.787500",
    "112908.787500",
    "112910.787500",
    "112912.787500",
    "112914.787500",
    "112916.787500",
    "112918.787500",
    "112920.787500",
    "112922.787500",
    "112924.787500",
    "112926.787500",
    "112928.787500",
    "112930.787500",
    "112932.787500",
    "112934.787500",
    "112936.787500",
    "112938.787500",
    "112940.787500",
    "112942.787500",
    "112944.787500",
    "112946.787500",
    "112948.787500",
    "112950.787500",
    "112952.787500",
    "112954.787500",
    "112956.787500",
    "112958.787500",
    "113000.787500",
    "113002.787500",
    "113004.787500",
    "113006.787500",
    "113008.787500",
    "113010.787500",
    "113012.787500",
    "113014.787500",
    "113016.787500",
    "113018.787500",
    "113020.787500",
    "113022.787500",
    "113024.787500",
    "113026.787500",
    "113028.787500",
    "113030.787500",
    "113032.787500",
    "113034.787500",
    "113036.787500",
    "113038.787500",
    "113040.787500",
    "113042.787500",
    "113044.787500",
    "113046.787500",
    "113048.787500",
    "113050.787500",
    "113052.787500",
    "113054.787500",
    "113056.787500",
    "113058.787500",
    "113100.787500",
    "113102.787500",
    "113104.787500",
    "113106.787500",
    "113108.787500",
    "113110.787500",
    "113112.787500",
    "113114.787500",
    "113116.787500",
    "113118.787500",
    "113120.787500",
    "113122.787500",
    "113124.787500",
    "113126.787500",
    "113128.787500",
    "113130.787500",
    "113132.787500",
    "113134.787500",
    "113136.787500",
    "113138.787500",
    "113140.787500",
    "113142.787500",
    "113144.787500",
    "113146.787500",
    "113148.787500",
    "113150.787500",
    "113152.787500",
    "113154.787500",
    "113156.787500",
    "113158.787500",
    "113200.787500",
    "113202.787500",
    "113204.787500",
    "113206.787500",
    "113208.787500",
    "113210.787500",
    "113212.787500",
    "113214.787500",
    "113216.787500"
   ],
   "ContentTime": [
    "112349.345000",
    "112350.840000",
    "112352.840000",
    "112354.839000",
    "112356.839000",
    "112358.840000",
    "112400.839000",
    "112402.840000",
    "112404.841000",
    "112406.840000",
    "112408.841000",
    "112410.840000",
    "112412.840000",
    "112414.839000",
    "112416.840000",
    "112418.839000",
    "112420.840000",
    "112422.840000",
    "112424.840000",
    "112426.841000",
    "112428.840000",
    "112430.839000",
    "112432.839000",
    "112434.839000",
    "112436.840000",
    "112438.841000",
    "112440.840000",
    "112442.840000",
    "112444.840000",
    "112446.841000",
    "112448.839000",
    "112450.839000",
    "112452.839000",
    "112454.840000",
    "112456.841000",
    "112458.841000",
    "112500.840000",
    "112502.840000",
    "112504.840000",
    "112506.840000",
    "112508.839000",
    "112510.839000",
    "112512.841000",
    "112514.841000",
    "112516.840000",
    "112518.841000",
    "112520.840000",
    "112522.839000",
    "112524.840000",
    "112526.840000",
    "112528.840000",
    "112530.840000",
    "112532.841000",
    "112534.841000",
    "112536.841000",
    "112538.840000",
    "112540.840000",
    "112542.840000",
    "112544.840000",
    "112546.839000",
    "112548.841000",
    "112550.841000",
    "112552.840000",
    "112554.840000",
    "112556.841000",
    "112558.840000",
    "112600.840000",
    "112602.840000",
    "112604.840000",
    "112606.841000",
    "112608.840000",
    "112610.841000",
    "112612.841000",
    "112614.840000",
    "112616.840000",
    "112618.839000",
    "112620.840000",
    "112622.840000",
    "112624.841000",
    "112626.840000",
    "112628.840000",
    "112630.841000",
    "112632.840000",
    "112634.840000",
    "112636.840000",
    "112638.840000",
    "112640.840000",
    "112642.841000",
    "112644.840000",
    "112646.841000",
    "112648.841000",
    "112650.839000",
    "112652.839000",
    "112654.840000",
    "112656.840000",
    "112658.840000",
    "112700.841000",
    "112702.840000",
    "112704.840000",
    "112706.840000",
    "112708.839000",
    "112710.840000",
    "112712.839000",
    "112714.841000",
    "112716.841000",
    "112718.840000",
    "112720.840000",
    "112722.860000",
    "112724.840000",
    "112726.839000",
    "112728.840000",
    "112730.840000",
    "112732.841000",
    "112734.840000",
    "112736.841000",
    "112738.840000",
    "112740.841000",
    "112742.840000",
    "112744.840000",
    "112746.840000",
    "112748.840000",
    "112750.840000",
    "112752.840000",
    "112754.841000",
    "112756.840000",
    "112758.840000",
    "112800.839000",
    "112802.840000",
    "112804.840000",
    "112806.839000",
    "112808.840000",
    "112810.841000",
    "112812.841000",
    "112814.840000",
    "112816.841000",
    "112818.840000",
    "112820.839000",
    "112822.840000",
    "112824.840000",
    "112826.840000",
    "112828.841000",
    "112830.841000",
    "112832.840000",
    "112834.840000",
    "112836.840000",
    "112838.840000",
    "112840.840000",
    "112842.841000",
    "112844.841000",
    "112846.841000",
    "112848.840000",
    "112850.841000",
    "112852.840000",
    "112854.840000",
    "112856.840000",
    "112858.840000",
    "112900.841000",
    "112902.840000",
    "112904.841000",
    "112906.841000",
    "112908.840000",
    "112910.839000",
    "112912.840000",
    "112914.839000",
    "112916.840000",
    "112918.853000",
    "112920.840000",
    "112922.840000",
    "112924.841000",
    "112926.840000",
    "112928.840000",
    "112930.840000",
    "112932.840000",
    "112934.841000",
    "112936.841000",
    "112938.841000",
    "112940.840000",
    "112942.841000",
    "112944.840000",
    "112946.840000",
    "112948.840000",
    "112950.840000",
    "112952.840000",
    "112954.841000",
    "112956.840000",
    "112958.841000",
    "113000.841000",
    "113002.839000",
    "113004.840000",
    "113006.840000",
    "113008.840000",
    "113010.840000",
    "113012.841000",
    "113014.840000",
    "113016.841000",
    "113018.840000",
    "113020.840000",
    "113022.839000",
    "113024.840000",
    "113026.840000",
    "113028.840000",
    "113030.841000",
    "113032.841000",
    "113034.840000",
    "113036.841000",
    "113038.840000",
    "113040.840000",
    "113042.839000",
    "113044.840000",
    "113046.841000",
    "113048.841000",
    "113050.840000",
    "113052.840000",
    "113054.840000",
    "113056.840000",
    "113058.840000",
    "113100.840000",
    "113102.840000",
    "113104.841000",
    "113106.841000",
    "113108.840000",
    "113110.840000",
    "113112.840000",
    "113114.840000",
    "113116.839000",
    "113118.840000",
    "113120.841000",
    "113122.841000",
    "113124.840000",
    "113126.841000",
    "113128.840000",
    "113130.840000",
    "113132.839000",
    "113134.839000",
    "113136.839000",
    "113138.841000",
    "113140.841000",
    "113142.841000",
    "113144.841000",
    "113146.841000",
    "113148.840000",
    "113150.839000",
    "113152.840000",
    "113154.841000",
    "113156.840000",
    "113158.840000",
    "113200.840000",
    "113202.841000",
    "113204.839000",
    "113206.840000",
    "113208.839000",
    "113210.840000",
    "113212.841000",
    "113214.841000",
    "113216.841000",
    "113218.599000"
   ],
   "InstanceCreationTime": [
    "112349.345000",
    "112350.840000",
    "112352.840000",
    "112354.839000",
    "112356.839000",
    "112358.840000",
    "112400.839000",
    "112402.840000",
    "112404.841000",
    "112406.840000",
    "112408.841000",
    "112410.840000",
    "112412.840000",
    "112414.839000",
    "112416.840000",
    "112418.839000",
    "112420.840000",
    "112422.840000",
    "112424.840000",
    "112426.841000",
    "112428.840000",
    "112430.839000",
    "112432.839000",
    "112434.839000",
    "112436.840000",
    "112438.841000",
    "112440.840000",
    "112442.840000",
    "112444.840000",
    "112446.841000",
    "112448.839000",
    "112450.839000",
    "112452.839000",
    "112454.840000",
    "112456.841000",
    "112458.841000",
    "112500.840000",
    "112502.840000",
    "112504.840000",
    "112506.840000",
    "112508.839000",
    "112510.839000",
    "112512.841000",
    "112514.841000",
    "112516.840000",
    "112518.841000",
    "112520.840000",
    "112522.839000",
    "112524.840000",
    "112526.840000",
    "112528.840000",
    "112530.840000",
    "112532.841000",
    "112534.841000",
    "112536.841000",
    "112538.840000",
    "112540.840000",
    "112542.840000",
    "112544.840000",
    "112546.839000",
    "112548.841000",
    "112550.841000",
    "112552.840000",
    "112554.840000",
    "112556.841000",
    "112558.840000",
    "112600.840000",
    "112602.840000",
    "112604.840000",
    "112606.841000",
    "112608.840000",
    "112610.841000",
    "112612.841000",
    "112614.840000",
    "112616.840000",
    "112618.839000",
    "112620.840000",
    "112622.840000",
    "112624.841000",
    "112626.840000",
    "112628.840000",
    "112630.841000",
    "112632.840000",
    "112634.840000",
    "112636.840000",
    "112638.840000",
    "112640.840000",
    "112642.841000",
    "112644.840000",
    "112646.841000",
    "112648.841000",
    "112650.839000",
    "112652.839000",
    "112654.840000",
    "112656.840000",
    "112658.840000",
    "112700.841000",
    "112702.840000",
    "112704.840000",
    "112706.840000",
    "112708.839000",
    "112710.840000",
    "112712.839000",
    "112714.841000",
    "112716.841000",
    "112718.840000",
    "112720.840000",
    "112722.860000",
    "112724.840000",
    "112726.839000",
    "112728.840000",
    "112730.840000",
    "112732.841000",
    "112734.840000",
    "112736.841000",
    "112738.840000",
    "112740.841000",
    "112742.840000",
    "112744.840000",
    "112746.840000",
    "112748.840000",
    "112750.840000",
    "112752.840000",
    "112754.841000",
    "112756.840000",
    "112758.840000",
    "112800.839000",
    "112802.840000",
    "112804.840000",
    "112806.839000",
    "112808.840000",
    "112810.841000",
    "112812.841000",
    "112814.840000",
    "112816.841000",
    "112818.840000",
    "112820.839000",
    "112822.840000",
    "112824.840000",
    "112826.840000",
    "112828.841000",
    "112830.841000",
    "112832.840000",
    "112834.840000",
    "112836.840000",
    "112838.840000",
    "112840.840000",
    "112842.841000",
    "112844.841000",
    "112846.841000",
    "112848.840000",
    "112850.841000",
    "112852.840000",
    "112854.840000",
    "112856.840000",
    "112858.840000",
    "112900.841000",
    "112902.840000",
    "112904.841000",
    "112906.841000",
    "112908.840000",
    "112910.839000",
    "112912.840000",
    "112914.839000",
    "112916.840000",
    "112918.853000",
    "112920.840000",
    "112922.840000",
    "112924.841000",
    "112926.840000",
    "112928.840000",
    "112930.840000",
    "112932.840000",
    "112934.841000",
    "112936.841000",
    "112938.841000",
    "112940.840000",
    "112942.841000",
    "112944.840000",
    "112946.840000",
    "112948.840000",
    "112950.840000",
    "112952.840000",
    "112954.841000",
    "112956.840000",
    "112958.841000",
    "113000.841000",
    "113002.839000",
    "113004.840000",
    "113006.840000",
    "113008.840000",
    "113010.840000",
    "113012.841000",
    "113014.840000",
    "113016.841000",
    "113018.840000",
    "113020.840000",
    "113022.839000",
    "113024.840000",
    "113026.840000",
    "113028.840000",
    "113030.841000",
    "113032.841000",
    "113034.840000",
    "113036.841000",
    "113038.840000",
    "113040.840000",
    "113042.839000",
    "113044.840000",
    "113046.841000",
    "113048.841000",
    "113050.840000",
    "113052.840000",
    "113054.840000",
    "113056.840000",
    "113058.840000",
    "113100.840000",
    "113102.840000",
    "113104.841000",
    "113106.841000",
    "113108.840000",
    "113110.840000",
    "113112.840000",
    "113114.840000",
    "113116.839000",
    "113118.840000",
    "113120.841000",
    "113122.841000",
    "113124.840000",
    "113126.841000",
    "113128.840000",
    "113130.840000",
    "113132.839000",
    "113134.839000",
    "113136.839000",
    "113138.841000",
    "113140.841000",
    "113142.841000",
    "113144.841000",
    "113146.841000",
    "113148.840000",
    "113150.839000",
    "113152.840000",
    "113154.841000",
    "113156.840000",
    "113158.840000",
    "113200.840000",
    "113202.841000",
    "113204.839000",
    "113206.840000",
    "113208.839000",
    "113210.840000",
    "113212.841000",
    "113214.841000",
    "113216.841000",
    "113218.599000"
   ],
   "InstanceNumber": [
    1,
    2,
    3,
    4,
    5,
    6,
    7,
    8,
    9,
    10,
    11,
    12,
    13,
    14,
    15,
    16,
    17,
    18,
    19,
    20,
    21,
    22,
    23,
    24,
    25,
    26,
    27,
    28,
    29,
    30,
    31,
    32,
    33,
    34,
    35,
    36,
    37,
    38,
    39,
    40,
    41,
    42,
    43,
    44,
    45,
    46,
    47,
    48,
    49,
    50,
    51,
    52,
    53,
    54,
    55,
    56,
    57,
    58,
    59,
    60,
    61,
    62,
    63,
    64,
    65,
    66,
    67,
    68,
    69,
    70,
    71,
    72,
    73,
    74,
    75,
    76,
    77,
    78,
    79,
    80,
    81,
    82,
    83,
    84,
    85,
    86,
    87,
    88,
    89,
    90,
    91,
    92,
    93,
    94,
    95,
    96,
    97,
    98,
    99,
    100,
    101,
    102,
    103,
    104,
    105,
    106,
    107,
    108,
    109,
    110,
    111,
    112,
    113,
    114,
    115,
    116,
    117,
    118,
    119,
    120,
    121,
    122,
    123,
    124,
    125,
    126,
    127,
    128,
    129,
    130,
    131,
    132,
    133,
    134,
    135,
    136,
    137,
    138,
    139,
    140,
    141,
    142,
    143,
    144,
    145,
    146,
    147,
    148,
    149,
    150,
    151,
    152,
    153,
    154,
    155,
    156,
    157,
    158,
    159,
    160,
    161,
    162,
    163,
    164,
    165,
    166,
    167,
    168,
    169,
    170,
    171,
    172,
    173,
    174,
    175,
    176,
    177,
    178,
    179,
    180,
    181,
    182,
    183,
    184,
    185,
    186,
    187,
    188,
    189,
    190,
    191,
    192,
    193,
    194,
    195,
    196,
    197,
    198,
    199,
    200,
    201,
    202,
    203,
    204,
    205,
    206,
    207,
    208,
    209,
    210,
    211,
    212,
    213,
    214,
    215,
    216,
    217,
    218,
    219,
    220,
    221,
    222,
    223,
    224,
    225,
    226,
    227,
    228,
    229,
    230,
    231,
    232,
    233,
    234,
    235,
    236,
    237,
    238,
    239,
    240,
    241,
    242,
    243,
    244,
    245,
    246,
    247,
    248,
    249,
    250,
    251,
    252,
    253,
    254,
    255,
    256
   ],
   "LargestImagePixelValue": [
    2790,
    2752,
    2746,
    2698,
    2691,
    2686,
    2666,
    2677,
    2640,
    2611,
    2619,
    2553,
    2541,
    2556,
    2538,
    2527,
    2602,
    2560,
    2569,
    2606,
    2568,
    2611,
    2576,
    2528,
    2541,
    2558,
    2544,
    2550,
    2544,
    2539,
    2564,
    2554,
    2548,
    2570,
    2572,
    2590,
    2579,
    2592,
    2581,
    2565,
    2580,
    2545,
    2543,
    2551,
    2566,
    2561,
    2579,
    2590,
    2584,
    2588,
    2603,
    2613,
    2603,
    2600,
    2568,
    2567,
    2561,
    2591,
    2552,
    2571,
    2602,
    2571,
    2591,
    2620,
    2606,
    2604,
    2630,
    2648,
    2668,
    2598,
    2575,
    2588,
    2608,
    2618,
    2622,
    2593,
    2612,
    2646,
    2665,
    2667,
    2656,
    2619,
    2639,
    2650,
    2666,
    2620,
    2658,
    2634,
    2616,
    2646,
    2629,
    2671,
    2634,
    2656,
    2661,
    2669,
    2711,
    2676,
    2702,
    2694,
    2678,
    2705,
    2702,
    2722,
    2754,
    2734,
    2730,
    2732,
    2736,
    2659,
    2756,
    2703,
    2716,
    2736,
    2742,
    2704,
    2716,
    2690,
    2700,
    2740,
    2728,
    2719,
    2724,
    2754,
    2741,
    2772,
    2782,
    2791,
    2785,
    2782,
    2753,
    2795,
    2822,
    2797,
    2800,
    2790,
    2778,
    2798,
    2823,
    2808,
    2778,
    2786,
    2773,
    2783,
    2797,
    2771,
    2825,
    2808,
    2763,
    2766,
    2815,
    2804,
    2798,
    2792,
    2784,
    2780,
    2840,
    2810,
    2810,
    2800,
    2766,
    2781,
    2781,
    2765,
    2790,
    2825,
    2810,
    2805,
    2780,
    2839,
    2844,
    2821,
    2798,
    2817,
    2812,
    2774,
    2795,
    2798,
    2797,
    2805,
    2850,
    2813,
    2827,
    2856,
    2854,
    2882,
    2870,
    2819,
    2829,
    2871,
    2858,
    2888,
    2873,
    2854,
    2868,
    2889,
    2889,
    2870,
    2848,
    2886,
    2845,
    2855,
    2879,
    2890,
    2910,
    2905,
    2921,
    2932,
    2908,
    2873,
    2883,
    2905,
    2903,
    2924,
    2896,
    2934,
    2884,
    2890,
    2912,
    2908,
    2936,
    2936,
    2927,
    2929,
    2946,
    2920,
    2900,
    2900,
    2911,
    2936,
    2916,
    2932,
    2927,
    2976,
    2961,
    2941,
    2907,
    2918,
    2914,
    2947,
    2927,
    2971,
    2942,
    2936,
    2955,
    2938,
    2938,
    2945,
    2937,
    2953,
    2946,
    2939,
    2920,
    2937,
    2941,
    2925
   ],
   "WindowCenter": [
    727.0,
    726.0,
    726.0,
    726.0,
    726.0,
    725.0,
    725.0,
    724.0,
    724.0,
    724.0,
    726.0,
    726.0,
    725.0,
    724.0,
    724.0,
    723.0,
    725.0,
    725.0,
    723.0,
    723.0,
    723.0,
    723.0,
    723.0,
    723.0,
    723.0,
    723.0,
    723.0,
    723.0,
    723.0,
    722.0,
    723.0,
    722.0,
    722.0,
    723.0,
    723.0,
    723.0,
    723.0,
    722.0,
    723.0,
    722.0,
    723.0,
    722.0,
    722.0,
    722.0,
    722.0,
    722.0,
    723.0,
    723.0,
    722.0,
    722.0,
    722.0,
    722.0,
    723.0,
    722.0,
    721.0,
    722.0,
    722.0,
    722.0,
    722.0,
    723.0,
    723.0,
    722.0,
    722.0,
    722.0,
    722.0,
    722.0,
    723.0,
    723.0,
    723.0,
    722.0,
    721.0,
    722.0,
    723.0,
    723.0,
    722.0,
    722.0,
    722.0,
    722.0,
    723.0,
    724.0,
    723.0,
    722.0,
    723.0,
    722.0,
    723.0,
    723.0,
    724.0,
    724.0,
    723.0,
    723.0,
    723.0,
    724.0,
    722.0,
    722.0,
    723.0,
    723.0,
    724.0,
    724.0,
    724.0,
    724.0,
    724.0,
    723.0,
    724.0,
    724.0,
    724.0,
    724.0,
    725.0,
    724.0,
    724.0,
    722.0,
    724.0,
    723.0,
    724.0,
    725.0,
    724.0,
    723.0,
    723.0,
    723.0,
    724.0,
    726.0,
    725.0,
    724.0,
    724.0,
    724.0,
    725.0,
