{
 "AcquisitionMatrixPE": 100,
 "AcquisitionNumber": 1,
 "AcquisitionTime": "12:31:48.237500",
 "BandwidthPerPixelPhaseEncode": 18.519,
 "BaseResolution": 100,
 "BodyPartExamined": "BRAIN",
 "ConsistencyInfo": "N4_VE11C_LATEST_20160120",
 "ConversionSoftware": "dcm2niix",
 "ConversionSoftwareVersion": "v1.0.20180622 GCC4.9.2",
 "DerivedVendorReportedEchoSpacing": 0.000539986,
 "DeviceSerialNumber": "166078",
 "DwellTime": 2.1e-06,
 "EchoTime": 0.034,
 "EchoTrainLength": 100,
 "EffectiveEchoSpacing": 0.000539986,
 "FlipAngle": 90,
 "ImageOrientationPatientDICOM": [
  1,
  0,
  0,
  0,
  0.982287,
  -0.187381
 ],
 "ImageType": [
  "ORIGINAL",
  "PRIMARY",
  "M",
  "ND",
  "MOSAIC"
 ],
 "InPlanePhaseEncodingDirectionDICOM": "COL",
 "InstitutionAddress": "Street_StreetNo_Bei_Jing_District_CN_ZIP",
 "InstitutionName": "BeiJing_Normal_University",
 "InstitutionalDepartmentName": "Department",
 "MRAcquisitionType": "2D",
 "MagneticFieldStrength": 3,
 "Manufacturer": "Siemens",
 "ManufacturersModelName": "Prisma",
 "Modality": "MR",
 "MultibandAccelerationFactor": 3,
 "PartialFourier": 1,
 "PatientPosition": "HFS",
 "PercentPhaseFOV": 100,
 "PhaseEncodingDirection": "j-",
 "PhaseEncodingSteps": 100,
 "PhaseResolution": 1,
 "PixelBandwidth": 2380,
 "ProcedureStepDescription": "BNU_P2018_64CH_Zhen.ZongLei",
 "ProtocolName": "bold_100x100_s3_2x2x2_static_256",
 "PulseSequenceDetails": "%SiemensSeq%_ep2d_bold",
 "ReceiveCoilActiveElements": "HC1-7;NC1",
 "ReceiveCoilName": "HeadNeck_64",
 "ReconMatrixPE": 100,
 "RepetitionTime": 2,
 "SAR": 0.06884,
 "ScanOptions": "FS",
 "ScanningSequence": "EP",
 "SequenceName": "_epfid2d1_100",
 "SequenceVariant": "SK",
 "SeriesDescription": "bold_100x100_s3_2x2x2_static_256",
 "SeriesNumber": 12,
 "ShimSetting": [
  -5457,
  -11504,
  -1285,
  306,
  -53,
  -246,
  -125,
  39
 ],
 "SliceThickness": 2,
 "SliceTiming": [
  1.485,
  0,
  0.99,
  0.0825,
  1.0725,
  0.165,
  1.155,
  0.2475,
  1.2375,
  0.33,
  1.32,
  0.4125,
  1.4025,
  0.5775,
  1.5675,
  0.66,
  1.65,
  0.7425,
  1.7325,
  0.825,
  1.815,
  0.9075,
  1.8975,
  0.495,
  1.485,
  0,
  0.99,
  0.0825,
  1.0725,
  0.165,
  1.155,
  0.2475,
  1.2375,
  0.33,
  1.32,
  0.4125,
  1.4025,
  0.5775,
  1.5675,
  0.66,
  1.65,
  0.7425,
  1.7325,
  0.825,
  1.815,
  0.9075,
  1.8975,
  0.495,
  1.485,
  0,
  0.99,
  0.0825,
  1.0725,
  0.165,
  1.155,
  0.2475,
  1.2375,
  0.33,
  1.32,
  0.4125,
  1.4025,
  0.5775,
  1.5675,
  0.66,
  1.65,
  0.7425,
  1.7325,
  0.825,
  1.815,
  0.9075,
  1.8975,
  0.495
 ],
 "SoftwareVersions": "syngo_MR_E11",
 "SpacingBetweenSlices": 2,
 "StationName": "AWP166078",
 "TaskName": "imagenet",
 "TotalReadoutTime": 0.0534586,
 "TxRefAmp": 211.901,
 "dcmmeta_affine": [
  [
   -2.0,
   0.0,
   0.0,
   103.38983154296875
  ],
  [
   0.0,
   1.9645744562149048,
   -0.374762624502182,
   -78.19866943359375
  ],
  [
   0.0,
   0.374762624502182,
   1.9645744562149048,
   -100.270751953125
  ],
  [
   0.0,
   0.0,
   0.0,
   1.0
  ]
 ],
 "dcmmeta_reorient_transform": [
  [
   0.0,
   -1.0,
   0.0,
   99.0
  ],
  [
   1.0,
   0.0,
   0.0,
   0.0
  ],
  [
   0.0,
   0.0,
   1.0,
   0.0
  ],
  [
   0.0,
   0.0,
   0.0,
   1.0
  ]
 ],
 "dcmmeta_shape": [
  100,
  100,
  72,
  256
 ],
 "dcmmeta_slice_dim": 2,
 "dcmmeta_version": 0.6,
 "global": {
  "const": {
   "AcquisitionMatrix": [
    100,
    0,
    0,
    100
   ],
   "AngioFlag": "N",
   "BitsAllocated": 16,
   "BitsStored": 12,
   "BodyPartExamined": "BRAIN",
   "Columns": 900,
   "EchoNumbers": 1,
   "EchoTime": 34.0,
   "EchoTrainLength": 100,
   "FlipAngle": 90.0,
   "HighBit": 11,
   "ImageOrientationPatient": [
    1.0,
    0.0,
    0.0,
    0.0,
    0.98228725047307,
    -0.1873813159257
   ],
   "ImagePositionPatient": [
    -903.38983058929,
    -902.12400279698,
    86.735797553354
   ],
   "ImageType": [
    "ORIGINAL",
    "PRIMARY",
    "M",
    "ND",
    "MOSAIC"
   ],
   "ImagedNucleus": "1H",
   "ImagingFrequency": 123.257767,
   "InPlanePhaseEncodingDirection": "COL",
   "MRAcquisitionType": "2D",
   "MagneticFieldStrength": 3.0,
   "Manufacturer": "SIEMENS",
   "ManufacturerModelName": "Prisma",
   "Modality": "MR",
   "NumberOfAverages": 1.0,
   "NumberOfPhaseEncodingSteps": 100,
   "PercentPhaseFieldOfView": 100.0,
   "PercentSampling": 100.0,
   "PerformedProcedureStepStartTime": "111946.085000",
   "PhotometricInterpretation": "MONOCHROME2",
   "PixelBandwidth": 2380.0,
   "PixelRepresentation": 0,
   "PixelSpacing": [
    2.0,
    2.0
   ],
   "ProtocolName": "bold_100x100_s3_2x2x2_static_256",
   "RepetitionTime": 2000.0,
   "Rows": 900,
   "SAR": 0.06884001428517,
   "SamplesPerPixel": 1,
   "ScanOptions": "FS",
   "ScanningSequence": "EP",
   "SequenceName": "*epfid2d1_100",
   "SequenceVariant": "SK",
   "SeriesDescription": "bold_100x100_s3_2x2x2_static_256",
   "SeriesNumber": 12,
   "SeriesTime": "123150.743000",
   "SliceLocation": -83.841714675994,
   "SliceThickness": 2.0,
   "SmallestImagePixelValue": 0,
   "SoftwareVersions": "syngo MR E11",
   "SpacingBetweenSlices": 2.000000014055,
   "SpecificCharacterSet": "ISO_IR 100",
   "StudyID": "1",
   "StudyTime": "111945.951000",
   "TransmitCoilName": "Body",
   "VariableFlipAngleFlag": "N",
   "WindowCenterWidthExplanation": "Algo1",
   "dBdt": 0.0
  },
  "slices": {}
 },
 "time": {
  "samples": {
   "AcquisitionNumber": [
    1,
    2,
    3,
    4,
    5,
    6,
    7,
    8,
    9,
    10,
    11,
    12,
    13,
    14,
    15,
    16,
    17,
    18,
    19,
    20,
    21,
    22,
    23,
    24,
    25,
    26,
    27,
    28,
    29,
    30,
    31,
    32,
    33,
    34,
    35,
    36,
    37,
    38,
    39,
    40,
    41,
    42,
    43,
    44,
    45,
    46,
    47,
    48,
    49,
    50,
    51,
    52,
    53,
    54,
    55,
    56,
    57,
    58,
    59,
    60,
    61,
    62,
    63,
    64,
    65,
    66,
    67,
    68,
    69,
    70,
    71,
    72,
    73,
    74,
    75,
    76,
    77,
    78,
    79,
    80,
    81,
    82,
    83,
    84,
    85,
    86,
    87,
    88,
    89,
    90,
    91,
    92,
    93,
    94,
    95,
    96,
    97,
    98,
    99,
    100,
    101,
    102,
    103,
    104,
    105,
    106,
    107,
    108,
    109,
    110,
    111,
    112,
    113,
    114,
    115,
    116,
    117,
    118,
    119,
    120,
    121,
    122,
    123,
    124,
    125,
    126,
    127,
    128,
    129,
    130,
    131,
    132,
    133,
    134,
    135,
    136,
    137,
    138,
    139,
    140,
    141,
    142,
    143,
    144,
    145,
    146,
    147,
    148,
    149,
    150,
    151,
    152,
    153,
    154,
    155,
    156,
    157,
    158,
    159,
    160,
    161,
    162,
    163,
    164,
    165,
    166,
    167,
    168,
    169,
    170,
    171,
    172,
    173,
    174,
    175,
    176,
    177,
    178,
    179,
    180,
    181,
    182,
    183,
    184,
    185,
    186,
    187,
    188,
    189,
    190,
    191,
    192,
    193,
    194,
    195,
    196,
    197,
    198,
    199,
    200,
    201,
    202,
    203,
    204,
    205,
    206,
    207,
    208,
    209,
    210,
    211,
    212,
    213,
    214,
    215,
    216,
    217,
    218,
    219,
    220,
    221,
    222,
    223,
    224,
    225,
    226,
    227,
    228,
    229,
    230,
    231,
    232,
    233,
    234,
    235,
    236,
    237,
    238,
    239,
    240,
    241,
    242,
    243,
    244,
    245,
    246,
    247,
    248,
    249,
    250,
    251,
    252,
    253,
    254,
    255,
    256
   ],
   "AcquisitionTime": [
    "123148.237500",
    "123150.237500",
    "123152.237500",
    "123154.237500",
    "123156.237500",
    "123158.237500",
    "123200.237500",
    "123202.237500",
    "123204.237500",
    "123206.237500",
    "123208.237500",
    "123210.237500",
    "123212.237500",
    "123214.237500",
    "123216.237500",
    "123218.237500",
    "123220.237500",
    "123222.237500",
    "123224.237500",
    "123226.237500",
    "123228.237500",
    "123230.237500",
    "123232.237500",
    "123234.237500",
    "123236.237500",
    "123238.237500",
    "123240.237500",
    "123242.237500",
    "123244.237500",
    "123246.237500",
    "123248.237500",
    "123250.237500",
    "123252.237500",
    "123254.237500",
    "123256.237500",
    "123258.237500",
    "123300.237500",
    "123302.237500",
    "123304.237500",
    "123306.237500",
    "123308.237500",
    "123310.237500",
    "123312.237500",
    "123314.237500",
    "123316.237500",
    "123318.237500",
    "123320.237500",
    "123322.237500",
    "123324.237500",
    "123326.237500",
    "123328.237500",
    "123330.237500",
    "123332.237500",
    "123334.237500",
    "123336.237500",
    "123338.237500",
    "123340.237500",
    "123342.237500",
    "123344.237500",
    "123346.237500",
    "123348.237500",
    "123350.237500",
    "123352.237500",
    "123354.237500",
    "123356.237500",
    "123358.237500",
    "123400.237500",
    "123402.237500",
    "123404.237500",
    "123406.237500",
    "123408.237500",
    "123410.237500",
    "123412.237500",
    "123414.237500",
    "123416.237500",
    "123418.237500",
    "123420.237500",
    "123422.237500",
    "123424.237500",
    "123426.237500",
    "123428.237500",
    "123430.237500",
    "123432.237500",
    "123434.237500",
    "123436.237500",
    "123438.237500",
    "123440.237500",
    "123442.237500",
    "123444.237500",
    "123446.237500",
    "123448.237500",
    "123450.237500",
    "123452.237500",
    "123454.237500",
    "123456.237500",
    "123458.237500",
    "123500.237500",
    "123502.237500",
    "123504.237500",
    "123506.237500",
    "123508.237500",
    "123510.237500",
    "123512.237500",
    "123514.237500",
    "123516.237500",
    "123518.237500",
    "123520.237500",
    "123522.237500",
    "123524.237500",
    "123526.237500",
    "123528.237500",
    "123530.237500",
    "123532.237500",
    "123534.237500",
    "123536.237500",
    "123538.237500",
    "123540.237500",
    "123542.237500",
    "123544.237500",
    "123546.237500",
    "123548.237500",
    "123550.237500",
    "123552.237500",
    "123554.237500",
    "123556.237500",
    "123558.237500",
    "123600.237500",
    "123602.237500",
    "123604.237500",
    "123606.237500",
    "123608.237500",
    "123610.237500",
    "123612.237500",
    "123614.237500",
    "123616.237500",
    "123618.237500",
    "123620.237500",
    "123622.237500",
    "123624.237500",
    "123626.237500",
    "123628.237500",
    "123630.237500",
    "123632.237500",
    "123634.237500",
    "123636.237500",
    "123638.237500",
    "123640.237500",
    "123642.237500",
    "123644.237500",
    "123646.237500",
    "123648.237500",
    "123650.237500",
    "123652.237500",
    "123654.237500",
    "123656.237500",
    "123658.237500",
    "123700.237500",
    "123702.237500",
    "123704.237500",
    "123706.237500",
    "123708.237500",
    "123710.237500",
    "123712.237500",
    "123714.237500",
    "123716.237500",
    "123718.237500",
    "123720.237500",
    "123722.237500",
    "123724.237500",
    "123726.237500",
    "123728.237500",
    "123730.237500",
    "123732.237500",
    "123734.237500",
    "123736.237500",
    "123738.237500",
    "123740.237500",
    "123742.237500",
    "123744.237500",
    "123746.237500",
    "123748.237500",
    "123750.237500",
    "123752.237500",
    "123754.237500",
    "123756.237500",
    "123758.237500",
    "123800.237500",
    "123802.237500",
    "123804.237500",
    "123806.237500",
    "123808.237500",
    "123810.237500",
    "123812.237500",
    "123814.237500",
    "123816.237500",
    "123818.237500",
    "123820.237500",
    "123822.237500",
    "123824.237500",
    "123826.237500",
    "123828.237500",
    "123830.237500",
    "123832.237500",
    "123834.237500",
    "123836.237500",
    "123838.237500",
    "123840.237500",
    "123842.237500",
    "123844.237500",
    "123846.237500",
    "123848.237500",
    "123850.237500",
    "123852.237500",
    "123854.237500",
    "123856.237500",
    "123858.237500",
    "123900.237500",
    "123902.237500",
    "123904.237500",
    "123906.237500",
    "123908.237500",
    "123910.237500",
    "123912.237500",
    "123914.237500",
    "123916.237500",
    "123918.237500",
    "123920.237500",
    "123922.237500",
    "123924.237500",
    "123926.237500",
    "123928.237500",
    "123930.237500",
    "123932.237500",
    "123934.237500",
    "123936.237500",
    "123938.237500",
    "123940.237500",
    "123942.237500",
    "123944.237500",
    "123946.237500",
    "123948.237500",
    "123950.237500",
    "123952.237500",
    "123954.237500",
    "123956.237500",
    "123958.237500",
    "124000.237500",
    "124002.237500",
    "124004.237500",
    "124006.237500",
    "124008.237500",
    "124010.237500",
    "124012.237500",
    "124014.237500",
    "124016.237500",
    "124018.237500"
   ],
   "ContentTime": [
    "123150.747000",
    "123152.230000",
    "123154.230000",
    "123156.231000",
    "123158.231000",
    "123200.230000",
    "123202.230000",
    "123204.230000",
    "123206.230000",
    "123208.231000",
    "123210.230000",
    "123212.230000",
    "123214.230000",
    "123216.231000",
    "123218.231000",
    "123220.230000",
    "123222.231000",
    "123224.231000",
    "123226.230000",
    "123228.230000",
    "123230.230000",
    "123232.231000",
    "123234.231000",
    "123236.231000",
    "123238.231000",
    "123240.231000",
    "123242.231000",
    "123244.230000",
    "123246.230000",
    "123248.229000",
    "123250.231000",
    "123252.230000",
    "123254.231000",
    "123256.231000",
    "123258.231000",
    "123300.231000",
    "123302.230000",
    "123304.230000",
    "123306.230000",
    "123308.231000",
    "123310.231000",
    "123312.231000",
    "123314.230000",
    "123316.231000",
    "123318.231000",
    "123320.229000",
    "123322.230000",
    "123324.230000",
    "123326.231000",
    "123328.230000",
    "123330.231000",
    "123332.231000",
    "123334.230000",
    "123336.230000",
    "123338.230000",
    "123340.230000",
    "123342.231000",
    "123344.231000",
    "123346.230000",
    "123348.230000",
    "123350.231000",
    "123352.231000",
    "123354.230000",
    "123356.230000",
    "123358.230000",
    "123400.230000",
    "123402.231000",
    "123404.231000",
    "123406.231000",
    "123408.231000",
    "123410.231000",
    "123412.229000",
    "123414.230000",
    "123416.231000",
    "123418.231000",
    "123420.231000",
    "123422.231000",
    "123424.231000",
    "123426.230000",
    "123428.231000",
    "123430.230000",
    "123432.230000",
    "123434.231000",
    "123436.230000",
    "123438.231000",
    "123440.231000",
    "123442.231000",
    "123444.231000",
    "123446.229000",
    "123448.229000",
    "123450.229000",
    "123452.231000",
    "123454.231000",
    "123456.231000",
    "123458.231000",
    "123500.230000",
    "123502.231000",
    "123504.230000",
    "123506.230000",
    "123508.230000",
    "123510.231000",
    "123512.230000",
    "123514.230000",
    "123516.230000",
    "123518.231000",
    "123520.231000",
    "123522.229000",
    "123524.230000",
    "123526.231000",
    "123528.231000",
    "123530.231000",
    "123532.231000",
    "123534.231000",
    "123536.231000",
    "123538.231000",
    "123540.230000",
    "123542.230000",
    "123544.231000",
    "123546.231000",
    "123548.231000",
    "123550.231000",
    "123552.231000",
    "123554.230000",
    "123556.229000",
    "123558.230000",
    "123600.230000",
    "123602.231000",
    "123604.231000",
    "123606.231000",
    "123608.231000",
    "123610.231000",
    "123612.230000",
    "123614.229000",
    "123616.230000",
    "123618.230000",
    "123620.231000",
    "123622.231000",
    "123624.230000",
    "123626.230000",
    "123628.230000",
    "123630.230000",
    "123632.233000",
    "123634.230000",
    "123636.231000",
    "123638.231000",
    "123640.231000",
    "123642.231000",
    "123644.231000",
    "123646.230000",
    "123648.231000",
    "123650.229000",
    "123652.230000",
    "123654.230000",
    "123656.230000",
    "123658.231000",
    "123700.231000",
    "123702.231000",
    "123704.230000",
    "123706.229000",
    "123708.230000",
    "123710.230000",
    "123712.231000",
    "123714.230000",
    "123716.231000",
    "123718.231000",
    "123720.241000",
    "123722.231000",
    "123724.229000",
    "123726.230000",
    "123728.231000",
    "123730.231000",
    "123732.231000",
    "123734.231000",
    "123736.231000",
    "123738.231000",
    "123740.231000",
    "123742.230000",
    "123744.229000",
    "123746.231000",
    "123748.230000",
    "123750.230000",
    "123752.230000",
    "123754.231000",
    "123756.231000",
    "123758.230000",
    "123800.230000",
    "123802.230000",
    "123804.231000",
    "123806.230000",
    "123808.231000",
    "123810.231000",
    "123812.231000",
    "123814.230000",
    "123816.230000",
    "123818.229000",
    "123820.229000",
    "123822.231000",
    "123824.230000",
    "123826.231000",
    "123828.230000",
    "123830.231000",
    "123832.231000",
    "123834.230000",
    "123836.230000",
    "123838.230000",
    "123840.231000",
    "123842.230000",
    "123844.231000",
    "123846.231000",
    "123848.231000",
    "123850.231000",
    "123852.230000",
    "123854.230000",
    "123856.230000",
    "123858.231000",
    "123900.231000",
    "123902.231000",
    "123904.231000",
    "123906.231000",
    "123908.230000",
    "123910.230000",
    "123912.229000",
    "123914.230000",
    "123916.231000",
    "123918.231000",
    "123920.231000",
    "123922.231000",
    "123924.230000",
    "123926.230000",
    "123928.230000",
    "123930.229000",
    "123932.230000",
    "123934.230000",
    "123936.231000",
    "123938.231000",
    "123940.231000",
    "123942.230000",
    "123944.230000",
    "123946.230000",
    "123948.230000",
    "123950.231000",
    "123952.231000",
    "123954.231000",
    "123956.231000",
    "123958.231000",
    "124000.231000",
    "124002.229000",
    "124004.230000",
    "124006.231000",
    "124008.230000",
    "124010.231000",
    "124012.231000",
    "124014.230000",
    "124016.230000",
    "124018.230000",
    "124019.910000"
   ],
   "InstanceCreationTime": [
    "123150.747000",
    "123152.230000",
    "123154.230000",
    "123156.231000",
    "123158.231000",
    "123200.230000",
    "123202.230000",
    "123204.230000",
    "123206.230000",
    "123208.231000",
    "123210.230000",
    "123212.230000",
    "123214.230000",
    "123216.231000",
    "123218.231000",
    "123220.230000",
    "123222.231000",
    "123224.231000",
    "123226.230000",
    "123228.230000",
    "123230.230000",
    "123232.231000",
    "123234.231000",
    "123236.231000",
    "123238.231000",
    "123240.231000",
    "123242.231000",
    "123244.230000",
    "123246.230000",
    "123248.229000",
    "123250.231000",
    "123252.230000",
    "123254.231000",
    "123256.231000",
    "123258.231000",
    "123300.231000",
    "123302.230000",
    "123304.230000",
    "123306.230000",
    "123308.231000",
    "123310.231000",
    "123312.231000",
    "123314.230000",
    "123316.231000",
    "123318.231000",
    "123320.229000",
    "123322.230000",
    "123324.230000",
    "123326.231000",
    "123328.230000",
    "123330.231000",
    "123332.231000",
    "123334.230000",
    "123336.230000",
    "123338.230000",
    "123340.230000",
    "123342.231000",
    "123344.231000",
    "123346.230000",
    "123348.230000",
    "123350.231000",
    "123352.231000",
    "123354.230000",
    "123356.230000",
    "123358.230000",
    "123400.230000",
    "123402.231000",
    "123404.231000",
    "123406.231000",
    "123408.231000",
    "123410.231000",
    "123412.229000",
    "123414.230000",
    "123416.231000",
    "123418.231000",
    "123420.231000",
    "123422.231000",
    "123424.231000",
    "123426.230000",
    "123428.231000",
    "123430.230000",
    "123432.230000",
    "123434.231000",
    "123436.230000",
    "123438.231000",
    "123440.231000",
    "123442.231000",
    "123444.231000",
    "123446.229000",
    "123448.229000",
    "123450.229000",
    "123452.231000",
    "123454.231000",
    "123456.231000",
    "123458.231000",
    "123500.230000",
    "123502.231000",
    "123504.230000",
    "123506.230000",
    "123508.230000",
    "123510.231000",
    "123512.230000",
    "123514.230000",
    "123516.230000",
    "123518.231000",
    "123520.231000",
    "123522.229000",
    "123524.230000",
    "123526.231000",
    "123528.231000",
    "123530.231000",
    "123532.231000",
    "123534.231000",
    "123536.231000",
    "123538.231000",
    "123540.230000",
    "123542.230000",
    "123544.231000",
    "123546.231000",
    "123548.231000",
    "123550.231000",
    "123552.231000",
    "123554.230000",
    "123556.229000",
    "123558.230000",
    "123600.230000",
    "123602.231000",
    "123604.231000",
    "123606.231000",
    "123608.231000",
    "123610.231000",
    "123612.230000",
    "123614.229000",
    "123616.230000",
    "123618.230000",
    "123620.231000",
    "123622.231000",
    "123624.230000",
    "123626.230000",
    "123628.230000",
    "123630.230000",
    "123632.233000",
    "123634.230000",
    "123636.231000",
    "123638.231000",
    "123640.231000",
    "123642.231000",
    "123644.231000",
    "123646.230000",
    "123648.231000",
    "123650.229000",
    "123652.230000",
    "123654.230000",
    "123656.230000",
    "123658.231000",
    "123700.231000",
    "123702.231000",
    "123704.230000",
    "123706.229000",
    "123708.230000",
    "123710.230000",
    "123712.231000",
    "123714.230000",
    "123716.231000",
    "123718.231000",
    "123720.241000",
    "123722.231000",
    "123724.229000",
    "123726.230000",
    "123728.231000",
    "123730.231000",
    "123732.231000",
    "123734.231000",
    "123736.231000",
    "123738.231000",
    "123740.231000",
    "123742.230000",
    "123744.229000",
    "123746.231000",
    "123748.230000",
    "123750.230000",
    "123752.230000",
    "123754.231000",
    "123756.231000",
    "123758.230000",
    "123800.230000",
    "123802.230000",
    "123804.231000",
    "123806.230000",
    "123808.231000",
    "123810.231000",
    "123812.231000",
    "123814.230000",
    "123816.230000",
    "123818.229000",
    "123820.229000",
    "123822.231000",
    "123824.230000",
    "123826.231000",
    "123828.230000",
    "123830.231000",
    "123832.231000",
    "123834.230000",
    "123836.230000",
    "123838.230000",
    "123840.231000",
    "123842.230000",
    "123844.231000",
    "123846.231000",
    "123848.231000",
    "123850.231000",
    "123852.230000",
    "123854.230000",
    "123856.230000",
    "123858.231000",
    "123900.231000",
    "123902.231000",
    "123904.231000",
    "123906.231000",
    "123908.230000",
    "123910.230000",
    "123912.229000",
    "123914.230000",
    "123916.231000",
    "123918.231000",
    "123920.231000",
    "123922.231000",
    "123924.230000",
    "123926.230000",
    "123928.230000",
    "123930.229000",
    "123932.230000",
    "123934.230000",
    "123936.231000",
    "123938.231000",
    "123940.231000",
    "123942.230000",
    "123944.230000",
    "123946.230000",
    "123948.230000",
    "123950.231000",
    "123952.231000",
    "123954.231000",
    "123956.231000",
    "123958.231000",
    "124000.231000",
    "124002.229000",
    "124004.230000",
    "124006.231000",
    "124008.230000",
    "124010.231000",
    "124012.231000",
    "124014.230000",
    "124016.230000",
    "124018.230000",
    "124019.910000"
   ],
   "InstanceNumber": [
    1,
    2,
    3,
    4,
    5,
    6,
    7,
    8,
    9,
    10,
    11,
    12,
    13,
    14,
    15,
    16,
    17,
    18,
    19,
    20,
    21,
    22,
    23,
    24,
    25,
    26,
    27,
    28,
    29,
    30,
    31,
    32,
    33,
    34,
    35,
    36,
    37,
    38,
    39,
    40,
    41,
    42,
    43,
    44,
    45,
    46,
    47,
    48,
    49,
    50,
    51,
    52,
    53,
    54,
    55,
    56,
    57,
    58,
    59,
    60,
    61,
    62,
    63,
    64,
    65,
    66,
    67,
    68,
    69,
    70,
    71,
    72,
    73,
    74,
    75,
    76,
    77,
    78,
    79,
    80,
    81,
    82,
    83,
    84,
    85,
    86,
    87,
    88,
    89,
    90,
    91,
    92,
    93,
    94,
    95,
    96,
    97,
    98,
    99,
    100,
    101,
    102,
    103,
    104,
    105,
    106,
    107,
    108,
    109,
    110,
    111,
    112,
    113,
    114,
    115,
    116,
    117,
    118,
    119,
    120,
    121,
    122,
    123,
    124,
    125,
    126,
    127,
    128,
    129,
    130,
    131,
    132,
    133,
    134,
    135,
    136,
    137,
    138,
    139,
    140,
    141,
    142,
    143,
    144,
    145,
    146,
    147,
    148,
    149,
    150,
    151,
    152,
    153,
    154,
    155,
    156,
    157,
    158,
    159,
    160,
    161,
    162,
    163,
    164,
    165,
    166,
    167,
    168,
    169,
    170,
    171,
    172,
    173,
    174,
    175,
    176,
    177,
    178,
    179,
    180,
    181,
    182,
    183,
    184,
    185,
    186,
    187,
    188,
    189,
    190,
    191,
    192,
    193,
    194,
    195,
    196,
    197,
    198,
    199,
    200,
    201,
    202,
    203,
    204,
    205,
    206,
    207,
    208,
    209,
    210,
    211,
    212,
    213,
    214,
    215,
    216,
    217,
    218,
    219,
    220,
    221,
    222,
    223,
    224,
    225,
    226,
    227,
    228,
    229,
    230,
    231,
    232,
    233,
    234,
    235,
    236,
    237,
    238,
    239,
    240,
    241,
    242,
    243,
    244,
    245,
    246,
    247,
    248,
    249,
    250,
    251,
    252,
    253,
    254,
    255,
    256
   ],
   "LargestImagePixelValue": [
    2662,
    2626,
    2588,
    2580,
    2580,
    2586,
    2597,
    2579,
    2558,
    2568,
    2591,
    2569,
    2581,
    2596,
    2591,
    2569,
    2550,
    2563,
    2567,
    2585,
    2582,
    2602,
    2586,
    2585,
    2598,
    2570,
    2570,
    2613,
    2577,
    2564,
    2578,
    2574,
    2562,
    2584,
    2578,
    2576,
    2593,
    2602,
    2592,
    2574,
    2609,
    2566,
    2577,
    2575,
    2576,
    2594,
    2555,
    2563,
    2559,
    2573,
    2566,
    2575,
    2598,
    2557,
    2593,
    2590,
    2598,
    2588,
    2580,
    2586,
    2596,
    2577,
    2591,
    2567,
    2631,
    2589,
    2578,
    2560,
    2582,
    2571,
    2569,
    2574,
    2581,
    2592,
    2595,
    2573,
    2585,
    2613,
    2575,
    2608,
    2580,
    2583,
    2626,
    2586,
    2595,
    2595,
    2590,
    2607,
    2575,
    2579,
    2582,
    2632,
    2601,
    2572,
    2583,
    2570,
    2617,
    2580,
    2575,
    2590,
    2594,
    2594,
    2580,
    2571,
    2571,
    2598,
    2588,
    2571,
    2569,
    2572,
    2610,
    2646,
    2586,
    2595,
    2575,
    2575,
    2598,
    2584,
    2580,
    2563,
    2585,
    2593,
    2599,
    2630,
    2586,
    2594,
    2580,
    2580,
    2590,
    2634,
    2572,
    2585,
    2580,
    2577,
    2594,
    2582,
    2577,
    2581,
    2581,
    2572,
    2613,
    2577,
    2627,
    2582,
    2602,
    2589,
    2585,
    2591,
    2695,
    2577,
    2592,
    2617,
    2580,
    2576,
    2573,
    2571,
    2705,
    2589,
    2589,
    2571,
    2605,
    2601,
    2588,
    2581,
    2604,
    2601,
    2602,
    2588,
    2582,
    2577,
    2588,
    2571,
    2570,
    2567,
    2592,
    2589,
    2591,
    2591,
    2591,
    2572,
    2618,
    2595,
    2589,
    2582,
    2567,
    2562,
    2564,
    2570,
    2582,
    2626,
    2590,
    2602,
    2571,
    2631,
    2626,
    2631,
    2596,
    2559,
    2600,
    2569,
    2591,
    2602,
    2586,
    2620,
    2605,
    2599,
    2577,
    2611,
    2600,
    2607,
    2562,
    2569,
    2583,
    2572,
    2596,
    2587,
    2637,
    2659,
    2598,
    2586,
    2601,
    2599,
    2598,
    2615,
    2624,
    2585,
    2591,
    2597,
    2578,
    2584,
    2584,
    2629,
    2618,
    2601,
    2591,
    2587,
    2573,
    2586,
    2637,
    2640,
    2593,
    2622,
    2615,
    2660,
    2653,
    2632,
    2599,
    2650,
    2630,
    2649,
    2632,
    2659,
    2667,
    2781,
    2780,
    2626
   ],
   "WindowCenter": [
    733.0,
    731.0,
    730.0,
    730.0,
    730.0,
    730.0,
    730.0,
    729.0,
    728.0,
    728.0,
    730.0,
    730.0,
    729.0,
    729.0,
    730.0,
    729.0,
    729.0,
    728.0,
    729.0,
    729.0,
    729.0,
    729.0,
    730.0,
    729.0,
    729.0,
    729.0,
    729.0,
    730.0,
    729.0,
    729.0,
    729.0,
    730.0,
    729.0,
    729.0,
    729.0,
    729.0,
    729.0,
    729.0,
    729.0,
    730.0,
    730.0,
    729.0,
    728.0,
    728.0,
    729.0,
    729.0,
    729.0,
    728.0,
    728.0,
    728.0,
    728.0,
    729.0,
    729.0,
    728.0,
    728.0,
    728.0,
    728.0,
    728.0,
    729.0,
    730.0,
    730.0,
    729.0,
    729.0,
    729.0,
    730.0,
    729.0,
    729.0,
    728.0,
    729.0,
    729.0,
    729.0,
    730.0,
    730.0,
    730.0,
    729.0,
    729.0,
    730.0,
    730.0,
    730.0,
    729.0,
    728.0,
    729.0,
    729.0,
    729.0,
    729.0,
    730.0,
    729.0,
    729.0,
    729.0,
    729.0,
    729.0,
    730.0,
    729.0,
    728.0,
    729.0,
    729.0,
    730.0,
    729.0,
    729.0,
    729.0,
    729.0,
    729.0,
    729.0,
    729.0,
    729.0,
    729.0,
    730.0,
    730.0,
    729.0,
    729.0,
    730.0,
    730.0,
    729.0,
    729.0,
    729.0,
    728.0,
    729.0,
    729.0,
    729.0,
    729.0,
    729.0,
    729.0,
    730.0,
    731.0,
    729.0,
