{
 "AcquisitionMatrixPE": 100,
 "AcquisitionNumber": 1,
 "AcquisitionTime": "12:01:7.440000",
 "BandwidthPerPixelPhaseEncode": 18.519,
 "BaseResolution": 100,
 "BodyPartExamined": "BRAIN",
 "ConsistencyInfo": "N4_VE11C_LATEST_20160120",
 "ConversionSoftware": "dcm2niix",
 "ConversionSoftwareVersion": "v1.0.20180622 GCC4.9.2",
 "DerivedVendorReportedEchoSpacing": 0.000539986,
 "DeviceSerialNumber": "166078",
 "DwellTime": 2.1e-06,
 "EchoTime": 0.034,
 "EchoTrainLength": 100,
 "EffectiveEchoSpacing": 0.000539986,
 "FlipAngle": 90,
 "ImageOrientationPatientDICOM": [
  1,
  0,
  0,
  0,
  0.982287,
  -0.187381
 ],
 "ImageType": [
  "ORIGINAL",
  "PRIMARY",
  "M",
  "ND",
  "MOSAIC"
 ],
 "InPlanePhaseEncodingDirectionDICOM": "COL",
 "InstitutionAddress": "Street_StreetNo_Bei_Jing_District_CN_ZIP",
 "InstitutionName": "BeiJing_Normal_University",
 "InstitutionalDepartmentName": "Department",
 "MRAcquisitionType": "2D",
 "MagneticFieldStrength": 3,
 "Manufacturer": "Siemens",
 "ManufacturersModelName": "Prisma",
 "Modality": "MR",
 "MultibandAccelerationFactor": 3,
 "PartialFourier": 1,
 "PatientPosition": "HFS",
 "PercentPhaseFOV": 100,
 "PhaseEncodingDirection": "j-",
 "PhaseEncodingSteps": 100,
 "PhaseResolution": 1,
 "PixelBandwidth": 2380,
 "ProcedureStepDescription": "BNU_P2018_64CH_Zhen.ZongLei",
 "ProtocolName": "bold_100x100_s3_2x2x2_static_256",
 "PulseSequenceDetails": "%SiemensSeq%_ep2d_bold",
 "ReceiveCoilActiveElements": "HC1-7;NC1",
 "ReceiveCoilName": "HeadNeck_64",
 "ReconMatrixPE": 100,
 "RepetitionTime": 2,
 "SAR": 0.06884,
 "ScanOptions": "FS",
 "ScanningSequence": "EP",
 "SequenceName": "_epfid2d1_100",
 "SequenceVariant": "SK",
 "SeriesDescription": "bold_100x100_s3_2x2x2_static_256",
 "SeriesNumber": 7,
 "ShimSetting": [
  -5457,
  -11504,
  -1285,
  306,
  -53,
  -246,
  -125,
  39
 ],
 "SliceThickness": 2,
 "SliceTiming": [
  1.485,
  0,
  0.99,
  0.0825,
  1.0725,
  0.165,
  1.155,
  0.2475,
  1.2375,
  0.33,
  1.32,
  0.4125,
  1.4025,
  0.5775,
  1.5675,
  0.66,
  1.65,
  0.7425,
  1.7325,
  0.825,
  1.815,
  0.9075,
  1.8975,
  0.495,
  1.485,
  0,
  0.99,
  0.0825,
  1.0725,
  0.165,
  1.155,
  0.2475,
  1.2375,
  0.33,
  1.32,
  0.4125,
  1.4025,
  0.5775,
  1.5675,
  0.66,
  1.65,
  0.7425,
  1.7325,
  0.825,
  1.815,
  0.9075,
  1.8975,
  0.495,
  1.485,
  0,
  0.99,
  0.0825,
  1.0725,
  0.165,
  1.155,
  0.2475,
  1.2375,
  0.33,
  1.32,
  0.4125,
  1.4025,
  0.5775,
  1.5675,
  0.66,
  1.65,
  0.7425,
  1.7325,
  0.825,
  1.815,
  0.9075,
  1.8975,
  0.495
 ],
 "SoftwareVersions": "syngo_MR_E11",
 "SpacingBetweenSlices": 2,
 "StationName": "AWP166078",
 "TaskName": "imagenet",
 "TotalReadoutTime": 0.0534586,
 "TxRefAmp": 211.901,
 "dcmmeta_affine": [
  [
   -2.0,
   0.0,
   0.0,
   103.38983154296875
  ],
  [
   0.0,
   1.9645744562149048,
   -0.374762624502182,
   -78.19866943359375
  ],
  [
   0.0,
   0.374762624502182,
   1.9645744562149048,
   -100.270751953125
  ],
  [
   0.0,
   0.0,
   0.0,
   1.0
  ]
 ],
 "dcmmeta_reorient_transform": [
  [
   0.0,
   -1.0,
   0.0,
   99.0
  ],
  [
   1.0,
   0.0,
   0.0,
   0.0
  ],
  [
   0.0,
   0.0,
   1.0,
   0.0
  ],
  [
   0.0,
   0.0,
   0.0,
   1.0
  ]
 ],
 "dcmmeta_shape": [
  100,
  100,
  72,
  256
 ],
 "dcmmeta_slice_dim": 2,
 "dcmmeta_version": 0.6,
 "global": {
  "const": {
   "AcquisitionMatrix": [
    100,
    0,
    0,
    100
   ],
   "AngioFlag": "N",
   "BitsAllocated": 16,
   "BitsStored": 12,
   "BodyPartExamined": "BRAIN",
   "Columns": 900,
   "EchoNumbers": 1,
   "EchoTime": 34.0,
   "EchoTrainLength": 100,
   "FlipAngle": 90.0,
   "HighBit": 11,
   "ImageOrientationPatient": [
    1.0,
    0.0,
    0.0,
    0.0,
    0.98228725047307,
    -0.1873813159257
   ],
   "ImagePositionPatient": [
    -903.38983058929,
    -902.12400279698,
    86.735797553354
   ],
   "ImageType": [
    "ORIGINAL",
    "PRIMARY",
    "M",
    "ND",
    "MOSAIC"
   ],
   "ImagedNucleus": "1H",
   "ImagingFrequency": 123.257763,
   "InPlanePhaseEncodingDirection": "COL",
   "MRAcquisitionType": "2D",
   "MagneticFieldStrength": 3.0,
   "Manufacturer": "SIEMENS",
   "ManufacturerModelName": "Prisma",
   "Modality": "MR",
   "NumberOfAverages": 1.0,
   "NumberOfPhaseEncodingSteps": 100,
   "PercentPhaseFieldOfView": 100.0,
   "PercentSampling": 100.0,
   "PerformedProcedureStepStartTime": "111946.085000",
   "PhotometricInterpretation": "MONOCHROME2",
   "PixelBandwidth": 2380.0,
   "PixelRepresentation": 0,
   "PixelSpacing": [
    2.0,
    2.0
   ],
   "ProtocolName": "bold_100x100_s3_2x2x2_static_256",
   "RepetitionTime": 2000.0,
   "Rows": 900,
   "SAR": 0.06884001428517,
   "SamplesPerPixel": 1,
   "ScanOptions": "FS",
   "ScanningSequence": "EP",
   "SequenceName": "*epfid2d1_100",
   "SequenceVariant": "SK",
   "SeriesDescription": "bold_100x100_s3_2x2x2_static_256",
   "SeriesNumber": 7,
   "SeriesTime": "120109.991000",
   "SliceLocation": -83.841714675994,
   "SliceThickness": 2.0,
   "SmallestImagePixelValue": 0,
   "SoftwareVersions": "syngo MR E11",
   "SpacingBetweenSlices": 2.000000014055,
   "SpecificCharacterSet": "ISO_IR 100",
   "StudyID": "1",
   "StudyTime": "111945.951000",
   "TransmitCoilName": "Body",
   "VariableFlipAngleFlag": "N",
   "WindowCenterWidthExplanation": "Algo1",
   "dBdt": 0.0
  },
  "slices": {}
 },
 "time": {
  "samples": {
   "AcquisitionNumber": [
    1,
    2,
    3,
    4,
    5,
    6,
    7,
    8,
    9,
    10,
    11,
    12,
    13,
    14,
    15,
    16,
    17,
    18,
    19,
    20,
    21,
    22,
    23,
    24,
    25,
    26,
    27,
    28,
    29,
    30,
    31,
    32,
    33,
    34,
    35,
    36,
    37,
    38,
    39,
    40,
    41,
    42,
    43,
    44,
    45,
    46,
    47,
    48,
    49,
    50,
    51,
    52,
    53,
    54,
    55,
    56,
    57,
    58,
    59,
    60,
    61,
    62,
    63,
    64,
    65,
    66,
    67,
    68,
    69,
    70,
    71,
    72,
    73,
    74,
    75,
    76,
    77,
    78,
    79,
    80,
    81,
    82,
    83,
    84,
    85,
    86,
    87,
    88,
    89,
    90,
    91,
    92,
    93,
    94,
    95,
    96,
    97,
    98,
    99,
    100,
    101,
    102,
    103,
    104,
    105,
    106,
    107,
    108,
    109,
    110,
    111,
    112,
    113,
    114,
    115,
    116,
    117,
    118,
    119,
    120,
    121,
    122,
    123,
    124,
    125,
    126,
    127,
    128,
    129,
    130,
    131,
    132,
    133,
    134,
    135,
    136,
    137,
    138,
    139,
    140,
    141,
    142,
    143,
    144,
    145,
    146,
    147,
    148,
    149,
    150,
    151,
    152,
    153,
    154,
    155,
    156,
    157,
    158,
    159,
    160,
    161,
    162,
    163,
    164,
    165,
    166,
    167,
    168,
    169,
    170,
    171,
    172,
    173,
    174,
    175,
    176,
    177,
    178,
    179,
    180,
    181,
    182,
    183,
    184,
    185,
    186,
    187,
    188,
    189,
    190,
    191,
    192,
    193,
    194,
    195,
    196,
    197,
    198,
    199,
    200,
    201,
    202,
    203,
    204,
    205,
    206,
    207,
    208,
    209,
    210,
    211,
    212,
    213,
    214,
    215,
    216,
    217,
    218,
    219,
    220,
    221,
    222,
    223,
    224,
    225,
    226,
    227,
    228,
    229,
    230,
    231,
    232,
    233,
    234,
    235,
    236,
    237,
    238,
    239,
    240,
    241,
    242,
    243,
    244,
    245,
    246,
    247,
    248,
    249,
    250,
    251,
    252,
    253,
    254,
    255,
    256
   ],
   "AcquisitionTime": [
    "120107.440000",
    "120109.440000",
    "120111.440000",
    "120113.440000",
    "120115.440000",
    "120117.440000",
    "120119.440000",
    "120121.440000",
    "120123.440000",
    "120125.440000",
    "120127.440000",
    "120129.440000",
    "120131.440000",
    "120133.440000",
    "120135.440000",
    "120137.440000",
    "120139.440000",
    "120141.440000",
    "120143.440000",
    "120145.440000",
    "120147.440000",
    "120149.440000",
    "120151.440000",
    "120153.440000",
    "120155.440000",
    "120157.440000",
    "120159.440000",
    "120201.440000",
    "120203.440000",
    "120205.440000",
    "120207.440000",
    "120209.440000",
    "120211.440000",
    "120213.440000",
    "120215.440000",
    "120217.440000",
    "120219.440000",
    "120221.440000",
    "120223.440000",
    "120225.440000",
    "120227.440000",
    "120229.440000",
    "120231.440000",
    "120233.440000",
    "120235.440000",
    "120237.440000",
    "120239.440000",
    "120241.440000",
    "120243.440000",
    "120245.440000",
    "120247.440000",
    "120249.440000",
    "120251.440000",
    "120253.440000",
    "120255.440000",
    "120257.440000",
    "120259.440000",
    "120301.440000",
    "120303.440000",
    "120305.440000",
    "120307.440000",
    "120309.440000",
    "120311.440000",
    "120313.440000",
    "120315.440000",
    "120317.440000",
    "120319.440000",
    "120321.440000",
    "120323.440000",
    "120325.440000",
    "120327.440000",
    "120329.440000",
    "120331.440000",
    "120333.440000",
    "120335.440000",
    "120337.440000",
    "120339.440000",
    "120341.440000",
    "120343.440000",
    "120345.440000",
    "120347.440000",
    "120349.440000",
    "120351.440000",
    "120353.440000",
    "120355.440000",
    "120357.440000",
    "120359.440000",
    "120401.440000",
    "120403.440000",
    "120405.440000",
    "120407.440000",
    "120409.440000",
    "120411.440000",
    "120413.440000",
    "120415.440000",
    "120417.440000",
    "120419.440000",
    "120421.440000",
    "120423.440000",
    "120425.440000",
    "120427.440000",
    "120429.440000",
    "120431.440000",
    "120433.440000",
    "120435.440000",
    "120437.440000",
    "120439.440000",
    "120441.440000",
    "120443.440000",
    "120445.440000",
    "120447.440000",
    "120449.440000",
    "120451.440000",
    "120453.440000",
    "120455.440000",
    "120457.440000",
    "120459.440000",
    "120501.440000",
    "120503.440000",
    "120505.440000",
    "120507.440000",
    "120509.440000",
    "120511.440000",
    "120513.440000",
    "120515.440000",
    "120517.440000",
    "120519.440000",
    "120521.440000",
    "120523.440000",
    "120525.440000",
    "120527.440000",
    "120529.440000",
    "120531.440000",
    "120533.440000",
    "120535.440000",
    "120537.440000",
    "120539.440000",
    "120541.440000",
    "120543.440000",
    "120545.440000",
    "120547.440000",
    "120549.440000",
    "120551.440000",
    "120553.440000",
    "120555.440000",
    "120557.440000",
    "120559.440000",
    "120601.440000",
    "120603.440000",
    "120605.440000",
    "120607.440000",
    "120609.440000",
    "120611.440000",
    "120613.440000",
    "120615.440000",
    "120617.440000",
    "120619.440000",
    "120621.440000",
    "120623.440000",
    "120625.440000",
    "120627.440000",
    "120629.440000",
    "120631.440000",
    "120633.440000",
    "120635.440000",
    "120637.440000",
    "120639.440000",
    "120641.440000",
    "120643.440000",
    "120645.440000",
    "120647.440000",
    "120649.440000",
    "120651.440000",
    "120653.440000",
    "120655.440000",
    "120657.440000",
    "120659.440000",
    "120701.440000",
    "120703.440000",
    "120705.440000",
    "120707.440000",
    "120709.440000",
    "120711.440000",
    "120713.440000",
    "120715.440000",
    "120717.440000",
    "120719.440000",
    "120721.440000",
    "120723.440000",
    "120725.440000",
    "120727.440000",
    "120729.440000",
    "120731.440000",
    "120733.440000",
    "120735.440000",
    "120737.440000",
    "120739.440000",
    "120741.440000",
    "120743.440000",
    "120745.440000",
    "120747.440000",
    "120749.440000",
    "120751.440000",
    "120753.440000",
    "120755.440000",
    "120757.440000",
    "120759.440000",
    "120801.440000",
    "120803.440000",
    "120805.440000",
    "120807.440000",
    "120809.440000",
    "120811.440000",
    "120813.440000",
    "120815.440000",
    "120817.440000",
    "120819.440000",
    "120821.440000",
    "120823.440000",
    "120825.440000",
    "120827.440000",
    "120829.440000",
    "120831.440000",
    "120833.440000",
    "120835.440000",
    "120837.440000",
    "120839.440000",
    "120841.440000",
    "120843.440000",
    "120845.440000",
    "120847.440000",
    "120849.440000",
    "120851.440000",
    "120853.440000",
    "120855.440000",
    "120857.440000",
    "120859.440000",
    "120901.440000",
    "120903.440000",
    "120905.440000",
    "120907.440000",
    "120909.440000",
    "120911.440000",
    "120913.440000",
    "120915.440000",
    "120917.440000",
    "120919.440000",
    "120921.440000",
    "120923.440000",
    "120925.440000",
    "120927.440000",
    "120929.440000",
    "120931.440000",
    "120933.440000",
    "120935.440000",
    "120937.440000"
   ],
   "ContentTime": [
    "120109.995000",
    "120111.489000",
    "120113.489000",
    "120115.489000",
    "120117.489000",
    "120119.489000",
    "120121.490000",
    "120123.490000",
    "120125.490000",
    "120127.491000",
    "120129.489000",
    "120131.489000",
    "120133.490000",
    "120135.489000",
    "120137.489000",
    "120139.490000",
    "120141.490000",
    "120143.490000",
    "120145.489000",
    "120147.489000",
    "120149.490000",
    "120151.490000",
    "120153.989000",
    "120155.490000",
    "120157.490000",
    "120159.491000",
    "120201.490000",
    "120203.489000",
    "120205.510000",
    "120207.489000",
    "120209.490000",
    "120211.490000",
    "120213.490000",
    "120215.490000",
    "120217.491000",
    "120219.491000",
    "120221.490000",
    "120223.489000",
    "120225.489000",
    "120227.490000",
    "120229.489000",
    "120231.491000",
    "120233.490000",
    "120235.490000",
    "120237.510000",
    "120239.489000",
    "120241.489000",
    "120243.489000",
    "120245.489000",
    "120247.489000",
    "120249.490000",
    "120251.490000",
    "120253.490000",
    "120255.490000",
    "120257.489000",
    "120259.490000",
    "120301.490000",
    "120303.489000",
    "120305.490000",
    "120307.490000",
    "120309.490000",
    "120311.490000",
    "120313.490000",
    "120315.489000",
    "120317.489000",
    "120319.489000",
    "120321.490000",
    "120323.490000",
    "120325.491000",
    "120327.490000",
    "120329.491000",
    "120331.489000",
    "120333.490000",
    "120335.489000",
    "120337.489000",
    "120339.490000",
    "120341.491000",
    "120343.491000",
    "120345.491000",
    "120347.490000",
    "120349.489000",
    "120351.490000",
    "120353.489000",
    "120355.490000",
    "120357.489000",
    "120359.490000",
    "120401.490000",
    "120403.491000",
    "120405.490000",
    "120407.490000",
    "120409.489000",
    "120411.489000",
    "120413.489000",
    "120415.490000",
    "120417.490000",
    "120419.490000",
    "120421.490000",
    "120423.490000",
    "120425.490000",
    "120427.490000",
    "120429.490000",
    "120431.489000",
    "120433.491000",
    "120435.991000",
    "120437.490000",
    "120439.491000",
    "120441.489000",
    "120443.489000",
    "120445.489000",
    "120447.490000",
    "120449.489000",
    "120451.491000",
    "120453.991000",
    "120455.491000",
    "120457.490000",
    "120459.490000",
    "120501.489000",
    "120503.490000",
    "120505.489000",
    "120507.490000",
    "120509.490000",
    "120511.490000",
    "120513.490000",
    "120515.489000",
    "120517.489000",
    "120519.489000",
    "120521.489000",
    "120523.489000",
    "120525.490000",
    "120527.491000",
    "120529.491000",
    "120531.491000",
    "120533.490000",
    "120535.489000",
    "120537.490000",
    "120539.490000",
    "120541.489000",
    "120543.490000",
    "120545.490000",
    "120547.990000",
    "120549.490000",
    "120551.490000",
    "120553.490000",
    "120555.489000",
    "120557.489000",
    "120559.489000",
    "120601.491000",
    "120603.491000",
    "120605.490000",
    "120607.491000",
    "120609.489000",
    "120611.990000",
    "120613.490000",
    "120615.490000",
    "120617.490000",
    "120619.491000",
    "120621.491000",
    "120623.490000",
    "120625.490000",
    "120627.490000",
    "120629.489000",
    "120631.490000",
    "120633.490000",
    "120635.491000",
    "120637.490000",
    "120639.490000",
    "120641.490000",
    "120643.489000",
    "120645.489000",
    "120647.489000",
    "120649.489000",
    "120651.490000",
    "120653.490000",
    "120655.490000",
    "120657.491000",
    "120659.490000",
    "120701.489000",
    "120703.489000",
    "120705.489000",
    "120707.489000",
    "120709.490000",
    "120711.491000",
    "120713.490000",
    "120715.491000",
    "120717.490000",
    "120719.489000",
    "120721.490000",
    "120723.490000",
    "120725.489000",
    "120727.490000",
    "120729.491000",
    "120731.491000",
    "120733.490000",
    "120735.489000",
    "120737.489000",
    "120739.489000",
    "120741.489000",
    "120743.489000",
    "120745.491000",
    "120747.490000",
    "120749.490000",
    "120751.490000",
    "120753.490000",
    "120755.489000",
    "120757.490000",
    "120759.489000",
    "120801.489000",
    "120803.490000",
    "120805.490000",
    "120807.490000",
    "120809.490000",
    "120811.489000",
    "120813.490000",
    "120815.490000",
    "120817.490000",
    "120819.489000",
    "120821.491000",
    "120823.491000",
    "120825.490000",
    "120827.491000",
    "120829.489000",
    "120831.489000",
    "120833.489000",
    "120835.490000",
    "120837.490000",
    "120839.991000",
    "120841.490000",
    "120843.491000",
    "120845.489000",
    "120847.489000",
    "120849.489000",
    "120851.497000",
    "120853.490000",
    "120855.491000",
    "120857.490000",
    "120859.490000",
    "120901.490000",
    "120903.490000",
    "120905.489000",
    "120907.489000",
    "120909.489000",
    "120911.490000",
    "120913.491000",
    "120915.491000",
    "120917.491000",
    "120919.491000",
    "120921.489000",
    "120923.489000",
    "120925.490000",
    "120927.489000",
    "120929.490000",
    "120931.500000",
    "120933.490000",
    "120935.491000",
    "120937.489000",
    "120939.374000"
   ],
   "InstanceCreationTime": [
    "120109.995000",
    "120111.489000",
    "120113.489000",
    "120115.489000",
    "120117.489000",
    "120119.489000",
    "120121.490000",
    "120123.490000",
    "120125.490000",
    "120127.491000",
    "120129.489000",
    "120131.489000",
    "120133.490000",
    "120135.489000",
    "120137.489000",
    "120139.490000",
    "120141.490000",
    "120143.490000",
    "120145.489000",
    "120147.489000",
    "120149.490000",
    "120151.490000",
    "120153.989000",
    "120155.490000",
    "120157.490000",
    "120159.491000",
    "120201.490000",
    "120203.489000",
    "120205.510000",
    "120207.489000",
    "120209.490000",
    "120211.490000",
    "120213.490000",
    "120215.490000",
    "120217.491000",
    "120219.491000",
    "120221.490000",
    "120223.489000",
    "120225.489000",
    "120227.490000",
    "120229.489000",
    "120231.491000",
    "120233.490000",
    "120235.490000",
    "120237.510000",
    "120239.489000",
    "120241.489000",
    "120243.489000",
    "120245.489000",
    "120247.489000",
    "120249.490000",
    "120251.490000",
    "120253.490000",
    "120255.490000",
    "120257.489000",
    "120259.490000",
    "120301.490000",
    "120303.489000",
    "120305.490000",
    "120307.490000",
    "120309.490000",
    "120311.490000",
    "120313.490000",
    "120315.489000",
    "120317.489000",
    "120319.489000",
    "120321.490000",
    "120323.490000",
    "120325.491000",
    "120327.490000",
    "120329.491000",
    "120331.489000",
    "120333.490000",
    "120335.489000",
    "120337.489000",
    "120339.490000",
    "120341.491000",
    "120343.491000",
    "120345.491000",
    "120347.490000",
    "120349.489000",
    "120351.490000",
    "120353.489000",
    "120355.490000",
    "120357.489000",
    "120359.490000",
    "120401.490000",
    "120403.491000",
    "120405.490000",
    "120407.490000",
    "120409.489000",
    "120411.489000",
    "120413.489000",
    "120415.490000",
    "120417.490000",
    "120419.490000",
    "120421.490000",
    "120423.490000",
    "120425.490000",
    "120427.490000",
    "120429.490000",
    "120431.489000",
    "120433.491000",
    "120435.991000",
    "120437.490000",
    "120439.491000",
    "120441.489000",
    "120443.489000",
    "120445.489000",
    "120447.490000",
    "120449.489000",
    "120451.491000",
    "120453.991000",
    "120455.491000",
    "120457.490000",
    "120459.490000",
    "120501.489000",
    "120503.490000",
    "120505.489000",
    "120507.490000",
    "120509.490000",
    "120511.490000",
    "120513.490000",
    "120515.489000",
    "120517.489000",
    "120519.489000",
    "120521.489000",
    "120523.489000",
    "120525.490000",
    "120527.491000",
    "120529.491000",
    "120531.491000",
    "120533.490000",
    "120535.489000",
    "120537.490000",
    "120539.490000",
    "120541.489000",
    "120543.490000",
    "120545.490000",
    "120547.990000",
    "120549.490000",
    "120551.490000",
    "120553.490000",
    "120555.489000",
    "120557.489000",
    "120559.489000",
    "120601.491000",
    "120603.491000",
    "120605.490000",
    "120607.491000",
    "120609.489000",
    "120611.990000",
    "120613.490000",
    "120615.490000",
    "120617.490000",
    "120619.491000",
    "120621.491000",
    "120623.490000",
    "120625.490000",
    "120627.490000",
    "120629.489000",
    "120631.490000",
    "120633.490000",
    "120635.491000",
    "120637.490000",
    "120639.490000",
    "120641.490000",
    "120643.489000",
    "120645.489000",
    "120647.489000",
    "120649.489000",
    "120651.490000",
    "120653.490000",
    "120655.490000",
    "120657.491000",
    "120659.490000",
    "120701.489000",
    "120703.489000",
    "120705.489000",
    "120707.489000",
    "120709.490000",
    "120711.491000",
    "120713.490000",
    "120715.491000",
    "120717.490000",
    "120719.489000",
    "120721.490000",
    "120723.490000",
    "120725.489000",
    "120727.490000",
    "120729.491000",
    "120731.491000",
    "120733.490000",
    "120735.489000",
    "120737.489000",
    "120739.489000",
    "120741.489000",
    "120743.489000",
    "120745.491000",
    "120747.490000",
    "120749.490000",
    "120751.490000",
    "120753.490000",
    "120755.489000",
    "120757.490000",
    "120759.489000",
    "120801.489000",
    "120803.490000",
    "120805.490000",
    "120807.490000",
    "120809.490000",
    "120811.489000",
    "120813.490000",
    "120815.490000",
    "120817.490000",
    "120819.489000",
    "120821.491000",
    "120823.491000",
    "120825.490000",
    "120827.491000",
    "120829.489000",
    "120831.489000",
    "120833.489000",
    "120835.490000",
    "120837.490000",
    "120839.991000",
    "120841.490000",
    "120843.491000",
    "120845.489000",
    "120847.489000",
    "120849.489000",
    "120851.497000",
    "120853.490000",
    "120855.491000",
    "120857.490000",
    "120859.490000",
    "120901.490000",
    "120903.490000",
    "120905.489000",
    "120907.489000",
    "120909.489000",
    "120911.490000",
    "120913.491000",
    "120915.491000",
    "120917.491000",
    "120919.491000",
    "120921.489000",
    "120923.489000",
    "120925.490000",
    "120927.489000",
    "120929.490000",
    "120931.500000",
    "120933.490000",
    "120935.491000",
    "120937.489000",
    "120939.374000"
   ],
   "InstanceNumber": [
    1,
    2,
    3,
    4,
    5,
    6,
    7,
    8,
    9,
    10,
    11,
    12,
    13,
    14,
    15,
    16,
    17,
    18,
    19,
    20,
    21,
    22,
    23,
    24,
    25,
    26,
    27,
    28,
    29,
    30,
    31,
    32,
    33,
    34,
    35,
    36,
    37,
    38,
    39,
    40,
    41,
    42,
    43,
    44,
    45,
    46,
    47,
    48,
    49,
    50,
    51,
    52,
    53,
    54,
    55,
    56,
    57,
    58,
    59,
    60,
    61,
    62,
    63,
    64,
    65,
    66,
    67,
    68,
    69,
    70,
    71,
    72,
    73,
    74,
    75,
    76,
    77,
    78,
    79,
    80,
    81,
    82,
    83,
    84,
    85,
    86,
    87,
    88,
    89,
    90,
    91,
    92,
    93,
    94,
    95,
    96,
    97,
    98,
    99,
    100,
    101,
    102,
    103,
    104,
    105,
    106,
    107,
    108,
    109,
    110,
    111,
    112,
    113,
    114,
    115,
    116,
    117,
    118,
    119,
    120,
    121,
    122,
    123,
    124,
    125,
    126,
    127,
    128,
    129,
    130,
    131,
    132,
    133,
    134,
    135,
    136,
    137,
    138,
    139,
    140,
    141,
    142,
    143,
    144,
    145,
    146,
    147,
    148,
    149,
    150,
    151,
    152,
    153,
    154,
    155,
    156,
    157,
    158,
    159,
    160,
    161,
    162,
    163,
    164,
    165,
    166,
    167,
    168,
    169,
    170,
    171,
    172,
    173,
    174,
    175,
    176,
    177,
    178,
    179,
    180,
    181,
    182,
    183,
    184,
    185,
    186,
    187,
    188,
    189,
    190,
    191,
    192,
    193,
    194,
    195,
    196,
    197,
    198,
    199,
    200,
    201,
    202,
    203,
    204,
    205,
    206,
    207,
    208,
    209,
    210,
    211,
    212,
    213,
    214,
    215,
    216,
    217,
    218,
    219,
    220,
    221,
    222,
    223,
    224,
    225,
    226,
    227,
    228,
    229,
    230,
    231,
    232,
    233,
    234,
    235,
    236,
    237,
    238,
    239,
    240,
    241,
    242,
    243,
    244,
    245,
    246,
    247,
    248,
    249,
    250,
    251,
    252,
    253,
    254,
    255,
    256
   ],
   "LargestImagePixelValue": [
    2941,
    2913,
    2865,
    2859,
    2847,
    2881,
    2881,
    2879,
    2826,
    2831,
    2827,
    2816,
    2848,
    2851,
    2838,
    2869,
    2863,
    2863,
    2830,
    2842,
    2845,
    2880,
    2884,
    2863,
    2786,
    2837,
    2838,
    2854,
    2825,
    2838,
    2868,
    2871,
    2862,
    2860,
    2863,
    2873,
    2894,
    2849,
    2851,
    2855,
    2837,
    2874,
    2848,
    2800,
    2843,
    2882,
    2868,
    2834,
    2789,
    2788,
    2790,
    2793,
    2799,
    2776,
    2787,
    2781,
    2793,
    2769,
    2811,
    2781,
    2755,
    2803,
    2817,
    2849,
    2865,
    2837,
    2836,
    2858,
    2825,
    2844,
    2795,
    2809,
    2795,
    2814,
    2843,
    2849,
    2859,
    2841,
    2821,
    2812,
    2809,
    2823,
    2796,
    2806,
    2780,
    2797,
    2805,
    2766,
    2703,
    2701,
    2745,
    2750,
    2726,
    2750,
    2747,
    2742,
    2722,
    2715,
    2721,
    2745,
    2703,
    2713,
    2699,
    2733,
    2688,
    2708,
    2680,
    2680,
    2624,
    2611,
    2654,
    2648,
    2683,
    2674,
    2625,
    2597,
    2617,
    2620,
    2601,
    2611,
    2603,
    2608,
    2657,
    2660,
    2689,
    2639,
    2616,
    2624,
    2634,
    2613,
    2639,
    2637,
    2626,
    2649,
    2653,
    2627,
    2609,
    2600,
    2620,
    2592,
    2627,
    2647,
    2620,
    2637,
    2655,
    2645,
    2612,
    2613,
    2568,
    2627,
    2617,
    2646,
    2610,
    2591,
    2624,
    2671,
    2624,
    2601,
    2606,
    2609,
    2631,
    2607,
    2670,
    2639,
    2625,
    2627,
    2626,
    2602,
    2624,
    2632,
    2621,
    2600,
    2618,
    2590,
    2612,
    2640,
    2634,
    2620,
    2620,
    2609,
    2623,
    2615,
    2639,
    2616,
    2736,
    2608,
    2617,
    2607,
    2618,
    2618,
    2613,
    2618,
    2644,
    2596,
    2591,
    2621,
    2595,
    2621,
    2588,
    2613,
    2620,
    2628,
    2600,
    2614,
    2593,
    2590,
    2603,
    2629,
    2607,
    2579,
    2621,
    2649,
    2625,
    2665,
    2626,
    2629,
    2673,
    2665,
    2686,
    2679,
    2659,
    2645,
    2657,
    2695,
    2671,
    2642,
    2676,
    2646,
    2668,
    2693,
    2700,
    2658,
    2695,
    2696,
    2727,
    2717,
    2717,
    2672,
    2669,
    2687,
    2715,
    2663,
    2702,
    2682,
    2677,
    2680,
    2655,
    2684,
    2706,
    2722,
    2679,
    2692,
    2939,
    2729,
    2704,
    2757
   ],
   "WindowCenter": [
    732.0,
    731.0,
    730.0,
    730.0,
    729.0,
    729.0,
    729.0,
    729.0,
    730.0,
    730.0,
    730.0,
    729.0,
    729.0,
    729.0,
    730.0,
    730.0,
    730.0,
    730.0,
    730.0,
    729.0,
    729.0,
    729.0,
    729.0,
    729.0,
    729.0,
    729.0,
    729.0,
    730.0,
    729.0,
    729.0,
    728.0,
    728.0,
    728.0,
    728.0,
    729.0,
    729.0,
    729.0,
    729.0,
    728.0,
    728.0,
    728.0,
    728.0,
    728.0,
    728.0,
    728.0,
    728.0,
    728.0,
    729.0,
    729.0,
    729.0,
    728.0,
    728.0,
    728.0,
    728.0,
    729.0,
    728.0,
    728.0,
    727.0,
    728.0,
    728.0,
    729.0,
    728.0,
    727.0,
    728.0,
    729.0,
    729.0,
    729.0,
    729.0,
    728.0,
    729.0,
    728.0,
    729.0,
    729.0,
    729.0,
    729.0,
    729.0,
    729.0,
    728.0,
    728.0,
    728.0,
    729.0,
    729.0,
    729.0,
    729.0,
    729.0,
    729.0,
    729.0,
    729.0,
    729.0,
    728.0,
    729.0,
    729.0,
    728.0,
    729.0,
    729.0,
    728.0,
    728.0,
    729.0,
    729.0,
    729.0,
    728.0,
    728.0,
    727.0,
    727.0,
    727.0,
    727.0,
    727.0,
    727.0,
    727.0,
    727.0,
    728.0,
    727.0,
    727.0,
    728.0,
    727.0,
    727.0,
    727.0,
    727.0,
    726.0,
    727.0,
    727.0,
    727.0,
    727.0,
    727.0,
    728.0,
