{
 "AcquisitionMatrixPE": 100,
 "AcquisitionNumber": 1,
 "AcquisitionTime": "11:33:2.335000",
 "BandwidthPerPixelPhaseEncode": 18.519,
 "BaseResolution": 100,
 "BodyPartExamined": "BRAIN",
 "ConsistencyInfo": "N4_VE11C_LATEST_20160120",
 "ConversionSoftware": "dcm2niix",
 "ConversionSoftwareVersion": "v1.0.20180622 GCC4.9.2",
 "DerivedVendorReportedEchoSpacing": 0.000539986,
 "DeviceSerialNumber": "166078",
 "DwellTime": 2.1e-06,
 "EchoTime": 0.034,
 "EchoTrainLength": 100,
 "EffectiveEchoSpacing": 0.000539986,
 "FlipAngle": 90,
 "ImageOrientationPatientDICOM": [
  1,
  0,
  0,
  0,
  0.982287,
  -0.187381
 ],
 "ImageType": [
  "ORIGINAL",
  "PRIMARY",
  "M",
  "ND",
  "MOSAIC"
 ],
 "InPlanePhaseEncodingDirectionDICOM": "COL",
 "InstitutionAddress": "Street_StreetNo_Bei_Jing_District_CN_ZIP",
 "InstitutionName": "BeiJing_Normal_University",
 "InstitutionalDepartmentName": "Department",
 "MRAcquisitionType": "2D",
 "MagneticFieldStrength": 3,
 "Manufacturer": "Siemens",
 "ManufacturersModelName": "Prisma",
 "Modality": "MR",
 "MultibandAccelerationFactor": 3,
 "PartialFourier": 1,
 "PatientPosition": "HFS",
 "PercentPhaseFOV": 100,
 "PhaseEncodingDirection": "j-",
 "PhaseEncodingSteps": 100,
 "PhaseResolution": 1,
 "PixelBandwidth": 2380,
 "ProcedureStepDescription": "BNU_P2018_64CH_Zhen.ZongLei",
 "ProtocolName": "bold_100x100_s3_2x2x2_static_256",
 "PulseSequenceDetails": "%SiemensSeq%_ep2d_bold",
 "ReceiveCoilActiveElements": "HC1-7;NC1",
 "ReceiveCoilName": "HeadNeck_64",
 "ReconMatrixPE": 100,
 "RepetitionTime": 2,
 "SAR": 0.06884,
 "ScanOptions": "FS",
 "ScanningSequence": "EP",
 "SequenceName": "_epfid2d1_100",
 "SequenceVariant": "SK",
 "SeriesDescription": "bold_100x100_s3_2x2x2_static_256",
 "SeriesNumber": 4,
 "ShimSetting": [
  -5457,
  -11504,
  -1285,
  306,
  -53,
  -246,
  -125,
  39
 ],
 "SliceThickness": 2,
 "SliceTiming": [
  1.485,
  0,
  0.99,
  0.0825,
  1.0725,
  0.165,
  1.155,
  0.2475,
  1.2375,
  0.33,
  1.32,
  0.4125,
  1.4025,
  0.5775,
  1.5675,
  0.66,
  1.65,
  0.7425,
  1.7325,
  0.825,
  1.815,
  0.9075,
  1.8975,
  0.495,
  1.485,
  0,
  0.99,
  0.0825,
  1.0725,
  0.165,
  1.155,
  0.2475,
  1.2375,
  0.33,
  1.32,
  0.4125,
  1.4025,
  0.5775,
  1.5675,
  0.66,
  1.65,
  0.7425,
  1.7325,
  0.825,
  1.815,
  0.9075,
  1.8975,
  0.495,
  1.485,
  0,
  0.99,
  0.0825,
  1.0725,
  0.165,
  1.155,
  0.2475,
  1.2375,
  0.33,
  1.32,
  0.4125,
  1.4025,
  0.5775,
  1.5675,
  0.66,
  1.65,
  0.7425,
  1.7325,
  0.825,
  1.815,
  0.9075,
  1.8975,
  0.495
 ],
 "SoftwareVersions": "syngo_MR_E11",
 "SpacingBetweenSlices": 2,
 "StationName": "AWP166078",
 "TaskName": "imagenet",
 "TotalReadoutTime": 0.0534586,
 "TxRefAmp": 211.901,
 "dcmmeta_affine": [
  [
   -2.0,
   0.0,
   0.0,
   103.38983154296875
  ],
  [
   0.0,
   1.9645744562149048,
   -0.374762624502182,
   -78.19866943359375
  ],
  [
   0.0,
   0.374762624502182,
   1.9645744562149048,
   -100.270751953125
  ],
  [
   0.0,
   0.0,
   0.0,
   1.0
  ]
 ],
 "dcmmeta_reorient_transform": [
  [
   0.0,
   -1.0,
   0.0,
   99.0
  ],
  [
   1.0,
   0.0,
   0.0,
   0.0
  ],
  [
   0.0,
   0.0,
   1.0,
   0.0
  ],
  [
   0.0,
   0.0,
   0.0,
   1.0
  ]
 ],
 "dcmmeta_shape": [
  100,
  100,
  72,
  256
 ],
 "dcmmeta_slice_dim": 2,
 "dcmmeta_version": 0.6,
 "global": {
  "const": {
   "AcquisitionMatrix": [
    100,
    0,
    0,
    100
   ],
   "AngioFlag": "N",
   "BitsAllocated": 16,
   "BitsStored": 12,
   "BodyPartExamined": "BRAIN",
   "Columns": 900,
   "EchoNumbers": 1,
   "EchoTime": 34.0,
   "EchoTrainLength": 100,
   "FlipAngle": 90.0,
   "HighBit": 11,
   "ImageOrientationPatient": [
    1.0,
    0.0,
    0.0,
    0.0,
    0.98228725047307,
    -0.1873813159257
   ],
   "ImagePositionPatient": [
    -903.38983058929,
    -902.12400279698,
    86.735797553354
   ],
   "ImageType": [
    "ORIGINAL",
    "PRIMARY",
    "M",
    "ND",
    "MOSAIC"
   ],
   "ImagedNucleus": "1H",
   "ImagingFrequency": 123.257753,
   "InPlanePhaseEncodingDirection": "COL",
   "MRAcquisitionType": "2D",
   "MagneticFieldStrength": 3.0,
   "Manufacturer": "SIEMENS",
   "ManufacturerModelName": "Prisma",
   "Modality": "MR",
   "NumberOfAverages": 1.0,
   "NumberOfPhaseEncodingSteps": 100,
   "PercentPhaseFieldOfView": 100.0,
   "PercentSampling": 100.0,
   "PerformedProcedureStepStartTime": "111946.085000",
   "PhotometricInterpretation": "MONOCHROME2",
   "PixelBandwidth": 2380.0,
   "PixelRepresentation": 0,
   "PixelSpacing": [
    2.0,
    2.0
   ],
   "ProtocolName": "bold_100x100_s3_2x2x2_static_256",
   "RepetitionTime": 2000.0,
   "Rows": 900,
   "SAR": 0.06884001428517,
   "SamplesPerPixel": 1,
   "ScanOptions": "FS",
   "ScanningSequence": "EP",
   "SequenceName": "*epfid2d1_100",
   "SequenceVariant": "SK",
   "SeriesDescription": "bold_100x100_s3_2x2x2_static_256",
   "SeriesNumber": 4,
   "SeriesTime": "113305.065000",
   "SliceLocation": -83.841714675994,
   "SliceThickness": 2.0,
   "SmallestImagePixelValue": 0,
   "SoftwareVersions": "syngo MR E11",
   "SpacingBetweenSlices": 2.000000014055,
   "SpecificCharacterSet": "ISO_IR 100",
   "StudyID": "1",
   "StudyTime": "111945.951000",
   "TransmitCoilName": "Body",
   "VariableFlipAngleFlag": "N",
   "WindowCenterWidthExplanation": "Algo1",
   "dBdt": 0.0
  },
  "slices": {}
 },
 "time": {
  "samples": {
   "AcquisitionNumber": [
    1,
    2,
    3,
    4,
    5,
    6,
    7,
    8,
    9,
    10,
    11,
    12,
    13,
    14,
    15,
    16,
    17,
    18,
    19,
    20,
    21,
    22,
    23,
    24,
    25,
    26,
    27,
    28,
    29,
    30,
    31,
    32,
    33,
    34,
    35,
    36,
    37,
    38,
    39,
    40,
    41,
    42,
    43,
    44,
    45,
    46,
    47,
    48,
    49,
    50,
    51,
    52,
    53,
    54,
    55,
    56,
    57,
    58,
    59,
    60,
    61,
    62,
    63,
    64,
    65,
    66,
    67,
    68,
    69,
    70,
    71,
    72,
    73,
    74,
    75,
    76,
    77,
    78,
    79,
    80,
    81,
    82,
    83,
    84,
    85,
    86,
    87,
    88,
    89,
    90,
    91,
    92,
    93,
    94,
    95,
    96,
    97,
    98,
    99,
    100,
    101,
    102,
    103,
    104,
    105,
    106,
    107,
    108,
    109,
    110,
    111,
    112,
    113,
    114,
    115,
    116,
    117,
    118,
    119,
    120,
    121,
    122,
    123,
    124,
    125,
    126,
    127,
    128,
    129,
    130,
    131,
    132,
    133,
    134,
    135,
    136,
    137,
    138,
    139,
    140,
    141,
    142,
    143,
    144,
    145,
    146,
    147,
    148,
    149,
    150,
    151,
    152,
    153,
    154,
    155,
    156,
    157,
    158,
    159,
    160,
    161,
    162,
    163,
    164,
    165,
    166,
    167,
    168,
    169,
    170,
    171,
    172,
    173,
    174,
    175,
    176,
    177,
    178,
    179,
    180,
    181,
    182,
    183,
    184,
    185,
    186,
    187,
    188,
    189,
    190,
    191,
    192,
    193,
    194,
    195,
    196,
    197,
    198,
    199,
    200,
    201,
    202,
    203,
    204,
    205,
    206,
    207,
    208,
    209,
    210,
    211,
    212,
    213,
    214,
    215,
    216,
    217,
    218,
    219,
    220,
    221,
    222,
    223,
    224,
    225,
    226,
    227,
    228,
    229,
    230,
    231,
    232,
    233,
    234,
    235,
    236,
    237,
    238,
    239,
    240,
    241,
    242,
    243,
    244,
    245,
    246,
    247,
    248,
    249,
    250,
    251,
    252,
    253,
    254,
    255,
    256
   ],
   "AcquisitionTime": [
    "113302.335000",
    "113304.335000",
    "113306.335000",
    "113308.335000",
    "113310.335000",
    "113312.335000",
    "113314.335000",
    "113316.335000",
    "113318.335000",
    "113320.335000",
    "113322.335000",
    "113324.335000",
    "113326.335000",
    "113328.335000",
    "113330.335000",
    "113332.335000",
    "113334.335000",
    "113336.335000",
    "113338.335000",
    "113340.335000",
    "113342.335000",
    "113344.335000",
    "113346.335000",
    "113348.335000",
    "113350.335000",
    "113352.335000",
    "113354.335000",
    "113356.335000",
    "113358.335000",
    "113400.335000",
    "113402.335000",
    "113404.335000",
    "113406.335000",
    "113408.335000",
    "113410.335000",
    "113412.335000",
    "113414.335000",
    "113416.335000",
    "113418.335000",
    "113420.335000",
    "113422.335000",
    "113424.335000",
    "113426.335000",
    "113428.335000",
    "113430.335000",
    "113432.335000",
    "113434.335000",
    "113436.335000",
    "113438.335000",
    "113440.335000",
    "113442.335000",
    "113444.335000",
    "113446.335000",
    "113448.335000",
    "113450.335000",
    "113452.335000",
    "113454.335000",
    "113456.335000",
    "113458.335000",
    "113500.335000",
    "113502.335000",
    "113504.335000",
    "113506.335000",
    "113508.335000",
    "113510.335000",
    "113512.335000",
    "113514.335000",
    "113516.335000",
    "113518.335000",
    "113520.335000",
    "113522.335000",
    "113524.335000",
    "113526.335000",
    "113528.335000",
    "113530.335000",
    "113532.335000",
    "113534.335000",
    "113536.335000",
    "113538.335000",
    "113540.335000",
    "113542.335000",
    "113544.335000",
    "113546.335000",
    "113548.335000",
    "113550.335000",
    "113552.335000",
    "113554.335000",
    "113556.335000",
    "113558.335000",
    "113600.335000",
    "113602.335000",
    "113604.335000",
    "113606.335000",
    "113608.335000",
    "113610.335000",
    "113612.335000",
    "113614.335000",
    "113616.335000",
    "113618.335000",
    "113620.335000",
    "113622.335000",
    "113624.335000",
    "113626.335000",
    "113628.335000",
    "113630.335000",
    "113632.335000",
    "113634.335000",
    "113636.335000",
    "113638.335000",
    "113640.335000",
    "113642.335000",
    "113644.335000",
    "113646.335000",
    "113648.335000",
    "113650.335000",
    "113652.335000",
    "113654.335000",
    "113656.335000",
    "113658.335000",
    "113700.335000",
    "113702.335000",
    "113704.335000",
    "113706.335000",
    "113708.335000",
    "113710.335000",
    "113712.335000",
    "113714.335000",
    "113716.335000",
    "113718.335000",
    "113720.335000",
    "113722.335000",
    "113724.335000",
    "113726.335000",
    "113728.335000",
    "113730.335000",
    "113732.335000",
    "113734.335000",
    "113736.335000",
    "113738.335000",
    "113740.335000",
    "113742.335000",
    "113744.335000",
    "113746.335000",
    "113748.335000",
    "113750.335000",
    "113752.335000",
    "113754.335000",
    "113756.335000",
    "113758.335000",
    "113800.335000",
    "113802.335000",
    "113804.335000",
    "113806.335000",
    "113808.335000",
    "113810.335000",
    "113812.335000",
    "113814.335000",
    "113816.335000",
    "113818.335000",
    "113820.335000",
    "113822.335000",
    "113824.335000",
    "113826.335000",
    "113828.335000",
    "113830.335000",
    "113832.335000",
    "113834.335000",
    "113836.335000",
    "113838.335000",
    "113840.335000",
    "113842.335000",
    "113844.335000",
    "113846.335000",
    "113848.335000",
    "113850.335000",
    "113852.335000",
    "113854.335000",
    "113856.335000",
    "113858.335000",
    "113900.335000",
    "113902.335000",
    "113904.335000",
    "113906.335000",
    "113908.335000",
    "113910.335000",
    "113912.335000",
    "113914.335000",
    "113916.335000",
    "113918.335000",
    "113920.335000",
    "113922.335000",
    "113924.335000",
    "113926.335000",
    "113928.335000",
    "113930.335000",
    "113932.335000",
    "113934.335000",
    "113936.335000",
    "113938.335000",
    "113940.335000",
    "113942.335000",
    "113944.335000",
    "113946.335000",
    "113948.335000",
    "113950.335000",
    "113952.335000",
    "113954.335000",
    "113956.335000",
    "113958.335000",
    "114000.335000",
    "114002.335000",
    "114004.335000",
    "114006.335000",
    "114008.335000",
    "114010.335000",
    "114012.335000",
    "114014.335000",
    "114016.335000",
    "114018.335000",
    "114020.335000",
    "114022.335000",
    "114024.335000",
    "114026.335000",
    "114028.335000",
    "114030.335000",
    "114032.335000",
    "114034.335000",
    "114036.335000",
    "114038.335000",
    "114040.335000",
    "114042.335000",
    "114044.335000",
    "114046.335000",
    "114048.335000",
    "114050.335000",
    "114052.335000",
    "114054.335000",
    "114056.335000",
    "114058.335000",
    "114100.335000",
    "114102.335000",
    "114104.335000",
    "114106.335000",
    "114108.335000",
    "114110.335000",
    "114112.335000",
    "114114.335000",
    "114116.335000",
    "114118.335000",
    "114120.335000",
    "114122.335000",
    "114124.335000",
    "114126.335000",
    "114128.335000",
    "114130.335000",
    "114132.335000"
   ],
   "ContentTime": [
    "113305.069000",
    "113306.564000",
    "113308.564000",
    "113310.565000",
    "113312.563000",
    "113314.564000",
    "113316.564000",
    "113318.563000",
    "113320.564000",
    "113322.564000",
    "113324.564000",
    "113326.564000",
    "113328.564000",
    "113330.564000",
    "113332.564000",
    "113334.563000",
    "113336.563000",
    "113338.564000",
    "113340.565000",
    "113342.564000",
    "113344.565000",
    "113346.565000",
    "113348.563000",
    "113350.564000",
    "113352.563000",
    "113354.563000",
    "113356.563000",
    "113358.565000",
    "113400.564000",
    "113402.565000",
    "113404.564000",
    "113406.564000",
    "113408.564000",
    "113410.563000",
    "113412.564000",
    "113414.565000",
    "113416.565000",
    "113418.565000",
    "113420.564000",
    "113422.563000",
    "113424.563000",
    "113426.564000",
    "113428.563000",
    "113430.563000",
    "113432.564000",
    "113434.564000",
    "113436.564000",
    "113438.564000",
    "113440.564000",
    "113442.564000",
    "113444.563000",
    "113446.563000",
    "113448.563000",
    "113450.565000",
    "113452.564000",
    "113454.564000",
    "113456.565000",
    "113458.564000",
    "113500.563000",
    "113502.564000",
    "113504.564000",
    "113506.564000",
    "113508.564000",
    "113510.564000",
    "113512.565000",
    "113514.565000",
    "113516.564000",
    "113518.564000",
    "113520.563000",
    "113522.563000",
    "113524.564000",
    "113526.564000",
    "113528.564000",
    "113530.564000",
    "113532.563000",
    "113534.563000",
    "113536.563000",
    "113538.563000",
    "113540.564000",
    "113542.565000",
    "113544.565000",
    "113546.564000",
    "113548.564000",
    "113550.563000",
    "113552.563000",
    "113554.564000",
    "113556.563000",
    "113558.564000",
    "113600.564000",
    "113602.565000",
    "113604.564000",
    "113606.565000",
    "113608.564000",
    "113610.563000",
    "113612.564000",
    "113614.563000",
    "113616.563000",
    "113618.564000",
    "113620.564000",
    "113622.564000",
    "113624.565000",
    "113626.564000",
    "113628.564000",
    "113630.563000",
    "113632.564000",
    "113634.565000",
    "113636.565000",
    "113638.565000",
    "113640.565000",
    "113642.563000",
    "113644.564000",
    "113646.563000",
    "113648.563000",
    "113650.563000",
    "113652.564000",
    "113654.565000",
    "113656.565000",
    "113658.565000",
    "113700.563000",
    "113702.563000",
    "113704.563000",
    "113706.563000",
    "113708.563000",
    "113710.565000",
    "113712.564000",
    "113714.564000",
    "113716.565000",
    "113718.563000",
    "113720.563000",
    "113722.564000",
    "113724.563000",
    "113726.563000",
    "113728.564000",
    "113730.564000",
    "113732.565000",
    "113734.565000",
    "113736.564000",
    "113738.563000",
    "113740.563000",
    "113742.563000",
    "113744.564000",
    "113746.565000",
    "113748.565000",
    "113750.565000",
    "113752.563000",
    "113754.564000",
    "113756.564000",
    "113758.564000",
    "113800.564000",
    "113802.565000",
    "113804.564000",
    "113806.564000",
    "113808.564000",
    "113810.564000",
    "113812.564000",
    "113814.564000",
    "113816.563000",
    "113818.563000",
    "113820.564000",
    "113822.565000",
    "113824.565000",
    "113826.565000",
    "113828.564000",
    "113830.563000",
    "113832.563000",
    "113834.571000",
    "113836.565000",
    "113838.565000",
    "113840.564000",
    "113842.564000",
    "113844.565000",
    "113846.563000",
    "113848.563000",
    "113850.564000",
    "113852.563000",
    "113854.564000",
    "113856.564000",
    "113858.565000",
    "113900.564000",
    "113902.564000",
    "113904.564000",
    "113906.564000",
    "113908.564000",
    "113910.563000",
    "113912.564000",
    "113914.564000",
    "113916.565000",
    "113918.565000",
    "113920.563000",
    "113922.564000",
    "113924.564000",
    "113926.564000",
    "113928.563000",
    "113930.565000",
    "113932.565000",
    "113934.565000",
    "113936.564000",
    "113938.564000",
    "113940.564000",
    "113942.564000",
    "113944.564000",
    "113946.565000",
    "113948.565000",
    "113950.565000",
    "113952.564000",
    "113954.565000",
    "113956.563000",
    "113958.564000",
    "114000.563000",
    "114002.564000",
    "114004.564000",
    "114006.564000",
    "114008.565000",
    "114010.565000",
    "114012.564000",
    "114014.564000",
    "114016.563000",
    "114018.564000",
    "114020.564000",
    "114022.564000",
    "114024.565000",
    "114026.565000",
    "114028.564000",
    "114030.564000",
    "114032.564000",
    "114034.564000",
    "114036.564000",
    "114038.563000",
    "114040.564000",
    "114042.564000",
    "114044.565000",
    "114046.565000",
    "114048.564000",
    "114050.564000",
    "114052.564000",
    "114054.564000",
    "114056.564000",
    "114058.564000",
    "114100.565000",
    "114102.565000",
    "114104.565000",
    "114106.564000",
    "114108.564000",
    "114110.564000",
    "114112.563000",
    "114114.564000",
    "114116.564000",
    "114118.565000",
    "114120.565000",
    "114122.563000",
    "114124.563000",
    "114126.564000",
    "114128.564000",
    "114130.564000",
    "114132.565000",
    "114134.273000"
   ],
   "InstanceCreationTime": [
    "113305.069000",
    "113306.564000",
    "113308.564000",
    "113310.565000",
    "113312.563000",
    "113314.564000",
    "113316.564000",
    "113318.563000",
    "113320.564000",
    "113322.564000",
    "113324.564000",
    "113326.564000",
    "113328.564000",
    "113330.564000",
    "113332.564000",
    "113334.563000",
    "113336.563000",
    "113338.564000",
    "113340.565000",
    "113342.564000",
    "113344.565000",
    "113346.565000",
    "113348.563000",
    "113350.564000",
    "113352.563000",
    "113354.563000",
    "113356.563000",
    "113358.565000",
    "113400.564000",
    "113402.565000",
    "113404.564000",
    "113406.564000",
    "113408.564000",
    "113410.563000",
    "113412.564000",
    "113414.565000",
    "113416.565000",
    "113418.565000",
    "113420.564000",
    "113422.563000",
    "113424.563000",
    "113426.564000",
    "113428.563000",
    "113430.563000",
    "113432.564000",
    "113434.564000",
    "113436.564000",
    "113438.564000",
    "113440.564000",
    "113442.564000",
    "113444.563000",
    "113446.563000",
    "113448.563000",
    "113450.565000",
    "113452.564000",
    "113454.564000",
    "113456.565000",
    "113458.564000",
    "113500.563000",
    "113502.564000",
    "113504.564000",
    "113506.564000",
    "113508.564000",
    "113510.564000",
    "113512.565000",
    "113514.565000",
    "113516.564000",
    "113518.564000",
    "113520.563000",
    "113522.563000",
    "113524.564000",
    "113526.564000",
    "113528.564000",
    "113530.564000",
    "113532.563000",
    "113534.563000",
    "113536.563000",
    "113538.563000",
    "113540.564000",
    "113542.565000",
    "113544.565000",
    "113546.564000",
    "113548.564000",
    "113550.563000",
    "113552.563000",
    "113554.564000",
    "113556.563000",
    "113558.564000",
    "113600.564000",
    "113602.565000",
    "113604.564000",
    "113606.565000",
    "113608.564000",
    "113610.563000",
    "113612.564000",
    "113614.563000",
    "113616.563000",
    "113618.564000",
    "113620.564000",
    "113622.564000",
    "113624.565000",
    "113626.564000",
    "113628.564000",
    "113630.563000",
    "113632.564000",
    "113634.565000",
    "113636.565000",
    "113638.565000",
    "113640.565000",
    "113642.563000",
    "113644.564000",
    "113646.563000",
    "113648.563000",
    "113650.563000",
    "113652.564000",
    "113654.565000",
    "113656.565000",
    "113658.565000",
    "113700.563000",
    "113702.563000",
    "113704.563000",
    "113706.563000",
    "113708.563000",
    "113710.565000",
    "113712.564000",
    "113714.564000",
    "113716.565000",
    "113718.563000",
    "113720.563000",
    "113722.564000",
    "113724.563000",
    "113726.563000",
    "113728.564000",
    "113730.564000",
    "113732.565000",
    "113734.565000",
    "113736.564000",
    "113738.563000",
    "113740.563000",
    "113742.563000",
    "113744.564000",
    "113746.565000",
    "113748.565000",
    "113750.565000",
    "113752.563000",
    "113754.564000",
    "113756.564000",
    "113758.564000",
    "113800.564000",
    "113802.565000",
    "113804.564000",
    "113806.564000",
    "113808.564000",
    "113810.564000",
    "113812.564000",
    "113814.564000",
    "113816.563000",
    "113818.563000",
    "113820.564000",
    "113822.565000",
    "113824.565000",
    "113826.565000",
    "113828.564000",
    "113830.563000",
    "113832.563000",
    "113834.571000",
    "113836.565000",
    "113838.565000",
    "113840.564000",
    "113842.564000",
    "113844.565000",
    "113846.563000",
    "113848.563000",
    "113850.564000",
    "113852.563000",
    "113854.564000",
    "113856.564000",
    "113858.565000",
    "113900.564000",
    "113902.564000",
    "113904.564000",
    "113906.564000",
    "113908.564000",
    "113910.563000",
    "113912.564000",
    "113914.564000",
    "113916.565000",
    "113918.565000",
    "113920.563000",
    "113922.564000",
    "113924.564000",
    "113926.564000",
    "113928.563000",
    "113930.565000",
    "113932.565000",
    "113934.565000",
    "113936.564000",
    "113938.564000",
    "113940.564000",
    "113942.564000",
    "113944.564000",
    "113946.565000",
    "113948.565000",
    "113950.565000",
    "113952.564000",
    "113954.565000",
    "113956.563000",
    "113958.564000",
    "114000.563000",
    "114002.564000",
    "114004.564000",
    "114006.564000",
    "114008.565000",
    "114010.565000",
    "114012.564000",
    "114014.564000",
    "114016.563000",
    "114018.564000",
    "114020.564000",
    "114022.564000",
    "114024.565000",
    "114026.565000",
    "114028.564000",
    "114030.564000",
    "114032.564000",
    "114034.564000",
    "114036.564000",
    "114038.563000",
    "114040.564000",
    "114042.564000",
    "114044.565000",
    "114046.565000",
    "114048.564000",
    "114050.564000",
    "114052.564000",
    "114054.564000",
    "114056.564000",
    "114058.564000",
    "114100.565000",
    "114102.565000",
    "114104.565000",
    "114106.564000",
    "114108.564000",
    "114110.564000",
    "114112.563000",
    "114114.564000",
    "114116.564000",
    "114118.565000",
    "114120.565000",
    "114122.563000",
    "114124.563000",
    "114126.564000",
    "114128.564000",
    "114130.564000",
    "114132.565000",
    "114134.273000"
   ],
   "InstanceNumber": [
    1,
    2,
    3,
    4,
    5,
    6,
    7,
    8,
    9,
    10,
    11,
    12,
    13,
    14,
    15,
    16,
    17,
    18,
    19,
    20,
    21,
    22,
    23,
    24,
    25,
    26,
    27,
    28,
    29,
    30,
    31,
    32,
    33,
    34,
    35,
    36,
    37,
    38,
    39,
    40,
    41,
    42,
    43,
    44,
    45,
    46,
    47,
    48,
    49,
    50,
    51,
    52,
    53,
    54,
    55,
    56,
    57,
    58,
    59,
    60,
    61,
    62,
    63,
    64,
    65,
    66,
    67,
    68,
    69,
    70,
    71,
    72,
    73,
    74,
    75,
    76,
    77,
    78,
    79,
    80,
    81,
    82,
    83,
    84,
    85,
    86,
    87,
    88,
    89,
    90,
    91,
    92,
    93,
    94,
    95,
    96,
    97,
    98,
    99,
    100,
    101,
    102,
    103,
    104,
    105,
    106,
    107,
    108,
    109,
    110,
    111,
    112,
    113,
    114,
    115,
    116,
    117,
    118,
    119,
    120,
    121,
    122,
    123,
    124,
    125,
    126,
    127,
    128,
    129,
    130,
    131,
    132,
    133,
    134,
    135,
    136,
    137,
    138,
    139,
    140,
    141,
    142,
    143,
    144,
    145,
    146,
    147,
    148,
    149,
    150,
    151,
    152,
    153,
    154,
    155,
    156,
    157,
    158,
    159,
    160,
    161,
    162,
    163,
    164,
    165,
    166,
    167,
    168,
    169,
    170,
    171,
    172,
    173,
    174,
    175,
    176,
    177,
    178,
    179,
    180,
    181,
    182,
    183,
    184,
    185,
    186,
    187,
    188,
    189,
    190,
    191,
    192,
    193,
    194,
    195,
    196,
    197,
    198,
    199,
    200,
    201,
    202,
    203,
    204,
    205,
    206,
    207,
    208,
    209,
    210,
    211,
    212,
    213,
    214,
    215,
    216,
    217,
    218,
    219,
    220,
    221,
    222,
    223,
    224,
    225,
    226,
    227,
    228,
    229,
    230,
    231,
    232,
    233,
    234,
    235,
    236,
    237,
    238,
    239,
    240,
    241,
    242,
    243,
    244,
    245,
    246,
    247,
    248,
    249,
    250,
    251,
    252,
    253,
    254,
    255,
    256
   ],
   "LargestImagePixelValue": [
    2926,
    2866,
    2823,
    2803,
    2832,
    2797,
    2801,
    2734,
    2789,
    2785,
    2735,
    2793,
    2759,
    2765,
    2743,
    2743,
    2794,
    2764,
    2756,
    2749,
    2767,
    2736,
    2697,
    2688,
    2694,
    2680,
    2689,
    2687,
    2687,
    2717,
    2701,
    2674,
    2670,
    2694,
    2674,
    2664,
    2664,
    2674,
    2672,
    2675,
    2673,
    2715,
    2723,
    2686,
    2704,
    2690,
    2722,
    2688,
    2691,
    2707,
    2727,
    2690,
    2702,
    2711,
    2742,
    2754,
    2745,
    2769,
    2790,
    2805,
    2800,
    2829,
    2825,
    2802,
    2807,
    2810,
    2786,
    2793,
    2780,
    2732,
    2723,
    2736,
    2728,
    2739,
    2714,
    2765,
    2735,
    2704,
    2748,
    2736,
    2728,
    2735,
    2733,
    2722,
    2709,
    2720,
    2697,
    2700,
    2681,
    2752,
    2739,
    2678,
    2681,
    2707,
    2679,
    2752,
    2695,
    2727,
    2715,
    2709,
    2725,
    2669,
    2675,
    2673,
    2674,
    2641,
    2630,
    2700,
    2688,
    2667,
    2670,
    2679,
    2648,
    2676,
    2702,
    2681,
    2655,
    2710,
    2663,
    2680,
    2684,
    2668,
    2710,
    2682,
    2661,
    2671,
    2617,
    2642,
    2658,
    2720,
    2715,
    2760,
    2716,
    2691,
    2729,
    2787,
    2716,
    2744,
    2689,
    2717,
    2711,
    2731,
    2701,
    2771,
    2740,
    2814,
    2805,
    2777,
    2798,
    2766,
    2767,
    2705,
    2777,
    2737,
    2731,
    2739,
    2732,
    2734,
    2694,
    2705,
    2690,
    2709,
    2765,
    2724,
    2704,
    2700,
    2669,
    2698,
    2629,
    2687,
    2681,
    2686,
    2701,
    2695,
    2690,
    2663,
    2659,
    2654,
    2601,
    2672,
    2649,
    2689,
    2669,
    2683,
    2711,
    2743,
    2696,
    2684,
    2640,
    2653,
    2676,
    2635,
    2618,
    2650,
    2622,
    2670,
    2645,
    2689,
    2656,
    2678,
    2621,
    2613,
    2620,
    2646,
    2675,
    2710,
    2637,
    2641,
    2721,
    2689,
    2668,
    2611,
    2630,
    2691,
    2648,
    2616,
    2632,
    2645,
    2643,
    2655,
    2656,
    2652,
    2661,
    2640,
    2617,
    2644,
    2663,
    2653,
    2662,
    2690,
    2661,
    2647,
    2620,
    2698,
    2642,
    2654,
    2579,
    2638,
    2623,
    2630,
    2618,
    2873,
    2641,
    2651,
    2628,
    2635,
    2635,
    2642,
    2631,
    2587,
    2617,
    2597,
    2583,
    2961,
    2722,
    2582
   ],
   "WindowCenter": [
    727.0,
    725.0,
    725.0,
    725.0,
    725.0,
    725.0,
    724.0,
    723.0,
    724.0,
    724.0,
    724.0,
    726.0,
    725.0,
    724.0,
    724.0,
    724.0,
    725.0,
    725.0,
    725.0,
    724.0,
    724.0,
    723.0,
    723.0,
    723.0,
    723.0,
    723.0,
    723.0,
    723.0,
    723.0,
    723.0,
    723.0,
    723.0,
    723.0,
    723.0,
    723.0,
    723.0,
    723.0,
    722.0,
    722.0,
    723.0,
    723.0,
    723.0,
    723.0,
    723.0,
    723.0,
    724.0,
    724.0,
    722.0,
    723.0,
    723.0,
    724.0,
    723.0,
    723.0,
    724.0,
    724.0,
    724.0,
    724.0,
    725.0,
    725.0,
    725.0,
    725.0,
    725.0,
    725.0,
    725.0,
    725.0,
    725.0,
    724.0,
    723.0,
    723.0,
    723.0,
    723.0,
    724.0,
    724.0,
    724.0,
    723.0,
    724.0,
    723.0,
    723.0,
    723.0,
    722.0,
    722.0,
    723.0,
    724.0,
    724.0,
    723.0,
    723.0,
    722.0,
    722.0,
    722.0,
    723.0,
    723.0,
    723.0,
    722.0,
    722.0,
    723.0,
    723.0,
    723.0,
    723.0,
    723.0,
    723.0,
    723.0,
    723.0,
    723.0,
    723.0,
    723.0,
    722.0,
    723.0,
    724.0,
    724.0,
    724.0,
    724.0,
    723.0,
    723.0,
    722.0,
    722.0,
    722.0,
    723.0,
    724.0,
    724.0,
    723.0,
    723.0,
    722.0,
    723.0,
    723.0,
    724.0,
