{
 "AcquisitionMatrixPE": 100,
 "AcquisitionNumber": 1,
 "AcquisitionTime": "14:01:8.907500",
 "BandwidthPerPixelPhaseEncode": 18.519,
 "BaseResolution": 100,
 "BodyPartExamined": "BRAIN",
 "ConsistencyInfo": "N4_VE11C_LATEST_20160120",
 "ConversionSoftware": "dcm2niix",
 "ConversionSoftwareVersion": "v1.0.20180622 GCC4.9.2",
 "DerivedVendorReportedEchoSpacing": 0.000539986,
 "DeviceSerialNumber": "166078",
 "DwellTime": 2.1e-06,
 "EchoTime": 0.034,
 "EchoTrainLength": 100,
 "EffectiveEchoSpacing": 0.000539986,
 "FlipAngle": 90,
 "ImageOrientationPatientDICOM": [
  1,
  0,
  0,
  0,
  0.965926,
  -0.258819
 ],
 "ImageType": [
  "ORIGINAL",
  "PRIMARY",
  "M",
  "ND",
  "MOSAIC"
 ],
 "InPlanePhaseEncodingDirectionDICOM": "COL",
 "InstitutionAddress": "Street_StreetNo_Bei_Jing_District_CN_ZIP",
 "InstitutionName": "BeiJing_Normal_University",
 "InstitutionalDepartmentName": "Department",
 "MRAcquisitionType": "2D",
 "MagneticFieldStrength": 3,
 "Manufacturer": "Siemens",
 "ManufacturersModelName": "Prisma",
 "Modality": "MR",
 "MultibandAccelerationFactor": 3,
 "PartialFourier": 1,
 "PatientPosition": "HFS",
 "PercentPhaseFOV": 100,
 "PhaseEncodingDirection": "j-",
 "PhaseEncodingSteps": 100,
 "PhaseResolution": 1,
 "PixelBandwidth": 2380,
 "ProcedureStepDescription": "BNU_P2018_64CH_Zhen.ZongLei",
 "ProtocolName": "bold_100x100_s3_2x2x2_cat_150",
 "PulseSequenceDetails": "%SiemensSeq%_ep2d_bold",
 "ReceiveCoilActiveElements": "HC1-7;NC1",
 "ReceiveCoilName": "HeadNeck_64",
 "ReconMatrixPE": 100,
 "RepetitionTime": 2,
 "SAR": 0.0731478,
 "ScanOptions": "FS",
 "ScanningSequence": "EP",
 "SequenceName": "_epfid2d1_100",
 "SequenceVariant": "SK",
 "SeriesDescription": "bold_100x100_s3_2x2x2_cat_150",
 "SeriesNumber": 13,
 "ShimSetting": [
  -5457,
  -11469,
  -1286,
  302,
  -33,
  -169,
  -225,
  82
 ],
 "SliceThickness": 2,
 "SliceTiming": [
  1.485,
  0,
  0.99,
  0.0825,
  1.0725,
  0.165,
  1.155,
  0.2475,
  1.2375,
  0.33,
  1.32,
  0.4125,
  1.4025,
  0.5775,
  1.5675,
  0.66,
  1.65,
  0.7425,
  1.7325,
  0.825,
  1.815,
  0.9075,
  1.8975,
  0.495,
  1.485,
  0,
  0.99,
  0.0825,
  1.0725,
  0.165,
  1.155,
  0.2475,
  1.2375,
  0.33,
  1.32,
  0.4125,
  1.4025,
  0.5775,
  1.5675,
  0.66,
  1.65,
  0.7425,
  1.7325,
  0.825,
  1.815,
  0.9075,
  1.8975,
  0.495,
  1.485,
  0,
  0.99,
  0.0825,
  1.0725,
  0.165,
  1.155,
  0.2475,
  1.2375,
  0.33,
  1.32,
  0.4125,
  1.4025,
  0.5775,
  1.5675,
  0.66,
  1.65,
  0.7425,
  1.7325,
  0.825,
  1.815,
  0.9075,
  1.8975,
  0.495
 ],
 "SoftwareVersions": "syngo_MR_E11",
 "SpacingBetweenSlices": 2,
 "StationName": "AWP166078",
 "TaskName": "floc",
 "TotalReadoutTime": 0.0534586,
 "TxRefAmp": 229.519,
 "dcmmeta_affine": [
  [
   -2.0,
   0.0,
   0.0,
   100.0
  ],
  [
   0.0,
   1.9318516254425049,
   -0.5176380276679993,
   -73.80265045166016
  ],
  [
   0.0,
   0.517638087272644,
   1.9318516254425049,
   -89.45343017578125
  ],
  [
   0.0,
   0.0,
   0.0,
   1.0
  ]
 ],
 "dcmmeta_reorient_transform": [
  [
   0.0,
   -1.0,
   0.0,
   99.0
  ],
  [
   1.0,
   0.0,
   0.0,
   0.0
  ],
  [
   0.0,
   0.0,
   1.0,
   0.0
  ],
  [
   0.0,
   0.0,
   0.0,
   1.0
  ]
 ],
 "dcmmeta_shape": [
  100,
  100,
  72,
  150
 ],
 "dcmmeta_slice_dim": 2,
 "dcmmeta_version": 0.6,
 "global": {
  "const": {
   "AcquisitionMatrix": [
    100,
    0,
    0,
    100
   ],
   "AngioFlag": "N",
   "BitsAllocated": 16,
   "BitsStored": 12,
   "BodyPartExamined": "BRAIN",
   "Columns": 900,
   "EchoNumbers": 1,
   "EchoTime": 34.0,
   "EchoTrainLength": 100,
   "FlipAngle": 90.0,
   "HighBit": 11,
   "ImageOrientationPatient": [
    1.0,
    0.0,
    0.0,
    0.0,
    0.9659258278573,
    -0.2588190392498
   ],
   "ImagePositionPatient": [
    -900.0,
    -890.19132498185,
    168.84797059094
   ],
   "ImageType": [
    "ORIGINAL",
    "PRIMARY",
    "M",
    "ND",
    "MOSAIC"
   ],
   "ImagedNucleus": "1H",
   "ImagingFrequency": 123.257755,
   "InPlanePhaseEncodingDirection": "COL",
   "MRAcquisitionType": "2D",
   "MagneticFieldStrength": 3.0,
   "Manufacturer": "SIEMENS",
   "ManufacturerModelName": "Prisma",
   "Modality": "MR",
   "NumberOfAverages": 1.0,
   "NumberOfPhaseEncodingSteps": 100,
   "PercentPhaseFieldOfView": 100.0,
   "PercentSampling": 100.0,
   "PerformedProcedureStepStartTime": "130450.942000",
   "PhotometricInterpretation": "MONOCHROME2",
   "PixelBandwidth": 2380.0,
   "PixelRepresentation": 0,
   "PixelSpacing": [
    2.0,
    2.0
   ],
   "ProtocolName": "bold_100x100_s3_2x2x2_cat_150",
   "RepetitionTime": 2000.0,
   "Rows": 900,
   "SAR": 0.07314783889416,
   "SamplesPerPixel": 1,
   "ScanOptions": "FS",
   "ScanningSequence": "EP",
   "SequenceName": "*epfid2d1_100",
   "SequenceVariant": "SK",
   "SeriesDescription": "bold_100x100_s3_2x2x2_cat_150",
   "SeriesNumber": 13,
   "SeriesTime": "140111.469000",
   "SliceLocation": -67.303847705236,
   "SliceThickness": 2.0,
   "SmallestImagePixelValue": 0,
   "SoftwareVersions": "syngo MR E11",
   "SpacingBetweenSlices": 1.9999999109673,
   "SpecificCharacterSet": "ISO_IR 100",
   "StudyID": "1",
   "StudyTime": "130450.828000",
   "TransmitCoilName": "Body",
   "VariableFlipAngleFlag": "N",
   "WindowCenterWidthExplanation": "Algo1",
   "dBdt": 0.0
  },
  "slices": {}
 },
 "time": {
  "samples": {
   "AcquisitionNumber": [
    1,
    2,
    3,
    4,
    5,
    6,
    7,
    8,
    9,
    10,
    11,
    12,
    13,
    14,
    15,
    16,
    17,
    18,
    19,
    20,
    21,
    22,
    23,
    24,
    25,
    26,
    27,
    28,
    29,
    30,
    31,
    32,
    33,
    34,
    35,
    36,
    37,
    38,
    39,
    40,
    41,
    42,
    43,
    44,
    45,
    46,
    47,
    48,
    49,
    50,
    51,
    52,
    53,
    54,
    55,
    56,
    57,
    58,
    59,
    60,
    61,
    62,
    63,
    64,
    65,
    66,
    67,
    68,
    69,
    70,
    71,
    72,
    73,
    74,
    75,
    76,
    77,
    78,
    79,
    80,
    81,
    82,
    83,
    84,
    85,
    86,
    87,
    88,
    89,
    90,
    91,
    92,
    93,
    94,
    95,
    96,
    97,
    98,
    99,
    100,
    101,
    102,
    103,
    104,
    105,
    106,
    107,
    108,
    109,
    110,
    111,
    112,
    113,
    114,
    115,
    116,
    117,
    118,
    119,
    120,
    121,
    122,
    123,
    124,
    125,
    126,
    127,
    128,
    129,
    130,
    131,
    132,
    133,
    134,
    135,
    136,
    137,
    138,
    139,
    140,
    141,
    142,
    143,
    144,
    145,
    146,
    147,
    148,
    149,
    150
   ],
   "AcquisitionTime": [
    "140108.907500",
    "140110.907500",
    "140112.907500",
    "140114.907500",
    "140116.907500",
    "140118.907500",
    "140120.907500",
    "140122.907500",
    "140124.907500",
    "140126.907500",
    "140128.907500",
    "140130.907500",
    "140132.907500",
    "140134.907500",
    "140136.907500",
    "140138.907500",
    "140140.907500",
    "140142.907500",
    "140144.907500",
    "140146.907500",
    "140148.907500",
    "140150.907500",
    "140152.907500",
    "140154.907500",
    "140156.907500",
    "140158.907500",
    "140200.907500",
    "140202.907500",
    "140204.907500",
    "140206.907500",
    "140208.907500",
    "140210.907500",
    "140212.907500",
    "140214.907500",
    "140216.907500",
    "140218.907500",
    "140220.907500",
    "140222.907500",
    "140224.907500",
    "140226.907500",
    "140228.907500",
    "140230.907500",
    "140232.907500",
    "140234.907500",
    "140236.907500",
    "140238.907500",
    "140240.907500",
    "140242.907500",
    "140244.907500",
    "140246.907500",
    "140248.907500",
    "140250.907500",
    "140252.907500",
    "140254.907500",
    "140256.907500",
    "140258.907500",
    "140300.907500",
    "140302.907500",
    "140304.907500",
    "140306.907500",
    "140308.907500",
    "140310.907500",
    "140312.907500",
    "140314.907500",
    "140316.907500",
    "140318.907500",
    "140320.907500",
    "140322.907500",
    "140324.907500",
    "140326.907500",
    "140328.907500",
    "140330.907500",
    "140332.907500",
    "140334.907500",
    "140336.907500",
    "140338.907500",
    "140340.907500",
    "140342.907500",
    "140344.907500",
    "140346.907500",
    "140348.907500",
    "140350.907500",
    "140352.907500",
    "140354.907500",
    "140356.907500",
    "140358.907500",
    "140400.907500",
    "140402.907500",
    "140404.907500",
    "140406.907500",
    "140408.907500",
    "140410.907500",
    "140412.907500",
    "140414.907500",
    "140416.907500",
    "140418.907500",
    "140420.907500",
    "140422.907500",
    "140424.907500",
    "140426.907500",
    "140428.907500",
    "140430.907500",
    "140432.907500",
    "140434.907500",
    "140436.907500",
    "140438.907500",
    "140440.907500",
    "140442.907500",
    "140444.907500",
    "140446.907500",
    "140448.907500",
    "140450.907500",
    "140452.907500",
    "140454.907500",
    "140456.907500",
    "140458.907500",
    "140500.907500",
    "140502.907500",
    "140504.907500",
    "140506.907500",
    "140508.907500",
    "140510.907500",
    "140512.907500",
    "140514.907500",
    "140516.907500",
    "140518.907500",
    "140520.907500",
    "140522.907500",
    "140524.907500",
    "140526.907500",
    "140528.907500",
    "140530.907500",
    "140532.907500",
    "140534.907500",
    "140536.907500",
    "140538.907500",
    "140540.907500",
    "140542.907500",
    "140544.907500",
    "140546.907500",
    "140548.907500",
    "140550.907500",
    "140552.907500",
    "140554.907500",
    "140556.907500",
    "140558.907500",
    "140600.907500",
    "140602.907500",
    "140604.907500",
    "140606.907500"
   ],
   "ContentTime": [
    "140111.473000",
    "140112.969000",
    "140114.968000",
    "140116.967000",
    "140118.968000",
    "140120.969000",
    "140122.969000",
    "140124.968000",
    "140126.968000",
    "140128.968000",
    "140130.969000",
    "140132.967000",
    "140134.967000",
    "140136.968000",
    "140138.968000",
    "140140.969000",
    "140142.968000",
    "140144.969000",
    "140146.969000",
    "140148.969000",
    "140150.967000",
    "140152.967000",
    "140154.968000",
    "140156.968000",
    "140158.968000",
    "140200.968000",
    "140202.968000",
    "140204.969000",
    "140206.968000",
    "140208.967000",
    "140210.968000",
    "140212.968000",
    "140214.968000",
    "140216.968000",
    "140218.968000",
    "140220.969000",
    "140222.968000",
    "140224.969000",
    "140226.967000",
    "140228.967000",
    "140230.968000",
    "140232.968000",
    "140234.969000",
    "140236.968000",
    "140238.968000",
    "140240.969000",
    "140242.967000",
    "140244.967000",
    "140246.967000",
    "140248.968000",
    "140250.968000",
    "140252.968000",
    "140254.969000",
    "140256.969000",
    "140258.968000",
    "140300.967000",
    "140302.967000",
    "140304.967000",
    "140306.968000",
    "140309.469000",
    "140310.968000",
    "140312.968000",
    "140314.968000",
    "140316.968000",
    "140318.967000",
    "140320.967000",
    "140322.968000",
    "140324.969000",
    "140326.969000",
    "140328.968000",
    "140330.968000",
    "140332.968000",
    "140334.968000",
    "140336.967000",
    "140338.967000",
    "140340.968000",
    "140342.968000",
    "140344.969000",
    "140346.969000",
    "140348.969000",
    "140350.968000",
    "140352.967000",
    "140354.968000",
    "140356.967000",
    "140358.968000",
    "140400.969000",
    "140402.969000",
    "140404.969000",
    "140406.969000",
    "140408.969000",
    "140410.968000",
    "140412.967000",
    "140414.967000",
    "140416.968000",
    "140418.968000",
    "140420.968000",
    "140422.968000",
    "140424.969000",
    "140426.969000",
    "140428.967000",
    "140431.468000",
    "140432.968000",
    "140434.968000",
    "140436.968000",
    "140438.968000",
    "140440.968000",
    "140442.968000",
    "140444.968000",
    "140446.968000",
    "140448.967000",
    "140450.968000",
    "140453.469000",
    "140454.968000",
    "140456.969000",
    "140458.969000",
    "140500.969000",
    "140502.967000",
    "140504.967000",
    "140506.968000",
    "140508.968000",
    "140510.968000",
    "140512.969000",
    "140514.969000",
    "140516.968000",
    "140518.969000",
    "140520.968000",
    "140522.968000",
    "140524.967000",
    "140526.969000",
    "140528.968000",
    "140530.968000",
    "140532.968000",
    "140534.983000",
    "140536.968000",
    "140538.968000",
    "140540.967000",
    "140542.969000",
    "140544.968000",
    "140546.969000",
    "140548.968000",
    "140550.968000",
    "140552.968000",
    "140554.968000",
    "140556.967000",
    "140558.967000",
    "140600.969000",
    "140602.968000",
    "140604.969000",
    "140606.969000",
    "140608.891000"
   ],
   "InstanceCreationTime": [
    "140111.473000",
    "140112.969000",
    "140114.968000",
    "140116.967000",
    "140118.968000",
    "140120.969000",
    "140122.969000",
    "140124.968000",
    "140126.968000",
    "140128.968000",
    "140130.969000",
    "140132.967000",
    "140134.967000",
    "140136.968000",
    "140138.968000",
    "140140.969000",
    "140142.968000",
    "140144.969000",
    "140146.969000",
    "140148.969000",
    "140150.967000",
    "140152.967000",
    "140154.968000",
    "140156.968000",
    "140158.968000",
    "140200.968000",
    "140202.968000",
    "140204.969000",
    "140206.968000",
    "140208.967000",
    "140210.968000",
    "140212.968000",
    "140214.968000",
    "140216.968000",
    "140218.968000",
    "140220.969000",
    "140222.968000",
    "140224.969000",
    "140226.967000",
    "140228.967000",
    "140230.968000",
    "140232.968000",
    "140234.969000",
    "140236.968000",
    "140238.968000",
    "140240.969000",
    "140242.967000",
    "140244.967000",
    "140246.967000",
    "140248.968000",
    "140250.968000",
    "140252.968000",
    "140254.969000",
    "140256.969000",
    "140258.968000",
    "140300.967000",
    "140302.967000",
    "140304.967000",
    "140306.968000",
    "140309.469000",
    "140310.968000",
    "140312.968000",
    "140314.968000",
    "140316.968000",
    "140318.967000",
    "140320.967000",
    "140322.968000",
    "140324.969000",
    "140326.969000",
    "140328.968000",
    "140330.968000",
    "140332.968000",
    "140334.968000",
    "140336.967000",
    "140338.967000",
    "140340.968000",
    "140342.968000",
    "140344.969000",
    "140346.969000",
    "140348.969000",
    "140350.968000",
    "140352.967000",
    "140354.968000",
    "140356.967000",
    "140358.968000",
    "140400.969000",
    "140402.969000",
    "140404.969000",
    "140406.969000",
    "140408.969000",
    "140410.968000",
    "140412.967000",
    "140414.967000",
    "140416.968000",
    "140418.968000",
    "140420.968000",
    "140422.968000",
    "140424.969000",
    "140426.969000",
    "140428.967000",
    "140431.468000",
    "140432.968000",
    "140434.968000",
    "140436.968000",
    "140438.968000",
    "140440.968000",
    "140442.968000",
    "140444.968000",
    "140446.968000",
    "140448.967000",
    "140450.968000",
    "140453.469000",
    "140454.968000",
    "140456.969000",
    "140458.969000",
    "140500.969000",
    "140502.967000",
    "140504.967000",
    "140506.968000",
    "140508.968000",
    "140510.968000",
    "140512.969000",
    "140514.969000",
    "140516.968000",
    "140518.969000",
    "140520.968000",
    "140522.968000",
    "140524.967000",
    "140526.969000",
    "140528.968000",
    "140530.968000",
    "140532.968000",
    "140534.983000",
    "140536.968000",
    "140538.968000",
    "140540.967000",
    "140542.969000",
    "140544.968000",
    "140546.969000",
    "140548.968000",
    "140550.968000",
    "140552.968000",
    "140554.968000",
    "140556.967000",
    "140558.967000",
    "140600.969000",
    "140602.968000",
    "140604.969000",
    "140606.969000",
    "140608.891000"
   ],
   "InstanceNumber": [
    1,
    2,
    3,
    4,
    5,
    6,
    7,
    8,
    9,
    10,
    11,
    12,
    13,
    14,
    15,
    16,
    17,
    18,
    19,
    20,
    21,
    22,
    23,
    24,
    25,
    26,
    27,
    28,
    29,
    30,
    31,
    32,
    33,
    34,
    35,
    36,
    37,
    38,
    39,
    40,
    41,
    42,
    43,
    44,
    45,
    46,
    47,
    48,
    49,
    50,
    51,
    52,
    53,
    54,
    55,
    56,
    57,
    58,
    59,
    60,
    61,
    62,
    63,
    64,
    65,
    66,
    67,
    68,
    69,
    70,
    71,
    72,
    73,
    74,
    75,
    76,
    77,
    78,
    79,
    80,
    81,
    82,
    83,
    84,
    85,
    86,
    87,
    88,
    89,
    90,
    91,
    92,
    93,
    94,
    95,
    96,
    97,
    98,
    99,
    100,
    101,
    102,
    103,
    104,
    105,
    106,
    107,
    108,
    109,
    110,
    111,
    112,
    113,
    114,
    115,
    116,
    117,
    118,
    119,
    120,
    121,
    122,
    123,
    124,
    125,
    126,
    127,
    128,
    129,
    130,
    131,
    132,
    133,
    134,
    135,
    136,
    137,
    138,
    139,
    140,
    141,
    142,
    143,
    144,
    145,
    146,
    147,
    148,
    149,
    150
   ],
   "LargestImagePixelValue": [
    3147,
    3099,
    3090,
    3096,
    3085,
    3070,
    3083,
    3088,
    3059,
    3077,
    3099,
    3079,
    3060,
    3091,
    3055,
    3077,
    3115,
    3039,
    3085,
    3071,
    3075,
    3126,
    3055,
    3076,
    3071,
    3120,
    3080,
    3067,
    3102,
    3049,
    3075,
    3086,
    3049,
    3103,
    3096,
    3054,
    3071,
    3116,
    3081,
    3116,
    3136,
    3077,
    3123,
    3088,
    3070,
    3098,
    3097,
    3059,
    3098,
    3063,
    3086,
    3108,
    3077,
    3108,
    3072,
    3090,
    3103,
    3061,
    3094,
    3056,
    3064,
    3119,
    3043,
    3051,
    3119,
    3077,
    3090,
    3109,
    3105,
    3098,
    3134,
    3088,
    3044,
    3126,
    3058,
    3079,
    3106,
    3074,
    3086,
    3079,
    3024,
    3066,
    3026,
    3079,
    3049,
    3063,
    3094,
    3060,
    3088,
    3079,
    3041,
    3066,
    3069,
    3073,
    3101,
    3050,
    3049,
    3018,
    3045,
    3019,
    3031,
    3029,
    3046,
    3088,
    3070,
    3074,
    3081,
    3058,
    3025,
    3088,
    3056,
    3038,
    3068,
    3040,
    3046,
    3043,
    3032,
    3041,
    3018,
    3059,
    3025,
    3027,
    3011,
    2988,
    3043,
    3027,
    3052,
    3038,
    3019,
    3003,
    3013,
    3065,
    3052,
    3024,
    3082,
    3027,
    3033,
    3017,
    3012,
    2988,
    3005,
    3009,
    3070,
    3046,
    3008,
    3065,
    3060,
    3021,
    3097,
    3049
   ],
   "WindowCenter": [
    803.0,
    801.0,
    800.0,
    800.0,
    804.0,
    805.0,
    803.0,
    801.0,
    800.0,
    801.0,
    801.0,
    801.0,
    801.0,
    800.0,
    800.0,
    801.0,
    802.0,
    801.0,
    801.0,
    802.0,
    802.0,
    802.0,
    801.0,
    802.0,
    802.0,
    802.0,
    803.0,
    804.0,
    804.0,
    803.0,
    804.0,
    803.0,
    802.0,
    803.0,
    803.0,
    803.0,
    803.0,
    801.0,
    801.0,
    801.0,
    801.0,
    801.0,
    801.0,
    800.0,
    800.0,
    802.0,
    802.0,
    802.0,
    801.0,
    801.0,
    801.0,
    801.0,
    801.0,
    802.0,
    804.0,
    803.0,
    802.0,
    803.0,
    804.0,
    804.0,
    803.0,
    802.0,
    801.0,
    802.0,
    802.0,
    801.0,
    801.0,
    801.0,
    802.0,
    802.0,
    802.0,
    802.0,
    801.0,
    802.0,
    801.0,
    802.0,
    802.0,
    803.0,
    802.0,
    802.0,
    802.0,
    802.0,
    803.0,
    804.0,
    804.0,
    804.0,
    803.0,
    802.0,
    802.0,
    803.0,
    803.0,
    802.0,
    801.0,
    802.0,
    803.0,
    803.0,
    803.0,
    803.0,
    802.0,
    802.0,
    802.0,
    803.0,
    804.0,
    804.0,
    803.0,
    802.0,
    801.0,
    801.0,
    801.0,
    801.0,
    801.0,
    800.0,
    800.0,
    801.0,
    803.0,
    804.0,
    803.0,
    803.0,
    803.0,
    804.0,
    804.0,
    804.0,
    803.0,
    803.0,
    806.0,
    805.0,
    803.0,
    803.0,
    804.0,
    806.0,
    804.0,
    802.0,
    801.0,
    800.0,
    800.0,
    799.0,
    799.0,
    799.0,
    800.0,
    800.0,
    800.0,
    800.0,
    801.0,
    800.0,
    801.0,
    802.0,
    802.0,
    801.0,
    802.0,
    801.0
   ],
   "WindowWidth": [
    1713.0,
    1708.0,
    1707.0,
    1707.0,
    1716.0,
    1718.0,
    1713.0,
    1709.0,
    1707.0,
    1708.0,
    1710.0,
    1710.0,
    1708.0,
    1708.0,
    1706.0,
    1709.0,
    1711.0,
    1709.0,
    1709.0,
    1711.0,
    1712.0,
    1710.0,
    1709.0,
    1710.0,
    1711.0,
    1712.0,
    1713.0,
    1716.0,
    1715.0,
    1714.0,
    1715.0,
    1714.0,
    1711.0,
    1713.0,
    1714.0,
    1714.0,
    1713.0,
    1710.0,
    1708.0,
    1709.0,
    1709.0,
    1708.0,
    1708.0,
    1706.0,
    1707.0,
    1710.0,
    1712.0,
    1710.0,
    1709.0,
    1709.0,
    1710.0,
    1708.0,
    1709.0,
    1712.0,
    1716.0,
    1715.0,
    1712.0,
    1713.0,
    1716.0,
    1717.0,
    1715.0,
    1712.0,
    1710.0,
    1710.0,
    1711.0,
    1708.0,
    1708.0,
    1709.0,
    1710.0,
    1712.0,
    1711.0,
    1710.0,
    1709.0,
    1710.0,
    1709.0,
    1710.0,
    1711.0,
    1712.0,
    1711.0,
    1710.0,
    1710.0,
    1712.0,
    1714.0,
    1716.0,
    1716.0,
    1716.0,
    1714.0,
    1711.0,
    1711.0,
    1713.0,
    1712.0,
    1711.0,
    1709.0,
    1711.0,
    1713.0,
    1712.0,
    1715.0,
    1713.0,
    1712.0,
    1710.0,
    1711.0,
    1714.0,
    1717.0,
    1716.0,
    1713.0,
    1710.0,
    1708.0,
    1708.0,
    1708.0,
    1708.0,
    1708.0,
    1707.0,
    1707.0,
    1709.0,
    1713.0,
    1715.0,
    1714.0,
    1713.0,
    1713.0,
    1716.0,
    1717.0,
    1715.0,
    1714.0,
    1714.0,
    1720.0,
    1718.0,
    1713.0,
    1712.0,
    1716.0,
    1720.0,
    1717.0,
    1711.0,
    1707.0,
    1706.0,
    1706.0,
    1704.0,
    1704.0,
    1703.0,
    1705.0,
    1705.0,
    1705.0,
    1706.0,
    1708.0,
    1707.0,
    1707.0,
    1710.0,
    1710.0,
    1709.0,
    1711.0,
    1709.0
   ]
  },
  "slices": {}
 }
}