{
 "AcquisitionMatrixPE": 100,
 "AcquisitionNumber": 1,
 "AcquisitionTime": "10:43:22.732500",
 "BandwidthPerPixelPhaseEncode": 18.519,
 "BaseResolution": 100,
 "BodyPartExamined": "BRAIN",
 "ConsistencyInfo": "N4_VE11C_LATEST_20160120",
 "ConversionSoftware": "dcm2niix",
 "ConversionSoftwareVersion": "v1.0.20180622 GCC4.9.2",
 "DerivedVendorReportedEchoSpacing": 0.000539986,
 "DeviceSerialNumber": "166078",
 "DwellTime": 2.1e-06,
 "EchoTime": 0.034,
 "EchoTrainLength": 100,
 "EffectiveEchoSpacing": 0.000539986,
 "FlipAngle": 90,
 "ImageOrientationPatientDICOM": [
  1,
  0,
  0,
  0,
  0.982613,
  -0.185667
 ],
 "ImageType": [
  "ORIGINAL",
  "PRIMARY",
  "M",
  "ND",
  "MOSAIC"
 ],
 "InPlanePhaseEncodingDirectionDICOM": "COL",
 "InstitutionAddress": "Street_StreetNo_Bei_Jing_District_CN_ZIP",
 "InstitutionName": "BeiJing_Normal_University",
 "InstitutionalDepartmentName": "Department",
 "MRAcquisitionType": "2D",
 "MagneticFieldStrength": 3,
 "Manufacturer": "Siemens",
 "ManufacturersModelName": "Prisma",
 "Modality": "MR",
 "MultibandAccelerationFactor": 3,
 "PartialFourier": 1,
 "PatientPosition": "HFS",
 "PercentPhaseFOV": 100,
 "PhaseEncodingDirection": "j-",
 "PhaseEncodingSteps": 100,
 "PhaseResolution": 1,
 "PixelBandwidth": 2380,
 "ProcedureStepDescription": "BNU_P2018_64CH_Zhen.ZongLei",
 "ProtocolName": "bold_100x100_s3_2x2x2_cat_150",
 "PulseSequenceDetails": "%SiemensSeq%_ep2d_bold",
 "ReceiveCoilActiveElements": "HC1-7;NC1",
 "ReceiveCoilName": "HeadNeck_64",
 "ReconMatrixPE": 100,
 "RepetitionTime": 2,
 "SAR": 0.0600828,
 "ScanOptions": "FS",
 "ScanningSequence": "EP",
 "SequenceName": "_epfid2d1_100",
 "SequenceVariant": "SK",
 "SeriesDescription": "bold_100x100_s3_2x2x2_cat_150",
 "SeriesNumber": 18,
 "ShimSetting": [
  -5459,
  -11481,
  -1266,
  375,
  -10,
  -160,
  -174,
  40
 ],
 "SliceThickness": 2,
 "SliceTiming": [
  1.485,
  0,
  0.99,
  0.0825,
  1.0725,
  0.165,
  1.155,
  0.2475,
  1.2375,
  0.33,
  1.32,
  0.4125,
  1.4025,
  0.5775,
  1.5675,
  0.66,
  1.65,
  0.7425,
  1.7325,
  0.825,
  1.815,
  0.9075,
  1.8975,
  0.495,
  1.485,
  0,
  0.99,
  0.0825,
  1.0725,
  0.165,
  1.155,
  0.2475,
  1.2375,
  0.33,
  1.32,
  0.4125,
  1.4025,
  0.5775,
  1.5675,
  0.66,
  1.65,
  0.7425,
  1.7325,
  0.825,
  1.815,
  0.9075,
  1.8975,
  0.495,
  1.485,
  0,
  0.99,
  0.0825,
  1.0725,
  0.165,
  1.155,
  0.2475,
  1.2375,
  0.33,
  1.32,
  0.4125,
  1.4025,
  0.5775,
  1.5675,
  0.66,
  1.65,
  0.7425,
  1.7325,
  0.825,
  1.815,
  0.9075,
  1.8975,
  0.495
 ],
 "SoftwareVersions": "syngo_MR_E11",
 "SpacingBetweenSlices": 2,
 "StationName": "AWP166078",
 "TaskName": "floc",
 "TotalReadoutTime": 0.0534586,
 "TxRefAmp": 203.919,
 "dcmmeta_affine": [
  [
   -2.0,
   0.0,
   0.0,
   100.67469787597656
  ],
  [
   0.0,
   1.9652255773544312,
   -0.37133321166038513,
   -82.88722229003906
  ],
  [
   0.0,
   0.37133321166038513,
   1.9652255773544312,
   -82.91023254394531
  ],
  [
   0.0,
   0.0,
   0.0,
   1.0
  ]
 ],
 "dcmmeta_reorient_transform": [
  [
   0.0,
   -1.0,
   0.0,
   99.0
  ],
  [
   1.0,
   0.0,
   0.0,
   0.0
  ],
  [
   0.0,
   0.0,
   1.0,
   0.0
  ],
  [
   0.0,
   0.0,
   0.0,
   1.0
  ]
 ],
 "dcmmeta_shape": [
  100,
  100,
  72,
  150
 ],
 "dcmmeta_slice_dim": 2,
 "dcmmeta_version": 0.6,
 "global": {
  "const": {
   "AcquisitionMatrix": [
    100,
    0,
    0,
    100
   ],
   "AngioFlag": "N",
   "BitsAllocated": 16,
   "BitsStored": 12,
   "BodyPartExamined": "BRAIN",
   "Columns": 900,
   "EchoNumbers": 1,
   "EchoTime": 34.0,
   "EchoTrainLength": 100,
   "FlipAngle": 90.0,
   "HighBit": 11,
   "ImageOrientationPatient": [
    1.0,
    0.0,
    0.0,
    0.0,
    0.9826127972607,
    -0.1856666115905
   ],
   "ImagePositionPatient": [
    -900.67469877005,
    -897.7603529457,
    102.38504564632
   ],
   "ImageType": [
    "ORIGINAL",
    "PRIMARY",
    "M",
    "ND",
    "MOSAIC"
   ],
   "ImagedNucleus": "1H",
   "ImagingFrequency": 123.25777,
   "InPlanePhaseEncodingDirection": "COL",
   "MRAcquisitionType": "2D",
   "MagneticFieldStrength": 3.0,
   "Manufacturer": "SIEMENS",
   "ManufacturerModelName": "Prisma",
   "Modality": "MR",
   "NumberOfAverages": 1.0,
   "NumberOfPhaseEncodingSteps": 100,
   "PercentPhaseFieldOfView": 100.0,
   "PercentSampling": 100.0,
   "PerformedProcedureStepStartTime": "090738.955000",
   "PhotometricInterpretation": "MONOCHROME2",
   "PixelBandwidth": 2380.0,
   "PixelRepresentation": 0,
   "PixelSpacing": [
    2.0,
    2.0
   ],
   "ProtocolName": "bold_100x100_s3_2x2x2_cat_150",
   "RepetitionTime": 2000.0,
   "Rows": 900,
   "SAR": 0.06008278792699,
   "SamplesPerPixel": 1,
   "ScanOptions": "FS",
   "ScanningSequence": "EP",
   "SequenceName": "*epfid2d1_100",
   "SequenceVariant": "SK",
   "SeriesDescription": "bold_100x100_s3_2x2x2_cat_150",
   "SeriesNumber": 18,
   "SeriesTime": "104325.211000",
   "SliceLocation": -66.079266651551,
   "SliceThickness": 2.0,
   "SmallestImagePixelValue": 0,
   "SoftwareVersions": "syngo MR E11",
   "SpacingBetweenSlices": 1.9999999496976,
   "SpecificCharacterSet": "ISO_IR 100",
   "StudyID": "1",
   "StudyTime": "090738.859000",
   "TransmitCoilName": "Body",
   "VariableFlipAngleFlag": "N",
   "WindowCenterWidthExplanation": "Algo1",
   "dBdt": 0.0
  },
  "slices": {}
 },
 "time": {
  "samples": {
   "AcquisitionNumber": [
    1,
    2,
    3,
    4,
    5,
    6,
    7,
    8,
    9,
    10,
    11,
    12,
    13,
    14,
    15,
    16,
    17,
    18,
    19,
    20,
    21,
    22,
    23,
    24,
    25,
    26,
    27,
    28,
    29,
    30,
    31,
    32,
    33,
    34,
    35,
    36,
    37,
    38,
    39,
    40,
    41,
    42,
    43,
    44,
    45,
    46,
    47,
    48,
    49,
    50,
    51,
    52,
    53,
    54,
    55,
    56,
    57,
    58,
    59,
    60,
    61,
    62,
    63,
    64,
    65,
    66,
    67,
    68,
    69,
    70,
    71,
    72,
    73,
    74,
    75,
    76,
    77,
    78,
    79,
    80,
    81,
    82,
    83,
    84,
    85,
    86,
    87,
    88,
    89,
    90,
    91,
    92,
    93,
    94,
    95,
    96,
    97,
    98,
    99,
    100,
    101,
    102,
    103,
    104,
    105,
    106,
    107,
    108,
    109,
    110,
    111,
    112,
    113,
    114,
    115,
    116,
    117,
    118,
    119,
    120,
    121,
    122,
    123,
    124,
    125,
    126,
    127,
    128,
    129,
    130,
    131,
    132,
    133,
    134,
    135,
    136,
    137,
    138,
    139,
    140,
    141,
    142,
    143,
    144,
    145,
    146,
    147,
    148,
    149,
    150
   ],
   "AcquisitionTime": [
    "104322.732500",
    "104324.732500",
    "104326.732500",
    "104328.732500",
    "104330.732500",
    "104332.732500",
    "104334.732500",
    "104336.732500",
    "104338.732500",
    "104340.732500",
    "104342.732500",
    "104344.732500",
    "104346.732500",
    "104348.732500",
    "104350.732500",
    "104352.732500",
    "104354.732500",
    "104356.732500",
    "104358.732500",
    "104400.732500",
    "104402.732500",
    "104404.732500",
    "104406.732500",
    "104408.732500",
    "104410.732500",
    "104412.732500",
    "104414.732500",
    "104416.732500",
    "104418.732500",
    "104420.732500",
    "104422.732500",
    "104424.732500",
    "104426.732500",
    "104428.732500",
    "104430.732500",
    "104432.732500",
    "104434.732500",
    "104436.732500",
    "104438.732500",
    "104440.732500",
    "104442.732500",
    "104444.732500",
    "104446.732500",
    "104448.732500",
    "104450.732500",
    "104452.732500",
    "104454.732500",
    "104456.732500",
    "104458.732500",
    "104500.732500",
    "104502.732500",
    "104504.732500",
    "104506.732500",
    "104508.732500",
    "104510.732500",
    "104512.732500",
    "104514.732500",
    "104516.732500",
    "104518.732500",
    "104520.732500",
    "104522.732500",
    "104524.732500",
    "104526.732500",
    "104528.732500",
    "104530.732500",
    "104532.732500",
    "104534.732500",
    "104536.732500",
    "104538.732500",
    "104540.732500",
    "104542.732500",
    "104544.732500",
    "104546.732500",
    "104548.732500",
    "104550.732500",
    "104552.732500",
    "104554.732500",
    "104556.732500",
    "104558.732500",
    "104600.732500",
    "104602.732500",
    "104604.732500",
    "104606.732500",
    "104608.732500",
    "104610.732500",
    "104612.732500",
    "104614.732500",
    "104616.732500",
    "104618.732500",
    "104620.732500",
    "104622.732500",
    "104624.732500",
    "104626.732500",
    "104628.732500",
    "104630.732500",
    "104632.732500",
    "104634.732500",
    "104636.732500",
    "104638.732500",
    "104640.732500",
    "104642.732500",
    "104644.732500",
    "104646.732500",
    "104648.732500",
    "104650.732500",
    "104652.732500",
    "104654.732500",
    "104656.732500",
    "104658.732500",
    "104700.732500",
    "104702.732500",
    "104704.732500",
    "104706.732500",
    "104708.732500",
    "104710.732500",
    "104712.732500",
    "104714.732500",
    "104716.732500",
    "104718.732500",
    "104720.732500",
    "104722.732500",
    "104724.732500",
    "104726.732500",
    "104728.732500",
    "104730.732500",
    "104732.732500",
    "104734.732500",
    "104736.732500",
    "104738.732500",
    "104740.732500",
    "104742.732500",
    "104744.732500",
    "104746.732500",
    "104748.732500",
    "104750.732500",
    "104752.732500",
    "104754.732500",
    "104756.732500",
    "104758.732500",
    "104800.732500",
    "104802.732500",
    "104804.732500",
    "104806.732500",
    "104808.732500",
    "104810.732500",
    "104812.732500",
    "104814.732500",
    "104816.732500",
    "104818.732500",
    "104820.732500"
   ],
   "ContentTime": [
    "104325.215000",
    "104326.710000",
    "104328.709000",
    "104330.710000",
    "104332.711000",
    "104334.711000",
    "104336.710000",
    "104338.711000",
    "104340.711000",
    "104342.711000",
    "104344.709000",
    "104346.710000",
    "104348.710000",
    "104350.711000",
    "104352.711000",
    "104354.710000",
    "104356.711000",
    "104358.711000",
    "104400.710000",
    "104402.709000",
    "104404.710000",
    "104406.711000",
    "104408.711000",
    "104410.710000",
    "104412.711000",
    "104414.711000",
    "104416.710000",
    "104418.710000",
    "104420.710000",
    "104422.710000",
    "104424.710000",
    "104426.711000",
    "104428.710000",
    "104430.711000",
    "104432.710000",
    "104434.711000",
    "104436.709000",
    "104438.710000",
    "104440.711000",
    "104442.710000",
    "104444.710000",
    "104446.711000",
    "104448.711000",
    "104450.711000",
    "104452.710000",
    "104454.710000",
    "104456.710000",
    "104458.711000",
    "104500.711000",
    "104502.711000",
    "104504.711000",
    "104506.710000",
    "104508.711000",
    "104510.711000",
    "104512.710000",
    "104514.710000",
    "104516.710000",
    "104518.710000",
    "104520.710000",
    "104522.710000",
    "104524.711000",
    "104526.711000",
    "104528.711000",
    "104530.709000",
    "104532.710000",
    "104534.711000",
    "104536.710000",
    "104538.710000",
    "104540.710000",
    "104542.711000",
    "104544.711000",
    "104546.709000",
    "104548.710000",
    "104550.711000",
    "104552.710000",
    "104554.711000",
    "104556.711000",
    "104558.711000",
    "104600.710000",
    "104602.711000",
    "104604.730000",
    "104606.711000",
    "104608.710000",
    "104610.711000",
    "104612.710000",
    "104614.710000",
    "104616.710000",
    "104618.710000",
    "104620.710000",
    "104622.709000",
    "104624.710000",
    "104626.711000",
    "104628.710000",
    "104630.711000",
    "104632.710000",
    "104634.711000",
    "104636.711000",
    "104638.710000",
    "104640.710000",
    "104642.711000",
    "104644.710000",
    "104646.711000",
    "104648.710000",
    "104650.711000",
    "104652.711000",
    "104654.710000",
    "104656.710000",
    "104658.709000",
    "104700.710000",
    "104702.711000",
    "104704.710000",
    "104706.711000",
    "104708.711000",
    "104710.711000",
    "104712.711000",
    "104714.710000",
    "104716.711000",
    "104718.710000",
    "104720.710000",
    "104722.711000",
    "104724.711000",
    "104726.711000",
    "104728.711000",
    "104730.710000",
    "104732.710000",
    "104734.710000",
    "104736.710000",
    "104738.711000",
    "104740.710000",
    "104742.710000",
    "104744.711000",
    "104746.711000",
    "104748.720000",
    "104750.709000",
    "104752.710000",
    "104754.710000",
    "104756.710000",
    "104758.710000",
    "104800.711000",
    "104802.711000",
    "104804.710000",
    "104806.709000",
    "104808.709000",
    "104810.710000",
    "104812.711000",
    "104814.711000",
    "104816.711000",
    "104818.711000",
    "104820.710000",
    "104822.441000"
   ],
   "InstanceCreationTime": [
    "104325.215000",
    "104326.710000",
    "104328.709000",
    "104330.710000",
    "104332.711000",
    "104334.711000",
    "104336.710000",
    "104338.711000",
    "104340.711000",
    "104342.711000",
    "104344.709000",
    "104346.710000",
    "104348.710000",
    "104350.711000",
    "104352.711000",
    "104354.710000",
    "104356.711000",
    "104358.711000",
    "104400.710000",
    "104402.709000",
    "104404.710000",
    "104406.711000",
    "104408.711000",
    "104410.710000",
    "104412.711000",
    "104414.711000",
    "104416.710000",
    "104418.710000",
    "104420.710000",
    "104422.710000",
    "104424.710000",
    "104426.711000",
    "104428.710000",
    "104430.711000",
    "104432.710000",
    "104434.711000",
    "104436.709000",
    "104438.710000",
    "104440.711000",
    "104442.710000",
    "104444.710000",
    "104446.711000",
    "104448.711000",
    "104450.711000",
    "104452.710000",
    "104454.710000",
    "104456.710000",
    "104458.711000",
    "104500.711000",
    "104502.711000",
    "104504.711000",
    "104506.710000",
    "104508.711000",
    "104510.711000",
    "104512.710000",
    "104514.710000",
    "104516.710000",
    "104518.710000",
    "104520.710000",
    "104522.710000",
    "104524.711000",
    "104526.711000",
    "104528.711000",
    "104530.709000",
    "104532.710000",
    "104534.711000",
    "104536.710000",
    "104538.710000",
    "104540.710000",
    "104542.711000",
    "104544.711000",
    "104546.709000",
    "104548.710000",
    "104550.711000",
    "104552.710000",
    "104554.711000",
    "104556.711000",
    "104558.711000",
    "104600.710000",
    "104602.711000",
    "104604.730000",
    "104606.711000",
    "104608.710000",
    "104610.711000",
    "104612.710000",
    "104614.710000",
    "104616.710000",
    "104618.710000",
    "104620.710000",
    "104622.709000",
    "104624.710000",
    "104626.711000",
    "104628.710000",
    "104630.711000",
    "104632.710000",
    "104634.711000",
    "104636.711000",
    "104638.710000",
    "104640.710000",
    "104642.711000",
    "104644.710000",
    "104646.711000",
    "104648.710000",
    "104650.711000",
    "104652.711000",
    "104654.710000",
    "104656.710000",
    "104658.709000",
    "104700.710000",
    "104702.711000",
    "104704.710000",
    "104706.711000",
    "104708.711000",
    "104710.711000",
    "104712.711000",
    "104714.710000",
    "104716.711000",
    "104718.710000",
    "104720.710000",
    "104722.711000",
    "104724.711000",
    "104726.711000",
    "104728.711000",
    "104730.710000",
    "104732.710000",
    "104734.710000",
    "104736.710000",
    "104738.711000",
    "104740.710000",
    "104742.710000",
    "104744.711000",
    "104746.711000",
    "104748.720000",
    "104750.709000",
    "104752.710000",
    "104754.710000",
    "104756.710000",
    "104758.710000",
    "104800.711000",
    "104802.711000",
    "104804.710000",
    "104806.709000",
    "104808.709000",
    "104810.710000",
    "104812.711000",
    "104814.711000",
    "104816.711000",
    "104818.711000",
    "104820.710000",
    "104822.441000"
   ],
   "InstanceNumber": [
    1,
    2,
    3,
    4,
    5,
    6,
    7,
    8,
    9,
    10,
    11,
    12,
    13,
    14,
    15,
    16,
    17,
    18,
    19,
    20,
    21,
    22,
    23,
    24,
    25,
    26,
    27,
    28,
    29,
    30,
    31,
    32,
    33,
    34,
    35,
    36,
    37,
    38,
    39,
    40,
    41,
    42,
    43,
    44,
    45,
    46,
    47,
    48,
    49,
    50,
    51,
    52,
    53,
    54,
    55,
    56,
    57,
    58,
    59,
    60,
    61,
    62,
    63,
    64,
    65,
    66,
    67,
    68,
    69,
    70,
    71,
    72,
    73,
    74,
    75,
    76,
    77,
    78,
    79,
    80,
    81,
    82,
    83,
    84,
    85,
    86,
    87,
    88,
    89,
    90,
    91,
    92,
    93,
    94,
    95,
    96,
    97,
    98,
    99,
    100,
    101,
    102,
    103,
    104,
    105,
    106,
    107,
    108,
    109,
    110,
    111,
    112,
    113,
    114,
    115,
    116,
    117,
    118,
    119,
    120,
    121,
    122,
    123,
    124,
    125,
    126,
    127,
    128,
    129,
    130,
    131,
    132,
    133,
    134,
    135,
    136,
    137,
    138,
    139,
    140,
    141,
    142,
    143,
    144,
    145,
    146,
    147,
    148,
    149,
    150
   ],
   "LargestImagePixelValue": [
    4047,
    3851,
    3885,
    3805,
    3865,
    3868,
    3833,
    4032,
    3965,
    3996,
    3861,
    3825,
    4012,
    3803,
    4046,
    3884,
    3844,
    4028,
    3884,
    3851,
    4095,
    3910,
    3885,
    3828,
    4029,
    3943,
    3950,
    3862,
    3865,
    3862,
    3846,
    3951,
    3950,
    3882,
    3842,
    3838,
    3836,
    3885,
    3873,
    4095,
    3898,
    4039,
    3885,
    4095,
    3915,
    4095,
    4047,
    4065,
    3920,
    3973,
    3888,
    3863,
    3877,
    3866,
    3890,
    3860,
    4043,
    3882,
    4095,
    4095,
    4031,
    3848,
    3848,
    3856,
    3920,
    3910,
    3949,
    3902,
    3934,
    3922,
    3875,
    3856,
    3856,
    3892,
    3955,
    3949,
    3910,
    3948,
    3928,
    3872,
    3855,
    3866,
    3858,
    3848,
    3882,
    3877,
    3894,
    3866,
    3879,
    3914,
    3948,
    3988,
    4027,
    4030,
    3971,
    3868,
    3857,
    3890,
    3980,
    3979,
    3826,
    4095,
    4035,
    4063,
    3824,
    3781,
    3849,
    3959,
    4024,
    4003,
    4012,
    4079,
    3830,
    3875,
    3847,
    3936,
    4095,
    3889,
    3939,
    3875,
    3832,
    3751,
    3820,
    3842,
    3916,
    3875,
    4095,
    3845,
    4048,
    4040,
    4024,
    3991,
    3968,
    3974,
    3934,
    3894,
    3828,
    3855,
    3852,
    3900,
    4041,
    3892,
    3854,
    4095,
    3936,
    3801,
    3925,
    3810,
    3844,
    3911
   ],
   "WindowCenter": [
    808.0,
    806.0,
    807.0,
    806.0,
    807.0,
    807.0,
    807.0,
    809.0,
    808.0,
    808.0,
    807.0,
    805.0,
    804.0,
    805.0,
    807.0,
    806.0,
    804.0,
    803.0,
    801.0,
    800.0,
    802.0,
    802.0,
    802.0,
    803.0,
    804.0,
    804.0,
    804.0,
    804.0,
    805.0,
    804.0,
    804.0,
    805.0,
    805.0,
    805.0,
    805.0,
    806.0,
    805.0,
    805.0,
    807.0,
    808.0,
    808.0,
    808.0,
    806.0,
    807.0,
    806.0,
    808.0,
    809.0,
    809.0,
    807.0,
    807.0,
    806.0,
    805.0,
    805.0,
    804.0,
    804.0,
    804.0,
    805.0,
    805.0,
    806.0,
    807.0,
    808.0,
    806.0,
    805.0,
    805.0,
    805.0,
    805.0,
    805.0,
    805.0,
    805.0,
    807.0,
    808.0,
    807.0,
    806.0,
    804.0,
    804.0,
    805.0,
    805.0,
    807.0,
    807.0,
    806.0,
    805.0,
    805.0,
    804.0,
    804.0,
    805.0,
    806.0,
    806.0,
    805.0,
    805.0,
    805.0,
    805.0,
    805.0,
    807.0,
    809.0,
    809.0,
    807.0,
    805.0,
    804.0,
    805.0,
    805.0,
    804.0,
    806.0,
    809.0,
    810.0,
    806.0,
    804.0,
    804.0,
    804.0,
    806.0,
    806.0,
    806.0,
    806.0,
    804.0,
    805.0,
    806.0,
    806.0,
    806.0,
    805.0,
    804.0,
    803.0,
    803.0,
    802.0,
    803.0,
    805.0,
    808.0,
    808.0,
    807.0,
    805.0,
    805.0,
    805.0,
    805.0,
    805.0,
    805.0,
    806.0,
    806.0,
    805.0,
    805.0,
    804.0,
    805.0,
    807.0,
    808.0,
    806.0,
    805.0,
    806.0,
    804.0,
    803.0,
    804.0,
    804.0,
    803.0,
    801.0
   ],
   "WindowWidth": [
    1764.0,
    1758.0,
    1759.0,
    1757.0,
    1759.0,
    1759.0,
    1761.0,
    1767.0,
    1764.0,
    1764.0,
    1759.0,
    1755.0,
    1752.0,
    1753.0,
    1761.0,
    1758.0,
    1753.0,
    1749.0,
    1742.0,
    1741.0,
    1746.0,
    1746.0,
    1747.0,
    1747.0,
    1752.0,
    1751.0,
    1753.0,
    1752.0,
    1753.0,
    1753.0,
    1753.0,
    1754.0,
    1754.0,
    1754.0,
    1756.0,
    1756.0,
    1756.0,
    1756.0,
    1759.0,
    1766.0,
    1763.0,
    1763.0,
    1759.0,
    1761.0,
    1758.0,
    1764.0,
    1766.0,
    1766.0,
    1759.0,
    1759.0,
    1756.0,
    1755.0,
    1753.0,
    1752.0,
    1752.0,
    1752.0,
    1755.0,
    1753.0,
    1758.0,
    1761.0,
    1763.0,
    1757.0,
    1755.0,
    1753.0,
    1754.0,
    1754.0,
    1756.0,
    1753.0,
    1756.0,
    1760.0,
    1762.0,
    1760.0,
    1756.0,
    1752.0,
    1751.0,
    1754.0,
    1755.0,
    1760.0,
    1759.0,
    1758.0,
    1755.0,
    1753.0,
    1753.0,
    1752.0,
    1756.0,
    1757.0,
    1756.0,
    1755.0,
    1755.0,
    1754.0,
    1754.0,
    1756.0,
    1762.0,
    1767.0,
    1767.0,
    1761.0,
    1755.0,
    1753.0,
    1755.0,
    1756.0,
    1752.0,
    1760.0,
    1766.0,
    1768.0,
    1757.0,
    1752.0,
    1750.0,
    1752.0,
    1757.0,
    1759.0,
    1758.0,
    1758.0,
    1751.0,
    1753.0,
    1756.0,
    1759.0,
    1759.0,
    1754.0,
    1752.0,
    1749.0,
    1748.0,
    1745.0,
    1747.0,
    1754.0,
    1762.0,
    1763.0,
    1762.0,
    1754.0,
    1756.0,
    1756.0,
    1755.0,
    1755.0,
    1754.0,
    1758.0,
    1757.0,
    1754.0,
    1753.0,
    1753.0,
    1756.0,
    1760.0,
    1764.0,
    1758.0,
    1754.0,
    1758.0,
    1752.0,
    1748.0,
    1752.0,
    1751.0,
    1749.0,
    1742.0
   ]
  },
  "slices": {}
 }
}