{
  "AcquisitionMatrixPE": 100,
  "AcquisitionNumber": 1,
  "AcquisitionTime": "15:55:28.832500",
  "BandwidthPerPixelPhaseEncode": 18.519,
  "BaseResolution": 100,
  "BodyPartExamined": "BRAIN",
  "ConsistencyInfo": "N4_VE11C_LATEST_20160120",
  "ConversionSoftware": "dcm2niix",
  "ConversionSoftwareVersion": "v1.0.20180622 GCC4.9.2",
  "DerivedVendorReportedEchoSpacing": 0.000539986,
  "DeviceSerialNumber": "166078",
  "DwellTime": 2.1e-06,
  "EchoTime": 0.034,
  "EchoTrainLength": 100,
  "EffectiveEchoSpacing": 0.000539986,
  "FlipAngle": 90,
  "ImageOrientationPatientDICOM": [1, 0, 0, 0, 0.964095, -0.265556],
  "ImageType": [
    "ORIGINAL",
    "PRIMARY",
    "M",
    "ND",
    "MOSAIC"
],
  "InPlanePhaseEncodingDirectionDICOM": "COL",
  "InstitutionAddress": "Street_StreetNo_Bei_Jing_District_CN_ZIP",
  "InstitutionName": "BeiJing_Normal_University",
  "InstitutionalDepartmentName": "Department",
  "MRAcquisitionType": "2D",
  "MagneticFieldStrength": 3,
  "Manufacturer": "Siemens",
  "ManufacturersModelName": "Prisma",
  "Modality": "MR",
  "MultibandAccelerationFactor": 3,
  "PartialFourier": 1,
  "PatientPosition": "HFS",
  "PercentPhaseFOV": 100,
  "PhaseEncodingDirection": "j-",
  "PhaseEncodingSteps": 100,
  "PhaseResolution": 1,
  "PixelBandwidth": 2380,
  "ProcedureStepDescription": "BNU_P2018_64CH_Zhen.ZongLei",
  "ProtocolName": "bold_100x100_s3_2x2x2_retino_150",
  "PulseSequenceDetails": "%SiemensSeq%_ep2d_bold",
  "ReceiveCoilActiveElements": "HC1-7;NC1",
  "ReceiveCoilName": "HeadNeck_64",
  "ReconMatrixPE": 100,
  "RepetitionTime": 2,
  "SAR": 0.0639597,
  "ScanOptions": "FS",
  "ScanningSequence": "EP",
  "SequenceName": "_epfid2d1_100",
  "SequenceVariant": "SK",
  "SeriesDescription": "bold_100x100_s3_2x2x2_retino_150",
  "SeriesNumber": 7,
  "ShimSetting": [-5459, -11476, -1279, 418, -9, -332, -271, 50],
  "SliceThickness": 2,
  "SliceTiming": [1.485, 0, 0.99, 0.0825, 1.0725, 0.165, 1.155, 0.2475, 1.2375, 0.33, 1.32, 0.4125, 1.4025, 0.5775, 1.5675, 0.66, 1.65, 0.7425, 1.7325, 0.825, 1.815, 0.9075, 1.8975, 0.495, 1.485, 0, 0.99, 0.0825, 1.0725, 0.165, 1.155, 0.2475, 1.2375, 0.33, 1.32, 0.4125, 1.4025, 0.5775, 1.5675, 0.66, 1.65, 0.7425, 1.7325, 0.825, 1.815, 0.9075, 1.8975, 0.495, 1.485, 0, 0.99, 0.0825, 1.0725, 0.165, 1.155, 0.2475, 1.2375, 0.33, 1.32, 0.4125, 1.4025, 0.5775, 1.5675, 0.66, 1.65, 0.7425, 1.7325, 0.825, 1.815, 0.9075, 1.8975, 0.495],
  "SoftwareVersions": "syngo_MR_E11",
  "SpacingBetweenSlices": 2,
  "StationName": "AWP166078",
  "TaskName": "retinotopy",
  "TotalReadoutTime": 0.0534586,
  "TxRefAmp": 209.31,
  "dcmmeta_affine": [
    [-2.0, 0.0, 0.0, 102.02409362792969],
    [0.0, 1.92819082736969, -0.5311122536659241, -76.749755859375],
    [0.0, 0.5311122536659241, 1.92819082736969, -98.02226257324219],
    [0.0, 0.0, 0.0, 1.0]
],
  "dcmmeta_reorient_transform": [
    [0.0, -1.0, 0.0, 99.0],
    [1.0, 0.0, 0.0, 0.0],
    [0.0, 0.0, 1.0, 0.0],
    [0.0, 0.0, 0.0, 1.0]
],
  "dcmmeta_shape": [100, 100, 72, 150],
  "dcmmeta_slice_dim": 2,
  "dcmmeta_version": 0.6,
  "global": {
    "const": {
      "AcquisitionMatrix": [100, 0, 0, 100],
      "AngioFlag": "N",
      "BitsAllocated": 16,
      "BitsStored": 12,
      "BodyPartExamined": "BRAIN",
      "Columns": 900,
      "EchoNumbers": 1,
      "EchoTime": 34.0,
      "EchoTrainLength": 100,
      "FlipAngle": 90.0,
      "HighBit": 11,
      "ImageOrientationPatient": [1.0, 0.0, 0.0, 0.0, 0.96409539939404, -0.2655561350586],
      "ImagePositionPatient": [-902.02409648895, -885.41745163298, 167.00275696533],
      "ImageType": [
        "ORIGINAL",
        "PRIMARY",
        "M",
        "ND",
        "MOSAIC"
],
      "ImagedNucleus": "1H",
      "ImagingFrequency": 123.257791,
      "InPlanePhaseEncodingDirection": "COL",
      "MRAcquisitionType": "2D",
      "MagneticFieldStrength": 3.0,
      "Manufacturer": "SIEMENS",
      "ManufacturerModelName": "Prisma",
      "Modality": "MR",
      "NumberOfAverages": 1.0,
      "NumberOfPhaseEncodingSteps": 100,
      "PercentPhaseFieldOfView": 100.0,
      "PercentSampling": 100.0,
      "PerformedProcedureStepStartTime": "152922.304000",
      "PhotometricInterpretation": "MONOCHROME2",
      "PixelBandwidth": 2380.0,
      "PixelRepresentation": 0,
      "PixelSpacing": [2.0, 2.0],
      "ProtocolName": "bold_100x100_s3_2x2x2_retino_150",
      "RepetitionTime": 2000.0,
      "Rows": 900,
      "SAR": 0.06395974673457,
      "SamplesPerPixel": 1,
      "ScanOptions": "FS",
      "ScanningSequence": "EP",
      "SequenceName": "*epfid2d1_100",
      "SequenceVariant": "SK",
      "SeriesDescription": "bold_100x100_s3_2x2x2_retino_150",
      "SeriesNumber": 7,
      "SeriesTime": "155531.234000",
      "SliceLocation": -74.121446692686,
      "SliceThickness": 2.0,
      "SmallestImagePixelValue": 0,
      "SoftwareVersions": "syngo MR E11",
      "SpacingBetweenSlices": 2.0000000337521,
      "SpecificCharacterSet": "ISO_IR 100",
      "StudyID": "1",
      "StudyTime": "152922.223000",
      "TransmitCoilName": "Body",
      "VariableFlipAngleFlag": "N",
      "WindowCenterWidthExplanation": "Algo1",
      "dBdt": 0.0},
    "slices": {}
  },
  "time": {
    "samples": {
      "AcquisitionNumber": [1, 2, 3, 4, 5, 6, 7, 8, 9, 10, 11, 12, 13, 14, 15, 16, 17, 18, 19, 20, 21, 22, 23, 24, 25, 26, 27, 28, 29, 30, 31, 32, 33, 34, 35, 36, 37, 38, 39, 40, 41, 42, 43, 44, 45, 46, 47, 48, 49, 50, 51, 52, 53, 54, 55, 56, 57, 58, 59, 60, 61, 62, 63, 64, 65, 66, 67, 68, 69, 70, 71, 72, 73, 74, 75, 76, 77, 78, 79, 80, 81, 82, 83, 84, 85, 86, 87, 88, 89, 90, 91, 92, 93, 94, 95, 96, 97, 98, 99, 100, 101, 102, 103, 104, 105, 106, 107, 108, 109, 110, 111, 112, 113, 114, 115, 116, 117, 118, 119, 120, 121, 122, 123, 124, 125, 126, 127, 128, 129, 130, 131, 132, 133, 134, 135, 136, 137, 138, 139, 140, 141, 142, 143, 144, 145, 146, 147, 148, 149, 150],
      "AcquisitionTime": ["155528.832500", "155530.832500", "155532.832500", "155534.832500", "155536.832500", "155538.832500", "155540.832500", "155542.832500", "155544.832500", "155546.832500", "155548.832500", "155550.832500", "155552.832500", "155554.832500", "155556.832500", "155558.832500", "155600.832500", "155602.832500", "155604.832500", "155606.832500", "155608.832500", "155610.832500", "155612.832500", "155614.832500", "155616.832500", "155618.832500", "155620.832500", "155622.832500", "155624.832500", "155626.832500", "155628.832500", "155630.832500", "155632.832500", "155634.832500", "155636.832500", "155638.832500", "155640.832500", "155642.832500", "155644.832500", "155646.832500", "155648.832500", "155650.832500", "155652.832500", "155654.832500", "155656.832500", "155658.832500", "155700.832500", "155702.832500", "155704.832500", "155706.832500", "155708.832500", "155710.832500", "155712.832500", "155714.832500", "155716.832500", "155718.832500", "155720.832500", "155722.832500", "155724.832500", "155726.832500", "155728.832500", "155730.832500", "155732.832500", "155734.832500", "155736.832500", "155738.832500", "155740.832500", "155742.832500", "155744.832500", "155746.832500", "155748.832500", "155750.832500", "155752.832500", "155754.832500", "155756.832500", "155758.832500", "155800.832500", "155802.832500", "155804.832500", "155806.832500", "155808.832500", "155810.832500", "155812.832500", "155814.832500", "155816.832500", "155818.832500", "155820.832500", "155822.832500", "155824.832500", "155826.832500", "155828.832500", "155830.832500", "155832.832500", "155834.832500", "155836.832500", "155838.832500", "155840.832500", "155842.832500", "155844.832500", "155846.832500", "155848.832500", "155850.832500", "155852.832500", "155854.832500", "155856.832500", "155858.832500", "155900.832500", "155902.832500", "155904.832500", "155906.832500", "155908.832500", "155910.832500", "155912.832500", "155914.832500", "155916.832500", "155918.832500", "155920.832500", "155922.832500", "155924.832500", "155926.832500", "155928.832500", "155930.832500", "155932.832500", "155934.832500", "155936.832500", "155938.832500", "155940.832500", "155942.832500", "155944.832500", "155946.832500", "155948.832500", "155950.832500", "155952.832500", "155954.832500", "155956.832500", "155958.832500", "160000.832500", "160002.832500", "160004.832500", "160006.832500", "160008.832500", "160010.832500", "160012.832500", "160014.832500", "160016.832500", "160018.832500", "160020.832500", "160022.832500", "160024.832500", "160026.832500"],
      "ContentTime": ["155531.238000", "155532.732000", "155534.733000", "155536.734000", "155538.734000", "155540.733000", "155542.733000", "155544.734000", "155546.733000", "155548.734000", "155550.732000", "155552.733000", "155554.733000", "155556.733000", "155558.734000", "155600.734000", "155602.733000", "155604.733000", "155606.734000", "155608.732000", "155610.733000", "155612.733000", "155614.733000", "155616.734000", "155618.734000", "155620.733000", "155622.733000", "155624.732000", "155626.733000", "155628.733000", "155630.733000", "155632.734000", "155634.734000", "155636.734000", "155638.734000", "155640.734000", "155642.732000", "155644.733000", "155646.734000", "155648.733000", "155650.734000", "155652.733000", "155654.734000", "155656.734000", "155658.734000", "155700.732000", "155702.734000", "155704.733000", "155706.734000", "155708.734000", "155710.734000", "155712.733000", "155714.733000", "155716.734000", "155718.732000", "155720.734000", "155722.733000", "155724.734000", "155726.734000", "155728.734000", "155730.733000", "155732.734000", "155734.733000", "155736.733000", "155738.734000", "155740.734000", "155742.733000", "155744.734000", "155746.733000", "155748.734000", "155750.734000", "155752.732000", "155754.734000", "155756.733000", "155758.734000", "155800.734000", "155802.734000", "155804.733000", "155806.733000", "155808.733000", "155810.732000", "155812.733000", "155814.733000", "155816.733000", "155818.733000", "155820.733000", "155822.734000", "155824.733000", "155826.734000", "155828.732000", "155830.733000", "155832.734000", "155834.733000", "155836.734000", "155838.733000", "155840.734000", "155842.734000", "155844.733000", "155846.734000", "155848.733000", "155850.733000", "155852.734000", "155854.733000", "155856.734000", "155858.734000", "155900.734000", "155902.732000", "155904.734000", "155906.734000", "155908.734000", "155910.734000", "155912.734000", "155914.733000", "155916.733000", "155918.733000", "155920.732000", "155922.733000", "155924.734000", "155926.733000", "155928.734000", "155930.733000", "155932.733000", "155934.734000", "155936.734000", "155938.733000", "155940.734000", "155942.733000", "155944.734000", "155946.733000", "155948.734000", "155950.734000", "155952.734000", "155954.733000", "155956.734000", "155958.733000", "160000.733000", "160002.733000", "160004.734000", "160006.734000", "160008.734000", "160010.734000", "160012.733000", "160014.733000", "160016.734000", "160018.734000", "160020.734000", "160022.734000", "160024.734000", "160026.733000", "160028.562000"],
      "InstanceCreationTime": ["155531.238000", "155532.732000", "155534.733000", "155536.734000", "155538.734000", "155540.733000", "155542.733000", "155544.734000", "155546.733000", "155548.734000", "155550.732000", "155552.733000", "155554.733000", "155556.733000", "155558.734000", "155600.734000", "155602.733000", "155604.733000", "155606.734000", "155608.732000", "155610.733000", "155612.733000", "155614.733000", "155616.734000", "155618.734000", "155620.733000", "155622.733000", "155624.732000", "155626.733000", "155628.733000", "155630.733000", "155632.734000", "155634.734000", "155636.734000", "155638.734000", "155640.734000", "155642.732000", "155644.733000", "155646.734000", "155648.733000", "155650.734000", "155652.733000", "155654.734000", "155656.734000", "155658.734000", "155700.732000", "155702.734000", "155704.733000", "155706.734000", "155708.734000", "155710.734000", "155712.733000", "155714.733000", "155716.734000", "155718.732000", "155720.734000", "155722.733000", "155724.734000", "155726.734000", "155728.734000", "155730.733000", "155732.734000", "155734.733000", "155736.733000", "155738.734000", "155740.734000", "155742.733000", "155744.734000", "155746.733000", "155748.734000", "155750.734000", "155752.732000", "155754.734000", "155756.733000", "155758.734000", "155800.734000", "155802.734000", "155804.733000", "155806.733000", "155808.733000", "155810.732000", "155812.733000", "155814.733000", "155816.733000", "155818.733000", "155820.733000", "155822.734000", "155824.733000", "155826.734000", "155828.732000", "155830.733000", "155832.734000", "155834.733000", "155836.734000", "155838.733000", "155840.734000", "155842.734000", "155844.733000", "155846.734000", "155848.733000", "155850.733000", "155852.734000", "155854.733000", "155856.734000", "155858.734000", "155900.734000", "155902.732000", "155904.734000", "155906.734000", "155908.734000", "155910.734000", "155912.734000", "155914.733000", "155916.733000", "155918.733000", "155920.732000", "155922.733000", "155924.734000", "155926.733000", "155928.734000", "155930.733000", "155932.733000", "155934.734000", "155936.734000", "155938.733000", "155940.734000", "155942.733000", "155944.734000", "155946.733000", "155948.734000", "155950.734000", "155952.734000", "155954.733000", "155956.734000", "155958.733000", "160000.733000", "160002.733000", "160004.734000", "160006.734000", "160008.734000", "160010.734000", "160012.733000", "160014.733000", "160016.734000", "160018.734000", "160020.734000", "160022.734000", "160024.734000", "160026.733000", "160028.562000"],
      "InstanceNumber": [1, 2, 3, 4, 5, 6, 7, 8, 9, 10, 11, 12, 13, 14, 15, 16, 17, 18, 19, 20, 21, 22, 23, 24, 25, 26, 27, 28, 29, 30, 31, 32, 33, 34, 35, 36, 37, 38, 39, 40, 41, 42, 43, 44, 45, 46, 47, 48, 49, 50, 51, 52, 53, 54, 55, 56, 57, 58, 59, 60, 61, 62, 63, 64, 65, 66, 67, 68, 69, 70, 71, 72, 73, 74, 75, 76, 77, 78, 79, 80, 81, 82, 83, 84, 85, 86, 87, 88, 89, 90, 91, 92, 93, 94, 95, 96, 97, 98, 99, 100, 101, 102, 103, 104, 105, 106, 107, 108, 109, 110, 111, 112, 113, 114, 115, 116, 117, 118, 119, 120, 121, 122, 123, 124, 125, 126, 127, 128, 129, 130, 131, 132, 133, 134, 135, 136, 137, 138, 139, 140, 141, 142, 143, 144, 145, 146, 147, 148, 149, 150],
      "LargestImagePixelValue": [3268, 3220, 3238, 3178, 3187, 3200, 3195, 3191, 3185, 3193, 3229, 3268, 3229, 3205, 3143, 3179, 3175, 3179, 3187, 3191, 3158, 3138, 3129, 3172, 3250, 3332, 3341, 3216, 3164, 3214, 3212, 3179, 3217, 3304, 3355, 3377, 3358, 3325, 3248, 3275, 3271, 3275, 3302, 3318, 3308, 3352, 3374, 3347, 3276, 3314, 3323, 3348, 3312, 3260, 3309, 3344, 3387, 3356, 3341, 3336, 3353, 3330, 3346, 3358, 3332, 3343, 3323, 3409, 3441, 3396, 3339, 3274, 3329, 3350, 3381, 3352, 3303, 3301, 3344, 3343, 3312, 3294, 3245, 3244, 3301, 3306, 3280, 3288, 3300, 3339, 3295, 3289, 3345, 3337, 3272, 3287, 3292, 3293, 3277, 3313, 3345, 3321, 3237, 3218, 3283, 3293, 3285, 3247, 3245, 3249, 3269, 3255, 3265, 3342, 3343, 3367, 3329, 3278, 3302, 3342, 3298, 3328, 3333, 3356, 3336, 3382, 3342, 3381, 3302, 3296, 3335, 3300, 3301, 3314, 3267, 3294, 3268, 3235, 3226, 3274, 3259, 3290, 3260, 3251, 3281, 3229, 3266, 3277, 3260, 3232],
      "WindowCenter": [781.0, 778.0, 777.0, 776.0, 776.0, 777.0, 777.0, 777.0, 776.0, 776.0, 778.0, 778.0, 777.0, 776.0, 776.0, 776.0, 776.0, 776.0, 777.0, 778.0, 777.0, 774.0, 774.0, 776.0, 778.0, 779.0, 778.0, 777.0, 775.0, 775.0, 776.0, 776.0, 777.0, 779.0, 780.0, 780.0, 779.0, 777.0, 776.0, 777.0, 777.0, 778.0, 778.0, 778.0, 777.0, 778.0, 779.0, 779.0, 778.0, 779.0, 780.0, 779.0, 777.0, 776.0, 777.0, 778.0, 779.0, 778.0, 778.0, 778.0, 778.0, 777.0, 777.0, 778.0, 778.0, 778.0, 779.0, 781.0, 781.0, 779.0, 777.0, 776.0, 776.0, 777.0, 777.0, 778.0, 778.0, 778.0, 778.0, 778.0, 778.0, 777.0, 777.0, 778.0, 778.0, 777.0, 776.0, 777.0, 778.0, 779.0, 778.0, 777.0, 777.0, 777.0, 778.0, 778.0, 777.0, 777.0, 777.0, 777.0, 778.0, 778.0, 777.0, 776.0, 777.0, 778.0, 778.0, 777.0, 776.0, 776.0, 775.0, 776.0, 777.0, 778.0, 778.0, 778.0, 777.0, 777.0, 778.0, 779.0, 779.0, 779.0, 779.0, 780.0, 780.0, 780.0, 778.0, 778.0, 777.0, 778.0, 778.0, 778.0, 777.0, 777.0, 776.0, 777.0, 777.0, 777.0, 777.0, 777.0, 776.0, 777.0, 777.0, 776.0, 776.0, 775.0, 775.0, 775.0, 775.0, 775.0],
      "WindowWidth": [1697.0, 1691.0, 1687.0, 1683.0, 1684.0, 1688.0, 1688.0, 1686.0, 1683.0, 1685.0, 1690.0, 1690.0, 1686.0, 1683.0, 1683.0, 1684.0, 1684.0, 1685.0, 1688.0, 1691.0, 1686.0, 1679.0, 1678.0, 1683.0, 1689.0, 1692.0, 1691.0, 1686.0, 1682.0, 1683.0, 1684.0, 1684.0, 1687.0, 1693.0, 1697.0, 1697.0, 1691.0, 1687.0, 1685.0, 1688.0, 1688.0, 1688.0, 1690.0, 1689.0, 1688.0, 1691.0, 1692.0, 1693.0, 1691.0, 1694.0, 1696.0, 1692.0, 1686.0, 1683.0, 1686.0, 1690.0, 1693.0, 1691.0, 1689.0, 1689.0, 1689.0, 1688.0, 1688.0, 1691.0, 1691.0, 1691.0, 1692.0, 1697.0, 1698.0, 1693.0, 1688.0, 1684.0, 1684.0, 1686.0, 1688.0, 1689.0, 1689.0, 1689.0, 1689.0, 1689.0, 1689.0, 1689.0, 1688.0, 1691.0, 1690.0, 1687.0, 1686.0, 1688.0, 1690.0, 1692.0, 1689.0, 1687.0, 1686.0, 1688.0, 1689.0, 1689.0, 1688.0, 1688.0, 1687.0, 1689.0, 1690.0, 1689.0, 1686.0, 1685.0, 1688.0, 1690.0, 1689.0, 1686.0, 1684.0, 1683.0, 1682.0, 1684.0, 1687.0, 1691.0, 1691.0, 1690.0, 1688.0, 1687.0, 1690.0, 1693.0, 1694.0, 1693.0, 1693.0, 1695.0, 1695.0, 1695.0, 1690.0, 1689.0, 1687.0, 1688.0, 1690.0, 1689.0, 1687.0, 1687.0, 1685.0, 1688.0, 1687.0, 1688.0, 1688.0, 1686.0, 1685.0, 1687.0, 1686.0, 1685.0, 1684.0, 1682.0, 1681.0, 1683.0, 1681.0, 1680.0]
    },
    "slices": {}
  }
}