{
  "AcquisitionMatrixPE": 100,
  "AcquisitionNumber": 1,
  "AcquisitionTime": "16:15:36.205000",
  "BandwidthPerPixelPhaseEncode": 18.519,
  "BaseResolution": 100,
  "BodyPartExamined": "BRAIN",
  "ConsistencyInfo": "N4_VE11C_LATEST_20160120",
  "ConversionSoftware": "dcm2niix",
  "ConversionSoftwareVersion": "v1.0.20180622 GCC4.9.2",
  "DerivedVendorReportedEchoSpacing": 0.000539986,
  "DeviceSerialNumber": "166078",
  "DwellTime": 2.1e-06,
  "EchoTime": 0.034,
  "EchoTrainLength": 100,
  "EffectiveEchoSpacing": 0.000539986,
  "FlipAngle": 90,
  "ImageOrientationPatientDICOM": [1, 0, 0, 0, 0.964095, -0.265556],
  "ImageType": [
    "ORIGINAL",
    "PRIMARY",
    "M",
    "ND",
    "MOSAIC"
],
  "InPlanePhaseEncodingDirectionDICOM": "COL",
  "InstitutionAddress": "Street_StreetNo_Bei_Jing_District_CN_ZIP",
  "InstitutionName": "BeiJing_Normal_University",
  "InstitutionalDepartmentName": "Department",
  "MRAcquisitionType": "2D",
  "MagneticFieldStrength": 3,
  "Manufacturer": "Siemens",
  "ManufacturersModelName": "Prisma",
  "Modality": "MR",
  "MultibandAccelerationFactor": 3,
  "PartialFourier": 1,
  "PatientPosition": "HFS",
  "PercentPhaseFOV": 100,
  "PhaseEncodingDirection": "j-",
  "PhaseEncodingSteps": 100,
  "PhaseResolution": 1,
  "PixelBandwidth": 2380,
  "ProcedureStepDescription": "BNU_P2018_64CH_Zhen.ZongLei",
  "ProtocolName": "bold_100x100_s3_2x2x2_retino_150",
  "PulseSequenceDetails": "%SiemensSeq%_ep2d_bold",
  "ReceiveCoilActiveElements": "HC1-7;NC1",
  "ReceiveCoilName": "HeadNeck_64",
  "ReconMatrixPE": 100,
  "RepetitionTime": 2,
  "SAR": 0.0639597,
  "ScanOptions": "FS",
  "ScanningSequence": "EP",
  "SequenceName": "_epfid2d1_100",
  "SequenceVariant": "SK",
  "SeriesDescription": "bold_100x100_s3_2x2x2_retino_150",
  "SeriesNumber": 12,
  "ShimSetting": [-5459, -11476, -1279, 418, -9, -332, -271, 50],
  "SliceThickness": 2,
  "SliceTiming": [1.485, 0, 0.99, 0.0825, 1.0725, 0.165, 1.155, 0.2475, 1.2375, 0.33, 1.32, 0.4125, 1.4025, 0.5775, 1.5675, 0.66, 1.65, 0.7425, 1.7325, 0.825, 1.815, 0.9075, 1.8975, 0.495, 1.485, 0, 0.99, 0.0825, 1.0725, 0.165, 1.155, 0.2475, 1.2375, 0.33, 1.32, 0.4125, 1.4025, 0.5775, 1.5675, 0.66, 1.65, 0.7425, 1.7325, 0.825, 1.815, 0.9075, 1.8975, 0.495, 1.485, 0, 0.99, 0.0825, 1.0725, 0.165, 1.155, 0.2475, 1.2375, 0.33, 1.32, 0.4125, 1.4025, 0.5775, 1.5675, 0.66, 1.65, 0.7425, 1.7325, 0.825, 1.815, 0.9075, 1.8975, 0.495],
  "SoftwareVersions": "syngo_MR_E11",
  "SpacingBetweenSlices": 2,
  "StationName": "AWP166078",
  "TaskName": "retinotopy",
  "TotalReadoutTime": 0.0534586,
  "TxRefAmp": 209.31,
  "dcmmeta_affine": [
    [-2.0, 0.0, 0.0, 102.02409362792969],
    [0.0, 1.92819082736969, -0.5311122536659241, -76.749755859375],
    [0.0, 0.5311122536659241, 1.92819082736969, -98.02226257324219],
    [0.0, 0.0, 0.0, 1.0]
],
  "dcmmeta_reorient_transform": [
    [0.0, -1.0, 0.0, 99.0],
    [1.0, 0.0, 0.0, 0.0],
    [0.0, 0.0, 1.0, 0.0],
    [0.0, 0.0, 0.0, 1.0]
],
  "dcmmeta_shape": [100, 100, 72, 150],
  "dcmmeta_slice_dim": 2,
  "dcmmeta_version": 0.6,
  "global": {
    "const": {
      "AcquisitionMatrix": [100, 0, 0, 100],
      "AngioFlag": "N",
      "BitsAllocated": 16,
      "BitsStored": 12,
      "BodyPartExamined": "BRAIN",
      "Columns": 900,
      "EchoNumbers": 1,
      "EchoTime": 34.0,
      "EchoTrainLength": 100,
      "FlipAngle": 90.0,
      "HighBit": 11,
      "ImageOrientationPatient": [1.0, 0.0, 0.0, 0.0, 0.96409539939404, -0.2655561350586],
      "ImagePositionPatient": [-902.02409648895, -885.41745163298, 167.00275696533],
      "ImageType": [
        "ORIGINAL",
        "PRIMARY",
        "M",
        "ND",
        "MOSAIC"
],
      "ImagedNucleus": "1H",
      "ImagingFrequency": 123.257789,
      "InPlanePhaseEncodingDirection": "COL",
      "MRAcquisitionType": "2D",
      "MagneticFieldStrength": 3.0,
      "Manufacturer": "SIEMENS",
      "ManufacturerModelName": "Prisma",
      "Modality": "MR",
      "NumberOfAverages": 1.0,
      "NumberOfPhaseEncodingSteps": 100,
      "PercentPhaseFieldOfView": 100.0,
      "PercentSampling": 100.0,
      "PerformedProcedureStepStartTime": "152922.304000",
      "PhotometricInterpretation": "MONOCHROME2",
      "PixelBandwidth": 2380.0,
      "PixelRepresentation": 0,
      "PixelSpacing": [2.0, 2.0],
      "ProtocolName": "bold_100x100_s3_2x2x2_retino_150",
      "RepetitionTime": 2000.0,
      "Rows": 900,
      "SAR": 0.06395974673457,
      "SamplesPerPixel": 1,
      "ScanOptions": "FS",
      "ScanningSequence": "EP",
      "SequenceName": "*epfid2d1_100",
      "SequenceVariant": "SK",
      "SeriesDescription": "bold_100x100_s3_2x2x2_retino_150",
      "SeriesNumber": 12,
      "SeriesTime": "161539.109000",
      "SliceLocation": -74.121446692686,
      "SliceThickness": 2.0,
      "SmallestImagePixelValue": 0,
      "SoftwareVersions": "syngo MR E11",
      "SpacingBetweenSlices": 2.0000000337521,
      "SpecificCharacterSet": "ISO_IR 100",
      "StudyID": "1",
      "StudyTime": "152922.223000",
      "TransmitCoilName": "Body",
      "VariableFlipAngleFlag": "N",
      "WindowCenterWidthExplanation": "Algo1",
      "dBdt": 0.0},
    "slices": {}
  },
  "time": {
    "samples": {
      "AcquisitionNumber": [1, 2, 3, 4, 5, 6, 7, 8, 9, 10, 11, 12, 13, 14, 15, 16, 17, 18, 19, 20, 21, 22, 23, 24, 25, 26, 27, 28, 29, 30, 31, 32, 33, 34, 35, 36, 37, 38, 39, 40, 41, 42, 43, 44, 45, 46, 47, 48, 49, 50, 51, 52, 53, 54, 55, 56, 57, 58, 59, 60, 61, 62, 63, 64, 65, 66, 67, 68, 69, 70, 71, 72, 73, 74, 75, 76, 77, 78, 79, 80, 81, 82, 83, 84, 85, 86, 87, 88, 89, 90, 91, 92, 93, 94, 95, 96, 97, 98, 99, 100, 101, 102, 103, 104, 105, 106, 107, 108, 109, 110, 111, 112, 113, 114, 115, 116, 117, 118, 119, 120, 121, 122, 123, 124, 125, 126, 127, 128, 129, 130, 131, 132, 133, 134, 135, 136, 137, 138, 139, 140, 141, 142, 143, 144, 145, 146, 147, 148, 149, 150],
      "AcquisitionTime": ["161536.205000", "161538.205000", "161540.205000", "161542.205000", "161544.205000", "161546.205000", "161548.205000", "161550.205000", "161552.205000", "161554.205000", "161556.205000", "161558.205000", "161600.205000", "161602.205000", "161604.205000", "161606.205000", "161608.205000", "161610.205000", "161612.205000", "161614.205000", "161616.205000", "161618.205000", "161620.205000", "161622.205000", "161624.205000", "161626.205000", "161628.205000", "161630.205000", "161632.205000", "161634.205000", "161636.205000", "161638.205000", "161640.205000", "161642.205000", "161644.205000", "161646.205000", "161648.205000", "161650.205000", "161652.205000", "161654.205000", "161656.205000", "161658.205000", "161700.205000", "161702.205000", "161704.205000", "161706.205000", "161708.205000", "161710.205000", "161712.205000", "161714.205000", "161716.205000", "161718.205000", "161720.205000", "161722.205000", "161724.205000", "161726.205000", "161728.205000", "161730.205000", "161732.205000", "161734.205000", "161736.205000", "161738.205000", "161740.205000", "161742.205000", "161744.205000", "161746.205000", "161748.205000", "161750.205000", "161752.205000", "161754.205000", "161756.205000", "161758.205000", "161800.205000", "161802.205000", "161804.205000", "161806.205000", "161808.205000", "161810.205000", "161812.205000", "161814.205000", "161816.205000", "161818.205000", "161820.205000", "161822.205000", "161824.205000", "161826.205000", "161828.205000", "161830.205000", "161832.205000", "161834.205000", "161836.205000", "161838.205000", "161840.205000", "161842.205000", "161844.205000", "161846.205000", "161848.205000", "161850.205000", "161852.205000", "161854.205000", "161856.205000", "161858.205000", "161900.205000", "161902.205000", "161904.205000", "161906.205000", "161908.205000", "161910.205000", "161912.205000", "161914.205000", "161916.205000", "161918.205000", "161920.205000", "161922.205000", "161924.205000", "161926.205000", "161928.205000", "161930.205000", "161932.205000", "161934.205000", "161936.205000", "161938.205000", "161940.205000", "161942.205000", "161944.205000", "161946.205000", "161948.205000", "161950.205000", "161952.205000", "161954.205000", "161956.205000", "161958.205000", "162000.205000", "162002.205000", "162004.205000", "162006.205000", "162008.205000", "162010.205000", "162012.205000", "162014.205000", "162016.205000", "162018.205000", "162020.205000", "162022.205000", "162024.205000", "162026.205000", "162028.205000", "162030.205000", "162032.205000", "162034.205000"],
      "ContentTime": ["161539.113000", "161540.609000", "161542.609000", "161544.610000", "161546.609000", "161548.608000", "161550.608000", "161552.608000", "161554.608000", "161556.609000", "161558.609000", "161600.609000", "161602.609000", "161604.609000", "161606.608000", "161608.608000", "161610.608000", "161612.608000", "161614.608000", "161616.610000", "161618.610000", "161620.610000", "161622.609000", "161624.609000", "161626.609000", "161628.608000", "161630.609000", "161632.608000", "161634.610000", "161636.609000", "161638.609000", "161640.609000", "161642.608000", "161644.608000", "161646.609000", "161648.608000", "161650.609000", "161652.609000", "161654.610000", "161656.608000", "161658.608000", "161700.609000", "161702.609000", "161704.608000", "161706.608000", "161708.610000", "161710.609000", "161712.609000", "161714.609000", "161716.608000", "161718.608000", "161720.609000", "161722.608000", "161724.608000", "161726.609000", "161728.609000", "161730.610000", "161732.609000", "161734.609000", "161736.609000", "161738.608000", "161740.609000", "161742.609000", "161744.610000", "161746.609000", "161748.610000", "161750.609000", "161752.608000", "161754.609000", "161756.608000", "161758.609000", "161800.610000", "161802.610000", "161804.610000", "161806.608000", "161808.608000", "161810.609000", "161812.609000", "161814.608000", "161816.608000", "161818.610000", "161820.610000", "161822.610000", "161824.609000", "161826.609000", "161828.609000", "161830.608000", "161832.609000", "161834.608000", "161836.609000", "161838.610000", "161840.609000", "161842.609000", "161844.609000", "161846.609000", "161848.608000", "161850.609000", "161852.609000", "161854.610000", "161856.610000", "161858.610000", "161900.608000", "161902.609000", "161904.609000", "161906.609000", "161908.609000", "161910.609000", "161912.609000", "161914.610000", "161916.609000", "161918.608000", "161920.608000", "161922.608000", "161924.609000", "161926.609000", "161928.610000", "161930.609000", "161932.609000", "161934.608000", "161936.608000", "161938.609000", "161940.608000", "161942.609000", "161944.609000", "161946.609000", "161948.610000", "161950.609000", "161952.609000", "161954.608000", "161956.609000", "161958.609000", "162000.609000", "162002.608000", "162004.609000", "162006.610000", "162008.610000", "162010.609000", "162012.608000", "162014.609000", "162016.608000", "162018.609000", "162020.609000", "162022.609000", "162024.610000", "162026.609000", "162028.609000", "162030.609000", "162032.609000", "162034.608000", "162036.284000"],
      "InstanceCreationTime": ["161539.113000", "161540.609000", "161542.609000", "161544.610000", "161546.609000", "161548.608000", "161550.608000", "161552.608000", "161554.608000", "161556.609000", "161558.609000", "161600.609000", "161602.609000", "161604.609000", "161606.608000", "161608.608000", "161610.608000", "161612.608000", "161614.608000", "161616.610000", "161618.610000", "161620.610000", "161622.609000", "161624.609000", "161626.609000", "161628.608000", "161630.609000", "161632.608000", "161634.610000", "161636.609000", "161638.609000", "161640.609000", "161642.608000", "161644.608000", "161646.609000", "161648.608000", "161650.609000", "161652.609000", "161654.610000", "161656.608000", "161658.608000", "161700.609000", "161702.609000", "161704.608000", "161706.608000", "161708.610000", "161710.609000", "161712.609000", "161714.609000", "161716.608000", "161718.608000", "161720.609000", "161722.608000", "161724.608000", "161726.609000", "161728.609000", "161730.610000", "161732.609000", "161734.609000", "161736.609000", "161738.608000", "161740.609000", "161742.609000", "161744.610000", "161746.609000", "161748.610000", "161750.609000", "161752.608000", "161754.609000", "161756.608000", "161758.609000", "161800.610000", "161802.610000", "161804.610000", "161806.608000", "161808.608000", "161810.609000", "161812.609000", "161814.608000", "161816.608000", "161818.610000", "161820.610000", "161822.610000", "161824.609000", "161826.609000", "161828.609000", "161830.608000", "161832.609000", "161834.608000", "161836.609000", "161838.610000", "161840.609000", "161842.609000", "161844.609000", "161846.609000", "161848.608000", "161850.609000", "161852.609000", "161854.610000", "161856.610000", "161858.610000", "161900.608000", "161902.609000", "161904.609000", "161906.609000", "161908.609000", "161910.609000", "161912.609000", "161914.610000", "161916.609000", "161918.608000", "161920.608000", "161922.608000", "161924.609000", "161926.609000", "161928.610000", "161930.609000", "161932.609000", "161934.608000", "161936.608000", "161938.609000", "161940.608000", "161942.609000", "161944.609000", "161946.609000", "161948.610000", "161950.609000", "161952.609000", "161954.608000", "161956.609000", "161958.609000", "162000.609000", "162002.608000", "162004.609000", "162006.610000", "162008.610000", "162010.609000", "162012.608000", "162014.609000", "162016.608000", "162018.609000", "162020.609000", "162022.609000", "162024.610000", "162026.609000", "162028.609000", "162030.609000", "162032.609000", "162034.608000", "162036.284000"],
      "InstanceNumber": [1, 2, 3, 4, 5, 6, 7, 8, 9, 10, 11, 12, 13, 14, 15, 16, 17, 18, 19, 20, 21, 22, 23, 24, 25, 26, 27, 28, 29, 30, 31, 32, 33, 34, 35, 36, 37, 38, 39, 40, 41, 42, 43, 44, 45, 46, 47, 48, 49, 50, 51, 52, 53, 54, 55, 56, 57, 58, 59, 60, 61, 62, 63, 64, 65, 66, 67, 68, 69, 70, 71, 72, 73, 74, 75, 76, 77, 78, 79, 80, 81, 82, 83, 84, 85, 86, 87, 88, 89, 90, 91, 92, 93, 94, 95, 96, 97, 98, 99, 100, 101, 102, 103, 104, 105, 106, 107, 108, 109, 110, 111, 112, 113, 114, 115, 116, 117, 118, 119, 120, 121, 122, 123, 124, 125, 126, 127, 128, 129, 130, 131, 132, 133, 134, 135, 136, 137, 138, 139, 140, 141, 142, 143, 144, 145, 146, 147, 148, 149, 150],
      "LargestImagePixelValue": [3525, 3394, 3380, 3370, 3390, 3410, 3436, 3484, 3396, 3434, 3428, 3472, 3478, 3466, 3470, 3442, 3460, 3449, 3419, 3447, 3428, 3436, 3431, 3497, 3455, 3388, 3415, 3391, 3448, 3465, 3474, 3466, 3454, 3428, 3425, 3460, 3483, 3442, 3420, 3444, 3423, 3405, 3421, 3483, 3448, 3402, 3415, 3428, 3446, 3452, 3422, 3446, 3466, 3481, 3485, 3452, 3459, 3474, 3392, 3404, 3451, 3471, 3422, 3427, 3434, 3491, 3489, 3481, 3469, 3495, 3512, 3479, 3476, 3488, 3495, 3467, 3402, 3434, 3449, 3443, 3472, 3500, 3511, 3456, 3442, 3464, 3447, 3403, 3385, 3382, 3387, 3378, 3414, 3452, 3443, 3434, 3451, 3495, 3528, 3513, 3511, 3490, 3468, 3455, 3441, 3446, 3449, 3397, 3399, 3469, 3477, 3430, 3403, 3442, 3469, 3448, 3427, 3451, 3425, 3433, 3453, 3486, 3456, 3461, 3492, 3501, 3491, 3510, 3472, 3463, 3514, 3513, 3446, 3462, 3473, 3533, 3492, 3484, 3471, 3497, 3481, 3466, 3500, 3462, 3462, 3425, 3444, 3431, 3455, 3456],
      "WindowCenter": [782.0, 779.0, 778.0, 778.0, 778.0, 779.0, 778.0, 778.0, 778.0, 779.0, 780.0, 781.0, 781.0, 780.0, 780.0, 779.0, 780.0, 781.0, 781.0, 780.0, 779.0, 779.0, 779.0, 780.0, 780.0, 779.0, 778.0, 778.0, 779.0, 779.0, 780.0, 780.0, 780.0, 779.0, 779.0, 781.0, 782.0, 780.0, 779.0, 778.0, 778.0, 779.0, 780.0, 780.0, 778.0, 777.0, 778.0, 779.0, 780.0, 780.0, 780.0, 781.0, 781.0, 781.0, 780.0, 779.0, 779.0, 779.0, 778.0, 778.0, 779.0, 780.0, 780.0, 780.0, 779.0, 781.0, 781.0, 781.0, 781.0, 781.0, 781.0, 781.0, 780.0, 780.0, 781.0, 780.0, 778.0, 778.0, 778.0, 780.0, 781.0, 781.0, 780.0, 779.0, 778.0, 780.0, 780.0, 779.0, 777.0, 777.0, 778.0, 779.0, 780.0, 779.0, 778.0, 778.0, 779.0, 781.0, 782.0, 781.0, 780.0, 780.0, 780.0, 779.0, 780.0, 782.0, 781.0, 779.0, 779.0, 780.0, 780.0, 780.0, 779.0, 780.0, 780.0, 781.0, 780.0, 779.0, 779.0, 779.0, 780.0, 781.0, 781.0, 781.0, 781.0, 781.0, 781.0, 781.0, 780.0, 780.0, 781.0, 780.0, 779.0, 778.0, 779.0, 781.0, 781.0, 780.0, 780.0, 781.0, 781.0, 780.0, 780.0, 779.0, 779.0, 779.0, 779.0, 779.0, 780.0, 780.0],
      "WindowWidth": [1700.0, 1693.0, 1690.0, 1688.0, 1690.0, 1691.0, 1690.0, 1691.0, 1689.0, 1691.0, 1696.0, 1699.0, 1697.0, 1695.0, 1694.0, 1694.0, 1695.0, 1698.0, 1697.0, 1694.0, 1691.0, 1692.0, 1693.0, 1694.0, 1695.0, 1691.0, 1690.0, 1690.0, 1691.0, 1692.0, 1696.0, 1696.0, 1694.0, 1692.0, 1692.0, 1697.0, 1700.0, 1695.0, 1691.0, 1690.0, 1690.0, 1693.0, 1695.0, 1694.0, 1689.0, 1688.0, 1690.0, 1692.0, 1695.0, 1695.0, 1695.0, 1698.0, 1700.0, 1698.0, 1694.0, 1693.0, 1693.0, 1692.0, 1689.0, 1689.0, 1692.0, 1695.0, 1694.0, 1694.0, 1694.0, 1697.0, 1698.0, 1699.0, 1698.0, 1700.0, 1700.0, 1698.0, 1695.0, 1695.0, 1697.0, 1695.0, 1690.0, 1690.0, 1691.0, 1695.0, 1699.0, 1699.0, 1696.0, 1691.0, 1691.0, 1695.0, 1695.0, 1692.0, 1688.0, 1687.0, 1690.0, 1693.0, 1694.0, 1693.0, 1690.0, 1689.0, 1693.0, 1699.0, 1702.0, 1698.0, 1695.0, 1695.0, 1694.0, 1693.0, 1696.0, 1700.0, 1698.0, 1692.0, 1692.0, 1695.0, 1696.0, 1694.0, 1693.0, 1695.0, 1696.0, 1697.0, 1695.0, 1694.0, 1692.0, 1693.0, 1696.0, 1698.0, 1699.0, 1697.0, 1697.0, 1697.0, 1699.0, 1698.0, 1696.0, 1695.0, 1697.0, 1696.0, 1692.0, 1691.0, 1693.0, 1697.0, 1697.0, 1696.0, 1696.0, 1699.0, 1699.0, 1696.0, 1694.0, 1692.0, 1692.0, 1691.0, 1691.0, 1692.0, 1694.0, 1695.0]
    },
    "slices": {}
  }
}