{
  "AcquisitionMatrixPE": 100,
  "AcquisitionNumber": 1,
  "AcquisitionTime": "15:38:5.347500",
  "BandwidthPerPixelPhaseEncode": 18.519,
  "BaseResolution": 100,
  "BodyPartExamined": "BRAIN",
  "ConsistencyInfo": "N4_VE11C_LATEST_20160120",
  "ConversionSoftware": "dcm2niix",
  "ConversionSoftwareVersion": "v1.0.20180622 GCC4.9.2",
  "DerivedVendorReportedEchoSpacing": 0.000539986,
  "DeviceSerialNumber": "166078",
  "DwellTime": 2.1e-06,
  "EchoTime": 0.034,
  "EchoTrainLength": 100,
  "EffectiveEchoSpacing": 0.000539986,
  "FlipAngle": 90,
  "ImageOrientationPatientDICOM": [1, 0, 0, 0, 0.964095, -0.265556],
  "ImageType": [
    "ORIGINAL",
    "PRIMARY",
    "M",
    "ND",
    "MOSAIC"
],
  "InPlanePhaseEncodingDirectionDICOM": "COL",
  "InstitutionAddress": "Street_StreetNo_Bei_Jing_District_CN_ZIP",
  "InstitutionName": "BeiJing_Normal_University",
  "InstitutionalDepartmentName": "Department",
  "MRAcquisitionType": "2D",
  "MagneticFieldStrength": 3,
  "Manufacturer": "Siemens",
  "ManufacturersModelName": "Prisma",
  "Modality": "MR",
  "MultibandAccelerationFactor": 3,
  "PartialFourier": 1,
  "PatientPosition": "HFS",
  "PercentPhaseFOV": 100,
  "PhaseEncodingDirection": "j-",
  "PhaseEncodingSteps": 100,
  "PhaseResolution": 1,
  "PixelBandwidth": 2380,
  "ProcedureStepDescription": "BNU_P2018_64CH_Zhen.ZongLei",
  "ProtocolName": "bold_100x100_s3_2x2x2_retino_150",
  "PulseSequenceDetails": "%SiemensSeq%_ep2d_bold",
  "ReceiveCoilActiveElements": "HC1-7;NC1",
  "ReceiveCoilName": "HeadNeck_64",
  "ReconMatrixPE": 100,
  "RepetitionTime": 2,
  "SAR": 0.0639597,
  "ScanOptions": "FS",
  "ScanningSequence": "EP",
  "SequenceName": "_epfid2d1_100",
  "SequenceVariant": "SK",
  "SeriesDescription": "bold_100x100_s3_2x2x2_retino_150",
  "SeriesNumber": 4,
  "ShimSetting": [-5459, -11476, -1279, 418, -9, -332, -271, 50],
  "SliceThickness": 2,
  "SliceTiming": [1.485, 0, 0.99, 0.0825, 1.0725, 0.165, 1.155, 0.2475, 1.2375, 0.33, 1.32, 0.4125, 1.4025, 0.5775, 1.5675, 0.66, 1.65, 0.7425, 1.7325, 0.825, 1.815, 0.9075, 1.8975, 0.495, 1.485, 0, 0.99, 0.0825, 1.0725, 0.165, 1.155, 0.2475, 1.2375, 0.33, 1.32, 0.4125, 1.4025, 0.5775, 1.5675, 0.66, 1.65, 0.7425, 1.7325, 0.825, 1.815, 0.9075, 1.8975, 0.495, 1.485, 0, 0.99, 0.0825, 1.0725, 0.165, 1.155, 0.2475, 1.2375, 0.33, 1.32, 0.4125, 1.4025, 0.5775, 1.5675, 0.66, 1.65, 0.7425, 1.7325, 0.825, 1.815, 0.9075, 1.8975, 0.495],
  "SoftwareVersions": "syngo_MR_E11",
  "SpacingBetweenSlices": 2,
  "StationName": "AWP166078",
  "TaskName": "retinotopy",
  "TotalReadoutTime": 0.0534586,
  "TxRefAmp": 209.31,
  "dcmmeta_affine": [
    [-2.0, 0.0, 0.0, 102.02409362792969],
    [0.0, 1.92819082736969, -0.5311122536659241, -76.749755859375],
    [0.0, 0.5311122536659241, 1.92819082736969, -98.02226257324219],
    [0.0, 0.0, 0.0, 1.0]
],
  "dcmmeta_reorient_transform": [
    [0.0, -1.0, 0.0, 99.0],
    [1.0, 0.0, 0.0, 0.0],
    [0.0, 0.0, 1.0, 0.0],
    [0.0, 0.0, 0.0, 1.0]
],
  "dcmmeta_shape": [100, 100, 72, 150],
  "dcmmeta_slice_dim": 2,
  "dcmmeta_version": 0.6,
  "global": {
    "const": {
      "AcquisitionMatrix": [100, 0, 0, 100],
      "AngioFlag": "N",
      "BitsAllocated": 16,
      "BitsStored": 12,
      "BodyPartExamined": "BRAIN",
      "Columns": 900,
      "EchoNumbers": 1,
      "EchoTime": 34.0,
      "EchoTrainLength": 100,
      "FlipAngle": 90.0,
      "HighBit": 11,
      "ImageOrientationPatient": [1.0, 0.0, 0.0, 0.0, 0.96409539939404, -0.2655561350586],
      "ImagePositionPatient": [-902.02409648895, -885.41745163298, 167.00275696533],
      "ImageType": [
        "ORIGINAL",
        "PRIMARY",
        "M",
        "ND",
        "MOSAIC"
],
      "ImagedNucleus": "1H",
      "ImagingFrequency": 123.257791,
      "InPlanePhaseEncodingDirection": "COL",
      "MRAcquisitionType": "2D",
      "MagneticFieldStrength": 3.0,
      "Manufacturer": "SIEMENS",
      "ManufacturerModelName": "Prisma",
      "Modality": "MR",
      "NumberOfAverages": 1.0,
      "NumberOfPhaseEncodingSteps": 100,
      "PercentPhaseFieldOfView": 100.0,
      "PercentSampling": 100.0,
      "PerformedProcedureStepStartTime": "152922.304000",
      "PhotometricInterpretation": "MONOCHROME2",
      "PixelBandwidth": 2380.0,
      "PixelRepresentation": 0,
      "PixelSpacing": [2.0, 2.0],
      "ProtocolName": "bold_100x100_s3_2x2x2_retino_150",
      "RepetitionTime": 2000.0,
      "Rows": 900,
      "SAR": 0.06395974673457,
      "SamplesPerPixel": 1,
      "ScanOptions": "FS",
      "ScanningSequence": "EP",
      "SequenceName": "*epfid2d1_100",
      "SequenceVariant": "SK",
      "SeriesDescription": "bold_100x100_s3_2x2x2_retino_150",
      "SeriesNumber": 4,
      "SeriesTime": "153807.534000",
      "SliceLocation": -74.121446692686,
      "SliceThickness": 2.0,
      "SmallestImagePixelValue": 0,
      "SoftwareVersions": "syngo MR E11",
      "SpacingBetweenSlices": 2.0000000337521,
      "SpecificCharacterSet": "ISO_IR 100",
      "StudyID": "1",
      "StudyTime": "152922.223000",
      "TransmitCoilName": "Body",
      "VariableFlipAngleFlag": "N",
      "WindowCenterWidthExplanation": "Algo1",
      "dBdt": 0.0},
    "slices": {}
  },
  "time": {
    "samples": {
      "AcquisitionNumber": [1, 2, 3, 4, 5, 6, 7, 8, 9, 10, 11, 12, 13, 14, 15, 16, 17, 18, 19, 20, 21, 22, 23, 24, 25, 26, 27, 28, 29, 30, 31, 32, 33, 34, 35, 36, 37, 38, 39, 40, 41, 42, 43, 44, 45, 46, 47, 48, 49, 50, 51, 52, 53, 54, 55, 56, 57, 58, 59, 60, 61, 62, 63, 64, 65, 66, 67, 68, 69, 70, 71, 72, 73, 74, 75, 76, 77, 78, 79, 80, 81, 82, 83, 84, 85, 86, 87, 88, 89, 90, 91, 92, 93, 94, 95, 96, 97, 98, 99, 100, 101, 102, 103, 104, 105, 106, 107, 108, 109, 110, 111, 112, 113, 114, 115, 116, 117, 118, 119, 120, 121, 122, 123, 124, 125, 126, 127, 128, 129, 130, 131, 132, 133, 134, 135, 136, 137, 138, 139, 140, 141, 142, 143, 144, 145, 146, 147, 148, 149, 150],
      "AcquisitionTime": ["153805.347500", "153807.347500", "153809.347500", "153811.347500", "153813.347500", "153815.347500", "153817.347500", "153819.347500", "153821.347500", "153823.347500", "153825.347500", "153827.347500", "153829.347500", "153831.347500", "153833.347500", "153835.347500", "153837.347500", "153839.347500", "153841.347500", "153843.347500", "153845.347500", "153847.347500", "153849.347500", "153851.347500", "153853.347500", "153855.347500", "153857.347500", "153859.347500", "153901.347500", "153903.347500", "153905.347500", "153907.347500", "153909.347500", "153911.347500", "153913.347500", "153915.347500", "153917.347500", "153919.347500", "153921.347500", "153923.347500", "153925.347500", "153927.347500", "153929.347500", "153931.347500", "153933.347500", "153935.347500", "153937.347500", "153939.347500", "153941.347500", "153943.347500", "153945.347500", "153947.347500", "153949.347500", "153951.347500", "153953.347500", "153955.347500", "153957.347500", "153959.347500", "154001.347500", "154003.347500", "154005.347500", "154007.347500", "154009.347500", "154011.347500", "154013.347500", "154015.347500", "154017.347500", "154019.347500", "154021.347500", "154023.347500", "154025.347500", "154027.347500", "154029.347500", "154031.347500", "154033.347500", "154035.347500", "154037.347500", "154039.347500", "154041.347500", "154043.347500", "154045.347500", "154047.347500", "154049.347500", "154051.347500", "154053.347500", "154055.347500", "154057.347500", "154059.347500", "154101.347500", "154103.347500", "154105.347500", "154107.347500", "154109.347500", "154111.347500", "154113.347500", "154115.347500", "154117.347500", "154119.347500", "154121.347500", "154123.347500", "154125.347500", "154127.347500", "154129.347500", "154131.347500", "154133.347500", "154135.347500", "154137.347500", "154139.347500", "154141.347500", "154143.347500", "154145.347500", "154147.347500", "154149.347500", "154151.347500", "154153.347500", "154155.347500", "154157.347500", "154159.347500", "154201.347500", "154203.347500", "154205.347500", "154207.347500", "154209.347500", "154211.347500", "154213.347500", "154215.347500", "154217.347500", "154219.347500", "154221.347500", "154223.347500", "154225.347500", "154227.347500", "154229.347500", "154231.347500", "154233.347500", "154235.347500", "154237.347500", "154239.347500", "154241.347500", "154243.347500", "154245.347500", "154247.347500", "154249.347500", "154251.347500", "154253.347500", "154255.347500", "154257.347500", "154259.347500", "154301.347500", "154303.347500"],
      "ContentTime": ["153807.538000", "153809.033000", "153811.033000", "153813.034000", "153815.033000", "153817.033000", "153819.033000", "153821.033000", "153823.033000", "153825.034000", "153827.033000", "153829.033000", "153831.034000", "153833.032000", "153835.032000", "153837.032000", "153839.032000", "153841.034000", "153843.033000", "153845.034000", "153847.033000", "153849.034000", "153851.032000", "153853.033000", "153855.032000", "153857.032000", "153859.034000", "153901.033000", "153903.034000", "153905.034000", "153907.033000", "153909.032000", "153911.032000", "153913.032000", "153915.032000", "153917.033000", "153919.034000", "153921.033000", "153923.034000", "153925.033000", "153927.032000", "153929.033000", "153931.032000", "153933.033000", "153935.033000", "153937.034000", "153939.033000", "153941.034000", "153943.033000", "153945.033000", "153947.032000", "153949.033000", "153951.034000", "153953.034000", "153955.033000", "153957.034000", "153959.033000", "154001.033000", "154003.033000", "154005.033000", "154007.032000", "154009.033000", "154011.034000", "154013.033000", "154015.034000", "154017.033000", "154019.033000", "154021.032000", "154023.032000", "154025.034000", "154027.033000", "154029.033000", "154031.033000", "154033.033000", "154035.033000", "154037.033000", "154039.033000", "154041.033000", "154043.034000", "154045.033000", "154047.033000", "154049.033000", "154051.033000", "154053.032000", "154055.032000", "154057.032000", "154059.033000", "154101.034000", "154103.033000", "154105.034000", "154107.034000", "154109.034000", "154111.033000", "154113.033000", "154115.033000", "154117.033000", "154119.034000", "154121.034000", "154123.034000", "154125.034000", "154127.034000", "154129.035000", "154131.033000", "154133.032000", "154135.033000", "154137.033000", "154139.033000", "154141.033000", "154143.034000", "154145.032000", "154147.033000", "154149.033000", "154151.033000", "154153.034000", "154155.034000", "154157.033000", "154159.033000", "154201.034000", "154203.033000", "154205.032000", "154207.032000", "154209.032000", "154211.034000", "154213.034000", "154215.034000", "154217.034000", "154219.033000", "154221.032000", "154223.033000", "154225.033000", "154227.032000", "154229.033000", "154231.034000", "154233.033000", "154235.034000", "154237.034000", "154239.032000", "154241.033000", "154243.033000", "154245.034000", "154247.033000", "154249.034000", "154251.033000", "154253.033000", "154255.033000", "154257.032000", "154259.033000", "154301.032000", "154303.034000", "154304.879000"],
      "InstanceCreationTime": ["153807.538000", "153809.033000", "153811.033000", "153813.034000", "153815.033000", "153817.033000", "153819.033000", "153821.033000", "153823.033000", "153825.034000", "153827.033000", "153829.033000", "153831.034000", "153833.032000", "153835.032000", "153837.032000", "153839.032000", "153841.034000", "153843.033000", "153845.034000", "153847.033000", "153849.034000", "153851.032000", "153853.033000", "153855.032000", "153857.032000", "153859.034000", "153901.033000", "153903.034000", "153905.034000", "153907.033000", "153909.032000", "153911.032000", "153913.032000", "153915.032000", "153917.033000", "153919.034000", "153921.033000", "153923.034000", "153925.033000", "153927.032000", "153929.033000", "153931.032000", "153933.033000", "153935.033000", "153937.034000", "153939.033000", "153941.034000", "153943.033000", "153945.033000", "153947.032000", "153949.033000", "153951.034000", "153953.034000", "153955.033000", "153957.034000", "153959.033000", "154001.033000", "154003.033000", "154005.033000", "154007.032000", "154009.033000", "154011.034000", "154013.033000", "154015.034000", "154017.033000", "154019.033000", "154021.032000", "154023.032000", "154025.034000", "154027.033000", "154029.033000", "154031.033000", "154033.033000", "154035.033000", "154037.033000", "154039.033000", "154041.033000", "154043.034000", "154045.033000", "154047.033000", "154049.033000", "154051.033000", "154053.032000", "154055.032000", "154057.032000", "154059.033000", "154101.034000", "154103.033000", "154105.034000", "154107.034000", "154109.034000", "154111.033000", "154113.033000", "154115.033000", "154117.033000", "154119.034000", "154121.034000", "154123.034000", "154125.034000", "154127.034000", "154129.035000", "154131.033000", "154133.032000", "154135.033000", "154137.033000", "154139.033000", "154141.033000", "154143.034000", "154145.032000", "154147.033000", "154149.033000", "154151.033000", "154153.034000", "154155.034000", "154157.033000", "154159.033000", "154201.034000", "154203.033000", "154205.032000", "154207.032000", "154209.032000", "154211.034000", "154213.034000", "154215.034000", "154217.034000", "154219.033000", "154221.032000", "154223.033000", "154225.033000", "154227.032000", "154229.033000", "154231.034000", "154233.033000", "154235.034000", "154237.034000", "154239.032000", "154241.033000", "154243.033000", "154245.034000", "154247.033000", "154249.034000", "154251.033000", "154253.033000", "154255.033000", "154257.032000", "154259.033000", "154301.032000", "154303.034000", "154304.879000"],
      "InstanceNumber": [1, 2, 3, 4, 5, 6, 7, 8, 9, 10, 11, 12, 13, 14, 15, 16, 17, 18, 19, 20, 21, 22, 23, 24, 25, 26, 27, 28, 29, 30, 31, 32, 33, 34, 35, 36, 37, 38, 39, 40, 41, 42, 43, 44, 45, 46, 47, 48, 49, 50, 51, 52, 53, 54, 55, 56, 57, 58, 59, 60, 61, 62, 63, 64, 65, 66, 67, 68, 69, 70, 71, 72, 73, 74, 75, 76, 77, 78, 79, 80, 81, 82, 83, 84, 85, 86, 87, 88, 89, 90, 91, 92, 93, 94, 95, 96, 97, 98, 99, 100, 101, 102, 103, 104, 105, 106, 107, 108, 109, 110, 111, 112, 113, 114, 115, 116, 117, 118, 119, 120, 121, 122, 123, 124, 125, 126, 127, 128, 129, 130, 131, 132, 133, 134, 135, 136, 137, 138, 139, 140, 141, 142, 143, 144, 145, 146, 147, 148, 149, 150],
      "LargestImagePixelValue": [3622, 3522, 3512, 3492, 3502, 3514, 3486, 3520, 3506, 3482, 3551, 3553, 3585, 3564, 3548, 3579, 3581, 3580, 3517, 3514, 3556, 3503, 3440, 3432, 3468, 3430, 3444, 3471, 3456, 3441, 3471, 3492, 3540, 3553, 3525, 3546, 3575, 3563, 3465, 3437, 3472, 3494, 3415, 3444, 3428, 3424, 3408, 3444, 3471, 3477, 3440, 3429, 3449, 3444, 3414, 3432, 3426, 3362, 3404, 3497, 3477, 3426, 3447, 3465, 3486, 3482, 3511, 3508, 3485, 3469, 3512, 3467, 3460, 3424, 3392, 3376, 3389, 3415, 3402, 3387, 3436, 3474, 3462, 3476, 3484, 3486, 3454, 3488, 3435, 3367, 3408, 3378, 3369, 3399, 3413, 3379, 3477, 3537, 3533, 3503, 3501, 3411, 3412, 3459, 3491, 3480, 3468, 3470, 3460, 3466, 3428, 3400, 3445, 3510, 3512, 3430, 3380, 3439, 3423, 3399, 3369, 3364, 3370, 3399, 3396, 3422, 3379, 3341, 3375, 3368, 3378, 3350, 3344, 3352, 3357, 3385, 3384, 3415, 3409, 3383, 3342, 3389, 3347, 3240, 3328, 3378, 3342, 3344, 3338, 3339],
      "WindowCenter": [780.0, 777.0, 777.0, 777.0, 776.0, 775.0, 775.0, 775.0, 776.0, 777.0, 777.0, 777.0, 777.0, 777.0, 778.0, 779.0, 779.0, 778.0, 778.0, 778.0, 778.0, 778.0, 777.0, 777.0, 776.0, 775.0, 775.0, 776.0, 776.0, 776.0, 777.0, 777.0, 779.0, 779.0, 778.0, 778.0, 778.0, 778.0, 777.0, 777.0, 777.0, 777.0, 777.0, 776.0, 775.0, 775.0, 776.0, 777.0, 778.0, 777.0, 777.0, 777.0, 777.0, 778.0, 777.0, 777.0, 776.0, 776.0, 777.0, 779.0, 779.0, 777.0, 776.0, 776.0, 778.0, 779.0, 780.0, 780.0, 779.0, 778.0, 778.0, 778.0, 778.0, 777.0, 777.0, 777.0, 777.0, 778.0, 778.0, 778.0, 778.0, 777.0, 777.0, 777.0, 778.0, 778.0, 777.0, 777.0, 776.0, 775.0, 775.0, 775.0, 774.0, 774.0, 775.0, 776.0, 778.0, 779.0, 778.0, 777.0, 776.0, 775.0, 775.0, 777.0, 779.0, 780.0, 778.0, 777.0, 777.0, 776.0, 776.0, 776.0, 777.0, 777.0, 778.0, 777.0, 776.0, 776.0, 776.0, 776.0, 777.0, 777.0, 778.0, 778.0, 778.0, 778.0, 777.0, 776.0, 776.0, 776.0, 776.0, 777.0, 778.0, 778.0, 778.0, 778.0, 778.0, 778.0, 779.0, 780.0, 779.0, 778.0, 777.0, 776.0, 777.0, 777.0, 777.0, 777.0, 776.0, 777.0],
      "WindowWidth": [1698.0, 1689.0, 1687.0, 1688.0, 1686.0, 1684.0, 1682.0, 1683.0, 1687.0, 1689.0, 1691.0, 1690.0, 1690.0, 1689.0, 1691.0, 1695.0, 1695.0, 1693.0, 1692.0, 1693.0, 1693.0, 1692.0, 1690.0, 1688.0, 1686.0, 1683.0, 1684.0, 1686.0, 1687.0, 1687.0, 1688.0, 1690.0, 1695.0, 1694.0, 1693.0, 1693.0, 1694.0, 1692.0, 1689.0, 1688.0, 1689.0, 1688.0, 1688.0, 1687.0, 1684.0, 1684.0, 1686.0, 1690.0, 1691.0, 1691.0, 1689.0, 1689.0, 1691.0, 1691.0, 1690.0, 1688.0, 1685.0, 1685.0, 1690.0, 1696.0, 1695.0, 1689.0, 1687.0, 1688.0, 1691.0, 1695.0, 1698.0, 1698.0, 1696.0, 1692.0, 1692.0, 1691.0, 1690.0, 1689.0, 1688.0, 1688.0, 1689.0, 1691.0, 1690.0, 1690.0, 1690.0, 1690.0, 1688.0, 1690.0, 1692.0, 1693.0, 1691.0, 1689.0, 1686.0, 1683.0, 1682.0, 1682.0, 1681.0, 1681.0, 1683.0, 1684.0, 1692.0, 1695.0, 1693.0, 1690.0, 1686.0, 1683.0, 1684.0, 1690.0, 1695.0, 1696.0, 1692.0, 1689.0, 1687.0, 1687.0, 1685.0, 1686.0, 1687.0, 1689.0, 1690.0, 1688.0, 1686.0, 1686.0, 1686.0, 1687.0, 1688.0, 1690.0, 1690.0, 1691.0, 1690.0, 1690.0, 1687.0, 1684.0, 1684.0, 1684.0, 1686.0, 1688.0, 1689.0, 1691.0, 1691.0, 1692.0, 1692.0, 1692.0, 1695.0, 1695.0, 1693.0, 1691.0, 1688.0, 1685.0, 1688.0, 1688.0, 1687.0, 1687.0, 1686.0, 1688.0]
    },
    "slices": {}
  }
}