{
  "AcquisitionMatrixPE": 100,
  "AcquisitionNumber": 1,
  "AcquisitionTime": "15:49:38.462500",
  "BandwidthPerPixelPhaseEncode": 18.519,
  "BaseResolution": 100,
  "BodyPartExamined": "BRAIN",
  "ConsistencyInfo": "N4_VE11C_LATEST_20160120",
  "ConversionSoftware": "dcm2niix",
  "ConversionSoftwareVersion": "v1.0.20180622 GCC4.9.2",
  "DerivedVendorReportedEchoSpacing": 0.000539986,
  "DeviceSerialNumber": "166078",
  "DwellTime": 2.1e-06,
  "EchoTime": 0.034,
  "EchoTrainLength": 100,
  "EffectiveEchoSpacing": 0.000539986,
  "FlipAngle": 90,
  "ImageOrientationPatientDICOM": [1, 0, 0, 0, 0.964095, -0.265556],
  "ImageType": [
    "ORIGINAL",
    "PRIMARY",
    "M",
    "ND",
    "MOSAIC"
],
  "InPlanePhaseEncodingDirectionDICOM": "COL",
  "InstitutionAddress": "Street_StreetNo_Bei_Jing_District_CN_ZIP",
  "InstitutionName": "BeiJing_Normal_University",
  "InstitutionalDepartmentName": "Department",
  "MRAcquisitionType": "2D",
  "MagneticFieldStrength": 3,
  "Manufacturer": "Siemens",
  "ManufacturersModelName": "Prisma",
  "Modality": "MR",
  "MultibandAccelerationFactor": 3,
  "PartialFourier": 1,
  "PatientPosition": "HFS",
  "PercentPhaseFOV": 100,
  "PhaseEncodingDirection": "j-",
  "PhaseEncodingSteps": 100,
  "PhaseResolution": 1,
  "PixelBandwidth": 2380,
  "ProcedureStepDescription": "BNU_P2018_64CH_Zhen.ZongLei",
  "ProtocolName": "bold_100x100_s3_2x2x2_retino_150",
  "PulseSequenceDetails": "%SiemensSeq%_ep2d_bold",
  "ReceiveCoilActiveElements": "HC1-7;NC1",
  "ReceiveCoilName": "HeadNeck_64",
  "ReconMatrixPE": 100,
  "RepetitionTime": 2,
  "SAR": 0.0639597,
  "ScanOptions": "FS",
  "ScanningSequence": "EP",
  "SequenceName": "_epfid2d1_100",
  "SequenceVariant": "SK",
  "SeriesDescription": "bold_100x100_s3_2x2x2_retino_150",
  "SeriesNumber": 6,
  "ShimSetting": [-5459, -11476, -1279, 418, -9, -332, -271, 50],
  "SliceThickness": 2,
  "SliceTiming": [1.485, 0, 0.99, 0.0825, 1.0725, 0.165, 1.155, 0.2475, 1.2375, 0.33, 1.32, 0.4125, 1.4025, 0.5775, 1.5675, 0.66, 1.65, 0.7425, 1.7325, 0.825, 1.815, 0.9075, 1.8975, 0.495, 1.485, 0, 0.99, 0.0825, 1.0725, 0.165, 1.155, 0.2475, 1.2375, 0.33, 1.32, 0.4125, 1.4025, 0.5775, 1.5675, 0.66, 1.65, 0.7425, 1.7325, 0.825, 1.815, 0.9075, 1.8975, 0.495, 1.485, 0, 0.99, 0.0825, 1.0725, 0.165, 1.155, 0.2475, 1.2375, 0.33, 1.32, 0.4125, 1.4025, 0.5775, 1.5675, 0.66, 1.65, 0.7425, 1.7325, 0.825, 1.815, 0.9075, 1.8975, 0.495],
  "SoftwareVersions": "syngo_MR_E11",
  "SpacingBetweenSlices": 2,
  "StationName": "AWP166078",
  "TaskName": "retinotopy",
  "TotalReadoutTime": 0.0534586,
  "TxRefAmp": 209.31,
  "dcmmeta_affine": [
    [-2.0, 0.0, 0.0, 102.02409362792969],
    [0.0, 1.92819082736969, -0.5311122536659241, -76.749755859375],
    [0.0, 0.5311122536659241, 1.92819082736969, -98.02226257324219],
    [0.0, 0.0, 0.0, 1.0]
],
  "dcmmeta_reorient_transform": [
    [0.0, -1.0, 0.0, 99.0],
    [1.0, 0.0, 0.0, 0.0],
    [0.0, 0.0, 1.0, 0.0],
    [0.0, 0.0, 0.0, 1.0]
],
  "dcmmeta_shape": [100, 100, 72, 150],
  "dcmmeta_slice_dim": 2,
  "dcmmeta_version": 0.6,
  "global": {
    "const": {
      "AcquisitionMatrix": [100, 0, 0, 100],
      "AngioFlag": "N",
      "BitsAllocated": 16,
      "BitsStored": 12,
      "BodyPartExamined": "BRAIN",
      "Columns": 900,
      "EchoNumbers": 1,
      "EchoTime": 34.0,
      "EchoTrainLength": 100,
      "FlipAngle": 90.0,
      "HighBit": 11,
      "ImageOrientationPatient": [1.0, 0.0, 0.0, 0.0, 0.96409539939404, -0.2655561350586],
      "ImagePositionPatient": [-902.02409648895, -885.41745163298, 167.00275696533],
      "ImageType": [
        "ORIGINAL",
        "PRIMARY",
        "M",
        "ND",
        "MOSAIC"
],
      "ImagedNucleus": "1H",
      "ImagingFrequency": 123.257791,
      "InPlanePhaseEncodingDirection": "COL",
      "MRAcquisitionType": "2D",
      "MagneticFieldStrength": 3.0,
      "Manufacturer": "SIEMENS",
      "ManufacturerModelName": "Prisma",
      "Modality": "MR",
      "NumberOfAverages": 1.0,
      "NumberOfPhaseEncodingSteps": 100,
      "PercentPhaseFieldOfView": 100.0,
      "PercentSampling": 100.0,
      "PerformedProcedureStepStartTime": "152922.304000",
      "PhotometricInterpretation": "MONOCHROME2",
      "PixelBandwidth": 2380.0,
      "PixelRepresentation": 0,
      "PixelSpacing": [2.0, 2.0],
      "ProtocolName": "bold_100x100_s3_2x2x2_retino_150",
      "RepetitionTime": 2000.0,
      "Rows": 900,
      "SAR": 0.06395974673457,
      "SamplesPerPixel": 1,
      "ScanOptions": "FS",
      "ScanningSequence": "EP",
      "SequenceName": "*epfid2d1_100",
      "SequenceVariant": "SK",
      "SeriesDescription": "bold_100x100_s3_2x2x2_retino_150",
      "SeriesNumber": 6,
      "SeriesTime": "154940.985000",
      "SliceLocation": -74.121446692686,
      "SliceThickness": 2.0,
      "SmallestImagePixelValue": 0,
      "SoftwareVersions": "syngo MR E11",
      "SpacingBetweenSlices": 2.0000000337521,
      "SpecificCharacterSet": "ISO_IR 100",
      "StudyID": "1",
      "StudyTime": "152922.223000",
      "TransmitCoilName": "Body",
      "VariableFlipAngleFlag": "N",
      "WindowCenterWidthExplanation": "Algo1",
      "dBdt": 0.0},
    "slices": {}
  },
  "time": {
    "samples": {
      "AcquisitionNumber": [1, 2, 3, 4, 5, 6, 7, 8, 9, 10, 11, 12, 13, 14, 15, 16, 17, 18, 19, 20, 21, 22, 23, 24, 25, 26, 27, 28, 29, 30, 31, 32, 33, 34, 35, 36, 37, 38, 39, 40, 41, 42, 43, 44, 45, 46, 47, 48, 49, 50, 51, 52, 53, 54, 55, 56, 57, 58, 59, 60, 61, 62, 63, 64, 65, 66, 67, 68, 69, 70, 71, 72, 73, 74, 75, 76, 77, 78, 79, 80, 81, 82, 83, 84, 85, 86, 87, 88, 89, 90, 91, 92, 93, 94, 95, 96, 97, 98, 99, 100, 101, 102, 103, 104, 105, 106, 107, 108, 109, 110, 111, 112, 113, 114, 115, 116, 117, 118, 119, 120, 121, 122, 123, 124, 125, 126, 127, 128, 129, 130, 131, 132, 133, 134, 135, 136, 137, 138, 139, 140, 141, 142, 143, 144, 145, 146, 147, 148, 149, 150],
      "AcquisitionTime": ["154938.462500", "154940.462500", "154942.462500", "154944.462500", "154946.462500", "154948.462500", "154950.462500", "154952.462500", "154954.462500", "154956.462500", "154958.462500", "155000.462500", "155002.462500", "155004.462500", "155006.462500", "155008.462500", "155010.462500", "155012.462500", "155014.462500", "155016.462500", "155018.462500", "155020.462500", "155022.462500", "155024.462500", "155026.462500", "155028.462500", "155030.462500", "155032.462500", "155034.462500", "155036.462500", "155038.462500", "155040.462500", "155042.462500", "155044.462500", "155046.462500", "155048.462500", "155050.462500", "155052.462500", "155054.462500", "155056.462500", "155058.462500", "155100.462500", "155102.462500", "155104.462500", "155106.462500", "155108.462500", "155110.462500", "155112.462500", "155114.462500", "155116.462500", "155118.462500", "155120.462500", "155122.462500", "155124.462500", "155126.462500", "155128.462500", "155130.462500", "155132.462500", "155134.462500", "155136.462500", "155138.462500", "155140.462500", "155142.462500", "155144.462500", "155146.462500", "155148.462500", "155150.462500", "155152.462500", "155154.462500", "155156.462500", "155158.462500", "155200.462500", "155202.462500", "155204.462500", "155206.462500", "155208.462500", "155210.462500", "155212.462500", "155214.462500", "155216.462500", "155218.462500", "155220.462500", "155222.462500", "155224.462500", "155226.462500", "155228.462500", "155230.462500", "155232.462500", "155234.462500", "155236.462500", "155238.462500", "155240.462500", "155242.462500", "155244.462500", "155246.462500", "155248.462500", "155250.462500", "155252.462500", "155254.462500", "155256.462500", "155258.462500", "155300.462500", "155302.462500", "155304.462500", "155306.462500", "155308.462500", "155310.462500", "155312.462500", "155314.462500", "155316.462500", "155318.462500", "155320.462500", "155322.462500", "155324.462500", "155326.462500", "155328.462500", "155330.462500", "155332.462500", "155334.462500", "155336.462500", "155338.462500", "155340.462500", "155342.462500", "155344.462500", "155346.462500", "155348.462500", "155350.462500", "155352.462500", "155354.462500", "155356.462500", "155358.462500", "155400.462500", "155402.462500", "155404.462500", "155406.462500", "155408.462500", "155410.462500", "155412.462500", "155414.462500", "155416.462500", "155418.462500", "155420.462500", "155422.462500", "155424.462500", "155426.462500", "155428.462500", "155430.462500", "155432.462500", "155434.462500", "155436.462500"],
      "ContentTime": ["154940.989000", "154942.484000", "154944.486000", "154946.485000", "154948.484000", "154950.484000", "154952.484000", "154954.484000", "154956.485000", "154958.485000", "155000.484000", "155002.485000", "155004.486000", "155006.485000", "155008.485000", "155010.485000", "155012.485000", "155014.485000", "155016.485000", "155018.484000", "155020.486000", "155022.485000", "155024.484000", "155026.485000", "155028.484000", "155030.485000", "155032.484000", "155034.485000", "155036.485000", "155038.486000", "155040.484000", "155042.485000", "155044.484000", "155046.484000", "155048.484000", "155050.484000", "155052.485000", "155054.485000", "155056.486000", "155058.484000", "155100.484000", "155102.485000", "155104.485000", "155106.484000", "155108.485000", "155110.485000", "155112.486000", "155114.485000", "155116.485000", "155118.485000", "155120.484000", "155122.484000", "155124.484000", "155126.484000", "155128.485000", "155130.485000", "155132.485000", "155134.485000", "155136.485000", "155138.484000", "155140.484000", "155142.484000", "155144.484000", "155146.485000", "155148.485000", "155150.484000", "155152.484000", "155154.484000", "155156.485000", "155158.484000", "155200.485000", "155202.484000", "155204.486000", "155206.485000", "155208.485000", "155210.484000", "155212.485000", "155214.484000", "155216.485000", "155218.484000", "155220.485000", "155222.485000", "155224.486000", "155226.484000", "155228.485000", "155230.484000", "155232.485000", "155234.484000", "155236.485000", "155238.484000", "155240.485000", "155242.484000", "155244.485000", "155246.485000", "155248.484000", "155250.484000", "155252.485000", "155254.484000", "155256.484000", "155258.486000", "155300.485000", "155302.484000", "155304.484000", "155306.484000", "155308.485000", "155310.484000", "155312.485000", "155314.486000", "155316.486000", "155318.484000", "155320.485000", "155322.485000", "155324.484000", "155326.485000", "155328.485000", "155330.485000", "155332.485000", "155334.485000", "155336.485000", "155338.485000", "155340.485000", "155342.485000", "155344.484000", "155346.484000", "155348.484000", "155350.486000", "155352.485000", "155354.485000", "155356.484000", "155358.484000", "155400.485000", "155402.484000", "155404.484000", "155406.484000", "155408.486000", "155410.484000", "155412.984000", "155414.485000", "155416.485000", "155418.484000", "155420.985000", "155422.485000", "155424.486000", "155426.499000", "155428.485000", "155430.484000", "155432.485000", "155434.485000", "155436.485000", "155438.399000"],
      "InstanceCreationTime": ["154940.989000", "154942.484000", "154944.486000", "154946.485000", "154948.484000", "154950.484000", "154952.484000", "154954.484000", "154956.485000", "154958.485000", "155000.484000", "155002.485000", "155004.486000", "155006.485000", "155008.485000", "155010.485000", "155012.485000", "155014.485000", "155016.485000", "155018.484000", "155020.486000", "155022.485000", "155024.484000", "155026.485000", "155028.484000", "155030.485000", "155032.484000", "155034.485000", "155036.485000", "155038.486000", "155040.484000", "155042.485000", "155044.484000", "155046.484000", "155048.484000", "155050.484000", "155052.485000", "155054.485000", "155056.486000", "155058.484000", "155100.484000", "155102.485000", "155104.485000", "155106.484000", "155108.485000", "155110.485000", "155112.486000", "155114.485000", "155116.485000", "155118.485000", "155120.484000", "155122.484000", "155124.484000", "155126.484000", "155128.485000", "155130.485000", "155132.485000", "155134.485000", "155136.485000", "155138.484000", "155140.484000", "155142.484000", "155144.484000", "155146.485000", "155148.485000", "155150.484000", "155152.484000", "155154.484000", "155156.485000", "155158.484000", "155200.485000", "155202.484000", "155204.486000", "155206.485000", "155208.485000", "155210.484000", "155212.485000", "155214.484000", "155216.485000", "155218.484000", "155220.485000", "155222.485000", "155224.486000", "155226.484000", "155228.485000", "155230.484000", "155232.485000", "155234.484000", "155236.485000", "155238.484000", "155240.485000", "155242.484000", "155244.485000", "155246.485000", "155248.484000", "155250.484000", "155252.485000", "155254.484000", "155256.484000", "155258.486000", "155300.485000", "155302.484000", "155304.484000", "155306.484000", "155308.485000", "155310.484000", "155312.485000", "155314.486000", "155316.486000", "155318.484000", "155320.485000", "155322.485000", "155324.484000", "155326.485000", "155328.485000", "155330.485000", "155332.485000", "155334.485000", "155336.485000", "155338.485000", "155340.485000", "155342.485000", "155344.484000", "155346.484000", "155348.484000", "155350.486000", "155352.485000", "155354.485000", "155356.484000", "155358.484000", "155400.485000", "155402.484000", "155404.484000", "155406.484000", "155408.486000", "155410.484000", "155412.984000", "155414.485000", "155416.485000", "155418.484000", "155420.985000", "155422.485000", "155424.486000", "155426.499000", "155428.485000", "155430.484000", "155432.485000", "155434.485000", "155436.485000", "155438.399000"],
      "InstanceNumber": [1, 2, 3, 4, 5, 6, 7, 8, 9, 10, 11, 12, 13, 14, 15, 16, 17, 18, 19, 20, 21, 22, 23, 24, 25, 26, 27, 28, 29, 30, 31, 32, 33, 34, 35, 36, 37, 38, 39, 40, 41, 42, 43, 44, 45, 46, 47, 48, 49, 50, 51, 52, 53, 54, 55, 56, 57, 58, 59, 60, 61, 62, 63, 64, 65, 66, 67, 68, 69, 70, 71, 72, 73, 74, 75, 76, 77, 78, 79, 80, 81, 82, 83, 84, 85, 86, 87, 88, 89, 90, 91, 92, 93, 94, 95, 96, 97, 98, 99, 100, 101, 102, 103, 104, 105, 106, 107, 108, 109, 110, 111, 112, 113, 114, 115, 116, 117, 118, 119, 120, 121, 122, 123, 124, 125, 126, 127, 128, 129, 130, 131, 132, 133, 134, 135, 136, 137, 138, 139, 140, 141, 142, 143, 144, 145, 146, 147, 148, 149, 150],
      "LargestImagePixelValue": [3248, 3228, 3197, 3232, 3234, 3208, 3219, 3214, 3252, 3200, 3210, 3163, 3179, 3253, 3291, 3264, 3323, 3297, 3274, 3275, 3272, 3285, 3207, 3281, 3241, 3253, 3238, 3224, 3290, 3271, 3213, 3213, 3233, 3220, 3203, 3257, 3206, 3244, 3264, 3273, 3234, 3255, 3263, 3226, 3256, 3295, 3295, 3264, 3286, 3261, 3247, 3257, 3236, 3239, 3279, 3267, 3267, 3205, 3214, 3254, 3218, 3183, 3215, 3224, 3202, 3239, 3271, 3254, 3243, 3225, 3250, 3269, 3253, 3277, 3288, 3255, 3262, 3222, 3236, 3236, 3250, 3242, 3274, 3248, 3246, 3224, 3234, 3265, 3216, 3227, 3261, 3257, 3201, 3201, 3226, 3267, 3205, 3227, 3235, 3180, 3187, 3226, 3242, 3222, 3207, 3210, 3206, 3202, 3225, 3209, 3206, 3234, 3230, 3191, 3192, 3215, 3163, 3140, 3164, 3159, 3143, 3157, 3129, 3139, 3144, 3146, 3141, 3161, 3158, 3182, 3148, 3136, 3138, 3202, 3173, 3224, 3221, 3195, 3159, 3143, 3135, 3156, 3200, 3158, 3094, 3140, 3157, 3146, 3185, 3201],
      "WindowCenter": [777.0, 777.0, 778.0, 779.0, 779.0, 778.0, 778.0, 778.0, 779.0, 778.0, 776.0, 775.0, 775.0, 776.0, 778.0, 778.0, 779.0, 779.0, 778.0, 777.0, 777.0, 777.0, 776.0, 778.0, 777.0, 777.0, 777.0, 778.0, 779.0, 777.0, 776.0, 776.0, 777.0, 776.0, 776.0, 777.0, 777.0, 777.0, 778.0, 779.0, 778.0, 777.0, 777.0, 776.0, 777.0, 778.0, 777.0, 777.0, 777.0, 777.0, 777.0, 777.0, 776.0, 776.0, 777.0, 777.0, 777.0, 775.0, 778.0, 780.0, 777.0, 775.0, 775.0, 775.0, 776.0, 777.0, 778.0, 779.0, 778.0, 778.0, 778.0, 778.0, 778.0, 779.0, 779.0, 779.0, 778.0, 777.0, 777.0, 777.0, 777.0, 778.0, 778.0, 778.0, 779.0, 778.0, 777.0, 778.0, 777.0, 779.0, 781.0, 780.0, 777.0, 776.0, 776.0, 777.0, 779.0, 778.0, 777.0, 776.0, 776.0, 777.0, 778.0, 779.0, 779.0, 778.0, 778.0, 778.0, 777.0, 777.0, 777.0, 779.0, 779.0, 777.0, 777.0, 778.0, 779.0, 779.0, 778.0, 776.0, 776.0, 776.0, 776.0, 776.0, 776.0, 776.0, 776.0, 777.0, 777.0, 777.0, 777.0, 776.0, 777.0, 777.0, 777.0, 778.0, 779.0, 778.0, 776.0, 775.0, 776.0, 777.0, 778.0, 777.0, 776.0, 776.0, 776.0, 776.0, 776.0, 777.0],
      "WindowWidth": [1687.0, 1687.0, 1689.0, 1693.0, 1693.0, 1690.0, 1689.0, 1691.0, 1694.0, 1689.0, 1685.0, 1681.0, 1681.0, 1685.0, 1689.0, 1691.0, 1695.0, 1694.0, 1690.0, 1688.0, 1688.0, 1688.0, 1685.0, 1689.0, 1689.0, 1688.0, 1688.0, 1690.0, 1692.0, 1689.0, 1684.0, 1684.0, 1687.0, 1686.0, 1686.0, 1687.0, 1687.0, 1688.0, 1690.0, 1693.0, 1689.0, 1687.0, 1687.0, 1685.0, 1687.0, 1690.0, 1689.0, 1687.0, 1688.0, 1688.0, 1689.0, 1687.0, 1685.0, 1684.0, 1687.0, 1688.0, 1688.0, 1681.0, 1690.0, 1694.0, 1688.0, 1681.0, 1682.0, 1683.0, 1684.0, 1688.0, 1691.0, 1693.0, 1692.0, 1690.0, 1690.0, 1690.0, 1691.0, 1692.0, 1693.0, 1692.0, 1690.0, 1688.0, 1688.0, 1687.0, 1689.0, 1690.0, 1692.0, 1691.0, 1693.0, 1691.0, 1688.0, 1689.0, 1689.0, 1693.0, 1699.0, 1695.0, 1687.0, 1685.0, 1686.0, 1689.0, 1692.0, 1692.0, 1689.0, 1685.0, 1685.0, 1687.0, 1689.0, 1691.0, 1692.0, 1690.0, 1688.0, 1688.0, 1687.0, 1688.0, 1688.0, 1692.0, 1692.0, 1689.0, 1688.0, 1691.0, 1694.0, 1694.0, 1690.0, 1684.0, 1685.0, 1685.0, 1684.0, 1684.0, 1683.0, 1684.0, 1685.0, 1687.0, 1687.0, 1687.0, 1686.0, 1685.0, 1686.0, 1688.0, 1686.0, 1690.0, 1692.0, 1689.0, 1684.0, 1681.0, 1683.0, 1686.0, 1689.0, 1688.0, 1684.0, 1684.0, 1683.0, 1683.0, 1684.0, 1686.0]
    },
    "slices": {}
  }
}