{
 "AcquisitionMatrixPE": 100,
 "AcquisitionNumber": 1,
 "AcquisitionTime": "16:09:53.375000",
 "BandwidthPerPixelPhaseEncode": 18.519,
 "BaseResolution": 100,
 "BodyPartExamined": "BRAIN",
 "ConsistencyInfo": "N4_VE11C_LATEST_20160120",
 "ConversionSoftware": "dcm2niix",
 "ConversionSoftwareVersion": "v1.0.20180622 GCC4.9.2",
 "DerivedVendorReportedEchoSpacing": 0.000539986,
 "DeviceSerialNumber": "166078",
 "DwellTime": 2.1e-06,
 "EchoTime": 0.034,
 "EchoTrainLength": 100,
 "EffectiveEchoSpacing": 0.000539986,
 "FlipAngle": 90,
 "ImageOrientationPatientDICOM": [
  1,
  0,
  0,
  0,
  0.964095,
  -0.265556
 ],
 "ImageType": [
  "ORIGINAL",
  "PRIMARY",
  "M",
  "ND",
  "MOSAIC"
 ],
 "InPlanePhaseEncodingDirectionDICOM": "COL",
 "InstitutionAddress": "Street_StreetNo_Bei_Jing_District_CN_ZIP",
 "InstitutionName": "BeiJing_Normal_University",
 "InstitutionalDepartmentName": "Department",
 "MRAcquisitionType": "2D",
 "MagneticFieldStrength": 3,
 "Manufacturer": "Siemens",
 "ManufacturersModelName": "Prisma",
 "Modality": "MR",
 "MultibandAccelerationFactor": 3,
 "PartialFourier": 1,
 "PatientPosition": "HFS",
 "PercentPhaseFOV": 100,
 "PhaseEncodingDirection": "j-",
 "PhaseEncodingSteps": 100,
 "PhaseResolution": 1,
 "PixelBandwidth": 2380,
 "ProcedureStepDescription": "BNU_P2018_64CH_Zhen.ZongLei",
 "ProtocolName": "bold_100x100_s3_2x2x2_retino_150",
 "PulseSequenceDetails": "%SiemensSeq%_ep2d_bold",
 "ReceiveCoilActiveElements": "HC1-7;NC1",
 "ReceiveCoilName": "HeadNeck_64",
 "ReconMatrixPE": 100,
 "RepetitionTime": 2,
 "SAR": 0.0639597,
 "ScanOptions": "FS",
 "ScanningSequence": "EP",
 "SequenceName": "_epfid2d1_100",
 "SequenceVariant": "SK",
 "SeriesDescription": "bold_100x100_s3_2x2x2_retino_150",
 "SeriesNumber": 11,
 "ShimSetting": [
  -5459,
  -11476,
  -1279,
  418,
  -9,
  -332,
  -271,
  50
 ],
 "SliceThickness": 2,
 "SliceTiming": [
  1.485,
  0,
  0.99,
  0.0825,
  1.0725,
  0.165,
  1.155,
  0.2475,
  1.2375,
  0.33,
  1.32,
  0.4125,
  1.4025,
  0.5775,
  1.5675,
  0.66,
  1.65,
  0.7425,
  1.7325,
  0.825,
  1.815,
  0.9075,
  1.8975,
  0.495,
  1.485,
  0,
  0.99,
  0.0825,
  1.0725,
  0.165,
  1.155,
  0.2475,
  1.2375,
  0.33,
  1.32,
  0.4125,
  1.4025,
  0.5775,
  1.5675,
  0.66,
  1.65,
  0.7425,
  1.7325,
  0.825,
  1.815,
  0.9075,
  1.8975,
  0.495,
  1.485,
  0,
  0.99,
  0.0825,
  1.0725,
  0.165,
  1.155,
  0.2475,
  1.2375,
  0.33,
  1.32,
  0.4125,
  1.4025,
  0.5775,
  1.5675,
  0.66,
  1.65,
  0.7425,
  1.7325,
  0.825,
  1.815,
  0.9075,
  1.8975,
  0.495
 ],
 "SoftwareVersions": "syngo_MR_E11",
 "SpacingBetweenSlices": 2,
 "StationName": "AWP166078",
 "TaskName": "prf",
 "TotalReadoutTime": 0.0534586,
 "TxRefAmp": 209.31,
 "dcmmeta_affine": [
  [
   -2.0,
   0.0,
   0.0,
   102.02409362792969
  ],
  [
   0.0,
   1.92819082736969,
   -0.5311122536659241,
   -76.749755859375
  ],
  [
   0.0,
   0.5311122536659241,
   1.92819082736969,
   -98.02226257324219
  ],
  [
   0.0,
   0.0,
   0.0,
   1.0
  ]
 ],
 "dcmmeta_reorient_transform": [
  [
   0.0,
   -1.0,
   0.0,
   99.0
  ],
  [
   1.0,
   0.0,
   0.0,
   0.0
  ],
  [
   0.0,
   0.0,
   1.0,
   0.0
  ],
  [
   0.0,
   0.0,
   0.0,
   1.0
  ]
 ],
 "dcmmeta_shape": [
  100,
  100,
  72,
  150
 ],
 "dcmmeta_slice_dim": 2,
 "dcmmeta_version": 0.6,
 "global": {
  "const": {
   "AcquisitionMatrix": [
    100,
    0,
    0,
    100
   ],
   "AngioFlag": "N",
   "BitsAllocated": 16,
   "BitsStored": 12,
   "BodyPartExamined": "BRAIN",
   "Columns": 900,
   "EchoNumbers": 1,
   "EchoTime": 34.0,
   "EchoTrainLength": 100,
   "FlipAngle": 90.0,
   "HighBit": 11,
   "ImageOrientationPatient": [
    1.0,
    0.0,
    0.0,
    0.0,
    0.96409539939404,
    -0.2655561350586
   ],
   "ImagePositionPatient": [
    -902.02409648895,
    -885.41745163298,
    167.00275696533
   ],
   "ImageType": [
    "ORIGINAL",
    "PRIMARY",
    "M",
    "ND",
    "MOSAIC"
   ],
   "ImagedNucleus": "1H",
   "ImagingFrequency": 123.257785,
   "InPlanePhaseEncodingDirection": "COL",
   "MRAcquisitionType": "2D",
   "MagneticFieldStrength": 3.0,
   "Manufacturer": "SIEMENS",
   "ManufacturerModelName": "Prisma",
   "Modality": "MR",
   "NumberOfAverages": 1.0,
   "NumberOfPhaseEncodingSteps": 100,
   "PercentPhaseFieldOfView": 100.0,
   "PercentSampling": 100.0,
   "PerformedProcedureStepStartTime": "152922.304000",
   "PhotometricInterpretation": "MONOCHROME2",
   "PixelBandwidth": 2380.0,
   "PixelRepresentation": 0,
   "PixelSpacing": [
    2.0,
    2.0
   ],
   "ProtocolName": "bold_100x100_s3_2x2x2_retino_150",
   "RepetitionTime": 2000.0,
   "Rows": 900,
   "SAR": 0.06395974673457,
   "SamplesPerPixel": 1,
   "ScanOptions": "FS",
   "ScanningSequence": "EP",
   "SequenceName": "*epfid2d1_100",
   "SequenceVariant": "SK",
   "SeriesDescription": "bold_100x100_s3_2x2x2_retino_150",
   "SeriesNumber": 11,
   "SeriesTime": "160955.437000",
   "SliceLocation": -74.121446692686,
   "SliceThickness": 2.0,
   "SmallestImagePixelValue": 0,
   "SoftwareVersions": "syngo MR E11",
   "SpacingBetweenSlices": 2.0000000337521,
   "SpecificCharacterSet": "ISO_IR 100",
   "StudyID": "1",
   "StudyTime": "152922.223000",
   "TransmitCoilName": "Body",
   "VariableFlipAngleFlag": "N",
   "WindowCenterWidthExplanation": "Algo1",
   "dBdt": 0.0
  },
  "slices": {}
 },
 "time": {
  "samples": {
   "AcquisitionNumber": [
    1,
    2,
    3,
    4,
    5,
    6,
    7,
    8,
    9,
    10,
    11,
    12,
    13,
    14,
    15,
    16,
    17,
    18,
    19,
    20,
    21,
    22,
    23,
    24,
    25,
    26,
    27,
    28,
    29,
    30,
    31,
    32,
    33,
    34,
    35,
    36,
    37,
    38,
    39,
    40,
    41,
    42,
    43,
    44,
    45,
    46,
    47,
    48,
    49,
    50,
    51,
    52,
    53,
    54,
    55,
    56,
    57,
    58,
    59,
    60,
    61,
    62,
    63,
    64,
    65,
    66,
    67,
    68,
    69,
    70,
    71,
    72,
    73,
    74,
    75,
    76,
    77,
    78,
    79,
    80,
    81,
    82,
    83,
    84,
    85,
    86,
    87,
    88,
    89,
    90,
    91,
    92,
    93,
    94,
    95,
    96,
    97,
    98,
    99,
    100,
    101,
    102,
    103,
    104,
    105,
    106,
    107,
    108,
    109,
    110,
    111,
    112,
    113,
    114,
    115,
    116,
    117,
    118,
    119,
    120,
    121,
    122,
    123,
    124,
    125,
    126,
    127,
    128,
    129,
    130,
    131,
    132,
    133,
    134,
    135,
    136,
    137,
    138,
    139,
    140,
    141,
    142,
    143,
    144,
    145,
    146,
    147,
    148,
    149,
    150
   ],
   "AcquisitionTime": [
    "160953.375000",
    "160955.375000",
    "160957.375000",
    "160959.375000",
    "161001.375000",
    "161003.375000",
    "161005.375000",
    "161007.375000",
    "161009.375000",
    "161011.375000",
    "161013.375000",
    "161015.375000",
    "161017.375000",
    "161019.375000",
    "161021.375000",
    "161023.375000",
    "161025.375000",
    "161027.375000",
    "161029.375000",
    "161031.375000",
    "161033.375000",
    "161035.375000",
    "161037.375000",
    "161039.375000",
    "161041.375000",
    "161043.375000",
    "161045.375000",
    "161047.375000",
    "161049.375000",
    "161051.375000",
    "161053.375000",
    "161055.375000",
    "161057.375000",
    "161059.375000",
    "161101.375000",
    "161103.375000",
    "161105.375000",
    "161107.375000",
    "161109.375000",
    "161111.375000",
    "161113.375000",
    "161115.375000",
    "161117.375000",
    "161119.375000",
    "161121.375000",
    "161123.375000",
    "161125.375000",
    "161127.375000",
    "161129.375000",
    "161131.375000",
    "161133.375000",
    "161135.375000",
    "161137.375000",
    "161139.375000",
    "161141.375000",
    "161143.375000",
    "161145.375000",
    "161147.375000",
    "161149.375000",
    "161151.375000",
    "161153.375000",
    "161155.375000",
    "161157.375000",
    "161159.375000",
    "161201.375000",
    "161203.375000",
    "161205.375000",
    "161207.375000",
    "161209.375000",
    "161211.375000",
    "161213.375000",
    "161215.375000",
    "161217.375000",
    "161219.375000",
    "161221.375000",
    "161223.375000",
    "161225.375000",
    "161227.375000",
    "161229.375000",
    "161231.375000",
    "161233.375000",
    "161235.375000",
    "161237.375000",
    "161239.375000",
    "161241.375000",
    "161243.375000",
    "161245.375000",
    "161247.375000",
    "161249.375000",
    "161251.375000",
    "161253.375000",
    "161255.375000",
    "161257.375000",
    "161259.375000",
    "161301.375000",
    "161303.375000",
    "161305.375000",
    "161307.375000",
    "161309.375000",
    "161311.375000",
    "161313.375000",
    "161315.375000",
    "161317.375000",
    "161319.375000",
    "161321.375000",
    "161323.375000",
    "161325.375000",
    "161327.375000",
    "161329.375000",
    "161331.375000",
    "161333.375000",
    "161335.375000",
    "161337.375000",
    "161339.375000",
    "161341.375000",
    "161343.375000",
    "161345.375000",
    "161347.375000",
    "161349.375000",
    "161351.375000",
    "161353.375000",
    "161355.375000",
    "161357.375000",
    "161359.375000",
    "161401.375000",
    "161403.375000",
    "161405.375000",
    "161407.375000",
    "161409.375000",
    "161411.375000",
    "161413.375000",
    "161415.375000",
    "161417.375000",
    "161419.375000",
    "161421.375000",
    "161423.375000",
    "161425.375000",
    "161427.375000",
    "161429.375000",
    "161431.375000",
    "161433.375000",
    "161435.375000",
    "161437.375000",
    "161439.375000",
    "161441.375000",
    "161443.375000",
    "161445.375000",
    "161447.375000",
    "161449.375000",
    "161451.375000"
   ],
   "ContentTime": [
    "160955.441000",
    "160956.937000",
    "160958.936000",
    "161000.936000",
    "161002.936000",
    "161004.935000",
    "161006.935000",
    "161008.936000",
    "161010.936000",
    "161012.936000",
    "161014.937000",
    "161016.937000",
    "161018.937000",
    "161020.936000",
    "161022.935000",
    "161024.935000",
    "161026.936000",
    "161028.936000",
    "161030.936000",
    "161032.937000",
    "161034.936000",
    "161036.936000",
    "161038.936000",
    "161040.935000",
    "161042.935000",
    "161044.936000",
    "161046.937000",
    "161048.937000",
    "161050.937000",
    "161052.936000",
    "161054.937000",
    "161056.936000",
    "161058.935000",
    "161100.936000",
    "161102.936000",
    "161104.937000",
    "161106.936000",
    "161108.937000",
    "161110.936000",
    "161112.936000",
    "161114.936000",
    "161116.935000",
    "161118.937000",
    "161120.936000",
    "161122.936000",
    "161124.937000",
    "161126.936000",
    "161128.936000",
    "161130.936000",
    "161132.935000",
    "161134.936000",
    "161136.937000",
    "161138.937000",
    "161140.937000",
    "161142.937000",
    "161144.936000",
    "161146.936000",
    "161148.936000",
    "161150.935000",
    "161152.935000",
    "161154.937000",
    "161156.937000",
    "161158.936000",
    "161200.936000",
    "161202.936000",
    "161204.937000",
    "161206.937000",
    "161208.935000",
    "161210.936000",
    "161212.937000",
    "161214.936000",
    "161216.937000",
    "161218.937000",
    "161220.936000",
    "161222.936000",
    "161224.935000",
    "161226.936000",
    "161228.936000",
    "161230.936000",
    "161232.936000",
    "161234.936000",
    "161236.936000",
    "161238.936000",
    "161240.937000",
    "161242.935000",
    "161244.935000",
    "161246.937000",
    "161248.936000",
    "161250.937000",
    "161252.937000",
    "161254.937000",
    "161256.937000",
    "161258.937000",
    "161300.935000",
    "161302.935000",
    "161304.936000",
    "161306.937000",
    "161308.936000",
    "161310.936000",
    "161312.937000",
    "161314.937000",
    "161316.937000",
    "161318.935000",
    "161320.937000",
    "161322.936000",
    "161324.936000",
    "161326.937000",
    "161328.936000",
    "161330.936000",
    "161332.936000",
    "161334.935000",
    "161336.935000",
    "161338.936000",
    "161340.937000",
    "161342.936000",
    "161344.937000",
    "161346.936000",
    "161348.936000",
    "161350.937000",
    "161352.936000",
    "161354.936000",
    "161356.937000",
    "161358.936000",
    "161400.937000",
    "161402.936000",
    "161404.936000",
    "161406.937000",
    "161408.937000",
    "161410.936000",
    "161412.935000",
    "161414.936000",
    "161416.937000",
    "161418.936000",
    "161420.937000",
    "161422.936000",
    "161424.936000",
    "161426.936000",
    "161428.936000",
    "161430.937000",
    "161432.937000",
    "161434.936000",
    "161436.936000",
    "161438.937000",
    "161440.937000",
    "161442.936000",
    "161444.935000",
    "161446.935000",
    "161448.936000",
    "161450.937000",
    "161452.803000"
   ],
   "InstanceCreationTime": [
    "160955.441000",
    "160956.937000",
    "160958.936000",
    "161000.936000",
    "161002.936000",
    "161004.935000",
    "161006.935000",
    "161008.936000",
    "161010.936000",
    "161012.936000",
    "161014.937000",
    "161016.937000",
    "161018.937000",
    "161020.936000",
    "161022.935000",
    "161024.935000",
    "161026.936000",
    "161028.936000",
    "161030.936000",
    "161032.937000",
    "161034.936000",
    "161036.936000",
    "161038.936000",
    "161040.935000",
    "161042.935000",
    "161044.936000",
    "161046.937000",
    "161048.937000",
    "161050.937000",
    "161052.936000",
    "161054.937000",
    "161056.936000",
    "161058.935000",
    "161100.936000",
    "161102.936000",
    "161104.937000",
    "161106.936000",
    "161108.937000",
    "161110.936000",
    "161112.936000",
    "161114.936000",
    "161116.935000",
    "161118.937000",
    "161120.936000",
    "161122.936000",
    "161124.937000",
    "161126.936000",
    "161128.936000",
    "161130.936000",
    "161132.935000",
    "161134.936000",
    "161136.937000",
    "161138.937000",
    "161140.937000",
    "161142.937000",
    "161144.936000",
    "161146.936000",
    "161148.936000",
    "161150.935000",
    "161152.935000",
    "161154.937000",
    "161156.937000",
    "161158.936000",
    "161200.936000",
    "161202.936000",
    "161204.937000",
    "161206.937000",
    "161208.935000",
    "161210.936000",
    "161212.937000",
    "161214.936000",
    "161216.937000",
    "161218.937000",
    "161220.936000",
    "161222.936000",
    "161224.935000",
    "161226.936000",
    "161228.936000",
    "161230.936000",
    "161232.936000",
    "161234.936000",
    "161236.936000",
    "161238.936000",
    "161240.937000",
    "161242.935000",
    "161244.935000",
    "161246.937000",
    "161248.936000",
    "161250.937000",
    "161252.937000",
    "161254.937000",
    "161256.937000",
    "161258.937000",
    "161300.935000",
    "161302.935000",
    "161304.936000",
    "161306.937000",
    "161308.936000",
    "161310.936000",
    "161312.937000",
    "161314.937000",
    "161316.937000",
    "161318.935000",
    "161320.937000",
    "161322.936000",
    "161324.936000",
    "161326.937000",
    "161328.936000",
    "161330.936000",
    "161332.936000",
    "161334.935000",
    "161336.935000",
    "161338.936000",
    "161340.937000",
    "161342.936000",
    "161344.937000",
    "161346.936000",
    "161348.936000",
    "161350.937000",
    "161352.936000",
    "161354.936000",
    "161356.937000",
    "161358.936000",
    "161400.937000",
    "161402.936000",
    "161404.936000",
    "161406.937000",
    "161408.937000",
    "161410.936000",
    "161412.935000",
    "161414.936000",
    "161416.937000",
    "161418.936000",
    "161420.937000",
    "161422.936000",
    "161424.936000",
    "161426.936000",
    "161428.936000",
    "161430.937000",
    "161432.937000",
    "161434.936000",
    "161436.936000",
    "161438.937000",
    "161440.937000",
    "161442.936000",
    "161444.935000",
    "161446.935000",
    "161448.936000",
    "161450.937000",
    "161452.803000"
   ],
   "InstanceNumber": [
    1,
    2,
    3,
    4,
    5,
    6,
    7,
    8,
    9,
    10,
    11,
    12,
    13,
    14,
    15,
    16,
    17,
    18,
    19,
    20,
    21,
    22,
    23,
    24,
    25,
    26,
    27,
    28,
    29,
    30,
    31,
    32,
    33,
    34,
    35,
    36,
    37,
    38,
    39,
    40,
    41,
    42,
    43,
    44,
    45,
    46,
    47,
    48,
    49,
    50,
    51,
    52,
    53,
    54,
    55,
    56,
    57,
    58,
    59,
    60,
    61,
    62,
    63,
    64,
    65,
    66,
    67,
    68,
    69,
    70,
    71,
    72,
    73,
    74,
    75,
    76,
    77,
    78,
    79,
    80,
    81,
    82,
    83,
    84,
    85,
    86,
    87,
    88,
    89,
    90,
    91,
    92,
    93,
    94,
    95,
    96,
    97,
    98,
    99,
    100,
    101,
    102,
    103,
    104,
    105,
    106,
    107,
    108,
    109,
    110,
    111,
    112,
    113,
    114,
    115,
    116,
    117,
    118,
    119,
    120,
    121,
    122,
    123,
    124,
    125,
    126,
    127,
    128,
    129,
    130,
    131,
    132,
    133,
    134,
    135,
    136,
    137,
    138,
    139,
    140,
    141,
    142,
    143,
    144,
    145,
    146,
    147,
    148,
    149,
    150
   ],
   "LargestImagePixelValue": [
    3593,
    3458,
    3402,
    3385,
    3449,
    3430,
    3431,
    3404,
    3394,
    3427,
    3446,
    3419,
    3390,
    3431,
    3460,
    3487,
    3511,
    3508,
    3487,
    3492,
    3461,
    3416,
    3505,
    3408,
    3449,
    3422,
    3429,
    3385,
    3406,
    3390,
    3408,
    3440,
    3461,
    3344,
    3390,
    3411,
    3356,
    3378,
    3386,
    3349,
    3339,
    3392,
    3410,
    3377,
    3387,
    3416,
    3440,
    3433,
    3377,
    3329,
    3315,
    3310,
    3385,
    3369,
    3356,
    3322,
    3365,
    3399,
    3391,
    3399,
    3400,
    3396,
    3457,
    3456,
    3393,
    3401,
    3388,
    3368,
    3362,
    3366,
    3388,
    3353,
    3401,
    3417,
    3445,
    3429,
    3394,
    3417,
    3430,
    3404,
    3372,
    3446,
    3388,
    3412,
    3435,
    3341,
    3378,
    3356,
    3367,
    3404,
    3401,
    3419,
    3408,
    3411,
    3348,
    3382,
    3373,
    3413,
    3350,
    3354,
    3351,
    3353,
    3377,
    3370,
    3317,
    3357,
    3413,
    3372,
    3405,
    3358,
    3356,
    3392,
    3380,
    3356,
    3401,
    3374,
    3401,
    3391,
    3370,
    3387,
    3359,
    3329,
    3347,
    3349,
    3309,
    3395,
    3377,
    3385,
    3333,
    3356,
    3399,
    3333,
    3305,
    3303,
    3299,
    3294,
    3302,
    3315,
    3339,
    3340,
    3376,
    3397,
    3369,
    3408,
    3391,
    3343,
    3315,
    3382,
    3378,
    3300
   ],
   "WindowCenter": [
    782.0,
    780.0,
    779.0,
    778.0,
    779.0,
    779.0,
    778.0,
    778.0,
    779.0,
    779.0,
    779.0,
    778.0,
    778.0,
    778.0,
    780.0,
    781.0,
    781.0,
    781.0,
    781.0,
    783.0,
    782.0,
    780.0,
    780.0,
    780.0,
    781.0,
    781.0,
    781.0,
    781.0,
    780.0,
    780.0,
    780.0,
    781.0,
    780.0,
    779.0,
    779.0,
    780.0,
    781.0,
    781.0,
    781.0,
    780.0,
    779.0,
    780.0,
    781.0,
    780.0,
    780.0,
    780.0,
    782.0,
    782.0,
    780.0,
    778.0,
    778.0,
    778.0,
    780.0,
    780.0,
    780.0,
    780.0,
    780.0,
    780.0,
    781.0,
    780.0,
    781.0,
    783.0,
    783.0,
    781.0,
    779.0,
    779.0,
    780.0,
    779.0,
    780.0,
    780.0,
    779.0,
    779.0,
    780.0,
    782.0,
    782.0,
    782.0,
    781.0,
    780.0,
    781.0,
    780.0,
    780.0,
    780.0,
    779.0,
    780.0,
    782.0,
    783.0,
    782.0,
    781.0,
    781.0,
    781.0,
    780.0,
    781.0,
    781.0,
    780.0,
    780.0,
    781.0,
    781.0,
    781.0,
    779.0,
    780.0,
    780.0,
    780.0,
    780.0,
    780.0,
    780.0,
    781.0,
    783.0,
    783.0,
    782.0,
    780.0,
    780.0,
    781.0,
    780.0,
    780.0,
    781.0,
    782.0,
    783.0,
    782.0,
    782.0,
    780.0,
    780.0,
    780.0,
    780.0,
    780.0,
    779.0,
    781.0,
    781.0,
    780.0,
    779.0,
    778.0,
    779.0,
    779.0,
    778.0,
    778.0,
    778.0,
    779.0,
    779.0,
    781.0,
    781.0,
    781.0,
    782.0,
    782.0,
    781.0,
    781.0,
    780.0,
    779.0,
    779.0,
    780.0,
    781.0,
    781.0
   ],
   "WindowWidth": [
    1702.0,
    1696.0,
    1691.0,
    1690.0,
    1693.0,
    1691.0,
    1691.0,
    1689.0,
    1691.0,
    1693.0,
    1693.0,
    1690.0,
    1689.0,
    1690.0,
    1695.0,
    1699.0,
    1700.0,
    1697.0,
    1700.0,
    1703.0,
    1702.0,
    1697.0,
    1696.0,
    1695.0,
    1698.0,
    1700.0,
    1699.0,
    1698.0,
    1697.0,
    1696.0,
    1696.0,
    1697.0,
    1696.0,
    1693.0,
    1694.0,
    1695.0,
    1698.0,
    1700.0,
    1699.0,
    1695.0,
    1693.0,
    1695.0,
    1697.0,
    1696.0,
    1696.0,
    1696.0,
    1700.0,
    1701.0,
    1696.0,
    1690.0,
    1689.0,
    1691.0,
    1694.0,
    1696.0,
    1696.0,
    1695.0,
    1695.0,
    1696.0,
    1697.0,
    1694.0,
    1697.0,
    1702.0,
    1704.0,
    1698.0,
    1693.0,
    1692.0,
    1694.0,
    1694.0,
    1695.0,
    1694.0,
    1693.0,
    1693.0,
    1697.0,
    1702.0,
    1702.0,
    1701.0,
    1697.0,
    1696.0,
    1698.0,
    1696.0,
    1695.0,
    1695.0,
    1693.0,
    1696.0,
    1702.0,
    1703.0,
    1702.0,
    1699.0,
    1697.0,
    1698.0,
    1697.0,
    1699.0,
    1698.0,
    1696.0,
    1695.0,
    1697.0,
    1698.0,
    1697.0,
    1693.0,
    1694.0,
    1694.0,
    1695.0,
    1696.0,
    1696.0,
    1695.0,
    1698.0,
    1703.0,
    1703.0,
    1700.0,
    1695.0,
    1695.0,
    1696.0,
    1693.0,
    1694.0,
    1697.0,
    1700.0,
    1703.0,
    1702.0,
    1700.0,
    1696.0,
    1694.0,
    1694.0,
    1695.0,
    1694.0,
    1692.0,
    1697.0,
    1698.0,
    1695.0,
    1691.0,
    1690.0,
    1692.0,
    1691.0,
    1690.0,
    1689.0,
    1690.0,
    1690.0,
    1693.0,
    1697.0,
    1698.0,
    1697.0,
    1699.0,
    1700.0,
    1697.0,
    1696.0,
    1695.0,
    1693.0,
    1691.0,
    1694.0,
    1696.0,
    1696.0
   ]
  },
  "slices": {}
 }
}