{
  "AcquisitionMatrixPE": 100,
  "AcquisitionNumber": 1,
  "AcquisitionTime": "16:32:42.040000",
  "BandwidthPerPixelPhaseEncode": 18.519,
  "BaseResolution": 100,
  "BodyPartExamined": "BRAIN",
  "ConsistencyInfo": "N4_VE11C_LATEST_20160120",
  "ConversionSoftware": "dcm2niix",
  "ConversionSoftwareVersion": "v1.0.20180622 GCC4.9.2",
  "DerivedVendorReportedEchoSpacing": 0.000539986,
  "DeviceSerialNumber": "166078",
  "DwellTime": 2.1e-06,
  "EchoTime": 0.034,
  "EchoTrainLength": 100,
  "EffectiveEchoSpacing": 0.000539986,
  "FlipAngle": 90,
  "ImageOrientationPatientDICOM": [1, 0, 0, 0, 0.964095, -0.265556],
  "ImageType": [
    "ORIGINAL",
    "PRIMARY",
    "M",
    "ND",
    "MOSAIC"
],
  "InPlanePhaseEncodingDirectionDICOM": "COL",
  "InstitutionAddress": "Street_StreetNo_Bei_Jing_District_CN_ZIP",
  "InstitutionName": "BeiJing_Normal_University",
  "InstitutionalDepartmentName": "Department",
  "MRAcquisitionType": "2D",
  "MagneticFieldStrength": 3,
  "Manufacturer": "Siemens",
  "ManufacturersModelName": "Prisma",
  "Modality": "MR",
  "MultibandAccelerationFactor": 3,
  "PartialFourier": 1,
  "PatientPosition": "HFS",
  "PercentPhaseFOV": 100,
  "PhaseEncodingDirection": "j-",
  "PhaseEncodingSteps": 100,
  "PhaseResolution": 1,
  "PixelBandwidth": 2380,
  "ProcedureStepDescription": "BNU_P2018_64CH_Zhen.ZongLei",
  "ProtocolName": "bold_100x100_s3_2x2x2_retino_150",
  "PulseSequenceDetails": "%SiemensSeq%_ep2d_bold",
  "ReceiveCoilActiveElements": "HC1-7;NC1",
  "ReceiveCoilName": "HeadNeck_64",
  "ReconMatrixPE": 100,
  "RepetitionTime": 2,
  "SAR": 0.0639597,
  "ScanOptions": "FS",
  "ScanningSequence": "EP",
  "SequenceName": "_epfid2d1_100",
  "SequenceVariant": "SK",
  "SeriesDescription": "bold_100x100_s3_2x2x2_retino_150",
  "SeriesNumber": 15,
  "ShimSetting": [-5459, -11476, -1279, 418, -9, -332, -271, 50],
  "SliceThickness": 2,
  "SliceTiming": [1.485, 0, 0.99, 0.0825, 1.0725, 0.165, 1.155, 0.2475, 1.2375, 0.33, 1.32, 0.4125, 1.4025, 0.5775, 1.5675, 0.66, 1.65, 0.7425, 1.7325, 0.825, 1.815, 0.9075, 1.8975, 0.495, 1.485, 0, 0.99, 0.0825, 1.0725, 0.165, 1.155, 0.2475, 1.2375, 0.33, 1.32, 0.4125, 1.4025, 0.5775, 1.5675, 0.66, 1.65, 0.7425, 1.7325, 0.825, 1.815, 0.9075, 1.8975, 0.495, 1.485, 0, 0.99, 0.0825, 1.0725, 0.165, 1.155, 0.2475, 1.2375, 0.33, 1.32, 0.4125, 1.4025, 0.5775, 1.5675, 0.66, 1.65, 0.7425, 1.7325, 0.825, 1.815, 0.9075, 1.8975, 0.495],
  "SoftwareVersions": "syngo_MR_E11",
  "SpacingBetweenSlices": 2,
  "StationName": "AWP166078",
  "TaskName": "retinotopy",
  "TotalReadoutTime": 0.0534586,
  "TxRefAmp": 209.31,
  "dcmmeta_affine": [
    [-2.0, 0.0, 0.0, 102.02409362792969],
    [0.0, 1.92819082736969, -0.5311122536659241, -76.749755859375],
    [0.0, 0.5311122536659241, 1.92819082736969, -98.02226257324219],
    [0.0, 0.0, 0.0, 1.0]
],
  "dcmmeta_reorient_transform": [
    [0.0, -1.0, 0.0, 99.0],
    [1.0, 0.0, 0.0, 0.0],
    [0.0, 0.0, 1.0, 0.0],
    [0.0, 0.0, 0.0, 1.0]
],
  "dcmmeta_shape": [100, 100, 72, 150],
  "dcmmeta_slice_dim": 2,
  "dcmmeta_version": 0.6,
  "global": {
    "const": {
      "AcquisitionMatrix": [100, 0, 0, 100],
      "AngioFlag": "N",
      "BitsAllocated": 16,
      "BitsStored": 12,
      "BodyPartExamined": "BRAIN",
      "Columns": 900,
      "EchoNumbers": 1,
      "EchoTime": 34.0,
      "EchoTrainLength": 100,
      "FlipAngle": 90.0,
      "HighBit": 11,
      "ImageOrientationPatient": [1.0, 0.0, 0.0, 0.0, 0.96409539939404, -0.2655561350586],
      "ImagePositionPatient": [-902.02409648895, -885.41745163298, 167.00275696533],
      "ImageType": [
        "ORIGINAL",
        "PRIMARY",
        "M",
        "ND",
        "MOSAIC"
],
      "ImagedNucleus": "1H",
      "ImagingFrequency": 123.25779,
      "InPlanePhaseEncodingDirection": "COL",
      "MRAcquisitionType": "2D",
      "MagneticFieldStrength": 3.0,
      "Manufacturer": "SIEMENS",
      "ManufacturerModelName": "Prisma",
      "Modality": "MR",
      "NumberOfAverages": 1.0,
      "NumberOfPhaseEncodingSteps": 100,
      "PercentPhaseFieldOfView": 100.0,
      "PercentSampling": 100.0,
      "PerformedProcedureStepStartTime": "152922.304000",
      "PhotometricInterpretation": "MONOCHROME2",
      "PixelBandwidth": 2380.0,
      "PixelRepresentation": 0,
      "PixelSpacing": [2.0, 2.0],
      "ProtocolName": "bold_100x100_s3_2x2x2_retino_150",
      "RepetitionTime": 2000.0,
      "Rows": 900,
      "SAR": 0.06395974673457,
      "SamplesPerPixel": 1,
      "ScanOptions": "FS",
      "ScanningSequence": "EP",
      "SequenceName": "*epfid2d1_100",
      "SequenceVariant": "SK",
      "SeriesDescription": "bold_100x100_s3_2x2x2_retino_150",
      "SeriesNumber": 15,
      "SeriesTime": "163245.014000",
      "SliceLocation": -74.121446692686,
      "SliceThickness": 2.0,
      "SmallestImagePixelValue": 0,
      "SoftwareVersions": "syngo MR E11",
      "SpacingBetweenSlices": 2.0000000337521,
      "SpecificCharacterSet": "ISO_IR 100",
      "StudyID": "1",
      "StudyTime": "152922.223000",
      "TransmitCoilName": "Body",
      "VariableFlipAngleFlag": "N",
      "WindowCenterWidthExplanation": "Algo1",
      "dBdt": 0.0},
    "slices": {}
  },
  "time": {
    "samples": {
      "AcquisitionNumber": [1, 2, 3, 4, 5, 6, 7, 8, 9, 10, 11, 12, 13, 14, 15, 16, 17, 18, 19, 20, 21, 22, 23, 24, 25, 26, 27, 28, 29, 30, 31, 32, 33, 34, 35, 36, 37, 38, 39, 40, 41, 42, 43, 44, 45, 46, 47, 48, 49, 50, 51, 52, 53, 54, 55, 56, 57, 58, 59, 60, 61, 62, 63, 64, 65, 66, 67, 68, 69, 70, 71, 72, 73, 74, 75, 76, 77, 78, 79, 80, 81, 82, 83, 84, 85, 86, 87, 88, 89, 90, 91, 92, 93, 94, 95, 96, 97, 98, 99, 100, 101, 102, 103, 104, 105, 106, 107, 108, 109, 110, 111, 112, 113, 114, 115, 116, 117, 118, 119, 120, 121, 122, 123, 124, 125, 126, 127, 128, 129, 130, 131, 132, 133, 134, 135, 136, 137, 138, 139, 140, 141, 142, 143, 144, 145, 146, 147, 148, 149, 150],
      "AcquisitionTime": ["163242.040000", "163244.040000", "163246.040000", "163248.040000", "163250.040000", "163252.040000", "163254.040000", "163256.040000", "163258.040000", "163300.040000", "163302.040000", "163304.040000", "163306.040000", "163308.040000", "163310.040000", "163312.040000", "163314.040000", "163316.040000", "163318.040000", "163320.040000", "163322.040000", "163324.040000", "163326.040000", "163328.040000", "163330.040000", "163332.040000", "163334.040000", "163336.040000", "163338.040000", "163340.040000", "163342.040000", "163344.040000", "163346.040000", "163348.040000", "163350.040000", "163352.040000", "163354.040000", "163356.040000", "163358.040000", "163400.040000", "163402.040000", "163404.040000", "163406.040000", "163408.040000", "163410.040000", "163412.040000", "163414.040000", "163416.040000", "163418.040000", "163420.040000", "163422.040000", "163424.040000", "163426.040000", "163428.040000", "163430.040000", "163432.040000", "163434.040000", "163436.040000", "163438.040000", "163440.040000", "163442.040000", "163444.040000", "163446.040000", "163448.040000", "163450.040000", "163452.040000", "163454.040000", "163456.040000", "163458.040000", "163500.040000", "163502.040000", "163504.040000", "163506.040000", "163508.040000", "163510.040000", "163512.040000", "163514.040000", "163516.040000", "163518.040000", "163520.040000", "163522.040000", "163524.040000", "163526.040000", "163528.040000", "163530.040000", "163532.040000", "163534.040000", "163536.040000", "163538.040000", "163540.040000", "163542.040000", "163544.040000", "163546.040000", "163548.040000", "163550.040000", "163552.040000", "163554.040000", "163556.040000", "163558.040000", "163600.040000", "163602.040000", "163604.040000", "163606.040000", "163608.040000", "163610.040000", "163612.040000", "163614.040000", "163616.040000", "163618.040000", "163620.040000", "163622.040000", "163624.040000", "163626.040000", "163628.040000", "163630.040000", "163632.040000", "163634.040000", "163636.040000", "163638.040000", "163640.040000", "163642.040000", "163644.040000", "163646.040000", "163648.040000", "163650.040000", "163652.040000", "163654.040000", "163656.040000", "163658.040000", "163700.040000", "163702.040000", "163704.040000", "163706.040000", "163708.040000", "163710.040000", "163712.040000", "163714.040000", "163716.040000", "163718.040000", "163720.040000", "163722.040000", "163724.040000", "163726.040000", "163728.040000", "163730.040000", "163732.040000", "163734.040000", "163736.040000", "163738.040000", "163740.040000"],
      "ContentTime": ["163245.018000", "163246.514000", "163248.514000", "163250.513000", "163252.515000", "163254.515000", "163256.513000", "163258.013000", "163300.513000", "163302.513000", "163304.513000", "163306.513000", "163308.513000", "163310.514000", "163312.514000", "163314.514000", "163316.013000", "163318.513000", "163320.514000", "163322.513000", "163324.513000", "163326.514000", "163328.515000", "163330.515000", "163332.514000", "163334.513000", "163336.513000", "163338.513000", "163340.514000", "163342.514000", "163344.514000", "163346.515000", "163348.515000", "163350.514000", "163352.515000", "163354.513000", "163356.513000", "163358.514000", "163400.513000", "163402.014000", "163404.515000", "163406.514000", "163408.514000", "163410.513000", "163412.513000", "163414.013000", "163416.013000", "163418.513000", "163420.514000", "163422.514000", "163424.014000", "163426.513000", "163428.014000", "163430.513000", "163432.513000", "163434.513000", "163436.513000", "163438.515000", "163440.515000", "163442.514000", "163444.513000", "163446.514000", "163448.513000", "163450.014000", "163452.514000", "163454.514000", "163456.514000", "163458.015000", "163500.513000", "163502.514000", "163504.514000", "163506.514000", "163508.513000", "163510.513000", "163512.514000", "163514.014000", "163516.514000", "163518.513000", "163520.514000", "163522.514000", "163524.514000", "163526.513000", "163528.514000", "163530.514000", "163532.514000", "163534.514000", "163536.513000", "163538.514000", "163540.513000", "163542.513000", "163544.513000", "163546.513000", "163548.514000", "163550.515000", "163552.514000", "163554.513000", "163556.514000", "163558.514000", "163600.513000", "163602.513000", "163604.514000", "163606.515000", "163608.515000", "163610.514000", "163612.513000", "163614.514000", "163616.514000", "163618.513000", "163620.513000", "163622.514000", "163624.014000", "163626.514000", "163628.514000", "163630.513000", "163632.513000", "163634.514000", "163636.513000", "163638.513000", "163640.514000", "163642.514000", "163644.513000", "163646.514000", "163648.514000", "163650.513000", "163652.514000", "163654.514000", "163656.013000", "163658.514000", "163700.515000", "163702.514000", "163704.514000", "163706.513000", "163708.514000", "163710.514000", "163712.014000", "163714.515000", "163716.514000", "163718.515000", "163720.514000", "163722.513000", "163724.514000", "163726.514000", "163728.514000", "163730.514000", "163732.514000", "163734.514000", "163736.514000", "163738.513000", "163740.513000", "163742.040000"],
      "InstanceCreationTime": ["163245.018000", "163246.514000", "163248.514000", "163250.513000", "163252.515000", "163254.515000", "163256.513000", "163258.013000", "163300.513000", "163302.513000", "163304.513000", "163306.513000", "163308.513000", "163310.514000", "163312.514000", "163314.514000", "163316.013000", "163318.513000", "163320.514000", "163322.513000", "163324.513000", "163326.514000", "163328.515000", "163330.515000", "163332.514000", "163334.513000", "163336.513000", "163338.513000", "163340.514000", "163342.514000", "163344.514000", "163346.515000", "163348.515000", "163350.514000", "163352.515000", "163354.513000", "163356.513000", "163358.514000", "163400.513000", "163402.014000", "163404.515000", "163406.514000", "163408.514000", "163410.513000", "163412.513000", "163414.013000", "163416.013000", "163418.513000", "163420.514000", "163422.514000", "163424.014000", "163426.513000", "163428.014000", "163430.513000", "163432.513000", "163434.513000", "163436.513000", "163438.515000", "163440.515000", "163442.514000", "163444.513000", "163446.514000", "163448.513000", "163450.014000", "163452.514000", "163454.514000", "163456.514000", "163458.015000", "163500.513000", "163502.514000", "163504.514000", "163506.514000", "163508.513000", "163510.513000", "163512.514000", "163514.014000", "163516.514000", "163518.513000", "163520.514000", "163522.514000", "163524.514000", "163526.513000", "163528.514000", "163530.514000", "163532.514000", "163534.514000", "163536.513000", "163538.514000", "163540.513000", "163542.513000", "163544.513000", "163546.513000", "163548.514000", "163550.515000", "163552.514000", "163554.513000", "163556.514000", "163558.514000", "163600.513000", "163602.513000", "163604.514000", "163606.515000", "163608.515000", "163610.514000", "163612.513000", "163614.514000", "163616.514000", "163618.513000", "163620.513000", "163622.514000", "163624.014000", "163626.514000", "163628.514000", "163630.513000", "163632.513000", "163634.514000", "163636.513000", "163638.513000", "163640.514000", "163642.514000", "163644.513000", "163646.514000", "163648.514000", "163650.513000", "163652.514000", "163654.514000", "163656.013000", "163658.514000", "163700.515000", "163702.514000", "163704.514000", "163706.513000", "163708.514000", "163710.514000", "163712.014000", "163714.515000", "163716.514000", "163718.515000", "163720.514000", "163722.513000", "163724.514000", "163726.514000", "163728.514000", "163730.514000", "163732.514000", "163734.514000", "163736.514000", "163738.513000", "163740.513000", "163742.040000"],
      "InstanceNumber": [1, 2, 3, 4, 5, 6, 7, 8, 9, 10, 11, 12, 13, 14, 15, 16, 17, 18, 19, 20, 21, 22, 23, 24, 25, 26, 27, 28, 29, 30, 31, 32, 33, 34, 35, 36, 37, 38, 39, 40, 41, 42, 43, 44, 45, 46, 47, 48, 49, 50, 51, 52, 53, 54, 55, 56, 57, 58, 59, 60, 61, 62, 63, 64, 65, 66, 67, 68, 69, 70, 71, 72, 73, 74, 75, 76, 77, 78, 79, 80, 81, 82, 83, 84, 85, 86, 87, 88, 89, 90, 91, 92, 93, 94, 95, 96, 97, 98, 99, 100, 101, 102, 103, 104, 105, 106, 107, 108, 109, 110, 111, 112, 113, 114, 115, 116, 117, 118, 119, 120, 121, 122, 123, 124, 125, 126, 127, 128, 129, 130, 131, 132, 133, 134, 135, 136, 137, 138, 139, 140, 141, 142, 143, 144, 145, 146, 147, 148, 149, 150],
      "LargestImagePixelValue": [3556, 3409, 3430, 3459, 3436, 3439, 3458, 3428, 3432, 3513, 3557, 3562, 3598, 3581, 3535, 3533, 3546, 3521, 3496, 3542, 3548, 3527, 3559, 3530, 3516, 3547, 3569, 3645, 3598, 3550, 3483, 3498, 3559, 3482, 3504, 3549, 3523, 3542, 3500, 3471, 3518, 3468, 3480, 3509, 3532, 3556, 3530, 3482, 3508, 3528, 3528, 3509, 3533, 3532, 3428, 3475, 3499, 3447, 3441, 3531, 3528, 3541, 3429, 3514, 3543, 3544, 3524, 3480, 3516, 3527, 3503, 3521, 3531, 3478, 3459, 3465, 3449, 3438, 3528, 3530, 3494, 3568, 3602, 3583, 3527, 3507, 3543, 3554, 3590, 3569, 3538, 3558, 3540, 3539, 3513, 3507, 3571, 3548, 3569, 3547, 3532, 3540, 3548, 3542, 3538, 3550, 3568, 3485, 3468, 3519, 3596, 3602, 3572, 3584, 3582, 3601, 3542, 3541, 3540, 3529, 3540, 3507, 3553, 3576, 3582, 3551, 3536, 3487, 3500, 3541, 3485, 3483, 3515, 3527, 3514, 3494, 3564, 3584, 3524, 3493, 3490, 3432, 3452, 3495, 3510, 3457, 3450, 3494, 3482, 3461],
      "WindowCenter": [782.0, 779.0, 779.0, 779.0, 779.0, 777.0, 776.0, 777.0, 779.0, 781.0, 780.0, 779.0, 780.0, 781.0, 782.0, 783.0, 781.0, 780.0, 780.0, 781.0, 781.0, 780.0, 780.0, 780.0, 780.0, 781.0, 783.0, 783.0, 781.0, 781.0, 780.0, 781.0, 781.0, 782.0, 782.0, 782.0, 782.0, 781.0, 781.0, 781.0, 781.0, 780.0, 780.0, 780.0, 781.0, 782.0, 783.0, 783.0, 782.0, 781.0, 781.0, 783.0, 785.0, 783.0, 780.0, 778.0, 778.0, 778.0, 778.0, 780.0, 780.0, 779.0, 779.0, 781.0, 782.0, 782.0, 781.0, 782.0, 783.0, 782.0, 782.0, 781.0, 782.0, 783.0, 782.0, 780.0, 779.0, 780.0, 781.0, 780.0, 781.0, 783.0, 783.0, 782.0, 781.0, 781.0, 782.0, 783.0, 784.0, 783.0, 782.0, 782.0, 782.0, 782.0, 782.0, 781.0, 782.0, 782.0, 782.0, 783.0, 782.0, 781.0, 781.0, 782.0, 783.0, 783.0, 782.0, 780.0, 780.0, 782.0, 783.0, 782.0, 782.0, 782.0, 782.0, 781.0, 781.0, 782.0, 781.0, 782.0, 782.0, 782.0, 783.0, 784.0, 783.0, 782.0, 783.0, 782.0, 783.0, 782.0, 780.0, 779.0, 780.0, 781.0, 781.0, 781.0, 783.0, 785.0, 784.0, 782.0, 781.0, 780.0, 781.0, 782.0, 783.0, 781.0, 780.0, 780.0, 779.0, 779.0],
      "WindowWidth": [1699.0, 1692.0, 1691.0, 1693.0, 1691.0, 1686.0, 1685.0, 1687.0, 1693.0, 1696.0, 1695.0, 1693.0, 1695.0, 1698.0, 1701.0, 1704.0, 1699.0, 1696.0, 1696.0, 1697.0, 1698.0, 1696.0, 1695.0, 1694.0, 1695.0, 1699.0, 1703.0, 1702.0, 1698.0, 1697.0, 1696.0, 1698.0, 1699.0, 1700.0, 1700.0, 1701.0, 1699.0, 1698.0, 1698.0, 1697.0, 1698.0, 1695.0, 1694.0, 1695.0, 1697.0, 1701.0, 1704.0, 1702.0, 1700.0, 1699.0, 1699.0, 1705.0, 1709.0, 1703.0, 1693.0, 1690.0, 1689.0, 1689.0, 1690.0, 1694.0, 1694.0, 1693.0, 1693.0, 1698.0, 1700.0, 1700.0, 1699.0, 1700.0, 1702.0, 1702.0, 1700.0, 1697.0, 1701.0, 1702.0, 1699.0, 1693.0, 1692.0, 1694.0, 1698.0, 1695.0, 1697.0, 1703.0, 1704.0, 1700.0, 1697.0, 1697.0, 1701.0, 1705.0, 1706.0, 1703.0, 1702.0, 1702.0, 1702.0, 1701.0, 1699.0, 1699.0, 1700.0, 1701.0, 1702.0, 1703.0, 1701.0, 1699.0, 1698.0, 1700.0, 1702.0, 1703.0, 1701.0, 1695.0, 1694.0, 1700.0, 1704.0, 1702.0, 1700.0, 1700.0, 1700.0, 1699.0, 1699.0, 1699.0, 1699.0, 1699.0, 1700.0, 1701.0, 1704.0, 1706.0, 1704.0, 1701.0, 1702.0, 1700.0, 1702.0, 1700.0, 1695.0, 1693.0, 1695.0, 1697.0, 1697.0, 1699.0, 1705.0, 1709.0, 1706.0, 1701.0, 1697.0, 1696.0, 1698.0, 1700.0, 1701.0, 1696.0, 1694.0, 1694.0, 1693.0, 1692.0]
    },
    "slices": {}
  }
}