{
  "AcquisitionMatrixPE": 100,
  "AcquisitionNumber": 1,
  "AcquisitionTime": "15:30:58.550000",
  "BandwidthPerPixelPhaseEncode": 18.519,
  "BaseResolution": 100,
  "BodyPartExamined": "BRAIN",
  "ConsistencyInfo": "N4_VE11C_LATEST_20160120",
  "ConversionSoftware": "dcm2niix",
  "ConversionSoftwareVersion": "v1.0.20180622 GCC4.9.2",
  "DerivedVendorReportedEchoSpacing": 0.000539986,
  "DeviceSerialNumber": "166078",
  "DwellTime": 2.1e-06,
  "EchoTime": 0.034,
  "EchoTrainLength": 100,
  "EffectiveEchoSpacing": 0.000539986,
  "FlipAngle": 90,
  "ImageOrientationPatientDICOM": [1, -6.18849e-05, -0.000551236, 5.85096e-08, 0.993769, -0.11146],
  "ImageType": [
    "ORIGINAL",
    "PRIMARY",
    "M",
    "ND",
    "MOSAIC"
],
  "InPlanePhaseEncodingDirectionDICOM": "COL",
  "InstitutionAddress": "Street_StreetNo_Bei_Jing_District_CN_ZIP",
  "InstitutionName": "BeiJing_Normal_University",
  "InstitutionalDepartmentName": "Department",
  "MRAcquisitionType": "2D",
  "MagneticFieldStrength": 3,
  "Manufacturer": "Siemens",
  "ManufacturersModelName": "Prisma",
  "Modality": "MR",
  "MultibandAccelerationFactor": 3,
  "PartialFourier": 1,
  "PatientPosition": "HFS",
  "PercentPhaseFOV": 100,
  "PhaseEncodingDirection": "j-",
  "PhaseEncodingSteps": 100,
  "PhaseResolution": 1,
  "PixelBandwidth": 2380,
  "ProcedureStepDescription": "BNU_P2018_64CH_Zhen.ZongLei",
  "ProtocolName": "bold_100x100_s3_2x2x2_static_256",
  "PulseSequenceDetails": "%SiemensSeq%_ep2d_bold",
  "ReceiveCoilActiveElements": "HC1-7;NC1",
  "ReceiveCoilName": "HeadNeck_64",
  "ReconMatrixPE": 100,
  "RepetitionTime": 2,
  "SAR": 0.0732644,
  "ScanOptions": "FS",
  "ScanningSequence": "EP",
  "SequenceName": "_epfid2d1_100",
  "SequenceVariant": "SK",
  "SeriesDescription": "bold_100x100_s3_2x2x2_static_256",
  "SeriesNumber": 6,
  "ShimSetting": [-5457, -11500, -1274, 523, 19, -181, -86, 58],
  "SliceThickness": 2,
  "SliceTiming": [1.485, 0, 0.99, 0.0825, 1.0725, 0.165, 1.155, 0.2475, 1.2375, 0.33, 1.32, 0.4125, 1.4025, 0.5775, 1.5675, 0.66, 1.65, 0.7425, 1.7325, 0.825, 1.815, 0.9075, 1.8975, 0.495, 1.485, 0, 0.99, 0.0825, 1.0725, 0.165, 1.155, 0.2475, 1.2375, 0.33, 1.32, 0.4125, 1.4025, 0.5775, 1.5675, 0.66, 1.65, 0.7425, 1.7325, 0.825, 1.815, 0.9075, 1.8975, 0.495, 1.485, 0, 0.99, 0.0825, 1.0725, 0.165, 1.155, 0.2475, 1.2375, 0.33, 1.32, 0.4125, 1.4025, 0.5775, 1.5675, 0.66, 1.65, 0.7425, 1.7325, 0.825, 1.815, 0.9075, 1.8975, 0.495],
  "SoftwareVersions": "syngo_MR_E11",
  "SpacingBetweenSlices": 2,
  "StationName": "AWP166078",
  "TaskName": "naturalvision",
  "TotalReadoutTime": 0.0534586,
  "TxRefAmp": 207.787,
  "dcmmeta_affine": [
    [-1.9999996423721313, 1.1701917657092054e-07, -0.0011093973880633712, 99.79715728759766],
    [0.00012376985978335142, 1.9875378608703613, -0.222920224070549, -87.49750518798828],
    [-0.0011024716077372432, 0.2229202538728714, 1.9875375032424927, -75.5267562866211],
    [0.0, 0.0, 0.0, 1.0]
],
  "dcmmeta_reorient_transform": [
    [0.0, -1.0, 0.0, 99.0],
    [1.0, 0.0, 0.0, 0.0],
    [0.0, 0.0, 1.0, 0.0],
    [0.0, 0.0, 0.0, 1.0]
],
  "dcmmeta_shape": [100, 100, 72, 256],
  "dcmmeta_slice_dim": 2,
  "dcmmeta_version": 0.6,
  "global": {
    "const": {
      "AcquisitionMatrix": [100, 0, 0, 100],
      "AngioFlag": "N",
      "BitsAllocated": 16,
      "BitsStored": 12,
      "BodyPartExamined": "BRAIN",
      "Columns": 900,
      "EchoNumbers": 1,
      "EchoTime": 34.0,
      "EchoTrainLength": 100,
      "FlipAngle": 90.0,
      "HighBit": 11,
      "ImageOrientationPatient": [0.99999984615468, -6.18849293e-05, -0.0005512357769, 5.8509588e-08, 0.99376890693687, -0.1114601256302],
      "ImagePositionPatient": [-899.79709088675, -904.23435962465, 36.151434677948],
      "ImageType": [
        "ORIGINAL",
        "PRIMARY",
        "M",
        "ND",
        "MOSAIC"
],
      "ImagedNucleus": "1H",
      "ImagingFrequency": 123.257768,
      "InPlanePhaseEncodingDirection": "COL",
      "MRAcquisitionType": "2D",
      "MagneticFieldStrength": 3.0,
      "Manufacturer": "SIEMENS",
      "ManufacturerModelName": "Prisma",
      "Modality": "MR",
      "NumberOfAverages": 1.0,
      "NumberOfPhaseEncodingSteps": 100,
      "PercentPhaseFieldOfView": 100.0,
      "PercentSampling": 100.0,
      "PerformedProcedureStepStartTime": "145836.729000",
      "PhotometricInterpretation": "MONOCHROME2",
      "PixelBandwidth": 2380.0,
      "PixelRepresentation": 0,
      "PixelSpacing": [2.0, 2.0],
      "ProtocolName": "bold_100x100_s3_2x2x2_static_256",
      "RepetitionTime": 2000.0,
      "Rows": 900,
      "SAR": 0.0732644290803,
      "SamplesPerPixel": 1,
      "ScanOptions": "FS",
      "ScanningSequence": "EP",
      "SequenceName": "*epfid2d1_100",
      "SequenceVariant": "SK",
      "SeriesDescription": "bold_100x100_s3_2x2x2_static_256",
      "SeriesNumber": 6,
      "SeriesTime": "153101.066000",
      "SliceLocation": -65.359009847354,
      "SliceThickness": 2.0,
      "SmallestImagePixelValue": 0,
      "SoftwareVersions": "syngo MR E11",
      "SpacingBetweenSlices": 2.0000000375584,
      "SpecificCharacterSet": "ISO_IR 100",
      "StudyID": "1",
      "StudyTime": "145836.682000",
      "TransmitCoilName": "Body",
      "VariableFlipAngleFlag": "N",
      "WindowCenterWidthExplanation": "Algo1",
      "dBdt": 0.0},
    "slices": {}
  },
  "time": {
    "samples": {
      "AcquisitionNumber": [1, 2, 3, 4, 5, 6, 7, 8, 9, 10, 11, 12, 13, 14, 15, 16, 17, 18, 19, 20, 21, 22, 23, 24, 25, 26, 27, 28, 29, 30, 31, 32, 33, 34, 35, 36, 37, 38, 39, 40, 41, 42, 43, 44, 45, 46, 47, 48, 49, 50, 51, 52, 53, 54, 55, 56, 57, 58, 59, 60, 61, 62, 63, 64, 65, 66, 67, 68, 69, 70, 71, 72, 73, 74, 75, 76, 77, 78, 79, 80, 81, 82, 83, 84, 85, 86, 87, 88, 89, 90, 91, 92, 93, 94, 95, 96, 97, 98, 99, 100, 101, 102, 103, 104, 105, 106, 107, 108, 109, 110, 111, 112, 113, 114, 115, 116, 117, 118, 119, 120, 121, 122, 123, 124, 125, 126, 127, 128, 129, 130, 131, 132, 133, 134, 135, 136, 137, 138, 139, 140, 141, 142, 143, 144, 145, 146, 147, 148, 149, 150, 151, 152, 153, 154, 155, 156, 157, 158, 159, 160, 161, 162, 163, 164, 165, 166, 167, 168, 169, 170, 171, 172, 173, 174, 175, 176, 177, 178, 179, 180, 181, 182, 183, 184, 185, 186, 187, 188, 189, 190, 191, 192, 193, 194, 195, 196, 197, 198, 199, 200, 201, 202, 203, 204, 205, 206, 207, 208, 209, 210, 211, 212, 213, 214, 215, 216, 217, 218, 219, 220, 221, 222, 223, 224, 225, 226, 227, 228, 229, 230, 231, 232, 233, 234, 235, 236, 237, 238, 239, 240, 241, 242, 243, 244, 245, 246, 247, 248, 249, 250, 251, 252, 253, 254, 255, 256],
      "AcquisitionTime": ["153058.550000", "153100.550000", "153102.550000", "153104.550000", "153106.550000", "153108.550000", "153110.550000", "153112.550000", "153114.550000", "153116.550000", "153118.550000", "153120.550000", "153122.550000", "153124.550000", "153126.550000", "153128.550000", "153130.550000", "153132.550000", "153134.550000", "153136.550000", "153138.550000", "153140.550000", "153142.550000", "153144.550000", "153146.550000", "153148.550000", "153150.550000", "153152.550000", "153154.550000", "153156.550000", "153158.550000", "153200.550000", "153202.550000", "153204.550000", "153206.550000", "153208.550000", "153210.550000", "153212.550000", "153214.550000", "153216.550000", "153218.550000", "153220.550000", "153222.550000", "153224.550000", "153226.550000", "153228.550000", "153230.550000", "153232.550000", "153234.550000", "153236.550000", "153238.550000", "153240.550000", "153242.550000", "153244.550000", "153246.550000", "153248.550000", "153250.550000", "153252.550000", "153254.550000", "153256.550000", "153258.550000", "153300.550000", "153302.550000", "153304.550000", "153306.550000", "153308.550000", "153310.550000", "153312.550000", "153314.550000", "153316.550000", "153318.550000", "153320.550000", "153322.550000", "153324.550000", "153326.550000", "153328.550000", "153330.550000", "153332.550000", "153334.550000", "153336.550000", "153338.550000", "153340.550000", "153342.550000", "153344.550000", "153346.550000", "153348.550000", "153350.550000", "153352.550000", "153354.550000", "153356.550000", "153358.550000", "153400.550000", "153402.550000", "153404.550000", "153406.550000", "153408.550000", "153410.550000", "153412.550000", "153414.550000", "153416.550000", "153418.550000", "153420.550000", "153422.550000", "153424.550000", "153426.550000", "153428.550000", "153430.550000", "153432.550000", "153434.550000", "153436.550000", "153438.550000", "153440.550000", "153442.550000", "153444.550000", "153446.550000", "153448.550000", "153450.550000", "153452.550000", "153454.550000", "153456.550000", "153458.550000", "153500.550000", "153502.550000", "153504.550000", "153506.550000", "153508.550000", "153510.550000", "153512.550000", "153514.550000", "153516.550000", "153518.550000", "153520.550000", "153522.550000", "153524.550000", "153526.550000", "153528.550000", "153530.550000", "153532.550000", "153534.550000", "153536.550000", "153538.550000", "153540.550000", "153542.550000", "153544.550000", "153546.550000", "153548.550000", "153550.550000", "153552.550000", "153554.550000", "153556.550000", "153558.550000", "153600.550000", "153602.550000", "153604.550000", "153606.550000", "153608.550000", "153610.550000", "153612.550000", "153614.550000", "153616.550000", "153618.550000", "153620.550000", "153622.550000", "153624.550000", "153626.550000", "153628.550000", "153630.550000", "153632.550000", "153634.550000", "153636.550000", "153638.550000", "153640.550000", "153642.550000", "153644.550000", "153646.550000", "153648.550000", "153650.550000", "153652.550000", "153654.550000", "153656.550000", "153658.550000", "153700.550000", "153702.550000", "153704.550000", "153706.550000", "153708.550000", "153710.550000", "153712.550000", "153714.550000", "153716.550000", "153718.550000", "153720.550000", "153722.550000", "153724.550000", "153726.550000", "153728.550000", "153730.550000", "153732.550000", "153734.550000", "153736.550000", "153738.550000", "153740.550000", "153742.550000", "153744.550000", "153746.550000", "153748.550000", "153750.550000", "153752.550000", "153754.550000", "153756.550000", "153758.550000", "153800.550000", "153802.550000", "153804.550000", "153806.550000", "153808.550000", "153810.550000", "153812.550000", "153814.550000", "153816.550000", "153818.550000", "153820.550000", "153822.550000", "153824.550000", "153826.550000", "153828.550000", "153830.550000", "153832.550000", "153834.550000", "153836.550000", "153838.550000", "153840.550000", "153842.550000", "153844.550000", "153846.550000", "153848.550000", "153850.550000", "153852.550000", "153854.550000", "153856.550000", "153858.550000", "153900.550000", "153902.550000", "153904.550000", "153906.550000", "153908.550000", "153910.550000", "153912.550000", "153914.550000", "153916.550000", "153918.550000", "153920.550000", "153922.550000", "153924.550000", "153926.550000", "153928.550000"],
      "ContentTime": ["153101.070000", "153103.065000", "153105.066000", "153107.066000", "153109.065000", "153111.066000", "153113.065000", "153114.566000", "153117.068000", "153119.066000", "153121.066000", "153122.565000", "153125.065000", "153127.065000", "153129.065000", "153131.066000", "153133.066000", "153135.065000", "153137.065000", "153139.065000", "153141.065000", "153143.065000", "153145.066000", "153147.065000", "153148.566000", "153151.065000", "153153.065000", "153155.066000", "153157.065000", "153159.066000", "153200.566000", "153203.066000", "153205.065000", "153207.066000", "153209.065000", "153211.065000", "153213.065000", "153215.065000", "153217.065000", "153219.065000", "153221.066000", "153223.065000", "153224.567000", "153227.065000", "153229.065000", "153231.065000", "153233.066000", "153235.066000", "153237.066000", "153239.066000", "153241.065000", "153242.566000", "153245.066000", "153247.065000", "153249.065000", "153251.065000", "153253.065000", "153255.065000", "153257.065000", "153259.066000", "153301.066000", "153303.065000", "153305.065000", "153307.066000", "153309.065000", "153311.066000", "153313.069000", "153315.065000", "153317.067000", "153319.066000", "153321.066000", "153322.566000", "153325.066000", "153327.066000", "153329.065000", "153331.066000", "153333.065000", "153335.067000", "153337.066000", "153339.066000", "153341.065000", "153342.566000", "153345.066000", "153347.065000", "153349.065000", "153351.066000", "153352.566000", "153355.066000", "153356.566000", "153359.066000", "153401.065000", "153403.066000", "153405.066000", "153407.066000", "153409.066000", "153411.065000", "153412.565000", "153415.066000", "153417.065000", "153419.065000", "153421.066000", "153423.066000", "153425.066000", "153427.066000", "153429.066000", "153431.066000", "153433.065000", "153435.066000", "153436.566000", "153439.065000", "153441.067000", "153443.066000", "153445.066000", "153447.066000", "153449.066000", "153451.066000", "153453.065000", "153455.066000", "153457.066000", "153459.066000", "153501.065000", "153503.067000", "153505.065000", "153507.066000", "153509.066000", "153511.066000", "153513.066000", "153515.066000", "153517.065000", "153519.067000", "153520.566000", "153523.066000", "153524.566000", "153527.066000", "153529.066000", "153531.066000", "153533.065000", "153535.066000", "153537.066000", "153539.066000", "153541.065000", "153543.066000", "153545.065000", "153547.066000", "153548.565000", "153551.065000", "153553.065000", "153554.568000", "153557.067000", "153558.566000", "153601.066000", "153603.066000", "153604.566000", "153607.066000", "153609.065000", "153611.066000", "153613.067000", "153615.065000", "153617.065000", "153619.066000", "153621.066000", "153623.065000", "153625.066000", "153627.066000", "153629.067000", "153631.066000", "153633.065000", "153634.566000", "153637.066000", "153639.065000", "153641.066000", "153643.066000", "153645.065000", "153647.067000", "153649.065000", "153651.066000", "153653.066000", "153655.066000", "153657.066000", "153658.566000", "153701.066000", "153702.566000", "153704.566000", "153707.066000", "153709.066000", "153711.065000", "153713.066000", "153715.065000", "153716.566000", "153719.066000", "153721.066000", "153723.067000", "153725.066000", "153727.066000", "153729.066000", "153731.065000", "153733.066000", "153735.066000", "153737.065000", "153738.565000", "153741.066000", "153743.066000", "153745.066000", "153747.065000", "153749.066000", "153751.066000", "153753.066000", "153755.066000", "153757.066000", "153759.066000", "153801.065000", "153803.066000", "153804.566000", "153807.066000", "153809.065000", "153811.066000", "153813.066000", "153814.566000", "153817.065000", "153819.066000", "153821.066000", "153823.066000", "153825.065000", "153827.065000", "153829.066000", "153830.566000", "153833.067000", "153835.066000", "153836.566000", "153839.065000", "153840.565000", "153843.066000", "153845.069000", "153847.066000", "153849.066000", "153851.066000", "153853.065000", "153854.566000", "153857.066000", "153859.066000", "153901.066000", "153902.566000", "153905.066000", "153907.066000", "153909.065000", "153911.066000", "153913.066000", "153915.066000", "153917.065000", "153919.066000", "153920.566000", "153923.065000", "153925.067000", "153927.066000", "153929.065000", "153930.536000"],
      "InstanceCreationTime": ["153101.070000", "153103.065000", "153105.066000", "153107.066000", "153109.065000", "153111.066000", "153113.065000", "153114.566000", "153117.068000", "153119.066000", "153121.066000", "153122.565000", "153125.065000", "153127.065000", "153129.065000", "153131.066000", "153133.066000", "153135.065000", "153137.065000", "153139.065000", "153141.065000", "153143.065000", "153145.066000", "153147.065000", "153148.566000", "153151.065000", "153153.065000", "153155.066000", "153157.065000", "153159.066000", "153200.566000", "153203.066000", "153205.065000", "153207.066000", "153209.065000", "153211.065000", "153213.065000", "153215.065000", "153217.065000", "153219.065000", "153221.066000", "153223.065000", "153224.567000", "153227.065000", "153229.065000", "153231.065000", "153233.066000", "153235.066000", "153237.066000", "153239.066000", "153241.065000", "153242.566000", "153245.066000", "153247.065000", "153249.065000", "153251.065000", "153253.065000", "153255.065000", "153257.065000", "153259.066000", "153301.066000", "153303.065000", "153305.065000", "153307.066000", "153309.065000", "153311.066000", "153313.069000", "153315.065000", "153317.067000", "153319.066000", "153321.066000", "153322.566000", "153325.066000", "153327.066000", "153329.065000", "153331.066000", "153333.065000", "153335.067000", "153337.066000", "153339.066000", "153341.065000", "153342.566000", "153345.066000", "153347.065000", "153349.065000", "153351.066000", "153352.566000", "153355.066000", "153356.566000", "153359.066000", "153401.065000", "153403.066000", "153405.066000", "153407.066000", "153409.066000", "153411.065000", "153412.565000", "153415.066000", "153417.065000", "153419.065000", "153421.066000", "153423.066000", "153425.066000", "153427.066000", "153429.066000", "153431.066000", "153433.065000", "153435.066000", "153436.566000", "153439.065000", "153441.067000", "153443.066000", "153445.066000", "153447.066000", "153449.066000", "153451.066000", "153453.065000", "153455.066000", "153457.066000", "153459.066000", "153501.065000", "153503.067000", "153505.065000", "153507.066000", "153509.066000", "153511.066000", "153513.066000", "153515.066000", "153517.065000", "153519.067000", "153520.566000", "153523.066000", "153524.566000", "153527.066000", "153529.066000", "153531.066000", "153533.065000", "153535.066000", "153537.066000", "153539.066000", "153541.065000", "153543.066000", "153545.065000", "153547.066000", "153548.565000", "153551.065000", "153553.065000", "153554.568000", "153557.067000", "153558.566000", "153601.066000", "153603.066000", "153604.566000", "153607.066000", "153609.065000", "153611.066000", "153613.067000", "153615.065000", "153617.065000", "153619.066000", "153621.066000", "153623.065000", "153625.066000", "153627.066000", "153629.067000", "153631.066000", "153633.065000", "153634.566000", "153637.066000", "153639.065000", "153641.066000", "153643.066000", "153645.065000", "153647.067000", "153649.065000", "153651.066000", "153653.066000", "153655.066000", "153657.066000", "153658.566000", "153701.066000", "153702.566000", "153704.566000", "153707.066000", "153709.066000", "153711.065000", "153713.066000", "153715.065000", "153716.566000", "153719.066000", "153721.066000", "153723.067000", "153725.066000", "153727.066000", "153729.066000", "153731.065000", "153733.066000", "153735.066000", "153737.065000", "153738.565000", "153741.066000", "153743.066000", "153745.066000", "153747.065000", "153749.066000", "153751.066000", "153753.066000", "153755.066000", "153757.066000", "153759.066000", "153801.065000", "153803.066000", "153804.566000", "153807.066000", "153809.065000", "153811.066000", "153813.066000", "153814.566000", "153817.065000", "153819.066000", "153821.066000", "153823.066000", "153825.065000", "153827.065000", "153829.066000", "153830.566000", "153833.067000", "153835.066000", "153836.566000", "153839.065000", "153840.565000", "153843.066000", "153845.069000", "153847.066000", "153849.066000", "153851.066000", "153853.065000", "153854.566000", "153857.066000", "153859.066000", "153901.066000", "153902.566000", "153905.066000", "153907.066000", "153909.065000", "153911.066000", "153913.066000", "153915.066000", "153917.065000", "153919.066000", "153920.566000", "153923.065000", "153925.067000", "153927.066000", "153929.065000", "153930.536000"],
      "InstanceNumber": [1, 2, 3, 4, 5, 6, 7, 8, 9, 10, 11, 12, 13, 14, 15, 16, 17, 18, 19, 20, 21, 22, 23, 24, 25, 26, 27, 28, 29, 30, 31, 32, 33, 34, 35, 36, 37, 38, 39, 40, 41, 42, 43, 44, 45, 46, 47, 48, 49, 50, 51, 52, 53, 54, 55, 56, 57, 58, 59, 60, 61, 62, 63, 64, 65, 66, 67, 68, 69, 70, 71, 72, 73, 74, 75, 76, 77, 78, 79, 80, 81, 82, 83, 84, 85, 86, 87, 88, 89, 90, 91, 92, 93, 94, 95, 96, 97, 98, 99, 100, 101, 102, 103, 104, 105, 106, 107, 108, 109, 110, 111, 112, 113, 114, 115, 116, 117, 118, 119, 120, 121, 122, 123, 124, 125, 126, 127, 128, 129, 130, 131, 132, 133, 134, 135, 136, 137, 138, 139, 140, 141, 142, 143, 144, 145, 146, 147, 148, 149, 150, 151, 152, 153, 154, 155, 156, 157, 158, 159, 160, 161, 162, 163, 164, 165, 166, 167, 168, 169, 170, 171, 172, 173, 174, 175, 176, 177, 178, 179, 180, 181, 182, 183, 184, 185, 186, 187, 188, 189, 190, 191, 192, 193, 194, 195, 196, 197, 198, 199, 200, 201, 202, 203, 204, 205, 206, 207, 208, 209, 210, 211, 212, 213, 214, 215, 216, 217, 218, 219, 220, 221, 222, 223, 224, 225, 226, 227, 228, 229, 230, 231, 232, 233, 234, 235, 236, 237, 238, 239, 240, 241, 242, 243, 244, 245, 246, 247, 248, 249, 250, 251, 252, 253, 254, 255, 256],
      "LargestImagePixelValue": [3069, 2591, 2795, 2587, 2779, 2622, 2609, 2603, 2621, 2601, 2607, 2747, 2590, 2608, 2597, 2580, 2592, 2607, 2589, 2750, 2602, 2661, 2612, 2613, 2651, 2578, 2578, 2625, 2580, 2601, 2596, 2600, 2607, 2595, 2608, 2617, 2605, 2633, 2593, 2629, 2613, 2612, 2663, 2615, 2624, 2644, 2628, 2642, 2629, 2633, 2629, 2633, 2642, 2656, 2588, 2587, 2587, 2556, 2568, 2584, 2597, 2671, 2589, 2615, 2598, 2650, 2604, 2608, 2638, 2607, 2816, 2606, 2629, 2626, 2613, 2740, 2621, 2613, 2622, 2617, 2630, 2614, 2627, 2617, 2641, 2619, 2600, 2609, 2633, 2649, 2597, 2638, 2600, 2630, 2637, 2654, 2630, 2620, 2693, 2601, 2630, 2606, 2610, 2636, 2605, 2633, 2618, 2593, 2639, 2603, 2628, 2611, 2613, 2607, 2616, 2634, 2613, 2668, 2596, 2615, 2611, 2705, 2641, 2624, 2633, 2636, 2615, 2646, 2633, 2627, 2674, 2593, 2640, 2635, 2612, 2610, 2598, 2600, 2577, 2616, 2599, 2600, 2716, 2591, 2645, 2663, 2633, 2620, 2622, 2755, 2598, 2611, 2619, 2750, 2619, 2616, 2634, 2635, 2615, 2606, 2600, 2617, 2645, 2691, 2618, 2643, 2612, 2633, 2634, 2588, 2610, 2606, 2703, 2596, 2620, 2610, 2634, 2616, 2619, 2643, 2658, 2621, 2604, 2595, 2594, 2610, 2629, 2588, 2606, 2586, 2583, 2703, 2599, 2598, 2580, 2591, 2583, 2597, 2591, 2584, 2631, 2612, 2604, 2590, 2657, 2601, 2621, 2610, 2617, 2581, 2601, 2604, 2612, 2618, 2584, 2586, 2623, 2604, 2608, 2600, 2633, 2596, 2603, 2659, 2610, 2615, 2601, 2622, 2664, 2594, 2589, 2605, 2634, 2619, 2585, 2588, 2650, 2647, 2632, 2631, 2618, 2603, 2634, 2643, 2593, 2603, 2617, 2659, 2637, 2639, 2703, 2601, 2604, 2643, 2622, 2621],
      "WindowCenter": [749.0, 745.0, 747.0, 745.0, 746.0, 744.0, 744.0, 744.0, 744.0, 743.0, 743.0, 744.0, 744.0, 743.0, 742.0, 741.0, 742.0, 743.0, 743.0, 744.0, 742.0, 742.0, 742.0, 742.0, 743.0, 742.0, 742.0, 742.0, 741.0, 742.0, 742.0, 742.0, 741.0, 741.0, 742.0, 743.0, 743.0, 742.0, 741.0, 742.0, 742.0, 741.0, 741.0, 741.0, 741.0, 742.0, 742.0, 742.0, 742.0, 742.0, 741.0, 742.0, 742.0, 743.0, 743.0, 742.0, 742.0, 742.0, 741.0, 740.0, 741.0, 743.0, 743.0, 744.0, 744.0, 745.0, 745.0, 744.0, 745.0, 744.0, 746.0, 742.0, 742.0, 743.0, 743.0, 744.0, 743.0, 743.0, 743.0, 742.0, 742.0, 742.0, 742.0, 741.0, 741.0, 742.0, 742.0, 742.0, 742.0, 742.0, 741.0, 742.0, 742.0, 742.0, 742.0, 743.0, 743.0, 743.0, 743.0, 742.0, 743.0, 743.0, 743.0, 743.0, 742.0, 742.0, 742.0, 743.0, 743.0, 741.0, 741.0, 742.0, 742.0, 743.0, 743.0, 743.0, 742.0, 742.0, 742.0, 742.0, 742.0, 742.0, 742.0, 742.0, 742.0, 743.0, 743.0, 743.0, 743.0, 742.0, 743.0, 742.0, 743.0, 744.0, 743.0, 742.0, 743.0, 742.0, 742.0, 742.0, 742.0, 743.0, 745.0, 744.0, 744.0, 744.0, 744.0, 744.0, 744.0, 745.0, 743.0, 743.0, 743.0, 744.0, 743.0, 743.0, 743.0, 742.0, 742.0, 742.0, 742.0, 743.0, 743.0, 743.0, 742.0, 743.0, 743.0, 743.0, 742.0, 742.0, 742.0, 742.0, 743.0, 742.0, 743.0, 743.0, 742.0, 742.0, 743.0, 743.0, 742.0, 741.0, 742.0, 743.0, 743.0, 742.0, 742.0, 741.0, 742.0, 742.0, 742.0, 744.0, 742.0, 742.0, 741.0, 741.0, 742.0, 743.0, 743.0, 743.0, 742.0, 742.0, 742.0, 743.0, 744.0, 742.0, 742.0, 742.0, 742.0, 741.0, 742.0, 743.0, 743.0, 743.0, 743.0, 744.0, 744.0, 743.0, 742.0, 742.0, 742.0, 742.0, 742.0, 743.0, 742.0, 742.0, 742.0, 742.0, 743.0, 743.0, 743.0, 743.0, 744.0, 743.0, 742.0, 742.0, 742.0, 741.0, 741.0, 742.0, 742.0, 742.0, 743.0, 742.0, 742.0, 742.0, 743.0, 743.0, 743.0, 743.0, 743.0, 742.0, 743.0, 744.0, 743.0, 743.0],
      "WindowWidth": [1608.0, 1598.0, 1604.0, 1597.0, 1601.0, 1597.0, 1595.0, 1595.0, 1597.0, 1593.0, 1593.0, 1597.0, 1595.0, 1594.0, 1592.0, 1589.0, 1591.0, 1592.0, 1592.0, 1596.0, 1590.0, 1590.0, 1590.0, 1590.0, 1592.0, 1591.0, 1592.0, 1591.0, 1590.0, 1591.0, 1591.0, 1590.0, 1590.0, 1588.0, 1592.0, 1592.0, 1593.0, 1592.0, 1589.0, 1590.0, 1590.0, 1589.0, 1589.0, 1588.0, 1588.0, 1590.0, 1591.0, 1591.0, 1590.0, 1590.0, 1589.0, 1590.0, 1591.0, 1594.0, 1593.0, 1592.0, 1592.0, 1590.0, 1588.0, 1587.0, 1589.0, 1594.0, 1594.0, 1595.0, 1596.0, 1598.0, 1598.0, 1597.0, 1598.0, 1597.0, 1601.0, 1592.0, 1591.0, 1592.0, 1592.0, 1596.0, 1593.0, 1594.0, 1593.0, 1591.0, 1591.0, 1592.0, 1592.0, 1589.0, 1589.0, 1591.0, 1592.0, 1590.0, 1590.0, 1592.0, 1589.0, 1590.0, 1590.0, 1590.0, 1591.0, 1594.0, 1594.0, 1593.0, 1594.0, 1590.0, 1593.0, 1594.0, 1594.0, 1593.0, 1590.0, 1592.0, 1592.0, 1592.0, 1592.0, 1589.0, 1589.0, 1590.0, 1591.0, 1592.0, 1593.0, 1593.0, 1592.0, 1592.0, 1590.0, 1592.0, 1591.0, 1591.0, 1590.0, 1590.0, 1591.0, 1592.0, 1592.0, 1594.0, 1592.0, 1591.0, 1594.0, 1592.0, 1593.0, 1595.0, 1592.0, 1591.0, 1592.0, 1591.0, 1590.0, 1589.0, 1589.0, 1592.0, 1598.0, 1596.0, 1595.0, 1595.0, 1596.0, 1597.0, 1596.0, 1597.0, 1593.0, 1593.0, 1592.0, 1595.0, 1592.0, 1592.0, 1592.0, 1591.0, 1591.0, 1591.0, 1591.0, 1592.0, 1592.0, 1592.0, 1591.0, 1593.0, 1593.0, 1592.0, 1592.0, 1590.0, 1591.0, 1591.0, 1594.0, 1592.0, 1593.0, 1592.0, 1589.0, 1590.0, 1592.0, 1593.0, 1592.0, 1589.0, 1590.0, 1593.0, 1593.0, 1592.0, 1590.0, 1589.0, 1589.0, 1590.0, 1590.0, 1594.0, 1591.0, 1590.0, 1589.0, 1588.0, 1590.0, 1594.0, 1594.0, 1592.0, 1591.0, 1590.0, 1591.0, 1592.0, 1595.0, 1592.0, 1591.0, 1591.0, 1591.0, 1589.0, 1591.0, 1592.0, 1592.0, 1592.0, 1593.0, 1595.0, 1595.0, 1593.0, 1591.0, 1590.0, 1590.0, 1590.0, 1591.0, 1593.0, 1590.0, 1589.0, 1589.0, 1591.0, 1593.0, 1592.0, 1592.0, 1594.0, 1594.0, 1593.0, 1592.0, 1590.0, 1591.0, 1588.0, 1588.0, 1590.0, 1590.0, 1590.0, 1592.0, 1591.0, 1590.0, 1592.0, 1594.0, 1594.0, 1593.0, 1593.0, 1594.0, 1591.0, 1592.0, 1596.0, 1594.0, 1594.0]
    },
    "slices": {}
  }
}