{
 "AcquisitionMatrixPE": 100,
 "AcquisitionNumber": 1,
 "AcquisitionTime": "15:52:54.702500",
 "BandwidthPerPixelPhaseEncode": 18.519,
 "BaseResolution": 100,
 "BodyPartExamined": "BRAIN",
 "ConsistencyInfo": "N4_VE11C_LATEST_20160120",
 "ConversionSoftware": "dcm2niix",
 "ConversionSoftwareVersion": "v1.0.20180622 GCC4.9.2",
 "DerivedVendorReportedEchoSpacing": 0.000539986,
 "DeviceSerialNumber": "166078",
 "DwellTime": 2.1e-06,
 "EchoTime": 0.034,
 "EchoTrainLength": 100,
 "EffectiveEchoSpacing": 0.000539986,
 "FlipAngle": 90,
 "ImageOrientationPatientDICOM": [
  1,
  -6.18849e-05,
  -0.000551236,
  5.85096e-08,
  0.993769,
  -0.11146
 ],
 "ImageType": [
  "ORIGINAL",
  "PRIMARY",
  "M",
  "ND",
  "MOSAIC"
 ],
 "InPlanePhaseEncodingDirectionDICOM": "COL",
 "InstitutionAddress": "Street_StreetNo_Bei_Jing_District_CN_ZIP",
 "InstitutionName": "BeiJing_Normal_University",
 "InstitutionalDepartmentName": "Department",
 "MRAcquisitionType": "2D",
 "MagneticFieldStrength": 3,
 "Manufacturer": "Siemens",
 "ManufacturersModelName": "Prisma",
 "Modality": "MR",
 "MultibandAccelerationFactor": 3,
 "PartialFourier": 1,
 "PatientPosition": "HFS",
 "PercentPhaseFOV": 100,
 "PhaseEncodingDirection": "j-",
 "PhaseEncodingSteps": 100,
 "PhaseResolution": 1,
 "PixelBandwidth": 2380,
 "ProcedureStepDescription": "BNU_P2018_64CH_Zhen.ZongLei",
 "ProtocolName": "bold_100x100_s3_2x2x2_static_256",
 "PulseSequenceDetails": "%SiemensSeq%_ep2d_bold",
 "ReceiveCoilActiveElements": "HC1-7;NC1",
 "ReceiveCoilName": "HeadNeck_64",
 "ReconMatrixPE": 100,
 "RepetitionTime": 2,
 "SAR": 0.0732644,
 "ScanOptions": "FS",
 "ScanningSequence": "EP",
 "SequenceName": "_epfid2d1_100",
 "SequenceVariant": "SK",
 "SeriesDescription": "bold_100x100_s3_2x2x2_static_256",
 "SeriesNumber": 10,
 "ShimSetting": [
  -5457,
  -11500,
  -1274,
  523,
  19,
  -181,
  -86,
  58
 ],
 "SliceThickness": 2,
 "SliceTiming": [
  1.485,
  0,
  0.99,
  0.0825,
  1.0725,
  0.165,
  1.155,
  0.2475,
  1.2375,
  0.33,
  1.32,
  0.4125,
  1.4025,
  0.5775,
  1.5675,
  0.66,
  1.65,
  0.7425,
  1.7325,
  0.825,
  1.815,
  0.9075,
  1.8975,
  0.495,
  1.485,
  0,
  0.99,
  0.0825,
  1.0725,
  0.165,
  1.155,
  0.2475,
  1.2375,
  0.33,
  1.32,
  0.4125,
  1.4025,
  0.5775,
  1.5675,
  0.66,
  1.65,
  0.7425,
  1.7325,
  0.825,
  1.815,
  0.9075,
  1.8975,
  0.495,
  1.485,
  0,
  0.99,
  0.0825,
  1.0725,
  0.165,
  1.155,
  0.2475,
  1.2375,
  0.33,
  1.32,
  0.4125,
  1.4025,
  0.5775,
  1.5675,
  0.66,
  1.65,
  0.7425,
  1.7325,
  0.825,
  1.815,
  0.9075,
  1.8975,
  0.495
 ],
 "SoftwareVersions": "syngo_MR_E11",
 "SpacingBetweenSlices": 2,
 "StationName": "AWP166078",
 "TaskName": "imagenet",
 "TotalReadoutTime": 0.0534586,
 "TxRefAmp": 207.787,
 "dcmmeta_affine": [
  [
   -1.9999996423721313,
   1.1701917657092054e-07,
   -0.0011093973880633712,
   99.79715728759766
  ],
  [
   0.00012376985978335142,
   1.9875378608703613,
   -0.222920224070549,
   -87.49750518798828
  ],
  [
   -0.0011024716077372432,
   0.2229202538728714,
   1.9875375032424927,
   -75.5267562866211
  ],
  [
   0.0,
   0.0,
   0.0,
   1.0
  ]
 ],
 "dcmmeta_reorient_transform": [
  [
   0.0,
   -1.0,
   0.0,
   99.0
  ],
  [
   1.0,
   0.0,
   0.0,
   0.0
  ],
  [
   0.0,
   0.0,
   1.0,
   0.0
  ],
  [
   0.0,
   0.0,
   0.0,
   1.0
  ]
 ],
 "dcmmeta_shape": [
  100,
  100,
  72,
  256
 ],
 "dcmmeta_slice_dim": 2,
 "dcmmeta_version": 0.6,
 "global": {
  "const": {
   "AcquisitionMatrix": [
    100,
    0,
    0,
    100
   ],
   "AngioFlag": "N",
   "BitsAllocated": 16,
   "BitsStored": 12,
   "BodyPartExamined": "BRAIN",
   "Columns": 900,
   "EchoNumbers": 1,
   "EchoTime": 34.0,
   "EchoTrainLength": 100,
   "FlipAngle": 90.0,
   "HighBit": 11,
   "ImageOrientationPatient": [
    0.99999984615468,
    -6.18849293e-05,
    -0.0005512357769,
    5.8509588e-08,
    0.99376890693687,
    -0.1114601256302
   ],
   "ImagePositionPatient": [
    -899.79709088675,
    -904.23435962465,
    36.151434677948
   ],
   "ImageType": [
    "ORIGINAL",
    "PRIMARY",
    "M",
    "ND",
    "MOSAIC"
   ],
   "ImagedNucleus": "1H",
   "ImagingFrequency": 123.257766,
   "InPlanePhaseEncodingDirection": "COL",
   "MRAcquisitionType": "2D",
   "MagneticFieldStrength": 3.0,
   "Manufacturer": "SIEMENS",
   "ManufacturerModelName": "Prisma",
   "Modality": "MR",
   "NumberOfAverages": 1.0,
   "NumberOfPhaseEncodingSteps": 100,
   "PercentPhaseFieldOfView": 100.0,
   "PercentSampling": 100.0,
   "PerformedProcedureStepStartTime": "145836.729000",
   "PhotometricInterpretation": "MONOCHROME2",
   "PixelBandwidth": 2380.0,
   "PixelRepresentation": 0,
   "PixelSpacing": [
    2.0,
    2.0
   ],
   "ProtocolName": "bold_100x100_s3_2x2x2_static_256",
   "RepetitionTime": 2000.0,
   "Rows": 900,
   "SAR": 0.0732644290803,
   "SamplesPerPixel": 1,
   "ScanOptions": "FS",
   "ScanningSequence": "EP",
   "SequenceName": "*epfid2d1_100",
   "SequenceVariant": "SK",
   "SeriesDescription": "bold_100x100_s3_2x2x2_static_256",
   "SeriesNumber": 10,
   "SeriesTime": "155257.261000",
   "SliceLocation": -65.359009847354,
   "SliceThickness": 2.0,
   "SmallestImagePixelValue": 0,
   "SoftwareVersions": "syngo MR E11",
   "SpacingBetweenSlices": 2.0000000375584,
   "SpecificCharacterSet": "ISO_IR 100",
   "StudyID": "1",
   "StudyTime": "145836.682000",
   "TransmitCoilName": "Body",
   "VariableFlipAngleFlag": "N",
   "WindowCenterWidthExplanation": "Algo1",
   "dBdt": 0.0
  },
  "slices": {}
 },
 "time": {
  "samples": {
   "AcquisitionNumber": [
    1,
    2,
    3,
    4,
    5,
    6,
    7,
    8,
    9,
    10,
    11,
    12,
    13,
    14,
    15,
    16,
    17,
    18,
    19,
    20,
    21,
    22,
    23,
    24,
    25,
    26,
    27,
    28,
    29,
    30,
    31,
    32,
    33,
    34,
    35,
    36,
    37,
    38,
    39,
    40,
    41,
    42,
    43,
    44,
    45,
    46,
    47,
    48,
    49,
    50,
    51,
    52,
    53,
    54,
    55,
    56,
    57,
    58,
    59,
    60,
    61,
    62,
    63,
    64,
    65,
    66,
    67,
    68,
    69,
    70,
    71,
    72,
    73,
    74,
    75,
    76,
    77,
    78,
    79,
    80,
    81,
    82,
    83,
    84,
    85,
    86,
    87,
    88,
    89,
    90,
    91,
    92,
    93,
    94,
    95,
    96,
    97,
    98,
    99,
    100,
    101,
    102,
    103,
    104,
    105,
    106,
    107,
    108,
    109,
    110,
    111,
    112,
    113,
    114,
    115,
    116,
    117,
    118,
    119,
    120,
    121,
    122,
    123,
    124,
    125,
    126,
    127,
    128,
    129,
    130,
    131,
    132,
    133,
    134,
    135,
    136,
    137,
    138,
    139,
    140,
    141,
    142,
    143,
    144,
    145,
    146,
    147,
    148,
    149,
    150,
    151,
    152,
    153,
    154,
    155,
    156,
    157,
    158,
    159,
    160,
    161,
    162,
    163,
    164,
    165,
    166,
    167,
    168,
    169,
    170,
    171,
    172,
    173,
    174,
    175,
    176,
    177,
    178,
    179,
    180,
    181,
    182,
    183,
    184,
    185,
    186,
    187,
    188,
    189,
    190,
    191,
    192,
    193,
    194,
    195,
    196,
    197,
    198,
    199,
    200,
    201,
    202,
    203,
    204,
    205,
    206,
    207,
    208,
    209,
    210,
    211,
    212,
    213,
    214,
    215,
    216,
    217,
    218,
    219,
    220,
    221,
    222,
    223,
    224,
    225,
    226,
    227,
    228,
    229,
    230,
    231,
    232,
    233,
    234,
    235,
    236,
    237,
    238,
    239,
    240,
    241,
    242,
    243,
    244,
    245,
    246,
    247,
    248,
    249,
    250,
    251,
    252,
    253,
    254,
    255,
    256
   ],
   "AcquisitionTime": [
    "155254.702500",
    "155256.702500",
    "155258.702500",
    "155300.702500",
    "155302.702500",
    "155304.702500",
    "155306.702500",
    "155308.702500",
    "155310.702500",
    "155312.702500",
    "155314.702500",
    "155316.702500",
    "155318.702500",
    "155320.702500",
    "155322.702500",
    "155324.702500",
    "155326.702500",
    "155328.702500",
    "155330.702500",
    "155332.702500",
    "155334.702500",
    "155336.702500",
    "155338.702500",
    "155340.702500",
    "155342.702500",
    "155344.702500",
    "155346.702500",
    "155348.702500",
    "155350.702500",
    "155352.702500",
    "155354.702500",
    "155356.702500",
    "155358.702500",
    "155400.702500",
    "155402.702500",
    "155404.702500",
    "155406.702500",
    "155408.702500",
    "155410.702500",
    "155412.702500",
    "155414.702500",
    "155416.702500",
    "155418.702500",
    "155420.702500",
    "155422.702500",
    "155424.702500",
    "155426.702500",
    "155428.702500",
    "155430.702500",
    "155432.702500",
    "155434.702500",
    "155436.702500",
    "155438.702500",
    "155440.702500",
    "155442.702500",
    "155444.702500",
    "155446.702500",
    "155448.702500",
    "155450.702500",
    "155452.702500",
    "155454.702500",
    "155456.702500",
    "155458.702500",
    "155500.702500",
    "155502.702500",
    "155504.702500",
    "155506.702500",
    "155508.702500",
    "155510.702500",
    "155512.702500",
    "155514.702500",
    "155516.702500",
    "155518.702500",
    "155520.702500",
    "155522.702500",
    "155524.702500",
    "155526.702500",
    "155528.702500",
    "155530.702500",
    "155532.702500",
    "155534.702500",
    "155536.702500",
    "155538.702500",
    "155540.702500",
    "155542.702500",
    "155544.702500",
    "155546.702500",
    "155548.702500",
    "155550.702500",
    "155552.702500",
    "155554.702500",
    "155556.702500",
    "155558.702500",
    "155600.702500",
    "155602.702500",
    "155604.702500",
    "155606.702500",
    "155608.702500",
    "155610.702500",
    "155612.702500",
    "155614.702500",
    "155616.702500",
    "155618.702500",
    "155620.702500",
    "155622.702500",
    "155624.702500",
    "155626.702500",
    "155628.702500",
    "155630.702500",
    "155632.702500",
    "155634.702500",
    "155636.702500",
    "155638.702500",
    "155640.702500",
    "155642.702500",
    "155644.702500",
    "155646.702500",
    "155648.702500",
    "155650.702500",
    "155652.702500",
    "155654.702500",
    "155656.702500",
    "155658.702500",
    "155700.702500",
    "155702.702500",
    "155704.702500",
    "155706.702500",
    "155708.702500",
    "155710.702500",
    "155712.702500",
    "155714.702500",
    "155716.702500",
    "155718.702500",
    "155720.702500",
    "155722.702500",
    "155724.702500",
    "155726.702500",
    "155728.702500",
    "155730.702500",
    "155732.702500",
    "155734.702500",
    "155736.702500",
    "155738.702500",
    "155740.702500",
    "155742.702500",
    "155744.702500",
    "155746.702500",
    "155748.702500",
    "155750.702500",
    "155752.702500",
    "155754.702500",
    "155756.702500",
    "155758.702500",
    "155800.702500",
    "155802.702500",
    "155804.702500",
    "155806.702500",
    "155808.702500",
    "155810.702500",
    "155812.702500",
    "155814.702500",
    "155816.702500",
    "155818.702500",
    "155820.702500",
    "155822.702500",
    "155824.702500",
    "155826.702500",
    "155828.702500",
    "155830.702500",
    "155832.702500",
    "155834.702500",
    "155836.702500",
    "155838.702500",
    "155840.702500",
    "155842.702500",
    "155844.702500",
    "155846.702500",
    "155848.702500",
    "155850.702500",
    "155852.702500",
    "155854.702500",
    "155856.702500",
    "155858.702500",
    "155900.702500",
    "155902.702500",
    "155904.702500",
    "155906.702500",
    "155908.702500",
    "155910.702500",
    "155912.702500",
    "155914.702500",
    "155916.702500",
    "155918.702500",
    "155920.702500",
    "155922.702500",
    "155924.702500",
    "155926.702500",
    "155928.702500",
    "155930.702500",
    "155932.702500",
    "155934.702500",
    "155936.702500",
    "155938.702500",
    "155940.702500",
    "155942.702500",
    "155944.702500",
    "155946.702500",
    "155948.702500",
    "155950.702500",
    "155952.702500",
    "155954.702500",
    "155956.702500",
    "155958.702500",
    "160000.702500",
    "160002.702500",
    "160004.702500",
    "160006.702500",
    "160008.702500",
    "160010.702500",
    "160012.702500",
    "160014.702500",
    "160016.702500",
    "160018.702500",
    "160020.702500",
    "160022.702500",
    "160024.702500",
    "160026.702500",
    "160028.702500",
    "160030.702500",
    "160032.702500",
    "160034.702500",
    "160036.702500",
    "160038.702500",
    "160040.702500",
    "160042.702500",
    "160044.702500",
    "160046.702500",
    "160048.702500",
    "160050.702500",
    "160052.702500",
    "160054.702500",
    "160056.702500",
    "160058.702500",
    "160100.702500",
    "160102.702500",
    "160104.702500",
    "160106.702500",
    "160108.702500",
    "160110.702500",
    "160112.702500",
    "160114.702500",
    "160116.702500",
    "160118.702500",
    "160120.702500",
    "160122.702500",
    "160124.702500"
   ],
   "ContentTime": [
    "155257.265000",
    "155258.761000",
    "155300.760000",
    "155302.760000",
    "155304.760000",
    "155306.761000",
    "155308.761000",
    "155310.761000",
    "155312.760000",
    "155314.760000",
    "155316.760000",
    "155318.760000",
    "155320.761000",
    "155322.760000",
    "155324.761000",
    "155326.761000",
    "155328.761000",
    "155330.761000",
    "155332.760000",
    "155334.760000",
    "155336.761000",
    "155338.760000",
    "155340.761000",
    "155342.761000",
    "155344.762000",
    "155346.762000",
    "155348.761000",
    "155350.761000",
    "155352.761000",
    "155354.760000",
    "155356.761000",
    "155358.762000",
    "155400.762000",
    "155402.762000",
    "155404.761000",
    "155406.761000",
    "155408.761000",
    "155410.761000",
    "155412.760000",
    "155414.760000",
    "155416.761000",
    "155418.762000",
    "155420.761000",
    "155422.760000",
    "155424.761000",
    "155426.761000",
    "155428.761000",
    "155430.761000",
    "155432.762000",
    "155434.761000",
    "155436.762000",
    "155438.761000",
    "155440.760000",
    "155442.761000",
    "155444.760000",
    "155446.761000",
    "155448.761000",
    "155450.761000",
    "155452.762000",
    "155454.761000",
    "155456.762000",
    "155458.760000",
    "155500.762000",
    "155502.760000",
    "155504.761000",
    "155506.760000",
    "155508.761000",
    "155510.762000",
    "155512.761000",
    "155514.761000",
    "155516.760000",
    "155518.761000",
    "155520.761000",
    "155522.760000",
    "155524.761000",
    "155526.762000",
    "155528.761000",
    "155530.761000",
    "155532.760000",
    "155534.760000",
    "155536.761000",
    "155538.761000",
    "155540.761000",
    "155542.761000",
    "155544.762000",
    "155546.762000",
    "155548.762000",
    "155550.760000",
    "155552.760000",
    "155554.761000",
    "155556.761000",
    "155558.761000",
    "155600.761000",
    "155602.762000",
    "155604.762000",
    "155606.762000",
    "155608.761000",
    "155610.761000",
    "155612.761000",
    "155614.760000",
    "155616.761000",
    "155618.762000",
    "155620.762000",
    "155622.762000",
    "155624.760000",
    "155626.760000",
    "155628.761000",
    "155630.760000",
    "155632.761000",
    "155634.761000",
    "155636.761000",
    "155638.762000",
    "155640.761000",
    "155642.760000",
    "155644.761000",
    "155646.761000",
    "155648.760000",
    "155650.761000",
    "155652.762000",
    "155654.761000",
    "155656.762000",
    "155658.761000",
    "155700.760000",
    "155702.761000",
    "155704.760000",
    "155706.760000",
    "155708.760000",
    "155710.761000",
    "155712.762000",
    "155714.761000",
    "155716.761000",
    "155718.760000",
    "155720.761000",
    "155722.760000",
    "155724.761000",
    "155726.760000",
    "155728.761000",
    "155730.763000",
    "155732.761000",
    "155734.761000",
    "155736.760000",
    "155738.761000",
    "155740.761000",
    "155742.760000",
    "155744.761000",
    "155746.762000",
    "155748.762000",
    "155750.761000",
    "155752.761000",
    "155754.760000",
    "155756.760000",
    "155758.761000",
    "155800.760000",
    "155802.762000",
    "155804.775000",
    "155806.761000",
    "155808.762000",
    "155810.760000",
    "155812.761000",
    "155814.761000",
    "155816.761000",
    "155818.760000",
    "155820.762000",
    "155822.762000",
    "155824.761000",
    "155826.761000",
    "155828.761000",
    "155830.760000",
    "155832.761000",
    "155834.761000",
    "155836.760000",
    "155838.761000",
    "155840.762000",
    "155842.761000",
    "155844.761000",
    "155846.760000",
    "155848.761000",
    "155850.760000",
    "155852.761000",
    "155854.761000",
    "155856.762000",
    "155858.762000",
    "155900.761000",
    "155902.760000",
    "155904.761000",
    "155906.760000",
    "155908.760000",
    "155910.761000",
    "155912.762000",
    "155914.761000",
    "155916.761000",
    "155918.762000",
    "155920.761000",
    "155922.760000",
    "155924.761000",
    "155926.761000",
    "155928.761000",
    "155930.762000",
    "155932.761000",
    "155934.762000",
    "155936.762000",
    "155938.761000",
    "155940.761000",
    "155942.761000",
    "155944.762000",
    "155946.762000",
    "155948.761000",
    "155950.764000",
    "155952.763000",
    "155954.760000",
    "155956.760000",
    "155958.761000",
    "160000.760000",
    "160002.761000",
    "160004.761000",
    "160006.762000",
    "160008.762000",
    "160010.762000",
    "160012.761000",
    "160014.761000",
    "160016.761000",
    "160018.761000",
    "160020.761000",
    "160022.762000",
    "160024.762000",
    "160026.762000",
    "160028.762000",
    "160030.760000",
    "160032.761000",
    "160034.761000",
    "160036.761000",
    "160038.761000",
    "160040.761000",
    "160042.762000",
    "160044.762000",
    "160046.762000",
    "160048.761000",
    "160050.761000",
    "160052.761000",
    "160054.760000",
    "160056.761000",
    "160058.762000",
    "160100.762000",
    "160102.762000",
    "160104.760000",
    "160106.761000",
    "160108.760000",
    "160110.761000",
    "160112.761000",
    "160114.761000",
    "160116.762000",
    "160118.762000",
    "160120.761000",
    "160122.761000",
    "160124.761000",
    "160126.529000"
   ],
   "InstanceCreationTime": [
    "155257.265000",
    "155258.761000",
    "155300.760000",
    "155302.760000",
    "155304.760000",
    "155306.761000",
    "155308.761000",
    "155310.761000",
    "155312.760000",
    "155314.760000",
    "155316.760000",
    "155318.760000",
    "155320.761000",
    "155322.760000",
    "155324.761000",
    "155326.761000",
    "155328.761000",
    "155330.761000",
    "155332.760000",
    "155334.760000",
    "155336.761000",
    "155338.760000",
    "155340.761000",
    "155342.761000",
    "155344.762000",
    "155346.762000",
    "155348.761000",
    "155350.761000",
    "155352.761000",
    "155354.760000",
    "155356.761000",
    "155358.762000",
    "155400.762000",
    "155402.762000",
    "155404.761000",
    "155406.761000",
    "155408.761000",
    "155410.761000",
    "155412.760000",
    "155414.760000",
    "155416.761000",
    "155418.762000",
    "155420.761000",
    "155422.760000",
    "155424.761000",
    "155426.761000",
    "155428.761000",
    "155430.761000",
    "155432.762000",
    "155434.761000",
    "155436.762000",
    "155438.761000",
    "155440.760000",
    "155442.761000",
    "155444.760000",
    "155446.761000",
    "155448.761000",
    "155450.761000",
    "155452.762000",
    "155454.761000",
    "155456.762000",
    "155458.760000",
    "155500.762000",
    "155502.760000",
    "155504.761000",
    "155506.760000",
    "155508.761000",
    "155510.762000",
    "155512.761000",
    "155514.761000",
    "155516.760000",
    "155518.761000",
    "155520.761000",
    "155522.760000",
    "155524.761000",
    "155526.762000",
    "155528.761000",
    "155530.761000",
    "155532.760000",
    "155534.760000",
    "155536.761000",
    "155538.761000",
    "155540.761000",
    "155542.761000",
    "155544.762000",
    "155546.762000",
    "155548.762000",
    "155550.760000",
    "155552.760000",
    "155554.761000",
    "155556.761000",
    "155558.761000",
    "155600.761000",
    "155602.762000",
    "155604.762000",
    "155606.762000",
    "155608.761000",
    "155610.761000",
    "155612.761000",
    "155614.760000",
    "155616.761000",
    "155618.762000",
    "155620.762000",
    "155622.762000",
    "155624.760000",
    "155626.760000",
    "155628.761000",
    "155630.760000",
    "155632.761000",
    "155634.761000",
    "155636.761000",
    "155638.762000",
    "155640.761000",
    "155642.760000",
    "155644.761000",
    "155646.761000",
    "155648.760000",
    "155650.761000",
    "155652.762000",
    "155654.761000",
    "155656.762000",
    "155658.761000",
    "155700.760000",
    "155702.761000",
    "155704.760000",
    "155706.760000",
    "155708.760000",
    "155710.761000",
    "155712.762000",
    "155714.761000",
    "155716.761000",
    "155718.760000",
    "155720.761000",
    "155722.760000",
    "155724.761000",
    "155726.760000",
    "155728.761000",
    "155730.763000",
    "155732.761000",
    "155734.761000",
    "155736.760000",
    "155738.761000",
    "155740.761000",
    "155742.760000",
    "155744.761000",
    "155746.762000",
    "155748.762000",
    "155750.761000",
    "155752.761000",
    "155754.760000",
    "155756.760000",
    "155758.761000",
    "155800.760000",
    "155802.762000",
    "155804.775000",
    "155806.761000",
    "155808.762000",
    "155810.760000",
    "155812.761000",
    "155814.761000",
    "155816.761000",
    "155818.760000",
    "155820.762000",
    "155822.762000",
    "155824.761000",
    "155826.761000",
    "155828.761000",
    "155830.760000",
    "155832.761000",
    "155834.761000",
    "155836.760000",
    "155838.761000",
    "155840.762000",
    "155842.761000",
    "155844.761000",
    "155846.760000",
    "155848.761000",
    "155850.760000",
    "155852.761000",
    "155854.761000",
    "155856.762000",
    "155858.762000",
    "155900.761000",
    "155902.760000",
    "155904.761000",
    "155906.760000",
    "155908.760000",
    "155910.761000",
    "155912.762000",
    "155914.761000",
    "155916.761000",
    "155918.762000",
    "155920.761000",
    "155922.760000",
    "155924.761000",
    "155926.761000",
    "155928.761000",
    "155930.762000",
    "155932.761000",
    "155934.762000",
    "155936.762000",
    "155938.761000",
    "155940.761000",
    "155942.761000",
    "155944.762000",
    "155946.762000",
    "155948.761000",
    "155950.764000",
    "155952.763000",
    "155954.760000",
    "155956.760000",
    "155958.761000",
    "160000.760000",
    "160002.761000",
    "160004.761000",
    "160006.762000",
    "160008.762000",
    "160010.762000",
    "160012.761000",
    "160014.761000",
    "160016.761000",
    "160018.761000",
    "160020.761000",
    "160022.762000",
    "160024.762000",
    "160026.762000",
    "160028.762000",
    "160030.760000",
    "160032.761000",
    "160034.761000",
    "160036.761000",
    "160038.761000",
    "160040.761000",
    "160042.762000",
    "160044.762000",
    "160046.762000",
    "160048.761000",
    "160050.761000",
    "160052.761000",
    "160054.760000",
    "160056.761000",
    "160058.762000",
    "160100.762000",
    "160102.762000",
    "160104.760000",
    "160106.761000",
    "160108.760000",
    "160110.761000",
    "160112.761000",
    "160114.761000",
    "160116.762000",
    "160118.762000",
    "160120.761000",
    "160122.761000",
    "160124.761000",
    "160126.529000"
   ],
   "InstanceNumber": [
    1,
    2,
    3,
    4,
    5,
    6,
    7,
    8,
    9,
    10,
    11,
    12,
    13,
    14,
    15,
    16,
    17,
    18,
    19,
    20,
    21,
    22,
    23,
    24,
    25,
    26,
    27,
    28,
    29,
    30,
    31,
    32,
    33,
    34,
    35,
    36,
    37,
    38,
    39,
    40,
    41,
    42,
    43,
    44,
    45,
    46,
    47,
    48,
    49,
    50,
    51,
    52,
    53,
    54,
    55,
    56,
    57,
    58,
    59,
    60,
    61,
    62,
    63,
    64,
    65,
    66,
    67,
    68,
    69,
    70,
    71,
    72,
    73,
    74,
    75,
    76,
    77,
    78,
    79,
    80,
    81,
    82,
    83,
    84,
    85,
    86,
    87,
    88,
    89,
    90,
    91,
    92,
    93,
    94,
    95,
    96,
    97,
    98,
    99,
    100,
    101,
    102,
    103,
    104,
    105,
    106,
    107,
    108,
    109,
    110,
    111,
    112,
    113,
    114,
    115,
    116,
    117,
    118,
    119,
    120,
    121,
    122,
    123,
    124,
    125,
    126,
    127,
    128,
    129,
    130,
    131,
    132,
    133,
    134,
    135,
    136,
    137,
    138,
    139,
    140,
    141,
    142,
    143,
    144,
    145,
    146,
    147,
    148,
    149,
    150,
    151,
    152,
    153,
    154,
    155,
    156,
    157,
    158,
    159,
    160,
    161,
    162,
    163,
    164,
    165,
    166,
    167,
    168,
    169,
    170,
    171,
    172,
    173,
    174,
    175,
    176,
    177,
    178,
    179,
    180,
    181,
    182,
    183,
    184,
    185,
    186,
    187,
    188,
    189,
    190,
    191,
    192,
    193,
    194,
    195,
    196,
    197,
    198,
    199,
    200,
    201,
    202,
    203,
    204,
    205,
    206,
    207,
    208,
    209,
    210,
    211,
    212,
    213,
    214,
    215,
    216,
    217,
    218,
    219,
    220,
    221,
    222,
    223,
    224,
    225,
    226,
    227,
    228,
    229,
    230,
    231,
    232,
    233,
    234,
    235,
    236,
    237,
    238,
    239,
    240,
    241,
    242,
    243,
    244,
    245,
    246,
    247,
    248,
    249,
    250,
    251,
    252,
    253,
    254,
    255,
    256
   ],
   "LargestImagePixelValue": [
    2670,
    2582,
    2625,
    2595,
    2611,
    2627,
    2613,
    2627,
    2635,
    2605,
    2603,
    2612,
    2617,
    2632,
    2596,
    2599,
    2631,
    2621,
    2606,
    2618,
    2602,
    2579,
    2626,
    2623,
    2599,
    2635,
    2619,
    2647,
    2637,
    2639,
    2659,
    2646,
    2609,
    2636,
    2646,
    2592,
    2684,
    2640,
    2639,
    2646,
    2672,
    2635,
    2618,
    2679,
    2618,
    2591,
    2573,
    2572,
    2564,
    2562,
    2566,
    2558,
    2561,
    2585,
    2588,
    2563,
    2559,
    2570,
    2569,
    2588,
    2562,
    2585,
    2590,
    2553,
    2574,
    2582,
    2600,
    2582,
    2593,
    2574,
    2591,
    2567,
    2571,
    2591,
    2572,
    2595,
    2623,
    2570,
    2710,
    2596,
    2594,
    2609,
    2597,
    2590,
    2545,
    2539,
    2567,
    2578,
    2573,
    2580,
    2557,
    2574,
    2553,
    2551,
    2641,
    2549,
    2545,
    2559,
    2577,
    2562,
    2559,
    2540,
    2677,
    2604,
    2588,
    2630,
    2573,
    2559,
    2568,
    2604,
    2583,
    2589,
    2554,
    2555,
    2545,
    2556,
    2576,
    2541,
    2567,
    2568,
    2540,
    2533,
    2566,
    2572,
    2588,
    2571,
    2573,
    2551,
    2548,
    2550,
    2598,
    2582,
    2567,
    2566,
    2574,
    2566,
    2590,
    2558,
    2555,
    2606,
    2606,
    2555,
    2569,
    2590,
    2557,
    2609,
    2575,
    2597,
    2586,
    2570,
    2589,
    2596,
    2606,
    2580,
    2577,
    2563,
    2574,
    2583,
    2586,
    2576,
    2602,
    2602,
    2567,
    2591,
    2579,
    2584,
    2590,
    2717,
    2621,
    2598,
    2617,
    2592,
    2671,
    2597,
    2601,
    2619,
    2622,
    2626,
    2627,
    2620,
    2690,
    2590,
    2643,
    2648,
    2662,
    2623,
    2626,
    2588,
    2601,
    2597,
    2617,
    2636,
    2639,
    2615,
    2634,
    2643,
    2645,
    2651,
    2629,
    2616,
    2607,
    2625,
    2667,
    2628,
    2656,
    2619,
    2628,
    2611,
    2633,
    2628,
    2634,
    2646,
    2625,
    2637,
    2648,
    2622,
    2623,
    2607,
    2613,
    2623,
    2650,
    2756,
    2635,
    2634,
    2646,
    2638,
    2629,
    2659,
    2656,
    2628,
    2650,
    3027,
    2664,
    2662,
    2643,
    2656,
    2655,
    2650,
    2658,
    2656,
    2656,
    2636,
    2651,
    2652,
    2654,
    2673,
    2649,
    2663,
    2643,
    2638,
    2642,
    2631,
    2752,
    2604,
    2633,
    2625
   ],
   "WindowCenter": [
    747.0,
    745.0,
    744.0,
    743.0,
    743.0,
    744.0,
    744.0,
    744.0,
    743.0,
    742.0,
    743.0,
    744.0,
    744.0,
    744.0,
    743.0,
    743.0,
    744.0,
    743.0,
    743.0,
    743.0,
    742.0,
    742.0,
    743.0,
    743.0,
    742.0,
    742.0,
    743.0,
    744.0,
    744.0,
    744.0,
    743.0,
    743.0,
    744.0,
    744.0,
    743.0,
    742.0,
    744.0,
    745.0,
    744.0,
    744.0,
    744.0,
    744.0,
    744.0,
    744.0,
    743.0,
    742.0,
    741.0,
    741.0,
    741.0,
    742.0,
    743.0,
    743.0,
    742.0,
    743.0,
    744.0,
    743.0,
    743.0,
    743.0,
    743.0,
    744.0,
    744.0,
    743.0,
    742.0,
    742.0,
    743.0,
    743.0,
    744.0,
    743.0,
    743.0,
    743.0,
    744.0,
    743.0,
    743.0,
    743.0,
    743.0,
    743.0,
    744.0,
    743.0,
    744.0,
    743.0,
    742.0,
    742.0,
    742.0,
    742.0,
    742.0,
    742.0,
    742.0,
    743.0,
    743.0,
    742.0,
    742.0,
    742.0,
    742.0,
    742.0,
    743.0,
    741.0,
    741.0,
    742.0,
    743.0,
    743.0,
    742.0,
    742.0,
    744.0,
    743.0,
    742.0,
    743.0,
    742.0,
    742.0,
    742.0,
