{
  "AcquisitionMatrixPE": 100,
  "AcquisitionNumber": 1,
  "AcquisitionTime": "16:21:37.235000",
  "BandwidthPerPixelPhaseEncode": 18.519,
  "BaseResolution": 100,
  "BodyPartExamined": "BRAIN",
  "ConsistencyInfo": "N4_VE11C_LATEST_20160120",
  "ConversionSoftware": "dcm2niix",
  "ConversionSoftwareVersion": "v1.0.20180622 GCC4.9.2",
  "DerivedVendorReportedEchoSpacing": 0.000539986,
  "DeviceSerialNumber": "166078",
  "DwellTime": 2.1e-06,
  "EchoTime": 0.034,
  "EchoTrainLength": 100,
  "EffectiveEchoSpacing": 0.000539986,
  "FlipAngle": 90,
  "ImageOrientationPatientDICOM": [1, -6.18849e-05, -0.000551236, 5.85096e-08, 0.993769, -0.11146],
  "ImageType": [
    "ORIGINAL",
    "PRIMARY",
    "M",
    "ND",
    "MOSAIC"
],
  "InPlanePhaseEncodingDirectionDICOM": "COL",
  "InstitutionAddress": "Street_StreetNo_Bei_Jing_District_CN_ZIP",
  "InstitutionName": "BeiJing_Normal_University",
  "InstitutionalDepartmentName": "Department",
  "MRAcquisitionType": "2D",
  "MagneticFieldStrength": 3,
  "Manufacturer": "Siemens",
  "ManufacturersModelName": "Prisma",
  "Modality": "MR",
  "MultibandAccelerationFactor": 3,
  "PartialFourier": 1,
  "PatientPosition": "HFS",
  "PercentPhaseFOV": 100,
  "PhaseEncodingDirection": "j-",
  "PhaseEncodingSteps": 100,
  "PhaseResolution": 1,
  "PixelBandwidth": 2380,
  "ProcedureStepDescription": "BNU_P2018_64CH_Zhen.ZongLei",
  "ProtocolName": "bold_100x100_s3_2x2x2_static_256",
  "PulseSequenceDetails": "%SiemensSeq%_ep2d_bold",
  "ReceiveCoilActiveElements": "HC1-7;NC1",
  "ReceiveCoilName": "HeadNeck_64",
  "ReconMatrixPE": 100,
  "RepetitionTime": 2,
  "SAR": 0.0732644,
  "ScanOptions": "FS",
  "ScanningSequence": "EP",
  "SequenceName": "_epfid2d1_100",
  "SequenceVariant": "SK",
  "SeriesDescription": "bold_100x100_s3_2x2x2_static_256",
  "SeriesNumber": 13,
  "ShimSetting": [-5457, -11500, -1274, 523, 19, -181, -86, 58],
  "SliceThickness": 2,
  "SliceTiming": [1.485, 0, 0.99, 0.0825, 1.0725, 0.165, 1.155, 0.2475, 1.2375, 0.33, 1.32, 0.4125, 1.4025, 0.5775, 1.5675, 0.66, 1.65, 0.7425, 1.7325, 0.825, 1.815, 0.9075, 1.8975, 0.495, 1.485, 0, 0.99, 0.0825, 1.0725, 0.165, 1.155, 0.2475, 1.2375, 0.33, 1.32, 0.4125, 1.4025, 0.5775, 1.5675, 0.66, 1.65, 0.7425, 1.7325, 0.825, 1.815, 0.9075, 1.8975, 0.495, 1.485, 0, 0.99, 0.0825, 1.0725, 0.165, 1.155, 0.2475, 1.2375, 0.33, 1.32, 0.4125, 1.4025, 0.5775, 1.5675, 0.66, 1.65, 0.7425, 1.7325, 0.825, 1.815, 0.9075, 1.8975, 0.495],
  "SoftwareVersions": "syngo_MR_E11",
  "SpacingBetweenSlices": 2,
  "StationName": "AWP166078",
  "TaskName": "naturalvision",
  "TotalReadoutTime": 0.0534586,
  "TxRefAmp": 207.787,
  "dcmmeta_affine": [
    [-1.9999996423721313, 1.1701917657092054e-07, -0.0011093973880633712, 99.79715728759766],
    [0.00012376985978335142, 1.9875378608703613, -0.222920224070549, -87.49750518798828],
    [-0.0011024716077372432, 0.2229202538728714, 1.9875375032424927, -75.5267562866211],
    [0.0, 0.0, 0.0, 1.0]
],
  "dcmmeta_reorient_transform": [
    [0.0, -1.0, 0.0, 99.0],
    [1.0, 0.0, 0.0, 0.0],
    [0.0, 0.0, 1.0, 0.0],
    [0.0, 0.0, 0.0, 1.0]
],
  "dcmmeta_shape": [100, 100, 72, 256],
  "dcmmeta_slice_dim": 2,
  "dcmmeta_version": 0.6,
  "global": {
    "const": {
      "AcquisitionMatrix": [100, 0, 0, 100],
      "AngioFlag": "N",
      "BitsAllocated": 16,
      "BitsStored": 12,
      "BodyPartExamined": "BRAIN",
      "Columns": 900,
      "EchoNumbers": 1,
      "EchoTime": 34.0,
      "EchoTrainLength": 100,
      "FlipAngle": 90.0,
      "HighBit": 11,
      "ImageOrientationPatient": [0.99999984615468, -6.18849293e-05, -0.0005512357769, 5.8509588e-08, 0.99376890693687, -0.1114601256302],
      "ImagePositionPatient": [-899.79709088675, -904.23435962465, 36.151434677948],
      "ImageType": [
        "ORIGINAL",
        "PRIMARY",
        "M",
        "ND",
        "MOSAIC"
],
      "ImagedNucleus": "1H",
      "ImagingFrequency": 123.257775,
      "InPlanePhaseEncodingDirection": "COL",
      "MRAcquisitionType": "2D",
      "MagneticFieldStrength": 3.0,
      "Manufacturer": "SIEMENS",
      "ManufacturerModelName": "Prisma",
      "Modality": "MR",
      "NumberOfAverages": 1.0,
      "NumberOfPhaseEncodingSteps": 100,
      "PercentPhaseFieldOfView": 100.0,
      "PercentSampling": 100.0,
      "PerformedProcedureStepStartTime": "145836.729000",
      "PhotometricInterpretation": "MONOCHROME2",
      "PixelBandwidth": 2380.0,
      "PixelRepresentation": 0,
      "PixelSpacing": [2.0, 2.0],
      "ProtocolName": "bold_100x100_s3_2x2x2_static_256",
      "RepetitionTime": 2000.0,
      "Rows": 900,
      "SAR": 0.0732644290803,
      "SamplesPerPixel": 1,
      "ScanOptions": "FS",
      "ScanningSequence": "EP",
      "SequenceName": "*epfid2d1_100",
      "SequenceVariant": "SK",
      "SeriesDescription": "bold_100x100_s3_2x2x2_static_256",
      "SeriesNumber": 13,
      "SeriesTime": "162140.180000",
      "SliceLocation": -65.359009847354,
      "SliceThickness": 2.0,
      "SmallestImagePixelValue": 0,
      "SoftwareVersions": "syngo MR E11",
      "SpacingBetweenSlices": 2.0000000375584,
      "SpecificCharacterSet": "ISO_IR 100",
      "StudyID": "1",
      "StudyTime": "145836.682000",
      "TransmitCoilName": "Body",
      "VariableFlipAngleFlag": "N",
      "WindowCenterWidthExplanation": "Algo1",
      "dBdt": 0.0},
    "slices": {}
  },
  "time": {
    "samples": {
      "AcquisitionNumber": [1, 2, 3, 4, 5, 6, 7, 8, 9, 10, 11, 12, 13, 14, 15, 16, 17, 18, 19, 20, 21, 22, 23, 24, 25, 26, 27, 28, 29, 30, 31, 32, 33, 34, 35, 36, 37, 38, 39, 40, 41, 42, 43, 44, 45, 46, 47, 48, 49, 50, 51, 52, 53, 54, 55, 56, 57, 58, 59, 60, 61, 62, 63, 64, 65, 66, 67, 68, 69, 70, 71, 72, 73, 74, 75, 76, 77, 78, 79, 80, 81, 82, 83, 84, 85, 86, 87, 88, 89, 90, 91, 92, 93, 94, 95, 96, 97, 98, 99, 100, 101, 102, 103, 104, 105, 106, 107, 108, 109, 110, 111, 112, 113, 114, 115, 116, 117, 118, 119, 120, 121, 122, 123, 124, 125, 126, 127, 128, 129, 130, 131, 132, 133, 134, 135, 136, 137, 138, 139, 140, 141, 142, 143, 144, 145, 146, 147, 148, 149, 150, 151, 152, 153, 154, 155, 156, 157, 158, 159, 160, 161, 162, 163, 164, 165, 166, 167, 168, 169, 170, 171, 172, 173, 174, 175, 176, 177, 178, 179, 180, 181, 182, 183, 184, 185, 186, 187, 188, 189, 190, 191, 192, 193, 194, 195, 196, 197, 198, 199, 200, 201, 202, 203, 204, 205, 206, 207, 208, 209, 210, 211, 212, 213, 214, 215, 216, 217, 218, 219, 220, 221, 222, 223, 224, 225, 226, 227, 228, 229, 230, 231, 232, 233, 234, 235, 236, 237, 238, 239, 240, 241, 242, 243, 244, 245, 246, 247, 248, 249, 250, 251, 252, 253, 254, 255, 256],
      "AcquisitionTime": ["162137.235000", "162139.235000", "162141.235000", "162143.235000", "162145.235000", "162147.235000", "162149.235000", "162151.235000", "162153.235000", "162155.235000", "162157.235000", "162159.235000", "162201.235000", "162203.235000", "162205.235000", "162207.235000", "162209.235000", "162211.235000", "162213.235000", "162215.235000", "162217.235000", "162219.235000", "162221.235000", "162223.235000", "162225.235000", "162227.235000", "162229.235000", "162231.235000", "162233.235000", "162235.235000", "162237.235000", "162239.235000", "162241.235000", "162243.235000", "162245.235000", "162247.235000", "162249.235000", "162251.235000", "162253.235000", "162255.235000", "162257.235000", "162259.235000", "162301.235000", "162303.235000", "162305.235000", "162307.235000", "162309.235000", "162311.235000", "162313.235000", "162315.235000", "162317.235000", "162319.235000", "162321.235000", "162323.235000", "162325.235000", "162327.235000", "162329.235000", "162331.235000", "162333.235000", "162335.235000", "162337.235000", "162339.235000", "162341.235000", "162343.235000", "162345.235000", "162347.235000", "162349.235000", "162351.235000", "162353.235000", "162355.235000", "162357.235000", "162359.235000", "162401.235000", "162403.235000", "162405.235000", "162407.235000", "162409.235000", "162411.235000", "162413.235000", "162415.235000", "162417.235000", "162419.235000", "162421.235000", "162423.235000", "162425.235000", "162427.235000", "162429.235000", "162431.235000", "162433.235000", "162435.235000", "162437.235000", "162439.235000", "162441.235000", "162443.235000", "162445.235000", "162447.235000", "162449.235000", "162451.235000", "162453.235000", "162455.235000", "162457.235000", "162459.235000", "162501.235000", "162503.235000", "162505.235000", "162507.235000", "162509.235000", "162511.235000", "162513.235000", "162515.235000", "162517.235000", "162519.235000", "162521.235000", "162523.235000", "162525.235000", "162527.235000", "162529.235000", "162531.235000", "162533.235000", "162535.235000", "162537.235000", "162539.235000", "162541.235000", "162543.235000", "162545.235000", "162547.235000", "162549.235000", "162551.235000", "162553.235000", "162555.235000", "162557.235000", "162559.235000", "162601.235000", "162603.235000", "162605.235000", "162607.235000", "162609.235000", "162611.235000", "162613.235000", "162615.235000", "162617.235000", "162619.235000", "162621.235000", "162623.235000", "162625.235000", "162627.235000", "162629.235000", "162631.235000", "162633.235000", "162635.235000", "162637.235000", "162639.235000", "162641.235000", "162643.235000", "162645.235000", "162647.235000", "162649.235000", "162651.235000", "162653.235000", "162655.235000", "162657.235000", "162659.235000", "162701.235000", "162703.235000", "162705.235000", "162707.235000", "162709.235000", "162711.235000", "162713.235000", "162715.235000", "162717.235000", "162719.235000", "162721.235000", "162723.235000", "162725.235000", "162727.235000", "162729.235000", "162731.235000", "162733.235000", "162735.235000", "162737.235000", "162739.235000", "162741.235000", "162743.235000", "162745.235000", "162747.235000", "162749.235000", "162751.235000", "162753.235000", "162755.235000", "162757.235000", "162759.235000", "162801.235000", "162803.235000", "162805.235000", "162807.235000", "162809.235000", "162811.235000", "162813.235000", "162815.235000", "162817.235000", "162819.235000", "162821.235000", "162823.235000", "162825.235000", "162827.235000", "162829.235000", "162831.235000", "162833.235000", "162835.235000", "162837.235000", "162839.235000", "162841.235000", "162843.235000", "162845.235000", "162847.235000", "162849.235000", "162851.235000", "162853.235000", "162855.235000", "162857.235000", "162859.235000", "162901.235000", "162903.235000", "162905.235000", "162907.235000", "162909.235000", "162911.235000", "162913.235000", "162915.235000", "162917.235000", "162919.235000", "162921.235000", "162923.235000", "162925.235000", "162927.235000", "162929.235000", "162931.235000", "162933.235000", "162935.235000", "162937.235000", "162939.235000", "162941.235000", "162943.235000", "162945.235000", "162947.235000", "162949.235000", "162951.235000", "162953.235000", "162955.235000", "162957.235000", "162959.235000", "163001.235000", "163003.235000", "163005.235000", "163007.235000"],
      "ContentTime": ["162140.184000", "162141.680000", "162143.679000", "162145.679000", "162147.678000", "162149.678000", "162151.678000", "162153.679000", "162155.678000", "162157.680000", "162159.680000", "162201.678000", "162203.679000", "162205.679000", "162207.678000", "162209.679000", "162211.678000", "162213.679000", "162215.679000", "162217.680000", "162219.678000", "162221.679000", "162223.678000", "162225.679000", "162227.678000", "162229.679000", "162231.679000", "162233.680000", "162235.680000", "162237.678000", "162239.679000", "162241.678000", "162243.679000", "162245.679000", "162247.678000", "162249.680000", "162251.680000", "162253.679000", "162255.679000", "162257.679000", "162259.679000", "162301.679000", "162303.678000", "162305.679000", "162307.679000", "162309.680000", "162311.679000", "162313.678000", "162315.678000", "162317.678000", "162319.679000", "162321.679000", "162323.679000", "162325.680000", "162327.680000", "162329.679000", "162331.679000", "162333.679000", "162335.678000", "162337.679000", "162339.679000", "162341.680000", "162343.680000", "162345.680000", "162347.679000", "162349.678000", "162351.679000", "162353.679000", "162355.678000", "162357.678000", "162359.679000", "162401.679000", "162403.679000", "162405.679000", "162407.678000", "162409.679000", "162411.679000", "162413.679000", "162415.679000", "162417.680000", "162419.680000", "162421.679000", "162423.679000", "162425.679000", "162427.679000", "162429.679000", "162431.679000", "162433.680000", "162435.680000", "162437.680000", "162439.679000", "162441.679000", "162443.678000", "162445.678000", "162447.678000", "162449.679000", "162451.680000", "162453.679000", "162455.680000", "162457.679000", "162459.678000", "162501.679000", "162503.678000", "162505.679000", "162507.679000", "162509.680000", "162511.680000", "162513.678000", "162515.679000", "162517.678000", "162519.679000", "162521.679000", "162523.679000", "162525.678000", "162527.680000", "162529.680000", "162531.678000", "162533.679000", "162535.679000", "162537.679000", "162539.679000", "162541.679000", "162543.680000", "162545.680000", "162547.680000", "162549.678000", "162551.679000", "162553.678000", "162555.679000", "162557.678000", "162559.678000", "162601.680000", "162603.680000", "162605.679000", "162607.678000", "162609.679000", "162611.679000", "162613.678000", "162615.678000", "162617.678000", "162619.680000", "162621.680000", "162623.679000", "162625.678000", "162627.679000", "162629.679000", "162631.679000", "162633.678000", "162635.678000", "162637.680000", "162639.679000", "162641.679000", "162643.678000", "162645.679000", "162647.679000", "162649.678000", "162651.679000", "162653.680000", "162655.679000", "162657.680000", "162659.679000", "162701.679000", "162703.679000", "162705.678000", "162707.679000", "162709.679000", "162711.680000", "162713.680000", "162715.680000", "162717.679000", "162719.679000", "162721.679000", "162723.679000", "162725.679000", "162727.679000", "162729.680000", "162731.679000", "162733.679000", "162735.678000", "162737.679000", "162739.679000", "162741.678000", "162743.678000", "162745.679000", "162747.680000", "162749.679000", "162751.679000", "162753.679000", "162755.679000", "162757.679000", "162759.678000", "162801.679000", "162803.680000", "162805.680000", "162807.680000", "162809.679000", "162811.678000", "162813.679000", "162815.679000", "162817.679000", "162819.678000", "162821.680000", "162823.679000", "162825.680000", "162827.679000", "162829.678000", "162831.678000", "162833.679000", "162835.679000", "162837.693000", "162839.679000", "162841.680000", "162843.679000", "162845.679000", "162847.678000", "162849.679000", "162851.679000", "162853.679000", "162855.678000", "162857.680000", "162859.680000", "162901.679000", "162903.679000", "162905.678000", "162907.678000", "162909.679000", "162911.679000", "162913.679000", "162915.680000", "162917.680000", "162919.679000", "162921.679000", "162923.678000", "162925.678000", "162927.678000", "162929.679000", "162931.680000", "162933.679000", "162935.678000", "162937.678000", "162939.679000", "162941.678000", "162943.678000", "162945.679000", "162947.679000", "162949.680000", "162951.680000", "162953.679000", "162955.679000", "162957.679000", "162959.679000", "163001.679000", "163003.679000", "163005.679000", "163007.680000", "163009.345000"],
      "InstanceCreationTime": ["162140.184000", "162141.680000", "162143.679000", "162145.679000", "162147.678000", "162149.678000", "162151.678000", "162153.679000", "162155.678000", "162157.680000", "162159.680000", "162201.678000", "162203.679000", "162205.679000", "162207.678000", "162209.679000", "162211.678000", "162213.679000", "162215.679000", "162217.680000", "162219.678000", "162221.679000", "162223.678000", "162225.679000", "162227.678000", "162229.679000", "162231.679000", "162233.680000", "162235.680000", "162237.678000", "162239.679000", "162241.678000", "162243.679000", "162245.679000", "162247.678000", "162249.680000", "162251.680000", "162253.679000", "162255.679000", "162257.679000", "162259.679000", "162301.679000", "162303.678000", "162305.679000", "162307.679000", "162309.680000", "162311.679000", "162313.678000", "162315.678000", "162317.678000", "162319.679000", "162321.679000", "162323.679000", "162325.680000", "162327.680000", "162329.679000", "162331.679000", "162333.679000", "162335.678000", "162337.679000", "162339.679000", "162341.680000", "162343.680000", "162345.680000", "162347.679000", "162349.678000", "162351.679000", "162353.679000", "162355.678000", "162357.678000", "162359.679000", "162401.679000", "162403.679000", "162405.679000", "162407.678000", "162409.679000", "162411.679000", "162413.679000", "162415.679000", "162417.680000", "162419.680000", "162421.679000", "162423.679000", "162425.679000", "162427.679000", "162429.679000", "162431.679000", "162433.680000", "162435.680000", "162437.680000", "162439.679000", "162441.679000", "162443.678000", "162445.678000", "162447.678000", "162449.679000", "162451.680000", "162453.679000", "162455.680000", "162457.679000", "162459.678000", "162501.679000", "162503.678000", "162505.679000", "162507.679000", "162509.680000", "162511.680000", "162513.678000", "162515.679000", "162517.678000", "162519.679000", "162521.679000", "162523.679000", "162525.678000", "162527.680000", "162529.680000", "162531.678000", "162533.679000", "162535.679000", "162537.679000", "162539.679000", "162541.679000", "162543.680000", "162545.680000", "162547.680000", "162549.678000", "162551.679000", "162553.678000", "162555.679000", "162557.678000", "162559.678000", "162601.680000", "162603.680000", "162605.679000", "162607.678000", "162609.679000", "162611.679000", "162613.678000", "162615.678000", "162617.678000", "162619.680000", "162621.680000", "162623.679000", "162625.678000", "162627.679000", "162629.679000", "162631.679000", "162633.678000", "162635.678000", "162637.680000", "162639.679000", "162641.679000", "162643.678000", "162645.679000", "162647.679000", "162649.678000", "162651.679000", "162653.680000", "162655.679000", "162657.680000", "162659.679000", "162701.679000", "162703.679000", "162705.678000", "162707.679000", "162709.679000", "162711.680000", "162713.680000", "162715.680000", "162717.679000", "162719.679000", "162721.679000", "162723.679000", "162725.679000", "162727.679000", "162729.680000", "162731.679000", "162733.679000", "162735.678000", "162737.679000", "162739.679000", "162741.678000", "162743.678000", "162745.679000", "162747.680000", "162749.679000", "162751.679000", "162753.679000", "162755.679000", "162757.679000", "162759.678000", "162801.679000", "162803.680000", "162805.680000", "162807.680000", "162809.679000", "162811.678000", "162813.679000", "162815.679000", "162817.679000", "162819.678000", "162821.680000", "162823.679000", "162825.680000", "162827.679000", "162829.678000", "162831.678000", "162833.679000", "162835.679000", "162837.693000", "162839.679000", "162841.680000", "162843.679000", "162845.679000", "162847.678000", "162849.679000", "162851.679000", "162853.679000", "162855.678000", "162857.680000", "162859.680000", "162901.679000", "162903.679000", "162905.678000", "162907.678000", "162909.679000", "162911.679000", "162913.679000", "162915.680000", "162917.680000", "162919.679000", "162921.679000", "162923.678000", "162925.678000", "162927.678000", "162929.679000", "162931.680000", "162933.679000", "162935.678000", "162937.678000", "162939.679000", "162941.678000", "162943.678000", "162945.679000", "162947.679000", "162949.680000", "162951.680000", "162953.679000", "162955.679000", "162957.679000", "162959.679000", "163001.679000", "163003.679000", "163005.679000", "163007.680000", "163009.345000"],
      "InstanceNumber": [1, 2, 3, 4, 5, 6, 7, 8, 9, 10, 11, 12, 13, 14, 15, 16, 17, 18, 19, 20, 21, 22, 23, 24, 25, 26, 27, 28, 29, 30, 31, 32, 33, 34, 35, 36, 37, 38, 39, 40, 41, 42, 43, 44, 45, 46, 47, 48, 49, 50, 51, 52, 53, 54, 55, 56, 57, 58, 59, 60, 61, 62, 63, 64, 65, 66, 67, 68, 69, 70, 71, 72, 73, 74, 75, 76, 77, 78, 79, 80, 81, 82, 83, 84, 85, 86, 87, 88, 89, 90, 91, 92, 93, 94, 95, 96, 97, 98, 99, 100, 101, 102, 103, 104, 105, 106, 107, 108, 109, 110, 111, 112, 113, 114, 115, 116, 117, 118, 119, 120, 121, 122, 123, 124, 125, 126, 127, 128, 129, 130, 131, 132, 133, 134, 135, 136, 137, 138, 139, 140, 141, 142, 143, 144, 145, 146, 147, 148, 149, 150, 151, 152, 153, 154, 155, 156, 157, 158, 159, 160, 161, 162, 163, 164, 165, 166, 167, 168, 169, 170, 171, 172, 173, 174, 175, 176, 177, 178, 179, 180, 181, 182, 183, 184, 185, 186, 187, 188, 189, 190, 191, 192, 193, 194, 195, 196, 197, 198, 199, 200, 201, 202, 203, 204, 205, 206, 207, 208, 209, 210, 211, 212, 213, 214, 215, 216, 217, 218, 219, 220, 221, 222, 223, 224, 225, 226, 227, 228, 229, 230, 231, 232, 233, 234, 235, 236, 237, 238, 239, 240, 241, 242, 243, 244, 245, 246, 247, 248, 249, 250, 251, 252, 253, 254, 255, 256],
      "LargestImagePixelValue": [2650, 2620, 2655, 2589, 2626, 2615, 2736, 2608, 2688, 2591, 2569, 2567, 2574, 2581, 2587, 2602, 2579, 2563, 2530, 2589, 2565, 2543, 2547, 2548, 2565, 2539, 2568, 2539, 2562, 2578, 2584, 2591, 2583, 2551, 2573, 2547, 2553, 2581, 2574, 2563, 2572, 2584, 2603, 2568, 2539, 2557, 2593, 2578, 2591, 2590, 2593, 2571, 2543, 2574, 2668, 2690, 2541, 2552, 2583, 2575, 2577, 2578, 2584, 2574, 2567, 2552, 2569, 2536, 2576, 2565, 2549, 2569, 2565, 2564, 2562, 2577, 2581, 2568, 2558, 2612, 2555, 2551, 2543, 2557, 2553, 2563, 2563, 2562, 2578, 2569, 2599, 2713, 2557, 2550, 2763, 2567, 2556, 2547, 2541, 2546, 2506, 2548, 2524, 2511, 2546, 2549, 2564, 2537, 2603, 2534, 2549, 2583, 2525, 2536, 2528, 2521, 2520, 2530, 2547, 2533, 2550, 2527, 2526, 2518, 2520, 2528, 2532, 2536, 2538, 2682, 2531, 2573, 2550, 2566, 2529, 2542, 2561, 2559, 2541, 2512, 2525, 2537, 2540, 2528, 2555, 2524, 2542, 2555, 2538, 2511, 2553, 2546, 2523, 2836, 2500, 2664, 2689, 2506, 2532, 2526, 2552, 2517, 2629, 2551, 2576, 2560, 2652, 2720, 2539, 2514, 2537, 2535, 2502, 2514, 2562, 2496, 2539, 2501, 2574, 2489, 2569, 2600, 2525, 2676, 2489, 2664, 2548, 2508, 2507, 2581, 2503, 2648, 2503, 2498, 2487, 2753, 2515, 2525, 2534, 2521, 2537, 2538, 2514, 2491, 2525, 2525, 2529, 2538, 2517, 2846, 2581, 2556, 2552, 2549, 2498, 2645, 2570, 2541, 2580, 2606, 2555, 2533, 2624, 2534, 2558, 2566, 2557, 2700, 2533, 2561, 2536, 2534, 2563, 2540, 2565, 2587, 2548, 2846, 2547, 2519, 2519, 3104, 2517, 2522, 2571, 2553, 2549, 2559, 2535, 2555, 2529, 2967, 2676, 2575, 2541, 2566],
      "WindowCenter": [747.0, 746.0, 745.0, 744.0, 744.0, 744.0, 746.0, 745.0, 745.0, 744.0, 743.0, 743.0, 743.0, 743.0, 743.0, 743.0, 743.0, 743.0, 742.0, 742.0, 741.0, 740.0, 741.0, 740.0, 741.0, 741.0, 742.0, 742.0, 743.0, 743.0, 743.0, 744.0, 744.0, 743.0, 742.0, 740.0, 741.0, 742.0, 742.0, 742.0, 742.0, 742.0, 742.0, 741.0, 741.0, 741.0, 742.0, 742.0, 743.0, 743.0, 743.0, 742.0, 741.0, 742.0, 743.0, 743.0, 741.0, 741.0, 742.0, 741.0, 742.0, 742.0, 742.0, 743.0, 743.0, 743.0, 743.0, 742.0, 742.0, 741.0, 741.0, 741.0, 742.0, 742.0, 742.0, 742.0, 742.0, 742.0, 742.0, 741.0, 741.0, 742.0, 742.0, 741.0, 742.0, 743.0, 743.0, 743.0, 743.0, 744.0, 744.0, 745.0, 743.0, 742.0, 745.0, 743.0, 743.0, 742.0, 742.0, 741.0, 740.0, 741.0, 742.0, 741.0, 741.0, 741.0, 742.0, 741.0, 743.0, 742.0, 742.0, 743.0, 742.0, 743.0, 742.0, 741.0, 741.0, 741.0, 742.0, 742.0, 742.0, 741.0, 741.0, 740.0, 741.0, 742.0, 742.0, 742.0, 743.0, 745.0, 742.0, 743.0, 742.0, 742.0, 743.0, 743.0, 743.0, 743.0, 742.0, 742.0, 742.0, 743.0, 743.0, 741.0, 742.0, 742.0, 743.0, 743.0, 742.0, 741.0, 741.0, 741.0, 740.0, 744.0, 741.0, 742.0, 743.0, 741.0, 742.0, 741.0, 741.0, 741.0, 743.0, 743.0, 742.0, 741.0, 744.0, 745.0, 744.0, 742.0, 740.0, 739.0, 739.0, 738.0, 740.0, 740.0, 740.0, 739.0, 741.0, 740.0, 742.0, 741.0, 741.0, 744.0, 742.0, 742.0, 740.0, 740.0, 740.0, 741.0, 741.0, 743.0, 741.0, 740.0, 740.0, 742.0, 740.0, 740.0, 740.0, 740.0, 741.0, 740.0, 740.0, 740.0, 740.0, 740.0, 740.0, 740.0, 739.0, 742.0, 740.0, 740.0, 740.0, 739.0, 740.0, 742.0, 741.0, 740.0, 741.0, 740.0, 739.0, 739.0, 741.0, 740.0, 740.0, 741.0, 741.0, 743.0, 742.0, 740.0, 740.0, 740.0, 740.0, 740.0, 741.0, 741.0, 740.0, 743.0, 741.0, 741.0, 740.0, 746.0, 741.0, 740.0, 741.0, 740.0, 740.0, 740.0, 740.0, 740.0, 738.0, 743.0, 742.0, 741.0, 740.0, 739.0],
      "WindowWidth": [1602.0, 1599.0, 1597.0, 1594.0, 1594.0, 1592.0, 1597.0, 1595.0, 1595.0, 1592.0, 1591.0, 1591.0, 1591.0, 1591.0, 1591.0, 1591.0, 1591.0, 1591.0, 1589.0, 1588.0, 1585.0, 1583.0, 1585.0, 1585.0, 1587.0, 1586.0, 1588.0, 1589.0, 1590.0, 1591.0, 1593.0, 1594.0, 1593.0, 1591.0, 1589.0, 1584.0, 1587.0, 1590.0, 1590.0, 1588.0, 1589.0, 1588.0, 1588.0, 1587.0, 1585.0, 1585.0, 1588.0, 1589.0, 1591.0, 1591.0, 1590.0, 1588.0, 1587.0, 1589.0, 1592.0, 1592.0, 1586.0, 1587.0, 1587.0, 1587.0, 1589.0, 1589.0, 1590.0, 1591.0, 1592.0, 1593.0, 1591.0, 1589.0, 1588.0, 1586.0, 1587.0, 1587.0, 1587.0, 1588.0, 1588.0, 1588.0, 1589.0, 1589.0, 1588.0, 1587.0, 1585.0, 1588.0, 1588.0, 1587.0, 1589.0, 1591.0, 1591.0, 1591.0, 1592.0, 1593.0, 1593.0, 1595.0, 1591.0, 1590.0, 1595.0, 1591.0, 1591.0, 1588.0, 1588.0, 1587.0, 1585.0, 1586.0, 1588.0, 1587.0, 1585.0, 1585.0, 1587.0, 1587.0, 1590.0, 1588.0, 1588.0, 1590.0, 1590.0, 1591.0, 1589.0, 1587.0, 1585.0, 1587.0, 1589.0, 1587.0, 1588.0, 1587.0, 1586.0, 1583.0, 1585.0, 1588.0, 1587.0, 1588.0, 1591.0, 1595.0, 1589.0, 1591.0, 1589.0, 1590.0, 1590.0, 1592.0, 1592.0, 1590.0, 1589.0, 1588.0, 1589.0, 1591.0, 1590.0, 1586.0, 1588.0, 1588.0, 1590.0, 1590.0, 1588.0, 1586.0, 1587.0, 1585.0, 1585.0, 1593.0, 1585.0, 1589.0, 1590.0, 1586.0, 1588.0, 1585.0, 1587.0, 1586.0, 1592.0, 1590.0, 1589.0, 1587.0, 1593.0, 1597.0, 1594.0, 1589.0, 1583.0, 1581.0, 1580.0, 1579.0, 1582.0, 1583.0, 1584.0, 1582.0, 1586.0, 1584.0, 1590.0, 1587.0, 1585.0, 1593.0, 1589.0, 1589.0, 1584.0, 1584.0, 1584.0, 1585.0, 1585.0, 1591.0, 1587.0, 1584.0, 1583.0, 1588.0, 1584.0, 1583.0, 1583.0, 1583.0, 1585.0, 1584.0, 1583.0, 1582.0, 1583.0, 1583.0, 1583.0, 1583.0, 1581.0, 1588.0, 1582.0, 1583.0, 1584.0, 1581.0, 1583.0, 1587.0, 1586.0, 1584.0, 1585.0, 1582.0, 1580.0, 1580.0, 1585.0, 1584.0, 1584.0, 1585.0, 1586.0, 1591.0, 1588.0, 1585.0, 1582.0, 1583.0, 1583.0, 1583.0, 1584.0, 1586.0, 1583.0, 1590.0, 1586.0, 1586.0, 1584.0, 1599.0, 1585.0, 1584.0, 1585.0, 1584.0, 1584.0, 1585.0, 1584.0, 1582.0, 1578.0, 1591.0, 1588.0, 1586.0, 1583.0, 1582.0]
    },
    "slices": {}
  }
}