{
 "AcquisitionMatrixPE": 100,
 "AcquisitionNumber": 1,
 "AcquisitionTime": "16:11:42.305000",
 "BandwidthPerPixelPhaseEncode": 18.519,
 "BaseResolution": 100,
 "BodyPartExamined": "BRAIN",
 "ConsistencyInfo": "N4_VE11C_LATEST_20160120",
 "ConversionSoftware": "dcm2niix",
 "ConversionSoftwareVersion": "v1.0.20180622 GCC4.9.2",
 "DerivedVendorReportedEchoSpacing": 0.000539986,
 "DeviceSerialNumber": "166078",
 "DwellTime": 2.1e-06,
 "EchoTime": 0.034,
 "EchoTrainLength": 100,
 "EffectiveEchoSpacing": 0.000539986,
 "FlipAngle": 90,
 "ImageOrientationPatientDICOM": [
  1,
  -6.18849e-05,
  -0.000551236,
  5.85096e-08,
  0.993769,
  -0.11146
 ],
 "ImageType": [
  "ORIGINAL",
  "PRIMARY",
  "M",
  "ND",
  "MOSAIC"
 ],
 "InPlanePhaseEncodingDirectionDICOM": "COL",
 "InstitutionAddress": "Street_StreetNo_Bei_Jing_District_CN_ZIP",
 "InstitutionName": "BeiJing_Normal_University",
 "InstitutionalDepartmentName": "Department",
 "MRAcquisitionType": "2D",
 "MagneticFieldStrength": 3,
 "Manufacturer": "Siemens",
 "ManufacturersModelName": "Prisma",
 "Modality": "MR",
 "MultibandAccelerationFactor": 3,
 "PartialFourier": 1,
 "PatientPosition": "HFS",
 "PercentPhaseFOV": 100,
 "PhaseEncodingDirection": "j-",
 "PhaseEncodingSteps": 100,
 "PhaseResolution": 1,
 "PixelBandwidth": 2380,
 "ProcedureStepDescription": "BNU_P2018_64CH_Zhen.ZongLei",
 "ProtocolName": "bold_100x100_s3_2x2x2_static_256",
 "PulseSequenceDetails": "%SiemensSeq%_ep2d_bold",
 "ReceiveCoilActiveElements": "HC1-7;NC1",
 "ReceiveCoilName": "HeadNeck_64",
 "ReconMatrixPE": 100,
 "RepetitionTime": 2,
 "SAR": 0.0732644,
 "ScanOptions": "FS",
 "ScanningSequence": "EP",
 "SequenceName": "_epfid2d1_100",
 "SequenceVariant": "SK",
 "SeriesDescription": "bold_100x100_s3_2x2x2_static_256",
 "SeriesNumber": 12,
 "ShimSetting": [
  -5457,
  -11500,
  -1274,
  523,
  19,
  -181,
  -86,
  58
 ],
 "SliceThickness": 2,
 "SliceTiming": [
  1.485,
  0,
  0.99,
  0.0825,
  1.0725,
  0.165,
  1.155,
  0.2475,
  1.2375,
  0.33,
  1.32,
  0.4125,
  1.4025,
  0.5775,
  1.5675,
  0.66,
  1.65,
  0.7425,
  1.7325,
  0.825,
  1.815,
  0.9075,
  1.8975,
  0.495,
  1.485,
  0,
  0.99,
  0.0825,
  1.0725,
  0.165,
  1.155,
  0.2475,
  1.2375,
  0.33,
  1.32,
  0.4125,
  1.4025,
  0.5775,
  1.5675,
  0.66,
  1.65,
  0.7425,
  1.7325,
  0.825,
  1.815,
  0.9075,
  1.8975,
  0.495,
  1.485,
  0,
  0.99,
  0.0825,
  1.0725,
  0.165,
  1.155,
  0.2475,
  1.2375,
  0.33,
  1.32,
  0.4125,
  1.4025,
  0.5775,
  1.5675,
  0.66,
  1.65,
  0.7425,
  1.7325,
  0.825,
  1.815,
  0.9075,
  1.8975,
  0.495
 ],
 "SoftwareVersions": "syngo_MR_E11",
 "SpacingBetweenSlices": 2,
 "StationName": "AWP166078",
 "TaskName": "imagenet",
 "TotalReadoutTime": 0.0534586,
 "TxRefAmp": 207.787,
 "dcmmeta_affine": [
  [
   -1.9999996423721313,
   1.1701917657092054e-07,
   -0.0011093973880633712,
   99.79715728759766
  ],
  [
   0.00012376985978335142,
   1.9875378608703613,
   -0.222920224070549,
   -87.49750518798828
  ],
  [
   -0.0011024716077372432,
   0.2229202538728714,
   1.9875375032424927,
   -75.5267562866211
  ],
  [
   0.0,
   0.0,
   0.0,
   1.0
  ]
 ],
 "dcmmeta_reorient_transform": [
  [
   0.0,
   -1.0,
   0.0,
   99.0
  ],
  [
   1.0,
   0.0,
   0.0,
   0.0
  ],
  [
   0.0,
   0.0,
   1.0,
   0.0
  ],
  [
   0.0,
   0.0,
   0.0,
   1.0
  ]
 ],
 "dcmmeta_shape": [
  100,
  100,
  72,
  256
 ],
 "dcmmeta_slice_dim": 2,
 "dcmmeta_version": 0.6,
 "global": {
  "const": {
   "AcquisitionMatrix": [
    100,
    0,
    0,
    100
   ],
   "AngioFlag": "N",
   "BitsAllocated": 16,
   "BitsStored": 12,
   "BodyPartExamined": "BRAIN",
   "Columns": 900,
   "EchoNumbers": 1,
   "EchoTime": 34.0,
   "EchoTrainLength": 100,
   "FlipAngle": 90.0,
   "HighBit": 11,
   "ImageOrientationPatient": [
    0.99999984615468,
    -6.18849293e-05,
    -0.0005512357769,
    5.8509588e-08,
    0.99376890693687,
    -0.1114601256302
   ],
   "ImagePositionPatient": [
    -899.79709088675,
    -904.23435962465,
    36.151434677948
   ],
   "ImageType": [
    "ORIGINAL",
    "PRIMARY",
    "M",
    "ND",
    "MOSAIC"
   ],
   "ImagedNucleus": "1H",
   "ImagingFrequency": 123.257773,
   "InPlanePhaseEncodingDirection": "COL",
   "MRAcquisitionType": "2D",
   "MagneticFieldStrength": 3.0,
   "Manufacturer": "SIEMENS",
   "ManufacturerModelName": "Prisma",
   "Modality": "MR",
   "NumberOfAverages": 1.0,
   "NumberOfPhaseEncodingSteps": 100,
   "PercentPhaseFieldOfView": 100.0,
   "PercentSampling": 100.0,
   "PerformedProcedureStepStartTime": "145836.729000",
   "PhotometricInterpretation": "MONOCHROME2",
   "PixelBandwidth": 2380.0,
   "PixelRepresentation": 0,
   "PixelSpacing": [
    2.0,
    2.0
   ],
   "ProtocolName": "bold_100x100_s3_2x2x2_static_256",
   "RepetitionTime": 2000.0,
   "Rows": 900,
   "SAR": 0.0732644290803,
   "SamplesPerPixel": 1,
   "ScanOptions": "FS",
   "ScanningSequence": "EP",
   "SequenceName": "*epfid2d1_100",
   "SequenceVariant": "SK",
   "SeriesDescription": "bold_100x100_s3_2x2x2_static_256",
   "SeriesNumber": 12,
   "SeriesTime": "161144.673000",
   "SliceLocation": -65.359009847354,
   "SliceThickness": 2.0,
   "SmallestImagePixelValue": 0,
   "SoftwareVersions": "syngo MR E11",
   "SpacingBetweenSlices": 2.0000000375584,
   "SpecificCharacterSet": "ISO_IR 100",
   "StudyID": "1",
   "StudyTime": "145836.682000",
   "TransmitCoilName": "Body",
   "VariableFlipAngleFlag": "N",
   "WindowCenterWidthExplanation": "Algo1",
   "dBdt": 0.0
  },
  "slices": {}
 },
 "time": {
  "samples": {
   "AcquisitionNumber": [
    1,
    2,
    3,
    4,
    5,
    6,
    7,
    8,
    9,
    10,
    11,
    12,
    13,
    14,
    15,
    16,
    17,
    18,
    19,
    20,
    21,
    22,
    23,
    24,
    25,
    26,
    27,
    28,
    29,
    30,
    31,
    32,
    33,
    34,
    35,
    36,
    37,
    38,
    39,
    40,
    41,
    42,
    43,
    44,
    45,
    46,
    47,
    48,
    49,
    50,
    51,
    52,
    53,
    54,
    55,
    56,
    57,
    58,
    59,
    60,
    61,
    62,
    63,
    64,
    65,
    66,
    67,
    68,
    69,
    70,
    71,
    72,
    73,
    74,
    75,
    76,
    77,
    78,
    79,
    80,
    81,
    82,
    83,
    84,
    85,
    86,
    87,
    88,
    89,
    90,
    91,
    92,
    93,
    94,
    95,
    96,
    97,
    98,
    99,
    100,
    101,
    102,
    103,
    104,
    105,
    106,
    107,
    108,
    109,
    110,
    111,
    112,
    113,
    114,
    115,
    116,
    117,
    118,
    119,
    120,
    121,
    122,
    123,
    124,
    125,
    126,
    127,
    128,
    129,
    130,
    131,
    132,
    133,
    134,
    135,
    136,
    137,
    138,
    139,
    140,
    141,
    142,
    143,
    144,
    145,
    146,
    147,
    148,
    149,
    150,
    151,
    152,
    153,
    154,
    155,
    156,
    157,
    158,
    159,
    160,
    161,
    162,
    163,
    164,
    165,
    166,
    167,
    168,
    169,
    170,
    171,
    172,
    173,
    174,
    175,
    176,
    177,
    178,
    179,
    180,
    181,
    182,
    183,
    184,
    185,
    186,
    187,
    188,
    189,
    190,
    191,
    192,
    193,
    194,
    195,
    196,
    197,
    198,
    199,
    200,
    201,
    202,
    203,
    204,
    205,
    206,
    207,
    208,
    209,
    210,
    211,
    212,
    213,
    214,
    215,
    216,
    217,
    218,
    219,
    220,
    221,
    222,
    223,
    224,
    225,
    226,
    227,
    228,
    229,
    230,
    231,
    232,
    233,
    234,
    235,
    236,
    237,
    238,
    239,
    240,
    241,
    242,
    243,
    244,
    245,
    246,
    247,
    248,
    249,
    250,
    251,
    252,
    253,
    254,
    255,
    256
   ],
   "AcquisitionTime": [
    "161142.305000",
    "161144.305000",
    "161146.305000",
    "161148.305000",
    "161150.305000",
    "161152.305000",
    "161154.305000",
    "161156.305000",
    "161158.305000",
    "161200.305000",
    "161202.305000",
    "161204.305000",
    "161206.305000",
    "161208.305000",
    "161210.305000",
    "161212.305000",
    "161214.305000",
    "161216.305000",
    "161218.305000",
    "161220.305000",
    "161222.305000",
    "161224.305000",
    "161226.305000",
    "161228.305000",
    "161230.305000",
    "161232.305000",
    "161234.305000",
    "161236.305000",
    "161238.305000",
    "161240.305000",
    "161242.305000",
    "161244.305000",
    "161246.305000",
    "161248.305000",
    "161250.305000",
    "161252.305000",
    "161254.305000",
    "161256.305000",
    "161258.305000",
    "161300.305000",
    "161302.305000",
    "161304.305000",
    "161306.305000",
    "161308.305000",
    "161310.305000",
    "161312.305000",
    "161314.305000",
    "161316.305000",
    "161318.305000",
    "161320.305000",
    "161322.305000",
    "161324.305000",
    "161326.305000",
    "161328.305000",
    "161330.305000",
    "161332.305000",
    "161334.305000",
    "161336.305000",
    "161338.305000",
    "161340.305000",
    "161342.305000",
    "161344.305000",
    "161346.305000",
    "161348.305000",
    "161350.305000",
    "161352.305000",
    "161354.305000",
    "161356.305000",
    "161358.305000",
    "161400.305000",
    "161402.305000",
    "161404.305000",
    "161406.305000",
    "161408.305000",
    "161410.305000",
    "161412.305000",
    "161414.305000",
    "161416.305000",
    "161418.305000",
    "161420.305000",
    "161422.305000",
    "161424.305000",
    "161426.305000",
    "161428.305000",
    "161430.305000",
    "161432.305000",
    "161434.305000",
    "161436.305000",
    "161438.305000",
    "161440.305000",
    "161442.305000",
    "161444.305000",
    "161446.305000",
    "161448.305000",
    "161450.305000",
    "161452.305000",
    "161454.305000",
    "161456.305000",
    "161458.305000",
    "161500.305000",
    "161502.305000",
    "161504.305000",
    "161506.305000",
    "161508.305000",
    "161510.305000",
    "161512.305000",
    "161514.305000",
    "161516.305000",
    "161518.305000",
    "161520.305000",
    "161522.305000",
    "161524.305000",
    "161526.305000",
    "161528.305000",
    "161530.305000",
    "161532.305000",
    "161534.305000",
    "161536.305000",
    "161538.305000",
    "161540.305000",
    "161542.305000",
    "161544.305000",
    "161546.305000",
    "161548.305000",
    "161550.305000",
    "161552.305000",
    "161554.305000",
    "161556.305000",
    "161558.305000",
    "161600.305000",
    "161602.305000",
    "161604.305000",
    "161606.305000",
    "161608.305000",
    "161610.305000",
    "161612.305000",
    "161614.305000",
    "161616.305000",
    "161618.305000",
    "161620.305000",
    "161622.305000",
    "161624.305000",
    "161626.305000",
    "161628.305000",
    "161630.305000",
    "161632.305000",
    "161634.305000",
    "161636.305000",
    "161638.305000",
    "161640.305000",
    "161642.305000",
    "161644.305000",
    "161646.305000",
    "161648.305000",
    "161650.305000",
    "161652.305000",
    "161654.305000",
    "161656.305000",
    "161658.305000",
    "161700.305000",
    "161702.305000",
    "161704.305000",
    "161706.305000",
    "161708.305000",
    "161710.305000",
    "161712.305000",
    "161714.305000",
    "161716.305000",
    "161718.305000",
    "161720.305000",
    "161722.305000",
    "161724.305000",
    "161726.305000",
    "161728.305000",
    "161730.305000",
    "161732.305000",
    "161734.305000",
    "161736.305000",
    "161738.305000",
    "161740.305000",
    "161742.305000",
    "161744.305000",
    "161746.305000",
    "161748.305000",
    "161750.305000",
    "161752.305000",
    "161754.305000",
    "161756.305000",
    "161758.305000",
    "161800.305000",
    "161802.305000",
    "161804.305000",
    "161806.305000",
    "161808.305000",
    "161810.305000",
    "161812.305000",
    "161814.305000",
    "161816.305000",
    "161818.305000",
    "161820.305000",
    "161822.305000",
    "161824.305000",
    "161826.305000",
    "161828.305000",
    "161830.305000",
    "161832.305000",
    "161834.305000",
    "161836.305000",
    "161838.305000",
    "161840.305000",
    "161842.305000",
    "161844.305000",
    "161846.305000",
    "161848.305000",
    "161850.305000",
    "161852.305000",
    "161854.305000",
    "161856.305000",
    "161858.305000",
    "161900.305000",
    "161902.305000",
    "161904.305000",
    "161906.305000",
    "161908.305000",
    "161910.305000",
    "161912.305000",
    "161914.305000",
    "161916.305000",
    "161918.305000",
    "161920.305000",
    "161922.305000",
    "161924.305000",
    "161926.305000",
    "161928.305000",
    "161930.305000",
    "161932.305000",
    "161934.305000",
    "161936.305000",
    "161938.305000",
    "161940.305000",
    "161942.305000",
    "161944.305000",
    "161946.305000",
    "161948.305000",
    "161950.305000",
    "161952.305000",
    "161954.305000",
    "161956.305000",
    "161958.305000",
    "162000.305000",
    "162002.305000",
    "162004.305000",
    "162006.305000",
    "162008.305000",
    "162010.305000",
    "162012.305000"
   ],
   "ContentTime": [
    "161144.677000",
    "161146.172000",
    "161148.173000",
    "161150.172000",
    "161152.172000",
    "161154.172000",
    "161156.172000",
    "161158.171000",
    "161200.172000",
    "161202.173000",
    "161204.172000",
    "161206.172000",
    "161208.173000",
    "161210.172000",
    "161212.172000",
    "161214.173000",
    "161216.171000",
    "161218.171000",
    "161220.173000",
    "161222.172000",
    "161224.173000",
    "161226.173000",
    "161228.172000",
    "161230.172000",
    "161232.173000",
    "161234.172000",
    "161236.171000",
    "161238.173000",
    "161240.173000",
    "161242.172000",
    "161244.173000",
    "161246.172000",
    "161248.172000",
    "161250.172000",
    "161252.171000",
    "161254.173000",
    "161256.172000",
    "161258.172000",
    "161300.172000",
    "161302.172000",
    "161304.172000",
    "161306.173000",
    "161308.171000",
    "161310.172000",
    "161312.172000",
    "161314.172000",
    "161316.172000",
    "161318.172000",
    "161320.172000",
    "161322.173000",
    "161324.172000",
    "161326.172000",
    "161328.172000",
    "161330.173000",
    "161332.172000",
    "161334.172000",
    "161336.173000",
    "161338.172000",
    "161340.172000",
    "161342.172000",
    "161344.172000",
    "161346.172000",
    "161348.172000",
    "161350.172000",
    "161352.172000",
    "161354.173000",
    "161356.173000",
    "161358.173000",
    "161400.171000",
    "161402.171000",
    "161404.173000",
    "161406.173000",
    "161408.172000",
    "161410.172000",
    "161412.173000",
    "161414.173000",
    "161416.173000",
    "161418.171000",
    "161420.172000",
    "161422.173000",
    "161424.172000",
    "161426.173000",
    "161428.172000",
    "161430.172000",
    "161432.172000",
    "161434.173000",
    "161436.171000",
    "161438.171000",
    "161440.173000",
    "161442.173000",
    "161444.172000",
    "161446.173000",
    "161448.172000",
    "161450.173000",
    "161452.172000",
    "161454.171000",
    "161456.172000",
    "161458.172000",
    "161500.173000",
    "161502.172000",
    "161504.173000",
    "161506.172000",
    "161508.172000",
    "161510.172000",
    "161512.172000",
    "161514.173000",
    "161516.173000",
    "161518.173000",
    "161520.173000",
    "161522.173000",
    "161524.173000",
    "161526.172000",
    "161528.172000",
    "161530.171000",
    "161532.175000",
    "161534.173000",
    "161536.172000",
    "161538.173000",
    "161540.173000",
    "161542.172000",
    "161544.173000",
    "161546.172000",
    "161548.172000",
    "161550.172000",
    "161552.172000",
    "161554.172000",
    "161556.173000",
    "161558.173000",
    "161600.172000",
    "161602.172000",
    "161604.172000",
    "161606.172000",
    "161608.173000",
    "161610.173000",
    "161612.173000",
    "161614.173000",
    "161616.172000",
    "161618.172000",
    "161620.171000",
    "161622.172000",
    "161624.173000",
    "161626.173000",
    "161628.173000",
    "161630.172000",
    "161632.173000",
    "161634.173000",
    "161636.172000",
    "161638.172000",
    "161640.171000",
    "161642.172000",
    "161644.173000",
    "161646.172000",
    "161648.172000",
    "161650.172000",
    "161652.173000",
    "161654.173000",
    "161656.171000",
    "161658.171000",
    "161700.172000",
    "161702.173000",
    "161704.172000",
    "161706.173000",
    "161708.173000",
    "161710.172000",
    "161712.173000",
    "161714.171000",
    "161716.172000",
    "161718.173000",
    "161720.172000",
    "161722.173000",
    "161724.172000",
    "161726.173000",
    "161728.173000",
    "161730.171000",
    "161732.171000",
    "161734.172000",
    "161736.172000",
    "161738.173000",
    "161740.173000",
    "161742.173000",
    "161744.172000",
    "161746.172000",
    "161748.171000",
    "161750.172000",
    "161752.172000",
    "161754.172000",
    "161756.173000",
    "161758.184000",
    "161800.173000",
    "161802.172000",
    "161804.172000",
    "161806.172000",
    "161808.171000",
    "161810.173000",
    "161812.173000",
    "161814.173000",
    "161816.172000",
    "161818.172000",
    "161820.172000",
    "161822.172000",
    "161824.172000",
    "161826.172000",
    "161828.172000",
    "161830.173000",
    "161832.173000",
    "161834.172000",
    "161836.172000",
    "161838.173000",
    "161840.172000",
    "161842.172000",
    "161844.173000",
    "161846.173000",
    "161848.173000",
    "161850.173000",
    "161852.172000",
    "161854.173000",
    "161856.172000",
    "161858.171000",
    "161900.172000",
    "161902.172000",
    "161904.173000",
    "161906.173000",
    "161908.173000",
    "161910.173000",
    "161912.172000",
    "161914.173000",
    "161916.172000",
    "161918.172000",
    "161920.172000",
    "161922.173000",
    "161924.172000",
    "161926.173000",
    "161928.172000",
    "161930.173000",
    "161932.172000",
    "161934.172000",
    "161936.172000",
    "161938.173000",
    "161940.173000",
    "161942.173000",
    "161944.173000",
    "161946.172000",
    "161948.173000",
    "161950.172000",
    "161952.172000",
    "161954.173000",
    "161956.172000",
    "161958.173000",
    "162000.173000",
    "162002.172000",
    "162004.172000",
    "162006.173000",
    "162008.172000",
    "162010.172000",
    "162012.173000",
    "162013.887000"
   ],
   "InstanceCreationTime": [
    "161144.677000",
    "161146.172000",
    "161148.173000",
    "161150.172000",
    "161152.172000",
    "161154.172000",
    "161156.172000",
    "161158.171000",
    "161200.172000",
    "161202.173000",
    "161204.172000",
    "161206.172000",
    "161208.173000",
    "161210.172000",
    "161212.172000",
    "161214.173000",
    "161216.171000",
    "161218.171000",
    "161220.173000",
    "161222.172000",
    "161224.173000",
    "161226.173000",
    "161228.172000",
    "161230.172000",
    "161232.173000",
    "161234.172000",
    "161236.171000",
    "161238.173000",
    "161240.173000",
    "161242.172000",
    "161244.173000",
    "161246.172000",
    "161248.172000",
    "161250.172000",
    "161252.171000",
    "161254.173000",
    "161256.172000",
    "161258.172000",
    "161300.172000",
    "161302.172000",
    "161304.172000",
    "161306.173000",
    "161308.171000",
    "161310.172000",
    "161312.172000",
    "161314.172000",
    "161316.172000",
    "161318.172000",
    "161320.172000",
    "161322.173000",
    "161324.172000",
    "161326.172000",
    "161328.172000",
    "161330.173000",
    "161332.172000",
    "161334.172000",
    "161336.173000",
    "161338.172000",
    "161340.172000",
    "161342.172000",
    "161344.172000",
    "161346.172000",
    "161348.172000",
    "161350.172000",
    "161352.172000",
    "161354.173000",
    "161356.173000",
    "161358.173000",
    "161400.171000",
    "161402.171000",
    "161404.173000",
    "161406.173000",
    "161408.172000",
    "161410.172000",
    "161412.173000",
    "161414.173000",
    "161416.173000",
    "161418.171000",
    "161420.172000",
    "161422.173000",
    "161424.172000",
    "161426.173000",
    "161428.172000",
    "161430.172000",
    "161432.172000",
    "161434.173000",
    "161436.171000",
    "161438.171000",
    "161440.173000",
    "161442.173000",
    "161444.172000",
    "161446.173000",
    "161448.172000",
    "161450.173000",
    "161452.172000",
    "161454.171000",
    "161456.172000",
    "161458.172000",
    "161500.173000",
    "161502.172000",
    "161504.173000",
    "161506.172000",
    "161508.172000",
    "161510.172000",
    "161512.172000",
    "161514.173000",
    "161516.173000",
    "161518.173000",
    "161520.173000",
    "161522.173000",
    "161524.173000",
    "161526.172000",
    "161528.172000",
    "161530.171000",
    "161532.175000",
    "161534.173000",
    "161536.172000",
    "161538.173000",
    "161540.173000",
    "161542.172000",
    "161544.173000",
    "161546.172000",
    "161548.172000",
    "161550.172000",
    "161552.172000",
    "161554.172000",
    "161556.173000",
    "161558.173000",
    "161600.172000",
    "161602.172000",
    "161604.172000",
    "161606.172000",
    "161608.173000",
    "161610.173000",
    "161612.173000",
    "161614.173000",
    "161616.172000",
    "161618.172000",
    "161620.171000",
    "161622.172000",
    "161624.173000",
    "161626.173000",
    "161628.173000",
    "161630.172000",
    "161632.173000",
    "161634.173000",
    "161636.172000",
    "161638.172000",
    "161640.171000",
    "161642.172000",
    "161644.173000",
    "161646.172000",
    "161648.172000",
    "161650.172000",
    "161652.173000",
    "161654.173000",
    "161656.171000",
    "161658.171000",
    "161700.172000",
    "161702.173000",
    "161704.172000",
    "161706.173000",
    "161708.173000",
    "161710.172000",
    "161712.173000",
    "161714.171000",
    "161716.172000",
    "161718.173000",
    "161720.172000",
    "161722.173000",
    "161724.172000",
    "161726.173000",
    "161728.173000",
    "161730.171000",
    "161732.171000",
    "161734.172000",
    "161736.172000",
    "161738.173000",
    "161740.173000",
    "161742.173000",
    "161744.172000",
    "161746.172000",
    "161748.171000",
    "161750.172000",
    "161752.172000",
    "161754.172000",
    "161756.173000",
    "161758.184000",
    "161800.173000",
    "161802.172000",
    "161804.172000",
    "161806.172000",
    "161808.171000",
    "161810.173000",
    "161812.173000",
    "161814.173000",
    "161816.172000",
    "161818.172000",
    "161820.172000",
    "161822.172000",
    "161824.172000",
    "161826.172000",
    "161828.172000",
    "161830.173000",
    "161832.173000",
    "161834.172000",
    "161836.172000",
    "161838.173000",
    "161840.172000",
    "161842.172000",
    "161844.173000",
    "161846.173000",
    "161848.173000",
    "161850.173000",
    "161852.172000",
    "161854.173000",
    "161856.172000",
    "161858.171000",
    "161900.172000",
    "161902.172000",
    "161904.173000",
    "161906.173000",
    "161908.173000",
    "161910.173000",
    "161912.172000",
    "161914.173000",
    "161916.172000",
    "161918.172000",
    "161920.172000",
    "161922.173000",
    "161924.172000",
    "161926.173000",
    "161928.172000",
    "161930.173000",
    "161932.172000",
    "161934.172000",
    "161936.172000",
    "161938.173000",
    "161940.173000",
    "161942.173000",
    "161944.173000",
    "161946.172000",
    "161948.173000",
    "161950.172000",
    "161952.172000",
    "161954.173000",
    "161956.172000",
    "161958.173000",
    "162000.173000",
    "162002.172000",
    "162004.172000",
    "162006.173000",
    "162008.172000",
    "162010.172000",
    "162012.173000",
    "162013.887000"
   ],
   "InstanceNumber": [
    1,
    2,
    3,
    4,
    5,
    6,
    7,
    8,
    9,
    10,
    11,
    12,
    13,
    14,
    15,
    16,
    17,
    18,
    19,
    20,
    21,
    22,
    23,
    24,
    25,
    26,
    27,
    28,
    29,
    30,
    31,
    32,
    33,
    34,
    35,
    36,
    37,
    38,
    39,
    40,
    41,
    42,
    43,
    44,
    45,
    46,
    47,
    48,
    49,
    50,
    51,
    52,
    53,
    54,
    55,
    56,
    57,
    58,
    59,
    60,
    61,
    62,
    63,
    64,
    65,
    66,
    67,
    68,
    69,
    70,
    71,
    72,
    73,
    74,
    75,
    76,
    77,
    78,
    79,
    80,
    81,
    82,
    83,
    84,
    85,
    86,
    87,
    88,
    89,
    90,
    91,
    92,
    93,
    94,
    95,
    96,
    97,
    98,
    99,
    100,
    101,
    102,
    103,
    104,
    105,
    106,
    107,
    108,
    109,
    110,
    111,
    112,
    113,
    114,
    115,
    116,
    117,
    118,
    119,
    120,
    121,
    122,
    123,
    124,
    125,
    126,
    127,
    128,
    129,
    130,
    131,
    132,
    133,
    134,
    135,
    136,
    137,
    138,
    139,
    140,
    141,
    142,
    143,
    144,
    145,
    146,
    147,
    148,
    149,
    150,
    151,
    152,
    153,
    154,
    155,
    156,
    157,
    158,
    159,
    160,
    161,
    162,
    163,
    164,
    165,
    166,
    167,
    168,
    169,
    170,
    171,
    172,
    173,
    174,
    175,
    176,
    177,
    178,
    179,
    180,
    181,
    182,
    183,
    184,
    185,
    186,
    187,
    188,
    189,
    190,
    191,
    192,
    193,
    194,
    195,
    196,
    197,
    198,
    199,
    200,
    201,
    202,
    203,
    204,
    205,
    206,
    207,
    208,
    209,
    210,
    211,
    212,
    213,
    214,
    215,
    216,
    217,
    218,
    219,
    220,
    221,
    222,
    223,
    224,
    225,
    226,
    227,
    228,
    229,
    230,
    231,
    232,
    233,
    234,
    235,
    236,
    237,
    238,
    239,
    240,
    241,
    242,
    243,
    244,
    245,
    246,
    247,
    248,
    249,
    250,
    251,
    252,
    253,
    254,
    255,
    256
   ],
   "LargestImagePixelValue": [
    2640,
    2635,
    2568,
    2568,
    2578,
    2576,
    2572,
    2543,
    2576,
    2556,
    2550,
    2559,
    2556,
    2542,
    2539,
    2574,
    2545,
    2553,
    2540,
    2548,
    2840,
    2576,
    2885,
    2571,
    2549,
    2566,
    2569,
    2554,
    2634,
    2574,
    2531,
    2554,
    2553,
    2546,
    2581,
    2544,
    2560,
    2563,
    2551,
    2569,
    2563,
    2585,
    2556,
    2574,
    2611,
    2572,
    2559,
    2644,
    2573,
    2580,
    2601,
    2581,
    2570,
    2562,
    2705,
    2555,
    2550,
    2552,
    2649,
    2593,
    2595,
    2587,
    2651,
    2547,
    2581,
    2576,
    2604,
    2575,
    2540,
    2619,
    2587,
    2550,
    2571,
    2565,
    2580,
    2575,
    2589,
    2619,
    2615,
    2583,
    2633,
    2601,
    2620,
    2574,
    2848,
    2628,
    2638,
    2606,
    2726,
    2632,
    2720,
    2611,
    2598,
    2583,
    2589,
    2632,
    2595,
    2603,
    2612,
    2607,
    2642,
    2621,
    2635,
    2631,
    2880,
    2631,
    2860,
    2661,
    2937,
    2642,
    2609,
    2640,
    2592,
    2597,
    2586,
    2599,
    2600,
    2597,
    2600,
    2612,
    2593,
    2615,
    2591,
    2626,
    2611,
    2616,
    2611,
    2735,
    2609,
    2592,
    2552,
    2564,
    2544,
    2621,
    2587,
    2614,
    2592,
    2609,
    2653,
    2600,
    2581,
    2600,
    2574,
    2575,
    2585,
    2595,
    2585,
    2570,
    2556,
    2599,
    2569,
    2561,
    2584,
    2596,
    2601,
    2580,
    2586,
    2557,
    2586,
    2537,
    2545,
    2582,
    2571,
    2532,
    2529,
    2561,
    2529,
    2495,
    2526,
    2552,
    2532,
    2523,
    2572,
    2514,
    2469,
    2520,
    2489,
    2468,
    2505,
    2513,
    2491,
    2545,
    2488,
    2511,
    2494,
    2503,
    2513,
    2530,
    2595,
    2451,
    2663,
    2490,
    2903,
    2588,
    2504,
    2500,
    2665,
    2511,
    2472,
    2460,
    2489,
    2488,
    2501,
    2486,
    2507,
    2536,
    2891,
    2492,
    2499,
    2495,
    2756,
    2515,
    2486,
    2491,
    2496,
    2511,
    2525,
    2524,
    2515,
    2543,
    2620,
    2603,
    2497,
    2488,
    2492,
    2537,
    2569,
    2572,
    2493,
    2501,
    2551,
    2553,
    2805,
    2543,
    2528,
    2520,
    2560,
    2549,
    2489,
    2519,
    2512,
    2525,
    2518,
    2545,
    2500,
    2513,
    2525,
    2545,
    2574,
    2504,
    2751,
    2599,
    2675,
    2500,
    2465,
    2477
   ],
   "WindowCenter": [
    746.0,
    744.0,
    741.0,
    741.0,
    743.0,
    743.0,
    742.0,
    741.0,
    742.0,
    742.0,
    742.0,
    742.0,
    742.0,
    741.0,
    742.0,
    742.0,
    742.0,
    742.0,
    742.0,
    742.0,
    745.0,
    742.0,
    746.0,
    742.0,
    742.0,
    743.0,
    743.0,
    742.0,
    742.0,
    741.0,
    741.0,
    741.0,
    741.0,
    741.0,
    742.0,
    742.0,
    742.0,
    742.0,
    742.0,
    743.0,
    743.0,
    743.0,
    742.0,
    742.0,
    742.0,
    741.0,
    741.0,
    742.0,
    742.0,
    742.0,
    743.0,
    743.0,
    743.0,
    742.0,
    744.0,
    742.0,
    742.0,
    742.0,
    744.0,
    743.0,
    743.0,
    742.0,
    743.0,
    742.0,
    742.0,
    741.0,
    741.0,
    741.0,
    741.0,
    742.0,
    741.0,
    740.0,
    742.0,
    742.0,
    742.0,
    741.0,
    741.0,
    742.0,
    743.0,
    743.0,
    743.0,
    742.0,
    743.0,
    742.0,
    745.0,
    743.0,
    742.0,
    741.0,
    743.0,
    742.0,
    742.0,
    740.0,
    740.0,
    741.0,
    741.0,
    742.0,
    742.0,
    742.0,
    742.0,
    741.0,
    743.0,
    742.0,
    741.0,
    741.0,
    744.0,
    742.0,
    745.0,
    743.0,
    745.0,
