{
  "AcquisitionMatrixPE": 100,
  "AcquisitionNumber": 1,
  "AcquisitionTime": "16:31:20.970000",
  "BandwidthPerPixelPhaseEncode": 18.519,
  "BaseResolution": 100,
  "BodyPartExamined": "BRAIN",
  "ConsistencyInfo": "N4_VE11C_LATEST_20160120",
  "ConversionSoftware": "dcm2niix",
  "ConversionSoftwareVersion": "v1.0.20180622 GCC4.9.2",
  "DerivedVendorReportedEchoSpacing": 0.000539986,
  "DeviceSerialNumber": "166078",
  "DwellTime": 2.1e-06,
  "EchoTime": 0.034,
  "EchoTrainLength": 100,
  "EffectiveEchoSpacing": 0.000539986,
  "FlipAngle": 90,
  "ImageOrientationPatientDICOM": [1, -6.18849e-05, -0.000551236, 5.85096e-08, 0.993769, -0.11146],
  "ImageType": [
    "ORIGINAL",
    "PRIMARY",
    "M",
    "ND",
    "MOSAIC"
],
  "InPlanePhaseEncodingDirectionDICOM": "COL",
  "InstitutionAddress": "Street_StreetNo_Bei_Jing_District_CN_ZIP",
  "InstitutionName": "BeiJing_Normal_University",
  "InstitutionalDepartmentName": "Department",
  "MRAcquisitionType": "2D",
  "MagneticFieldStrength": 3,
  "Manufacturer": "Siemens",
  "ManufacturersModelName": "Prisma",
  "Modality": "MR",
  "MultibandAccelerationFactor": 3,
  "PartialFourier": 1,
  "PatientPosition": "HFS",
  "PercentPhaseFOV": 100,
  "PhaseEncodingDirection": "j-",
  "PhaseEncodingSteps": 100,
  "PhaseResolution": 1,
  "PixelBandwidth": 2380,
  "ProcedureStepDescription": "BNU_P2018_64CH_Zhen.ZongLei",
  "ProtocolName": "bold_100x100_s3_2x2x2_static_256",
  "PulseSequenceDetails": "%SiemensSeq%_ep2d_bold",
  "ReceiveCoilActiveElements": "HC1-7;NC1",
  "ReceiveCoilName": "HeadNeck_64",
  "ReconMatrixPE": 100,
  "RepetitionTime": 2,
  "SAR": 0.0732644,
  "ScanOptions": "FS",
  "ScanningSequence": "EP",
  "SequenceName": "_epfid2d1_100",
  "SequenceVariant": "SK",
  "SeriesDescription": "bold_100x100_s3_2x2x2_static_256",
  "SeriesNumber": 14,
  "ShimSetting": [-5457, -11500, -1274, 523, 19, -181, -86, 58],
  "SliceThickness": 2,
  "SliceTiming": [1.485, 0, 0.99, 0.0825, 1.0725, 0.165, 1.155, 0.2475, 1.2375, 0.33, 1.32, 0.4125, 1.4025, 0.5775, 1.5675, 0.66, 1.65, 0.7425, 1.7325, 0.825, 1.815, 0.9075, 1.8975, 0.495, 1.485, 0, 0.99, 0.0825, 1.0725, 0.165, 1.155, 0.2475, 1.2375, 0.33, 1.32, 0.4125, 1.4025, 0.5775, 1.5675, 0.66, 1.65, 0.7425, 1.7325, 0.825, 1.815, 0.9075, 1.8975, 0.495, 1.485, 0, 0.99, 0.0825, 1.0725, 0.165, 1.155, 0.2475, 1.2375, 0.33, 1.32, 0.4125, 1.4025, 0.5775, 1.5675, 0.66, 1.65, 0.7425, 1.7325, 0.825, 1.815, 0.9075, 1.8975, 0.495],
  "SoftwareVersions": "syngo_MR_E11",
  "SpacingBetweenSlices": 2,
  "StationName": "AWP166078",
  "TaskName": "naturalvision",
  "TotalReadoutTime": 0.0534586,
  "TxRefAmp": 207.787,
  "dcmmeta_affine": [
    [-1.9999996423721313, 1.1701917657092054e-07, -0.0011093973880633712, 99.79715728759766],
    [0.00012376985978335142, 1.9875378608703613, -0.222920224070549, -87.49750518798828],
    [-0.0011024716077372432, 0.2229202538728714, 1.9875375032424927, -75.5267562866211],
    [0.0, 0.0, 0.0, 1.0]
],
  "dcmmeta_reorient_transform": [
    [0.0, -1.0, 0.0, 99.0],
    [1.0, 0.0, 0.0, 0.0],
    [0.0, 0.0, 1.0, 0.0],
    [0.0, 0.0, 0.0, 1.0]
],
  "dcmmeta_shape": [100, 100, 72, 256],
  "dcmmeta_slice_dim": 2,
  "dcmmeta_version": 0.6,
  "global": {
    "const": {
      "AcquisitionMatrix": [100, 0, 0, 100],
      "AngioFlag": "N",
      "BitsAllocated": 16,
      "BitsStored": 12,
      "BodyPartExamined": "BRAIN",
      "Columns": 900,
      "EchoNumbers": 1,
      "EchoTime": 34.0,
      "EchoTrainLength": 100,
      "FlipAngle": 90.0,
      "HighBit": 11,
      "ImageOrientationPatient": [0.99999984615468, -6.18849293e-05, -0.0005512357769, 5.8509588e-08, 0.99376890693687, -0.1114601256302],
      "ImagePositionPatient": [-899.79709088675, -904.23435962465, 36.151434677948],
      "ImageType": [
        "ORIGINAL",
        "PRIMARY",
        "M",
        "ND",
        "MOSAIC"
],
      "ImagedNucleus": "1H",
      "ImagingFrequency": 123.257775,
      "InPlanePhaseEncodingDirection": "COL",
      "MRAcquisitionType": "2D",
      "MagneticFieldStrength": 3.0,
      "Manufacturer": "SIEMENS",
      "ManufacturerModelName": "Prisma",
      "Modality": "MR",
      "NumberOfAverages": 1.0,
      "NumberOfPhaseEncodingSteps": 100,
      "PercentPhaseFieldOfView": 100.0,
      "PercentSampling": 100.0,
      "PerformedProcedureStepStartTime": "145836.729000",
      "PhotometricInterpretation": "MONOCHROME2",
      "PixelBandwidth": 2380.0,
      "PixelRepresentation": 0,
      "PixelSpacing": [2.0, 2.0],
      "ProtocolName": "bold_100x100_s3_2x2x2_static_256",
      "RepetitionTime": 2000.0,
      "Rows": 900,
      "SAR": 0.0732644290803,
      "SamplesPerPixel": 1,
      "ScanOptions": "FS",
      "ScanningSequence": "EP",
      "SequenceName": "*epfid2d1_100",
      "SequenceVariant": "SK",
      "SeriesDescription": "bold_100x100_s3_2x2x2_static_256",
      "SeriesNumber": 14,
      "SeriesTime": "163123.280000",
      "SliceLocation": -65.359009847354,
      "SliceThickness": 2.0,
      "SmallestImagePixelValue": 0,
      "SoftwareVersions": "syngo MR E11",
      "SpacingBetweenSlices": 2.0000000375584,
      "SpecificCharacterSet": "ISO_IR 100",
      "StudyID": "1",
      "StudyTime": "145836.682000",
      "TransmitCoilName": "Body",
      "VariableFlipAngleFlag": "N",
      "WindowCenterWidthExplanation": "Algo1",
      "dBdt": 0.0},
    "slices": {}
  },
  "time": {
    "samples": {
      "AcquisitionNumber": [1, 2, 3, 4, 5, 6, 7, 8, 9, 10, 11, 12, 13, 14, 15, 16, 17, 18, 19, 20, 21, 22, 23, 24, 25, 26, 27, 28, 29, 30, 31, 32, 33, 34, 35, 36, 37, 38, 39, 40, 41, 42, 43, 44, 45, 46, 47, 48, 49, 50, 51, 52, 53, 54, 55, 56, 57, 58, 59, 60, 61, 62, 63, 64, 65, 66, 67, 68, 69, 70, 71, 72, 73, 74, 75, 76, 77, 78, 79, 80, 81, 82, 83, 84, 85, 86, 87, 88, 89, 90, 91, 92, 93, 94, 95, 96, 97, 98, 99, 100, 101, 102, 103, 104, 105, 106, 107, 108, 109, 110, 111, 112, 113, 114, 115, 116, 117, 118, 119, 120, 121, 122, 123, 124, 125, 126, 127, 128, 129, 130, 131, 132, 133, 134, 135, 136, 137, 138, 139, 140, 141, 142, 143, 144, 145, 146, 147, 148, 149, 150, 151, 152, 153, 154, 155, 156, 157, 158, 159, 160, 161, 162, 163, 164, 165, 166, 167, 168, 169, 170, 171, 172, 173, 174, 175, 176, 177, 178, 179, 180, 181, 182, 183, 184, 185, 186, 187, 188, 189, 190, 191, 192, 193, 194, 195, 196, 197, 198, 199, 200, 201, 202, 203, 204, 205, 206, 207, 208, 209, 210, 211, 212, 213, 214, 215, 216, 217, 218, 219, 220, 221, 222, 223, 224, 225, 226, 227, 228, 229, 230, 231, 232, 233, 234, 235, 236, 237, 238, 239, 240, 241, 242, 243, 244, 245, 246, 247, 248, 249, 250, 251, 252, 253, 254, 255, 256],
      "AcquisitionTime": ["163120.970000", "163122.970000", "163124.970000", "163126.970000", "163128.970000", "163130.970000", "163132.970000", "163134.970000", "163136.970000", "163138.970000", "163140.970000", "163142.970000", "163144.970000", "163146.970000", "163148.970000", "163150.970000", "163152.970000", "163154.970000", "163156.970000", "163158.970000", "163200.970000", "163202.970000", "163204.970000", "163206.970000", "163208.970000", "163210.970000", "163212.970000", "163214.970000", "163216.970000", "163218.970000", "163220.970000", "163222.970000", "163224.970000", "163226.970000", "163228.970000", "163230.970000", "163232.970000", "163234.970000", "163236.970000", "163238.970000", "163240.970000", "163242.970000", "163244.970000", "163246.970000", "163248.970000", "163250.970000", "163252.970000", "163254.970000", "163256.970000", "163258.970000", "163300.970000", "163302.970000", "163304.970000", "163306.970000", "163308.970000", "163310.970000", "163312.970000", "163314.970000", "163316.970000", "163318.970000", "163320.970000", "163322.970000", "163324.970000", "163326.970000", "163328.970000", "163330.970000", "163332.970000", "163334.970000", "163336.970000", "163338.970000", "163340.970000", "163342.970000", "163344.970000", "163346.970000", "163348.970000", "163350.970000", "163352.970000", "163354.970000", "163356.970000", "163358.970000", "163400.970000", "163402.970000", "163404.970000", "163406.970000", "163408.970000", "163410.970000", "163412.970000", "163414.970000", "163416.970000", "163418.970000", "163420.970000", "163422.970000", "163424.970000", "163426.970000", "163428.970000", "163430.970000", "163432.970000", "163434.970000", "163436.970000", "163438.970000", "163440.970000", "163442.970000", "163444.970000", "163446.970000", "163448.970000", "163450.970000", "163452.970000", "163454.970000", "163456.970000", "163458.970000", "163500.970000", "163502.970000", "163504.970000", "163506.970000", "163508.970000", "163510.970000", "163512.970000", "163514.970000", "163516.970000", "163518.970000", "163520.970000", "163522.970000", "163524.970000", "163526.970000", "163528.970000", "163530.970000", "163532.970000", "163534.970000", "163536.970000", "163538.970000", "163540.970000", "163542.970000", "163544.970000", "163546.970000", "163548.970000", "163550.970000", "163552.970000", "163554.970000", "163556.970000", "163558.970000", "163600.970000", "163602.970000", "163604.970000", "163606.970000", "163608.970000", "163610.970000", "163612.970000", "163614.970000", "163616.970000", "163618.970000", "163620.970000", "163622.970000", "163624.970000", "163626.970000", "163628.970000", "163630.970000", "163632.970000", "163634.970000", "163636.970000", "163638.970000", "163640.970000", "163642.970000", "163644.970000", "163646.970000", "163648.970000", "163650.970000", "163652.970000", "163654.970000", "163656.970000", "163658.970000", "163700.970000", "163702.970000", "163704.970000", "163706.970000", "163708.970000", "163710.970000", "163712.970000", "163714.970000", "163716.970000", "163718.970000", "163720.970000", "163722.970000", "163724.970000", "163726.970000", "163728.970000", "163730.970000", "163732.970000", "163734.970000", "163736.970000", "163738.970000", "163740.970000", "163742.970000", "163744.970000", "163746.970000", "163748.970000", "163750.970000", "163752.970000", "163754.970000", "163756.970000", "163758.970000", "163800.970000", "163802.970000", "163804.970000", "163806.970000", "163808.970000", "163810.970000", "163812.970000", "163814.970000", "163816.970000", "163818.970000", "163820.970000", "163822.970000", "163824.970000", "163826.970000", "163828.970000", "163830.970000", "163832.970000", "163834.970000", "163836.970000", "163838.970000", "163840.970000", "163842.970000", "163844.970000", "163846.970000", "163848.970000", "163850.970000", "163852.970000", "163854.970000", "163856.970000", "163858.970000", "163900.970000", "163902.970000", "163904.970000", "163906.970000", "163908.970000", "163910.970000", "163912.970000", "163914.970000", "163916.970000", "163918.970000", "163920.970000", "163922.970000", "163924.970000", "163926.970000", "163928.970000", "163930.970000", "163932.970000", "163934.970000", "163936.970000", "163938.970000", "163940.970000", "163942.970000", "163944.970000", "163946.970000", "163948.970000", "163950.970000"],
      "ContentTime": ["163123.284000", "163124.780000", "163126.780000", "163128.780000", "163130.779000", "163132.779000", "163134.780000", "163136.781000", "163138.779000", "163140.779000", "163142.779000", "163144.780000", "163146.780000", "163148.779000", "163150.781000", "163152.780000", "163154.781000", "163156.779000", "163158.779000", "163200.779000", "163202.780000", "163204.779000", "163207.280000", "163208.781000", "163210.780000", "163212.780000", "163214.779000", "163216.779000", "163218.780000", "163220.780000", "163222.779000", "163224.779000", "163226.781000", "163228.781000", "163230.780000", "163232.779000", "163235.279000", "163236.780000", "163238.779000", "163240.779000", "163242.780000", "163244.780000", "163246.780000", "163249.280000", "163250.780000", "163252.780000", "163255.280000", "163256.780000", "163258.779000", "163300.780000", "163302.781000", "163304.781000", "163306.779000", "163308.780000", "163310.779000", "163312.780000", "163315.279000", "163316.780000", "163318.781000", "163320.780000", "163322.780000", "163324.779000", "163326.780000", "163328.779000", "163330.780000", "163332.779000", "163334.780000", "163336.781000", "163338.780000", "163340.780000", "163342.780000", "163344.779000", "163346.779000", "163349.280000", "163350.780000", "163352.780000", "163354.781000", "163356.780000", "163358.779000", "163400.779000", "163402.780000", "163404.780000", "163406.780000", "163409.280000", "163410.781000", "163412.780000", "163414.781000", "163416.780000", "163418.779000", "163420.779000", "163422.780000", "163424.779000", "163426.780000", "163428.780000", "163430.781000", "163432.781000", "163434.779000", "163436.780000", "163438.779000", "163440.780000", "163442.779000", "163444.779000", "163446.781000", "163448.780000", "163450.779000", "163452.779000", "163454.780000", "163456.780000", "163458.780000", "163500.779000", "163502.780000", "163504.781000", "163506.781000", "163509.280000", "163510.780000", "163512.780000", "163515.280000", "163516.779000", "163518.780000", "163521.281000", "163522.780000", "163524.781000", "163527.279000", "163528.780000", "163530.780000", "163533.280000", "163534.780000", "163536.779000", "163539.280000", "163540.780000", "163542.781000", "163545.280000", "163547.280000", "163548.780000", "163550.779000", "163552.779000", "163555.280000", "163556.781000", "163558.780000", "163600.780000", "163603.279000", "163605.280000", "163607.280000", "163608.780000", "163611.280000", "163612.779000", "163614.781000", "163616.781000", "163618.780000", "163621.280000", "163622.780000", "163624.780000", "163626.780000", "163628.779000", "163630.781000", "163632.781000", "163634.781000", "163636.780000", "163639.280000", "163640.780000", "163642.779000", "163644.780000", "163646.780000", "163648.780000", "163650.780000", "163652.780000", "163655.280000", "163656.779000", "163658.779000", "163700.780000", "163702.779000", "163705.280000", "163706.781000", "163708.781000", "163710.780000", "163712.780000", "163714.779000", "163716.779000", "163718.780000", "163721.280000", "163722.780000", "163724.780000", "163726.781000", "163728.780000", "163730.779000", "163732.780000", "163734.780000", "163737.280000", "163739.280000", "163740.781000", "163742.780000", "163744.781000", "163747.280000", "163749.279000", "163750.780000", "163752.779000", "163754.779000", "163756.779000", "163758.781000", "163800.780000", "163802.781000", "163804.779000", "163806.780000", "163808.779000", "163810.779000", "163812.780000", "163814.779000", "163817.281000", "163818.781000", "163820.780000", "163822.780000", "163824.779000", "163826.780000", "163828.780000", "163830.779000", "163832.781000", "163834.780000", "163836.780000", "163839.280000", "163840.780000", "163843.280000", "163844.779000", "163846.779000", "163848.780000", "163850.781000", "163852.780000", "163854.781000", "163856.779000", "163858.779000", "163900.780000", "163902.780000", "163904.791000", "163906.779000", "163908.781000", "163910.781000", "163912.780000", "163914.779000", "163916.779000", "163919.280000", "163921.280000", "163922.780000", "163924.780000", "163926.781000", "163928.781000", "163930.780000", "163932.780000", "163934.780000", "163936.780000", "163939.280000", "163940.779000", "163942.781000", "163944.781000", "163946.781000", "163948.780000", "163950.780000", "163952.691000"],
      "InstanceCreationTime": ["163123.284000", "163124.780000", "163126.780000", "163128.780000", "163130.779000", "163132.779000", "163134.780000", "163136.781000", "163138.779000", "163140.779000", "163142.779000", "163144.780000", "163146.780000", "163148.779000", "163150.781000", "163152.780000", "163154.781000", "163156.779000", "163158.779000", "163200.779000", "163202.780000", "163204.779000", "163207.280000", "163208.781000", "163210.780000", "163212.780000", "163214.779000", "163216.779000", "163218.780000", "163220.780000", "163222.779000", "163224.779000", "163226.781000", "163228.781000", "163230.780000", "163232.779000", "163235.279000", "163236.780000", "163238.779000", "163240.779000", "163242.780000", "163244.780000", "163246.780000", "163249.280000", "163250.780000", "163252.780000", "163255.280000", "163256.780000", "163258.779000", "163300.780000", "163302.781000", "163304.781000", "163306.779000", "163308.780000", "163310.779000", "163312.780000", "163315.279000", "163316.780000", "163318.781000", "163320.780000", "163322.780000", "163324.779000", "163326.780000", "163328.779000", "163330.780000", "163332.779000", "163334.780000", "163336.781000", "163338.780000", "163340.780000", "163342.780000", "163344.779000", "163346.779000", "163349.280000", "163350.780000", "163352.780000", "163354.781000", "163356.780000", "163358.779000", "163400.779000", "163402.780000", "163404.780000", "163406.780000", "163409.280000", "163410.781000", "163412.780000", "163414.781000", "163416.780000", "163418.779000", "163420.779000", "163422.780000", "163424.779000", "163426.780000", "163428.780000", "163430.781000", "163432.781000", "163434.779000", "163436.780000", "163438.779000", "163440.780000", "163442.779000", "163444.779000", "163446.781000", "163448.780000", "163450.779000", "163452.779000", "163454.780000", "163456.780000", "163458.780000", "163500.779000", "163502.780000", "163504.781000", "163506.781000", "163509.280000", "163510.780000", "163512.780000", "163515.280000", "163516.779000", "163518.780000", "163521.281000", "163522.780000", "163524.781000", "163527.279000", "163528.780000", "163530.780000", "163533.280000", "163534.780000", "163536.779000", "163539.280000", "163540.780000", "163542.781000", "163545.280000", "163547.280000", "163548.780000", "163550.779000", "163552.779000", "163555.280000", "163556.781000", "163558.780000", "163600.780000", "163603.279000", "163605.280000", "163607.280000", "163608.780000", "163611.280000", "163612.779000", "163614.781000", "163616.781000", "163618.780000", "163621.280000", "163622.780000", "163624.780000", "163626.780000", "163628.779000", "163630.781000", "163632.781000", "163634.781000", "163636.780000", "163639.280000", "163640.780000", "163642.779000", "163644.780000", "163646.780000", "163648.780000", "163650.780000", "163652.780000", "163655.280000", "163656.779000", "163658.779000", "163700.780000", "163702.779000", "163705.280000", "163706.781000", "163708.781000", "163710.780000", "163712.780000", "163714.779000", "163716.779000", "163718.780000", "163721.280000", "163722.780000", "163724.780000", "163726.781000", "163728.780000", "163730.779000", "163732.780000", "163734.780000", "163737.280000", "163739.280000", "163740.781000", "163742.780000", "163744.781000", "163747.280000", "163749.279000", "163750.780000", "163752.779000", "163754.779000", "163756.779000", "163758.781000", "163800.780000", "163802.781000", "163804.779000", "163806.780000", "163808.779000", "163810.779000", "163812.780000", "163814.779000", "163817.281000", "163818.781000", "163820.780000", "163822.780000", "163824.779000", "163826.780000", "163828.780000", "163830.779000", "163832.781000", "163834.780000", "163836.780000", "163839.280000", "163840.780000", "163843.280000", "163844.779000", "163846.779000", "163848.780000", "163850.781000", "163852.780000", "163854.781000", "163856.779000", "163858.779000", "163900.780000", "163902.780000", "163904.791000", "163906.779000", "163908.781000", "163910.781000", "163912.780000", "163914.779000", "163916.779000", "163919.280000", "163921.280000", "163922.780000", "163924.780000", "163926.781000", "163928.781000", "163930.780000", "163932.780000", "163934.780000", "163936.780000", "163939.280000", "163940.779000", "163942.781000", "163944.781000", "163946.781000", "163948.780000", "163950.780000", "163952.691000"],
      "InstanceNumber": [1, 2, 3, 4, 5, 6, 7, 8, 9, 10, 11, 12, 13, 14, 15, 16, 17, 18, 19, 20, 21, 22, 23, 24, 25, 26, 27, 28, 29, 30, 31, 32, 33, 34, 35, 36, 37, 38, 39, 40, 41, 42, 43, 44, 45, 46, 47, 48, 49, 50, 51, 52, 53, 54, 55, 56, 57, 58, 59, 60, 61, 62, 63, 64, 65, 66, 67, 68, 69, 70, 71, 72, 73, 74, 75, 76, 77, 78, 79, 80, 81, 82, 83, 84, 85, 86, 87, 88, 89, 90, 91, 92, 93, 94, 95, 96, 97, 98, 99, 100, 101, 102, 103, 104, 105, 106, 107, 108, 109, 110, 111, 112, 113, 114, 115, 116, 117, 118, 119, 120, 121, 122, 123, 124, 125, 126, 127, 128, 129, 130, 131, 132, 133, 134, 135, 136, 137, 138, 139, 140, 141, 142, 143, 144, 145, 146, 147, 148, 149, 150, 151, 152, 153, 154, 155, 156, 157, 158, 159, 160, 161, 162, 163, 164, 165, 166, 167, 168, 169, 170, 171, 172, 173, 174, 175, 176, 177, 178, 179, 180, 181, 182, 183, 184, 185, 186, 187, 188, 189, 190, 191, 192, 193, 194, 195, 196, 197, 198, 199, 200, 201, 202, 203, 204, 205, 206, 207, 208, 209, 210, 211, 212, 213, 214, 215, 216, 217, 218, 219, 220, 221, 222, 223, 224, 225, 226, 227, 228, 229, 230, 231, 232, 233, 234, 235, 236, 237, 238, 239, 240, 241, 242, 243, 244, 245, 246, 247, 248, 249, 250, 251, 252, 253, 254, 255, 256],
      "LargestImagePixelValue": [2748, 2620, 2621, 2621, 2635, 2615, 2649, 2574, 2580, 2584, 2581, 2564, 2562, 2560, 2557, 2575, 2558, 2559, 2585, 2621, 2580, 2591, 2616, 2594, 2590, 2595, 2579, 2570, 2568, 2595, 2582, 2573, 2588, 2600, 2606, 2559, 2553, 2570, 2576, 2582, 2553, 2565, 2575, 2569, 2563, 2570, 2562, 2571, 2569, 2560, 2585, 2562, 2576, 2542, 2550, 2563, 2574, 2620, 2545, 2576, 2535, 2570, 2554, 2576, 2547, 2567, 2536, 2715, 2562, 2582, 2555, 2552, 2546, 2559, 2554, 2560, 2552, 2564, 2567, 2592, 2588, 2599, 2594, 2568, 2554, 2571, 2555, 2563, 2539, 2576, 2524, 2538, 2536, 2564, 2540, 2575, 2560, 2554, 2521, 2574, 2554, 2559, 2556, 2548, 2543, 2568, 2537, 2567, 2586, 2551, 2550, 2562, 2540, 2645, 2532, 2557, 2560, 2624, 2552, 2566, 2572, 2578, 2574, 2536, 2558, 2539, 2541, 2566, 2540, 2563, 2564, 2562, 2556, 2554, 2541, 2728, 2534, 2533, 2523, 2529, 2542, 2524, 2548, 2545, 2539, 2518, 2528, 2529, 2572, 2541, 2542, 2540, 2561, 2517, 2526, 2663, 2507, 2572, 2520, 2588, 2491, 2511, 2495, 2511, 2496, 2512, 2488, 2565, 2517, 2545, 2508, 2486, 2519, 2510, 2532, 2529, 2553, 2511, 2518, 2526, 2501, 2580, 2512, 2507, 2487, 2526, 2495, 2499, 2495, 2499, 2490, 2760, 2514, 2519, 2506, 2492, 2516, 2555, 2515, 2499, 2577, 2545, 2514, 2734, 2508, 2788, 2529, 2746, 2548, 2712, 2570, 2506, 2540, 2763, 2536, 2535, 2564, 2649, 2536, 2532, 2558, 2563, 2547, 2545, 2579, 2530, 2565, 2580, 2578, 2821, 2553, 2565, 2578, 2568, 2566, 2535, 2587, 2566, 2564, 2609, 2545, 2596, 2559, 2567, 2560, 2659, 2564, 2588, 2556, 2551, 2538, 2575, 2621, 2684, 2556, 2561],
      "WindowCenter": [748.0, 746.0, 745.0, 744.0, 744.0, 743.0, 742.0, 742.0, 744.0, 743.0, 743.0, 742.0, 743.0, 743.0, 743.0, 743.0, 743.0, 743.0, 744.0, 745.0, 743.0, 743.0, 744.0, 745.0, 744.0, 743.0, 743.0, 743.0, 744.0, 744.0, 744.0, 744.0, 744.0, 744.0, 744.0, 743.0, 743.0, 743.0, 743.0, 742.0, 742.0, 742.0, 742.0, 742.0, 741.0, 742.0, 743.0, 744.0, 744.0, 744.0, 745.0, 744.0, 744.0, 743.0, 743.0, 743.0, 742.0, 743.0, 742.0, 743.0, 741.0, 743.0, 743.0, 743.0, 743.0, 743.0, 743.0, 744.0, 743.0, 743.0, 743.0, 742.0, 743.0, 743.0, 743.0, 743.0, 743.0, 743.0, 742.0, 743.0, 743.0, 743.0, 743.0, 743.0, 743.0, 743.0, 743.0, 743.0, 743.0, 743.0, 742.0, 742.0, 741.0, 742.0, 742.0, 743.0, 743.0, 743.0, 743.0, 744.0, 743.0, 743.0, 743.0, 742.0, 742.0, 742.0, 742.0, 744.0, 744.0, 743.0, 744.0, 745.0, 744.0, 744.0, 743.0, 743.0, 743.0, 744.0, 743.0, 743.0, 743.0, 743.0, 743.0, 742.0, 743.0, 744.0, 744.0, 743.0, 741.0, 742.0, 744.0, 745.0, 743.0, 743.0, 743.0, 745.0, 743.0, 742.0, 742.0, 742.0, 742.0, 742.0, 743.0, 743.0, 742.0, 742.0, 742.0, 742.0, 742.0, 742.0, 743.0, 743.0, 742.0, 741.0, 742.0, 744.0, 741.0, 741.0, 741.0, 742.0, 741.0, 741.0, 741.0, 741.0, 741.0, 741.0, 741.0, 741.0, 740.0, 740.0, 741.0, 742.0, 742.0, 741.0, 741.0, 741.0, 741.0, 740.0, 741.0, 741.0, 741.0, 741.0, 742.0, 742.0, 742.0, 741.0, 740.0, 740.0, 740.0, 740.0, 741.0, 745.0, 742.0, 741.0, 741.0, 741.0, 742.0, 742.0, 742.0, 740.0, 740.0, 738.0, 738.0, 741.0, 738.0, 741.0, 740.0, 742.0, 740.0, 741.0, 741.0, 740.0, 741.0, 744.0, 742.0, 740.0, 740.0, 741.0, 741.0, 741.0, 740.0, 740.0, 741.0, 741.0, 740.0, 739.0, 740.0, 742.0, 742.0, 744.0, 740.0, 741.0, 741.0, 740.0, 740.0, 741.0, 741.0, 740.0, 740.0, 740.0, 740.0, 740.0, 740.0, 741.0, 740.0, 740.0, 739.0, 740.0, 740.0, 740.0, 740.0, 741.0, 742.0, 742.0, 741.0, 740.0],
      "WindowWidth": [1603.0, 1598.0, 1595.0, 1594.0, 1594.0, 1591.0, 1589.0, 1588.0, 1592.0, 1591.0, 1589.0, 1588.0, 1590.0, 1591.0, 1592.0, 1591.0, 1591.0, 1590.0, 1594.0, 1596.0, 1592.0, 1591.0, 1593.0, 1595.0, 1594.0, 1591.0, 1591.0, 1592.0, 1593.0, 1593.0, 1593.0, 1593.0, 1593.0, 1594.0, 1593.0, 1591.0, 1591.0, 1591.0, 1591.0, 1589.0, 1589.0, 1588.0, 1589.0, 1587.0, 1587.0, 1589.0, 1592.0, 1594.0, 1595.0, 1593.0, 1595.0, 1594.0, 1594.0, 1591.0, 1590.0, 1590.0, 1590.0, 1590.0, 1589.0, 1590.0, 1587.0, 1590.0, 1590.0, 1591.0, 1591.0, 1591.0, 1590.0, 1595.0, 1592.0, 1592.0, 1590.0, 1590.0, 1590.0, 1591.0, 1591.0, 1591.0, 1590.0, 1590.0, 1589.0, 1591.0, 1590.0, 1590.0, 1592.0, 1592.0, 1592.0, 1592.0, 1591.0, 1591.0, 1590.0, 1590.0, 1589.0, 1587.0, 1586.0, 1587.0, 1590.0, 1591.0, 1590.0, 1591.0, 1591.0, 1592.0, 1590.0, 1590.0, 1590.0, 1590.0, 1589.0, 1587.0, 1589.0, 1593.0, 1594.0, 1591.0, 1594.0, 1595.0, 1594.0, 1593.0, 1591.0, 1592.0, 1591.0, 1592.0, 1592.0, 1592.0, 1592.0, 1590.0, 1591.0, 1590.0, 1591.0, 1592.0, 1594.0, 1591.0, 1586.0, 1587.0, 1593.0, 1595.0, 1592.0, 1590.0, 1590.0, 1596.0, 1590.0, 1590.0, 1588.0, 1589.0, 1589.0, 1588.0, 1590.0, 1590.0, 1589.0, 1587.0, 1587.0, 1588.0, 1589.0, 1589.0, 1592.0, 1591.0, 1589.0, 1587.0, 1589.0, 1592.0, 1585.0, 1585.0, 1585.0, 1589.0, 1586.0, 1586.0, 1585.0, 1586.0, 1586.0, 1586.0, 1585.0, 1586.0, 1584.0, 1584.0, 1586.0, 1588.0, 1588.0, 1586.0, 1586.0, 1587.0, 1587.0, 1583.0, 1585.0, 1587.0, 1585.0, 1586.0, 1588.0, 1589.0, 1587.0, 1585.0, 1583.0, 1583.0, 1582.0, 1583.0, 1587.0, 1595.0, 1587.0, 1587.0, 1586.0, 1587.0, 1588.0, 1589.0, 1588.0, 1584.0, 1582.0, 1578.0, 1578.0, 1584.0, 1577.0, 1586.0, 1582.0, 1589.0, 1582.0, 1587.0, 1585.0, 1583.0, 1585.0, 1594.0, 1588.0, 1584.0, 1584.0, 1585.0, 1585.0, 1585.0, 1584.0, 1583.0, 1585.0, 1585.0, 1583.0, 1580.0, 1584.0, 1589.0, 1589.0, 1592.0, 1584.0, 1586.0, 1587.0, 1584.0, 1584.0, 1585.0, 1586.0, 1584.0, 1584.0, 1583.0, 1583.0, 1584.0, 1584.0, 1585.0, 1584.0, 1583.0, 1580.0, 1583.0, 1582.0, 1582.0, 1583.0, 1586.0, 1587.0, 1589.0, 1585.0, 1583.0]
    },
    "slices": {}
  }
}