{
 "AcquisitionMatrixPE": 100,
 "AcquisitionNumber": 1,
 "AcquisitionTime": "16:02:13.660000",
 "BandwidthPerPixelPhaseEncode": 18.519,
 "BaseResolution": 100,
 "BodyPartExamined": "BRAIN",
 "ConsistencyInfo": "N4_VE11C_LATEST_20160120",
 "ConversionSoftware": "dcm2niix",
 "ConversionSoftwareVersion": "v1.0.20180622 GCC4.9.2",
 "DerivedVendorReportedEchoSpacing": 0.000539986,
 "DeviceSerialNumber": "166078",
 "DwellTime": 2.1e-06,
 "EchoTime": 0.034,
 "EchoTrainLength": 100,
 "EffectiveEchoSpacing": 0.000539986,
 "FlipAngle": 90,
 "ImageOrientationPatientDICOM": [
  1,
  -6.18849e-05,
  -0.000551236,
  5.85096e-08,
  0.993769,
  -0.11146
 ],
 "ImageType": [
  "ORIGINAL",
  "PRIMARY",
  "M",
  "ND",
  "MOSAIC"
 ],
 "InPlanePhaseEncodingDirectionDICOM": "COL",
 "InstitutionAddress": "Street_StreetNo_Bei_Jing_District_CN_ZIP",
 "InstitutionName": "BeiJing_Normal_University",
 "InstitutionalDepartmentName": "Department",
 "MRAcquisitionType": "2D",
 "MagneticFieldStrength": 3,
 "Manufacturer": "Siemens",
 "ManufacturersModelName": "Prisma",
 "Modality": "MR",
 "MultibandAccelerationFactor": 3,
 "PartialFourier": 1,
 "PatientPosition": "HFS",
 "PercentPhaseFOV": 100,
 "PhaseEncodingDirection": "j-",
 "PhaseEncodingSteps": 100,
 "PhaseResolution": 1,
 "PixelBandwidth": 2380,
 "ProcedureStepDescription": "BNU_P2018_64CH_Zhen.ZongLei",
 "ProtocolName": "bold_100x100_s3_2x2x2_static_256",
 "PulseSequenceDetails": "%SiemensSeq%_ep2d_bold",
 "ReceiveCoilActiveElements": "HC1-7;NC1",
 "ReceiveCoilName": "HeadNeck_64",
 "ReconMatrixPE": 100,
 "RepetitionTime": 2,
 "SAR": 0.0732644,
 "ScanOptions": "FS",
 "ScanningSequence": "EP",
 "SequenceName": "_epfid2d1_100",
 "SequenceVariant": "SK",
 "SeriesDescription": "bold_100x100_s3_2x2x2_static_256",
 "SeriesNumber": 11,
 "ShimSetting": [
  -5457,
  -11500,
  -1274,
  523,
  19,
  -181,
  -86,
  58
 ],
 "SliceThickness": 2,
 "SliceTiming": [
  1.485,
  0,
  0.99,
  0.0825,
  1.0725,
  0.165,
  1.155,
  0.2475,
  1.2375,
  0.33,
  1.32,
  0.4125,
  1.4025,
  0.5775,
  1.5675,
  0.66,
  1.65,
  0.7425,
  1.7325,
  0.825,
  1.815,
  0.9075,
  1.8975,
  0.495,
  1.485,
  0,
  0.99,
  0.0825,
  1.0725,
  0.165,
  1.155,
  0.2475,
  1.2375,
  0.33,
  1.32,
  0.4125,
  1.4025,
  0.5775,
  1.5675,
  0.66,
  1.65,
  0.7425,
  1.7325,
  0.825,
  1.815,
  0.9075,
  1.8975,
  0.495,
  1.485,
  0,
  0.99,
  0.0825,
  1.0725,
  0.165,
  1.155,
  0.2475,
  1.2375,
  0.33,
  1.32,
  0.4125,
  1.4025,
  0.5775,
  1.5675,
  0.66,
  1.65,
  0.7425,
  1.7325,
  0.825,
  1.815,
  0.9075,
  1.8975,
  0.495
 ],
 "SoftwareVersions": "syngo_MR_E11",
 "SpacingBetweenSlices": 2,
 "StationName": "AWP166078",
 "TaskName": "imagenet",
 "TotalReadoutTime": 0.0534586,
 "TxRefAmp": 207.787,
 "dcmmeta_affine": [
  [
   -1.9999996423721313,
   1.1701917657092054e-07,
   -0.0011093973880633712,
   99.79715728759766
  ],
  [
   0.00012376985978335142,
   1.9875378608703613,
   -0.222920224070549,
   -87.49750518798828
  ],
  [
   -0.0011024716077372432,
   0.2229202538728714,
   1.9875375032424927,
   -75.5267562866211
  ],
  [
   0.0,
   0.0,
   0.0,
   1.0
  ]
 ],
 "dcmmeta_reorient_transform": [
  [
   0.0,
   -1.0,
   0.0,
   99.0
  ],
  [
   1.0,
   0.0,
   0.0,
   0.0
  ],
  [
   0.0,
   0.0,
   1.0,
   0.0
  ],
  [
   0.0,
   0.0,
   0.0,
   1.0
  ]
 ],
 "dcmmeta_shape": [
  100,
  100,
  72,
  256
 ],
 "dcmmeta_slice_dim": 2,
 "dcmmeta_version": 0.6,
 "global": {
  "const": {
   "AcquisitionMatrix": [
    100,
    0,
    0,
    100
   ],
   "AngioFlag": "N",
   "BitsAllocated": 16,
   "BitsStored": 12,
   "BodyPartExamined": "BRAIN",
   "Columns": 900,
   "EchoNumbers": 1,
   "EchoTime": 34.0,
   "EchoTrainLength": 100,
   "FlipAngle": 90.0,
   "HighBit": 11,
   "ImageOrientationPatient": [
    0.99999984615468,
    -6.18849293e-05,
    -0.0005512357769,
    5.8509588e-08,
    0.99376890693687,
    -0.1114601256302
   ],
   "ImagePositionPatient": [
    -899.79709088675,
    -904.23435962465,
    36.151434677948
   ],
   "ImageType": [
    "ORIGINAL",
    "PRIMARY",
    "M",
    "ND",
    "MOSAIC"
   ],
   "ImagedNucleus": "1H",
   "ImagingFrequency": 123.257772,
   "InPlanePhaseEncodingDirection": "COL",
   "MRAcquisitionType": "2D",
   "MagneticFieldStrength": 3.0,
   "Manufacturer": "SIEMENS",
   "ManufacturerModelName": "Prisma",
   "Modality": "MR",
   "NumberOfAverages": 1.0,
   "NumberOfPhaseEncodingSteps": 100,
   "PercentPhaseFieldOfView": 100.0,
   "PercentSampling": 100.0,
   "PerformedProcedureStepStartTime": "145836.729000",
   "PhotometricInterpretation": "MONOCHROME2",
   "PixelBandwidth": 2380.0,
   "PixelRepresentation": 0,
   "PixelSpacing": [
    2.0,
    2.0
   ],
   "ProtocolName": "bold_100x100_s3_2x2x2_static_256",
   "RepetitionTime": 2000.0,
   "Rows": 900,
   "SAR": 0.0732644290803,
   "SamplesPerPixel": 1,
   "ScanOptions": "FS",
   "ScanningSequence": "EP",
   "SequenceName": "*epfid2d1_100",
   "SequenceVariant": "SK",
   "SeriesDescription": "bold_100x100_s3_2x2x2_static_256",
   "SeriesNumber": 11,
   "SeriesTime": "160216.257000",
   "SliceLocation": -65.359009847354,
   "SliceThickness": 2.0,
   "SmallestImagePixelValue": 0,
   "SoftwareVersions": "syngo MR E11",
   "SpacingBetweenSlices": 2.0000000375584,
   "SpecificCharacterSet": "ISO_IR 100",
   "StudyID": "1",
   "StudyTime": "145836.682000",
   "TransmitCoilName": "Body",
   "VariableFlipAngleFlag": "N",
   "WindowCenterWidthExplanation": "Algo1",
   "dBdt": 0.0
  },
  "slices": {}
 },
 "time": {
  "samples": {
   "AcquisitionNumber": [
    1,
    2,
    3,
    4,
    5,
    6,
    7,
    8,
    9,
    10,
    11,
    12,
    13,
    14,
    15,
    16,
    17,
    18,
    19,
    20,
    21,
    22,
    23,
    24,
    25,
    26,
    27,
    28,
    29,
    30,
    31,
    32,
    33,
    34,
    35,
    36,
    37,
    38,
    39,
    40,
    41,
    42,
    43,
    44,
    45,
    46,
    47,
    48,
    49,
    50,
    51,
    52,
    53,
    54,
    55,
    56,
    57,
    58,
    59,
    60,
    61,
    62,
    63,
    64,
    65,
    66,
    67,
    68,
    69,
    70,
    71,
    72,
    73,
    74,
    75,
    76,
    77,
    78,
    79,
    80,
    81,
    82,
    83,
    84,
    85,
    86,
    87,
    88,
    89,
    90,
    91,
    92,
    93,
    94,
    95,
    96,
    97,
    98,
    99,
    100,
    101,
    102,
    103,
    104,
    105,
    106,
    107,
    108,
    109,
    110,
    111,
    112,
    113,
    114,
    115,
    116,
    117,
    118,
    119,
    120,
    121,
    122,
    123,
    124,
    125,
    126,
    127,
    128,
    129,
    130,
    131,
    132,
    133,
    134,
    135,
    136,
    137,
    138,
    139,
    140,
    141,
    142,
    143,
    144,
    145,
    146,
    147,
    148,
    149,
    150,
    151,
    152,
    153,
    154,
    155,
    156,
    157,
    158,
    159,
    160,
    161,
    162,
    163,
    164,
    165,
    166,
    167,
    168,
    169,
    170,
    171,
    172,
    173,
    174,
    175,
    176,
    177,
    178,
    179,
    180,
    181,
    182,
    183,
    184,
    185,
    186,
    187,
    188,
    189,
    190,
    191,
    192,
    193,
    194,
    195,
    196,
    197,
    198,
    199,
    200,
    201,
    202,
    203,
    204,
    205,
    206,
    207,
    208,
    209,
    210,
    211,
    212,
    213,
    214,
    215,
    216,
    217,
    218,
    219,
    220,
    221,
    222,
    223,
    224,
    225,
    226,
    227,
    228,
    229,
    230,
    231,
    232,
    233,
    234,
    235,
    236,
    237,
    238,
    239,
    240,
    241,
    242,
    243,
    244,
    245,
    246,
    247,
    248,
    249,
    250,
    251,
    252,
    253,
    254,
    255,
    256
   ],
   "AcquisitionTime": [
    "160213.660000",
    "160215.660000",
    "160217.660000",
    "160219.660000",
    "160221.660000",
    "160223.660000",
    "160225.660000",
    "160227.660000",
    "160229.660000",
    "160231.660000",
    "160233.660000",
    "160235.660000",
    "160237.660000",
    "160239.660000",
    "160241.660000",
    "160243.660000",
    "160245.660000",
    "160247.660000",
    "160249.660000",
    "160251.660000",
    "160253.660000",
    "160255.660000",
    "160257.660000",
    "160259.660000",
    "160301.660000",
    "160303.660000",
    "160305.660000",
    "160307.660000",
    "160309.660000",
    "160311.660000",
    "160313.660000",
    "160315.660000",
    "160317.660000",
    "160319.660000",
    "160321.660000",
    "160323.660000",
    "160325.660000",
    "160327.660000",
    "160329.660000",
    "160331.660000",
    "160333.660000",
    "160335.660000",
    "160337.660000",
    "160339.660000",
    "160341.660000",
    "160343.660000",
    "160345.660000",
    "160347.660000",
    "160349.660000",
    "160351.660000",
    "160353.660000",
    "160355.660000",
    "160357.660000",
    "160359.660000",
    "160401.660000",
    "160403.660000",
    "160405.660000",
    "160407.660000",
    "160409.660000",
    "160411.660000",
    "160413.660000",
    "160415.660000",
    "160417.660000",
    "160419.660000",
    "160421.660000",
    "160423.660000",
    "160425.660000",
    "160427.660000",
    "160429.660000",
    "160431.660000",
    "160433.660000",
    "160435.660000",
    "160437.660000",
    "160439.660000",
    "160441.660000",
    "160443.660000",
    "160445.660000",
    "160447.660000",
    "160449.660000",
    "160451.660000",
    "160453.660000",
    "160455.660000",
    "160457.660000",
    "160459.660000",
    "160501.660000",
    "160503.660000",
    "160505.660000",
    "160507.660000",
    "160509.660000",
    "160511.660000",
    "160513.660000",
    "160515.660000",
    "160517.660000",
    "160519.660000",
    "160521.660000",
    "160523.660000",
    "160525.660000",
    "160527.660000",
    "160529.660000",
    "160531.660000",
    "160533.660000",
    "160535.660000",
    "160537.660000",
    "160539.660000",
    "160541.660000",
    "160543.660000",
    "160545.660000",
    "160547.660000",
    "160549.660000",
    "160551.660000",
    "160553.660000",
    "160555.660000",
    "160557.660000",
    "160559.660000",
    "160601.660000",
    "160603.660000",
    "160605.660000",
    "160607.660000",
    "160609.660000",
    "160611.660000",
    "160613.660000",
    "160615.660000",
    "160617.660000",
    "160619.660000",
    "160621.660000",
    "160623.660000",
    "160625.660000",
    "160627.660000",
    "160629.660000",
    "160631.660000",
    "160633.660000",
    "160635.660000",
    "160637.660000",
    "160639.660000",
    "160641.660000",
    "160643.660000",
    "160645.660000",
    "160647.660000",
    "160649.660000",
    "160651.660000",
    "160653.660000",
    "160655.660000",
    "160657.660000",
    "160659.660000",
    "160701.660000",
    "160703.660000",
    "160705.660000",
    "160707.660000",
    "160709.660000",
    "160711.660000",
    "160713.660000",
    "160715.660000",
    "160717.660000",
    "160719.660000",
    "160721.660000",
    "160723.660000",
    "160725.660000",
    "160727.660000",
    "160729.660000",
    "160731.660000",
    "160733.660000",
    "160735.660000",
    "160737.660000",
    "160739.660000",
    "160741.660000",
    "160743.660000",
    "160745.660000",
    "160747.660000",
    "160749.660000",
    "160751.660000",
    "160753.660000",
    "160755.660000",
    "160757.660000",
    "160759.660000",
    "160801.660000",
    "160803.660000",
    "160805.660000",
    "160807.660000",
    "160809.660000",
    "160811.660000",
    "160813.660000",
    "160815.660000",
    "160817.660000",
    "160819.660000",
    "160821.660000",
    "160823.660000",
    "160825.660000",
    "160827.660000",
    "160829.660000",
    "160831.660000",
    "160833.660000",
    "160835.660000",
    "160837.660000",
    "160839.660000",
    "160841.660000",
    "160843.660000",
    "160845.660000",
    "160847.660000",
    "160849.660000",
    "160851.660000",
    "160853.660000",
    "160855.660000",
    "160857.660000",
    "160859.660000",
    "160901.660000",
    "160903.660000",
    "160905.660000",
    "160907.660000",
    "160909.660000",
    "160911.660000",
    "160913.660000",
    "160915.660000",
    "160917.660000",
    "160919.660000",
    "160921.660000",
    "160923.660000",
    "160925.660000",
    "160927.660000",
    "160929.660000",
    "160931.660000",
    "160933.660000",
    "160935.660000",
    "160937.660000",
    "160939.660000",
    "160941.660000",
    "160943.660000",
    "160945.660000",
    "160947.660000",
    "160949.660000",
    "160951.660000",
    "160953.660000",
    "160955.660000",
    "160957.660000",
    "160959.660000",
    "161001.660000",
    "161003.660000",
    "161005.660000",
    "161007.660000",
    "161009.660000",
    "161011.660000",
    "161013.660000",
    "161015.660000",
    "161017.660000",
    "161019.660000",
    "161021.660000",
    "161023.660000",
    "161025.660000",
    "161027.660000",
    "161029.660000",
    "161031.660000",
    "161033.660000",
    "161035.660000",
    "161037.660000",
    "161039.660000",
    "161041.660000",
    "161043.660000"
   ],
   "ContentTime": [
    "160216.260000",
    "160217.743000",
    "160219.744000",
    "160221.742000",
    "160223.743000",
    "160225.743000",
    "160227.744000",
    "160229.744000",
    "160231.743000",
    "160233.744000",
    "160235.743000",
    "160237.743000",
    "160239.743000",
    "160241.743000",
    "160243.743000",
    "160245.743000",
    "160247.743000",
    "160249.743000",
    "160251.744000",
    "160253.744000",
    "160255.743000",
    "160257.742000",
    "160259.744000",
    "160301.744000",
    "160303.743000",
    "160305.744000",
    "160307.744000",
    "160309.743000",
    "160311.743000",
    "160313.743000",
    "160315.743000",
    "160317.743000",
    "160319.744000",
    "160321.744000",
    "160323.744000",
    "160325.744000",
    "160327.744000",
    "160329.743000",
    "160331.742000",
    "160333.743000",
    "160335.743000",
    "160337.744000",
    "160339.744000",
    "160341.743000",
    "160343.744000",
    "160345.744000",
    "160347.743000",
    "160349.742000",
    "160351.743000",
    "160353.744000",
    "160355.744000",
    "160357.744000",
    "160359.743000",
    "160401.743000",
    "160403.744000",
    "160405.743000",
    "160407.742000",
    "160409.744000",
    "160411.744000",
    "160413.743000",
    "160415.743000",
    "160417.744000",
    "160419.743000",
    "160421.744000",
    "160423.742000",
    "160425.743000",
    "160427.743000",
    "160429.744000",
    "160431.744000",
    "160433.744000",
    "160435.744000",
    "160437.744000",
    "160439.743000",
    "160441.742000",
    "160443.742000",
    "160445.744000",
    "160447.744000",
    "160449.744000",
    "160451.744000",
    "160453.744000",
    "160455.744000",
    "160457.742000",
    "160459.742000",
    "160501.743000",
    "160503.743000",
    "160505.743000",
    "160507.744000",
    "160509.744000",
    "160511.744000",
    "160513.744000",
    "160515.742000",
    "160517.742000",
    "160519.743000",
    "160521.743000",
    "160523.744000",
    "160525.744000",
    "160527.744000",
    "160529.743000",
    "160531.744000",
    "160533.743000",
    "160535.743000",
    "160537.744000",
    "160539.743000",
    "160541.744000",
    "160543.744000",
    "160545.744000",
    "160547.744000",
    "160549.744000",
    "160551.743000",
    "160553.743000",
    "160555.743000",
    "160557.744000",
    "160559.744000",
    "160601.744000",
    "160603.744000",
    "160605.744000",
    "160607.743000",
    "160609.743000",
    "160611.742000",
    "160613.744000",
    "160615.743000",
    "160617.744000",
    "160619.743000",
    "160621.744000",
    "160623.744000",
    "160625.743000",
    "160627.743000",
    "160629.744000",
    "160631.743000",
    "160633.744000",
    "160635.744000",
    "160637.744000",
    "160639.744000",
    "160641.744000",
    "160643.742000",
    "160645.742000",
    "160647.743000",
    "160649.744000",
    "160651.744000",
    "160653.744000",
    "160655.744000",
    "160657.744000",
    "160659.744000",
    "160701.743000",
    "160703.743000",
    "160705.744000",
    "160707.744000",
    "160709.744000",
    "160711.744000",
    "160713.744000",
    "160715.744000",
    "160717.743000",
    "160719.743000",
    "160721.743000",
    "160723.744000",
    "160725.743000",
    "160727.744000",
    "160729.744000",
    "160731.744000",
    "160733.744000",
    "160735.742000",
    "160737.743000",
    "160739.744000",
    "160741.743000",
    "160743.744000",
    "160745.744000",
    "160747.743000",
    "160749.744000",
    "160751.744000",
    "160753.742000",
    "160755.743000",
    "160757.744000",
    "160759.744000",
    "160801.743000",
    "160803.744000",
    "160805.744000",
    "160807.753000",
    "160809.743000",
    "160811.743000",
    "160813.742000",
    "160815.744000",
    "160817.743000",
    "160819.744000",
    "160821.744000",
    "160823.744000",
    "160825.744000",
    "160827.743000",
    "160829.743000",
    "160831.743000",
    "160833.744000",
    "160835.744000",
    "160837.743000",
    "160839.744000",
    "160841.743000",
    "160843.744000",
    "160845.743000",
    "160847.743000",
    "160849.744000",
    "160851.744000",
    "160853.743000",
    "160855.743000",
    "160857.743000",
    "160859.744000",
    "160901.744000",
    "160903.743000",
    "160905.743000",
    "160907.744000",
    "160909.743000",
    "160911.743000",
    "160913.744000",
    "160915.744000",
    "160917.744000",
    "160919.744000",
    "160921.743000",
    "160923.742000",
    "160925.744000",
    "160927.743000",
    "160929.744000",
    "160931.744000",
    "160933.744000",
    "160935.744000",
    "160937.743000",
    "160939.743000",
    "160941.743000",
    "160943.744000",
    "160945.743000",
    "160947.744000",
    "160949.744000",
    "160951.744000",
    "160953.744000",
    "160955.743000",
    "160957.743000",
    "160959.744000",
    "161001.744000",
    "161003.744000",
    "161005.744000",
    "161007.744000",
    "161009.744000",
    "161011.744000",
    "161013.743000",
    "161015.743000",
    "161017.744000",
    "161019.743000",
    "161021.743000",
    "161023.744000",
    "161025.744000",
    "161027.744000",
    "161029.743000",
    "161031.743000",
    "161033.743000",
    "161035.744000",
    "161037.744000",
    "161039.743000",
    "161041.744000",
    "161043.744000",
    "161045.330000"
   ],
   "InstanceCreationTime": [
    "160216.260000",
    "160217.743000",
    "160219.744000",
    "160221.742000",
    "160223.743000",
    "160225.743000",
    "160227.744000",
    "160229.744000",
    "160231.743000",
    "160233.744000",
    "160235.743000",
    "160237.743000",
    "160239.743000",
    "160241.743000",
    "160243.743000",
    "160245.743000",
    "160247.743000",
    "160249.743000",
    "160251.744000",
    "160253.744000",
    "160255.743000",
    "160257.742000",
    "160259.744000",
    "160301.744000",
    "160303.743000",
    "160305.744000",
    "160307.744000",
    "160309.743000",
    "160311.743000",
    "160313.743000",
    "160315.743000",
    "160317.743000",
    "160319.744000",
    "160321.744000",
    "160323.744000",
    "160325.744000",
    "160327.744000",
    "160329.743000",
    "160331.742000",
    "160333.743000",
    "160335.743000",
    "160337.744000",
    "160339.744000",
    "160341.743000",
    "160343.744000",
    "160345.744000",
    "160347.743000",
    "160349.742000",
    "160351.743000",
    "160353.744000",
    "160355.744000",
    "160357.744000",
    "160359.743000",
    "160401.743000",
    "160403.744000",
    "160405.743000",
    "160407.742000",
    "160409.744000",
    "160411.744000",
    "160413.743000",
    "160415.743000",
    "160417.744000",
    "160419.743000",
    "160421.744000",
    "160423.742000",
    "160425.743000",
    "160427.743000",
    "160429.744000",
    "160431.744000",
    "160433.744000",
    "160435.744000",
    "160437.744000",
    "160439.743000",
    "160441.742000",
    "160443.742000",
    "160445.744000",
    "160447.744000",
    "160449.744000",
    "160451.744000",
    "160453.744000",
    "160455.744000",
    "160457.742000",
    "160459.742000",
    "160501.743000",
    "160503.743000",
    "160505.743000",
    "160507.744000",
    "160509.744000",
    "160511.744000",
    "160513.744000",
    "160515.742000",
    "160517.742000",
    "160519.743000",
    "160521.743000",
    "160523.744000",
    "160525.744000",
    "160527.744000",
    "160529.743000",
    "160531.744000",
    "160533.743000",
    "160535.743000",
    "160537.744000",
    "160539.743000",
    "160541.744000",
    "160543.744000",
    "160545.744000",
    "160547.744000",
    "160549.744000",
    "160551.743000",
    "160553.743000",
    "160555.743000",
    "160557.744000",
    "160559.744000",
    "160601.744000",
    "160603.744000",
    "160605.744000",
    "160607.743000",
    "160609.743000",
    "160611.742000",
    "160613.744000",
    "160615.743000",
    "160617.744000",
    "160619.743000",
    "160621.744000",
    "160623.744000",
    "160625.743000",
    "160627.743000",
    "160629.744000",
    "160631.743000",
    "160633.744000",
    "160635.744000",
    "160637.744000",
    "160639.744000",
    "160641.744000",
    "160643.742000",
    "160645.742000",
    "160647.743000",
    "160649.744000",
    "160651.744000",
    "160653.744000",
    "160655.744000",
    "160657.744000",
    "160659.744000",
    "160701.743000",
    "160703.743000",
    "160705.744000",
    "160707.744000",
    "160709.744000",
    "160711.744000",
    "160713.744000",
    "160715.744000",
    "160717.743000",
    "160719.743000",
    "160721.743000",
    "160723.744000",
    "160725.743000",
    "160727.744000",
    "160729.744000",
    "160731.744000",
    "160733.744000",
    "160735.742000",
    "160737.743000",
    "160739.744000",
    "160741.743000",
    "160743.744000",
    "160745.744000",
    "160747.743000",
    "160749.744000",
    "160751.744000",
    "160753.742000",
    "160755.743000",
    "160757.744000",
    "160759.744000",
    "160801.743000",
    "160803.744000",
    "160805.744000",
    "160807.753000",
    "160809.743000",
    "160811.743000",
    "160813.742000",
    "160815.744000",
    "160817.743000",
    "160819.744000",
    "160821.744000",
    "160823.744000",
    "160825.744000",
    "160827.743000",
    "160829.743000",
    "160831.743000",
    "160833.744000",
    "160835.744000",
    "160837.743000",
    "160839.744000",
    "160841.743000",
    "160843.744000",
    "160845.743000",
    "160847.743000",
    "160849.744000",
    "160851.744000",
    "160853.743000",
    "160855.743000",
    "160857.743000",
    "160859.744000",
    "160901.744000",
    "160903.743000",
    "160905.743000",
    "160907.744000",
    "160909.743000",
    "160911.743000",
    "160913.744000",
    "160915.744000",
    "160917.744000",
    "160919.744000",
    "160921.743000",
    "160923.742000",
    "160925.744000",
    "160927.743000",
    "160929.744000",
    "160931.744000",
    "160933.744000",
    "160935.744000",
    "160937.743000",
    "160939.743000",
    "160941.743000",
    "160943.744000",
    "160945.743000",
    "160947.744000",
    "160949.744000",
    "160951.744000",
    "160953.744000",
    "160955.743000",
    "160957.743000",
    "160959.744000",
    "161001.744000",
    "161003.744000",
    "161005.744000",
    "161007.744000",
    "161009.744000",
    "161011.744000",
    "161013.743000",
    "161015.743000",
    "161017.744000",
    "161019.743000",
    "161021.743000",
    "161023.744000",
    "161025.744000",
    "161027.744000",
    "161029.743000",
    "161031.743000",
    "161033.743000",
    "161035.744000",
    "161037.744000",
    "161039.743000",
    "161041.744000",
    "161043.744000",
    "161045.330000"
   ],
   "InstanceNumber": [
    1,
    2,
    3,
    4,
    5,
    6,
    7,
    8,
    9,
    10,
    11,
    12,
    13,
    14,
    15,
    16,
    17,
    18,
    19,
    20,
    21,
    22,
    23,
    24,
    25,
    26,
    27,
    28,
    29,
    30,
    31,
    32,
    33,
    34,
    35,
    36,
    37,
    38,
    39,
    40,
    41,
    42,
    43,
    44,
    45,
    46,
    47,
    48,
    49,
    50,
    51,
    52,
    53,
    54,
    55,
    56,
    57,
    58,
    59,
    60,
    61,
    62,
    63,
    64,
    65,
    66,
    67,
    68,
    69,
    70,
    71,
    72,
    73,
    74,
    75,
    76,
    77,
    78,
    79,
    80,
    81,
    82,
    83,
    84,
    85,
    86,
    87,
    88,
    89,
    90,
    91,
    92,
    93,
    94,
    95,
    96,
    97,
    98,
    99,
    100,
    101,
    102,
    103,
    104,
    105,
    106,
    107,
    108,
    109,
    110,
    111,
    112,
    113,
    114,
    115,
    116,
    117,
    118,
    119,
    120,
    121,
    122,
    123,
    124,
    125,
    126,
    127,
    128,
    129,
    130,
    131,
    132,
    133,
    134,
    135,
    136,
    137,
    138,
    139,
    140,
    141,
    142,
    143,
    144,
    145,
    146,
    147,
    148,
    149,
    150,
    151,
    152,
    153,
    154,
    155,
    156,
    157,
    158,
    159,
    160,
    161,
    162,
    163,
    164,
    165,
    166,
    167,
    168,
    169,
    170,
    171,
    172,
    173,
    174,
    175,
    176,
    177,
    178,
    179,
    180,
    181,
    182,
    183,
    184,
    185,
    186,
    187,
    188,
    189,
    190,
    191,
    192,
    193,
    194,
    195,
    196,
    197,
    198,
    199,
    200,
    201,
    202,
    203,
    204,
    205,
    206,
    207,
    208,
    209,
    210,
    211,
    212,
    213,
    214,
    215,
    216,
    217,
    218,
    219,
    220,
    221,
    222,
    223,
    224,
    225,
    226,
    227,
    228,
    229,
    230,
    231,
    232,
    233,
    234,
    235,
    236,
    237,
    238,
    239,
    240,
    241,
    242,
    243,
    244,
    245,
    246,
    247,
    248,
    249,
    250,
    251,
    252,
    253,
    254,
    255,
    256
   ],
   "LargestImagePixelValue": [
    2718,
    2641,
    2622,
    2624,
    2634,
    2634,
    2626,
    2603,
    2614,
    2607,
    2633,
    2631,
    2667,
    2644,
    2654,
    2662,
    2685,
    2673,
    2675,
    2664,
    2621,
    2620,
    2728,
    2623,
    2660,
    2659,
    2664,
    2655,
    2631,
    2610,
    2606,
    2616,
    2631,
    2645,
    2620,
    2624,
    2641,
    2614,
    2613,
    2623,
    2647,
    2644,
    2771,
    2652,
    2667,
    2680,
    2650,
    2615,
    2636,
    2671,
    2654,
    2637,
    2617,
    2611,
    2632,
    2652,
    2652,
    2619,
    2641,
    2674,
    2677,
    2667,
    2637,
    2643,
    2642,
    2654,
    2652,
    2662,
    2690,
    2895,
    2642,
    2666,
    2656,
    2667,
    2621,
    2648,
    2653,
    2639,
    2658,
    2657,
    2669,
    2666,
    2649,
    2905,
    2616,
    2624,
    2663,
    2651,
    2643,
    2638,
    2662,
    2675,
    2647,
    2678,
    2645,
    2661,
    2639,
    2606,
    2623,
    2627,
    2628,
    2673,
    2641,
    2629,
    2612,
    2615,
    2592,
    2620,
    2604,
    2586,
    2615,
    2602,
    2605,
    2591,
    2621,
    2636,
    2619,
    2607,
    2588,
    2612,
    2598,
    2597,
    2605,
    2604,
    2609,
    2621,
    2629,
    2589,
    2569,
    2607,
    2591,
    2630,
    2574,
    2791,
    2567,
    2562,
    2572,
    2547,
    2552,
    2559,
    2538,
    2642,
    2538,
    2687,
    2564,
    2542,
    2548,
    2560,
    2572,
    2552,
    2573,
    2538,
    2542,
    2528,
    2566,
    2545,
    2535,
    2585,
    2584,
    2561,
    2673,
    2556,
    2609,
    2543,
    2547,
    2564,
    2617,
    2576,
    2544,
    2553,
    2568,
    2641,
    2564,
    2548,
    2560,
    2539,
    2564,
    2555,
    2553,
    2552,
    2576,
    2575,
    2588,
    2595,
    2555,
    2573,
    2717,
    2545,
    2542,
    2532,
    2513,
    2527,
    2547,
    2557,
    2503,
    2529,
    2540,
    2613,
    2595,
    2564,
    2581,
    2568,
    2568,
    2617,
    2619,
    2589,
    2593,
    2763,
    2560,
    2557,
    2578,
    2747,
    2590,
    2581,
    2574,
    2563,
    2592,
    2606,
    2600,
    2560,
    2577,
    2558,
    2591,
    2607,
    2597,
    2574,
    2599,
    2590,
    2577,
    2584,
    2603,
    2632,
    2594,
    2580,
    2596,
    2607,
    2589,
    2708,
    2579,
    2584,
    2623,
    2583,
    2616,
    2585,
    2604,
    2592,
    2586,
    2605,
    2584,
    2610,
    2611,
    2597,
    2566,
    2600,
    2621,
    2594
   ],
   "WindowCenter": [
    745.0,
    743.0,
    744.0,
    745.0,
    745.0,
    743.0,
    743.0,
    744.0,
    745.0,
    744.0,
    743.0,
    743.0,
    744.0,
    744.0,
    744.0,
    744.0,
    744.0,
    744.0,
    744.0,
    744.0,
    743.0,
    742.0,
    744.0,
    743.0,
    744.0,
    744.0,
    744.0,
    743.0,
    743.0,
    742.0,
    742.0,
    741.0,
    742.0,
    743.0,
    743.0,
    742.0,
    742.0,
    741.0,
    742.0,
    742.0,
    742.0,
    742.0,
    745.0,
    744.0,
    744.0,
    743.0,
    743.0,
    743.0,
    743.0,
    744.0,
    743.0,
    743.0,
    743.0,
    743.0,
    743.0,
    743.0,
    743.0,
    742.0,
    743.0,
    744.0,
    744.0,
    744.0,
    743.0,
    744.0,
    744.0,
    744.0,
    744.0,
    744.0,
    744.0,
    746.0,
    743.0,
    744.0,
    743.0,
    743.0,
    743.0,
    743.0,
    744.0,
    744.0,
    744.0,
    744.0,
    744.0,
    744.0,
    744.0,
    745.0,
    743.0,
    743.0,
    743.0,
    743.0,
    742.0,
    742.0,
    743.0,
    744.0,
    743.0,
    742.0,
    742.0,
    743.0,
    745.0,
    745.0,
    744.0,
    744.0,
    744.0,
    744.0,
    744.0,
    743.0,
    742.0,
    743.0,
    743.0,
    743.0,
    743.0,
