{
 "AcquisitionMatrixPE": 100,
 "AcquisitionNumber": 1,
 "AcquisitionTime": "16:25:5.160000",
 "BandwidthPerPixelPhaseEncode": 18.519,
 "BaseResolution": 100,
 "BodyPartExamined": "BRAIN",
 "ConsistencyInfo": "N4_VE11C_LATEST_20160120",
 "ConversionSoftware": "dcm2niix",
 "ConversionSoftwareVersion": "v1.0.20180622 GCC4.9.2",
 "DerivedVendorReportedEchoSpacing": 0.000539986,
 "DeviceSerialNumber": "166078",
 "DwellTime": 2.1e-06,
 "EchoTime": 0.034,
 "EchoTrainLength": 100,
 "EffectiveEchoSpacing": 0.000539986,
 "FlipAngle": 90,
 "ImageOrientationPatientDICOM": [
  0.999888,
  -0.0109462,
  0.010219,
  0.0104712,
  0.998913,
  0.0454298
 ],
 "ImageType": [
  "ORIGINAL",
  "PRIMARY",
  "M",
  "ND",
  "MOSAIC"
 ],
 "InPlanePhaseEncodingDirectionDICOM": "COL",
 "InstitutionAddress": "Street_StreetNo_Bei_Jing_District_CN_ZIP",
 "InstitutionName": "BeiJing_Normal_University",
 "InstitutionalDepartmentName": "Department",
 "MRAcquisitionType": "2D",
 "MagneticFieldStrength": 3,
 "Manufacturer": "Siemens",
 "ManufacturersModelName": "Prisma",
 "Modality": "MR",
 "MultibandAccelerationFactor": 3,
 "PartialFourier": 1,
 "PatientPosition": "HFS",
 "PercentPhaseFOV": 100,
 "PhaseEncodingDirection": "j-",
 "PhaseEncodingSteps": 100,
 "PhaseResolution": 1,
 "PixelBandwidth": 2380,
 "ProcedureStepDescription": "BNU_P2018_64CH_Zhen.ZongLei",
 "ProtocolName": "bold_100x100_s3_2x2x2_static_256",
 "PulseSequenceDetails": "%SiemensSeq%_ep2d_bold",
 "ReceiveCoilActiveElements": "HC1-7;NC1",
 "ReceiveCoilName": "HeadNeck_64",
 "ReconMatrixPE": 100,
 "RepetitionTime": 2,
 "SAR": 0.071091,
 "ScanOptions": "FS",
 "ScanningSequence": "EP",
 "SequenceName": "_epfid2d1_100",
 "SequenceVariant": "SK",
 "SeriesDescription": "bold_100x100_s3_2x2x2_static_256",
 "SeriesNumber": 13,
 "ShimSetting": [
  -5459,
  -11492,
  -1340,
  505,
  5,
  -254,
  1,
  68
 ],
 "SliceThickness": 2,
 "SliceTiming": [
  1.4825,
  0,
  0.9875,
  0.0825,
  1.07,
  0.165,
  1.1525,
  0.2475,
  1.235,
  0.33,
  1.3175,
  0.41,
  1.4,
  0.575,
  1.565,
  0.6575,
  1.6475,
  0.74,
  1.73,
  0.8225,
  1.8125,
  0.905,
  1.895,
  0.4925,
  1.4825,
  0,
  0.9875,
  0.0825,
  1.07,
  0.165,
  1.1525,
  0.2475,
  1.235,
  0.33,
  1.3175,
  0.41,
  1.4,
  0.575,
  1.565,
  0.6575,
  1.6475,
  0.74,
  1.73,
  0.8225,
  1.8125,
  0.905,
  1.895,
  0.4925,
  1.4825,
  0,
  0.9875,
  0.0825,
  1.07,
  0.165,
  1.1525,
  0.2475,
  1.235,
  0.33,
  1.3175,
  0.41,
  1.4,
  0.575,
  1.565,
  0.6575,
  1.6475,
  0.74,
  1.73,
  0.8225,
  1.8125,
  0.905,
  1.895,
  0.4925
 ],
 "SoftwareVersions": "syngo_MR_E11",
 "SpacingBetweenSlices": 2,
 "StationName": "AWP166078",
 "TaskName": "imagenet",
 "TotalReadoutTime": 0.0534586,
 "TxRefAmp": 211.897,
 "dcmmeta_affine": [
  [
   -1.999775767326355,
   0.020942488685250282,
   0.021410301327705383,
   97.06842041015625
  ],
  [
   0.02189243584871292,
   1.997825264930725,
   0.09063538908958435,
   -87.27497863769531
  ],
  [
   0.020437955856323242,
   -0.09085959196090698,
   1.9978305101394653,
   -84.22418212890625
  ],
  [
   0.0,
   0.0,
   0.0,
   1.0
  ]
 ],
 "dcmmeta_reorient_transform": [
  [
   0.0,
   -1.0,
   0.0,
   99.0
  ],
  [
   1.0,
   0.0,
   0.0,
   0.0
  ],
  [
   0.0,
   0.0,
   1.0,
   0.0
  ],
  [
   0.0,
   0.0,
   0.0,
   1.0
  ]
 ],
 "dcmmeta_shape": [
  100,
  100,
  72,
  256
 ],
 "dcmmeta_slice_dim": 2,
 "dcmmeta_version": 0.6,
 "global": {
  "const": {
   "AcquisitionMatrix": [
    100,
    0,
    0,
    100
   ],
   "AngioFlag": "N",
   "BitsAllocated": 16,
   "BitsStored": 12,
   "BodyPartExamined": "BRAIN",
   "Columns": 900,
   "EchoNumbers": 1,
   "EchoTime": 34.0,
   "EchoTrainLength": 100,
   "FlipAngle": 90.0,
   "HighBit": 11,
   "ImageOrientationPatient": [
    0.99988787010732,
    -0.0109462182917,
    0.01021897829354,
    0.01047124398999,
    0.99891265219936,
    0.04542979556786
   ],
   "ImagePositionPatient": [
    -907.42901583322,
    -900.88287187676,
    -137.73830016178
   ],
   "ImageType": [
    "ORIGINAL",
    "PRIMARY",
    "M",
    "ND",
    "MOSAIC"
   ],
   "ImagedNucleus": "1H",
   "ImagingFrequency": 123.257809,
   "InPlanePhaseEncodingDirection": "COL",
   "MRAcquisitionType": "2D",
   "MagneticFieldStrength": 3.0,
   "Manufacturer": "SIEMENS",
   "ManufacturerModelName": "Prisma",
   "Modality": "MR",
   "NumberOfAverages": 1.0,
   "NumberOfPhaseEncodingSteps": 100,
   "PercentPhaseFieldOfView": 100.0,
   "PercentSampling": 100.0,
   "PerformedProcedureStepStartTime": "150445.485000",
   "PhotometricInterpretation": "MONOCHROME2",
   "PixelBandwidth": 2380.0,
   "PixelRepresentation": 0,
   "PixelSpacing": [
    2.0,
    2.0
   ],
   "ProtocolName": "bold_100x100_s3_2x2x2_static_256",
   "RepetitionTime": 2000.0,
   "Rows": 900,
   "SAR": 0.07109095885845,
   "SamplesPerPixel": 1,
   "ScanOptions": "FS",
   "ScanningSequence": "EP",
   "SequenceName": "*epfid2d1_100",
   "SequenceVariant": "SK",
   "SeriesDescription": "bold_100x100_s3_2x2x2_static_256",
   "SeriesNumber": 13,
   "SeriesTime": "162507.570000",
   "SliceLocation": -87.048789560308,
   "SliceThickness": 2.0,
   "SmallestImagePixelValue": 0,
   "SoftwareVersions": "syngo MR E11",
   "SpacingBetweenSlices": 1.9999999817312,
   "SpecificCharacterSet": "ISO_IR 100",
   "StudyID": "1",
   "StudyTime": "150445.397000",
   "TransmitCoilName": "Body",
   "VariableFlipAngleFlag": "N",
   "WindowCenterWidthExplanation": "Algo1",
   "dBdt": 0.0
  },
  "slices": {}
 },
 "time": {
  "samples": {
   "AcquisitionNumber": [
    1,
    2,
    3,
    4,
    5,
    6,
    7,
    8,
    9,
    10,
    11,
    12,
    13,
    14,
    15,
    16,
    17,
    18,
    19,
    20,
    21,
    22,
    23,
    24,
    25,
    26,
    27,
    28,
    29,
    30,
    31,
    32,
    33,
    34,
    35,
    36,
    37,
    38,
    39,
    40,
    41,
    42,
    43,
    44,
    45,
    46,
    47,
    48,
    49,
    50,
    51,
    52,
    53,
    54,
    55,
    56,
    57,
    58,
    59,
    60,
    61,
    62,
    63,
    64,
    65,
    66,
    67,
    68,
    69,
    70,
    71,
    72,
    73,
    74,
    75,
    76,
    77,
    78,
    79,
    80,
    81,
    82,
    83,
    84,
    85,
    86,
    87,
    88,
    89,
    90,
    91,
    92,
    93,
    94,
    95,
    96,
    97,
    98,
    99,
    100,
    101,
    102,
    103,
    104,
    105,
    106,
    107,
    108,
    109,
    110,
    111,
    112,
    113,
    114,
    115,
    116,
    117,
    118,
    119,
    120,
    121,
    122,
    123,
    124,
    125,
    126,
    127,
    128,
    129,
    130,
    131,
    132,
    133,
    134,
    135,
    136,
    137,
    138,
    139,
    140,
    141,
    142,
    143,
    144,
    145,
    146,
    147,
    148,
    149,
    150,
    151,
    152,
    153,
    154,
    155,
    156,
    157,
    158,
    159,
    160,
    161,
    162,
    163,
    164,
    165,
    166,
    167,
    168,
    169,
    170,
    171,
    172,
    173,
    174,
    175,
    176,
    177,
    178,
    179,
    180,
    181,
    182,
    183,
    184,
    185,
    186,
    187,
    188,
    189,
    190,
    191,
    192,
    193,
    194,
    195,
    196,
    197,
    198,
    199,
    200,
    201,
    202,
    203,
    204,
    205,
    206,
    207,
    208,
    209,
    210,
    211,
    212,
    213,
    214,
    215,
    216,
    217,
    218,
    219,
    220,
    221,
    222,
    223,
    224,
    225,
    226,
    227,
    228,
    229,
    230,
    231,
    232,
    233,
    234,
    235,
    236,
    237,
    238,
    239,
    240,
    241,
    242,
    243,
    244,
    245,
    246,
    247,
    248,
    249,
    250,
    251,
    252,
    253,
    254,
    255,
    256
   ],
   "AcquisitionTime": [
    "162505.160000",
    "162507.160000",
    "162509.160000",
    "162511.160000",
    "162513.160000",
    "162515.160000",
    "162517.160000",
    "162519.160000",
    "162521.160000",
    "162523.160000",
    "162525.160000",
    "162527.160000",
    "162529.160000",
    "162531.160000",
    "162533.160000",
    "162535.160000",
    "162537.160000",
    "162539.160000",
    "162541.160000",
    "162543.160000",
    "162545.160000",
    "162547.160000",
    "162549.160000",
    "162551.160000",
    "162553.160000",
    "162555.160000",
    "162557.160000",
    "162559.160000",
    "162601.160000",
    "162603.160000",
    "162605.160000",
    "162607.160000",
    "162609.160000",
    "162611.160000",
    "162613.160000",
    "162615.160000",
    "162617.160000",
    "162619.160000",
    "162621.160000",
    "162623.160000",
    "162625.160000",
    "162627.160000",
    "162629.160000",
    "162631.160000",
    "162633.160000",
    "162635.160000",
    "162637.160000",
    "162639.160000",
    "162641.160000",
    "162643.160000",
    "162645.160000",
    "162647.160000",
    "162649.160000",
    "162651.160000",
    "162653.160000",
    "162655.160000",
    "162657.160000",
    "162659.160000",
    "162701.160000",
    "162703.160000",
    "162705.160000",
    "162707.160000",
    "162709.160000",
    "162711.160000",
    "162713.160000",
    "162715.160000",
    "162717.160000",
    "162719.160000",
    "162721.160000",
    "162723.160000",
    "162725.160000",
    "162727.160000",
    "162729.160000",
    "162731.160000",
    "162733.160000",
    "162735.160000",
    "162737.160000",
    "162739.160000",
    "162741.160000",
    "162743.160000",
    "162745.160000",
    "162747.160000",
    "162749.160000",
    "162751.160000",
    "162753.160000",
    "162755.160000",
    "162757.160000",
    "162759.160000",
    "162801.160000",
    "162803.160000",
    "162805.160000",
    "162807.160000",
    "162809.160000",
    "162811.160000",
    "162813.160000",
    "162815.160000",
    "162817.160000",
    "162819.160000",
    "162821.160000",
    "162823.160000",
    "162825.160000",
    "162827.160000",
    "162829.160000",
    "162831.160000",
    "162833.160000",
    "162835.160000",
    "162837.160000",
    "162839.160000",
    "162841.160000",
    "162843.160000",
    "162845.160000",
    "162847.160000",
    "162849.160000",
    "162851.160000",
    "162853.160000",
    "162855.160000",
    "162857.160000",
    "162859.160000",
    "162901.160000",
    "162903.160000",
    "162905.160000",
    "162907.160000",
    "162909.160000",
    "162911.160000",
    "162913.160000",
    "162915.160000",
    "162917.160000",
    "162919.160000",
    "162921.160000",
    "162923.160000",
    "162925.160000",
    "162927.160000",
    "162929.160000",
    "162931.160000",
    "162933.160000",
    "162935.160000",
    "162937.160000",
    "162939.160000",
    "162941.160000",
    "162943.160000",
    "162945.160000",
    "162947.160000",
    "162949.160000",
    "162951.160000",
    "162953.160000",
    "162955.160000",
    "162957.160000",
    "162959.160000",
    "163001.160000",
    "163003.160000",
    "163005.160000",
    "163007.160000",
    "163009.160000",
    "163011.160000",
    "163013.160000",
    "163015.160000",
    "163017.160000",
    "163019.160000",
    "163021.160000",
    "163023.160000",
    "163025.160000",
    "163027.160000",
    "163029.160000",
    "163031.160000",
    "163033.160000",
    "163035.160000",
    "163037.160000",
    "163039.160000",
    "163041.160000",
    "163043.160000",
    "163045.160000",
    "163047.160000",
    "163049.160000",
    "163051.160000",
    "163053.160000",
    "163055.160000",
    "163057.160000",
    "163059.160000",
    "163101.160000",
    "163103.160000",
    "163105.160000",
    "163107.160000",
    "163109.160000",
    "163111.160000",
    "163113.160000",
    "163115.160000",
    "163117.160000",
    "163119.160000",
    "163121.160000",
    "163123.160000",
    "163125.160000",
    "163127.160000",
    "163129.160000",
    "163131.160000",
    "163133.160000",
    "163135.160000",
    "163137.160000",
    "163139.160000",
    "163141.160000",
    "163143.160000",
    "163145.160000",
    "163147.160000",
    "163149.160000",
    "163151.160000",
    "163153.160000",
    "163155.160000",
    "163157.160000",
    "163159.160000",
    "163201.160000",
    "163203.160000",
    "163205.160000",
    "163207.160000",
    "163209.160000",
    "163211.160000",
    "163213.160000",
    "163215.160000",
    "163217.160000",
    "163219.160000",
    "163221.160000",
    "163223.160000",
    "163225.160000",
    "163227.160000",
    "163229.160000",
    "163231.160000",
    "163233.160000",
    "163235.160000",
    "163237.160000",
    "163239.160000",
    "163241.160000",
    "163243.160000",
    "163245.160000",
    "163247.160000",
    "163249.160000",
    "163251.160000",
    "163253.160000",
    "163255.160000",
    "163257.160000",
    "163259.160000",
    "163301.160000",
    "163303.160000",
    "163305.160000",
    "163307.160000",
    "163309.160000",
    "163311.160000",
    "163313.160000",
    "163315.160000",
    "163317.160000",
    "163319.160000",
    "163321.160000",
    "163323.160000",
    "163325.160000",
    "163327.160000",
    "163329.160000",
    "163331.160000",
    "163333.160000",
    "163335.160000"
   ],
   "ContentTime": [
    "162507.574000",
    "162509.071000",
    "162511.070000",
    "162513.070000",
    "162515.070000",
    "162517.069000",
    "162519.069000",
    "162521.069000",
    "162523.070000",
    "162525.069000",
    "162527.071000",
    "162529.071000",
    "162531.070000",
    "162533.070000",
    "162535.070000",
    "162537.070000",
    "162539.070000",
    "162541.070000",
    "162543.069000",
    "162545.070000",
    "162547.071000",
    "162549.070000",
    "162551.070000",
    "162553.069000",
    "162555.069000",
    "162557.069000",
    "162559.070000",
    "162601.070000",
    "162603.071000",
    "162605.070000",
    "162607.069000",
    "162609.070000",
    "162611.069000",
    "162613.070000",
    "162615.069000",
    "162617.069000",
    "162619.071000",
    "162621.070000",
    "162623.069000",
    "162625.070000",
    "162627.070000",
    "162629.070000",
    "162631.069000",
    "162633.070000",
    "162635.069000",
    "162637.070000",
    "162639.070000",
    "162641.069000",
    "162643.070000",
    "162645.070000",
    "162647.069000",
    "162649.070000",
    "162651.069000",
    "162653.069000",
    "162655.070000",
    "162657.070000",
    "162659.070000",
    "162701.070000",
    "162703.070000",
    "162705.070000",
    "162707.069000",
    "162709.069000",
    "162711.071000",
    "162713.070000",
    "162715.070000",
    "162717.070000",
    "162719.070000",
    "162721.073000",
    "162723.069000",
    "162725.069000",
    "162727.070000",
    "162729.070000",
    "162731.071000",
    "162733.069000",
    "162735.069000",
    "162737.070000",
    "162739.070000",
    "162741.069000",
    "162743.070000",
    "162745.069000",
    "162747.070000",
    "162749.070000",
    "162751.069000",
    "162753.070000",
    "162755.070000",
    "162757.069000",
    "162759.070000",
    "162801.070000",
    "162803.070000",
    "162805.071000",
    "162807.070000",
    "162809.069000",
    "162811.069000",
    "162813.070000",
    "162815.069000",
    "162817.070000",
    "162819.069000",
    "162821.071000",
    "162823.071000",
    "162825.071000",
    "162827.069000",
    "162829.070000",
    "162831.070000",
    "162833.070000",
    "162835.069000",
    "162837.070000",
    "162839.071000",
    "162841.071000",
    "162843.069000",
    "162845.070000",
    "162847.069000",
    "162849.070000",
    "162851.070000",
    "162853.070000",
    "162855.069000",
    "162857.070000",
    "162859.071000",
    "162901.070000",
    "162903.069000",
    "162905.069000",
    "162907.069000",
    "162909.070000",
    "162911.070000",
    "162913.071000",
    "162915.070000",
    "162917.070000",
    "162919.069000",
    "162921.070000",
    "162923.069000",
    "162925.069000",
    "162927.070000",
    "162929.070000",
    "162931.071000",
    "162933.071000",
    "162935.070000",
    "162937.070000",
    "162939.070000",
    "162941.070000",
    "162943.070000",
    "162945.069000",
    "162947.070000",
    "162949.071000",
    "162951.070000",
    "162953.070000",
    "162955.069000",
    "162957.069000",
    "162959.069000",
    "163001.069000",
    "163003.069000",
    "163005.069000",
    "163007.073000",
    "163009.070000",
    "163011.069000",
    "163013.069000",
    "163015.069000",
    "163017.069000",
    "163019.070000",
    "163021.069000",
    "163023.071000",
    "163025.070000",
    "163027.071000",
    "163029.069000",
    "163031.069000",
    "163033.070000",
    "163035.069000",
    "163037.070000",
    "163039.070000",
    "163041.070000",
    "163043.071000",
    "163045.071000",
    "163047.070000",
    "163049.070000",
    "163051.070000",
    "163053.072000",
    "163055.070000",
    "163057.069000",
    "163059.071000",
    "163101.071000",
    "163103.070000",
    "163105.069000",
    "163107.069000",
    "163109.069000",
    "163111.069000",
    "163113.070000",
    "163115.069000",
    "163117.070000",
    "163119.071000",
    "163121.070000",
    "163123.069000",
    "163125.069000",
    "163127.070000",
    "163129.069000",
    "163131.070000",
    "163133.070000",
    "163135.071000",
    "163137.071000",
    "163139.069000",
    "163141.070000",
    "163143.070000",
    "163145.069000",
    "163147.070000",
    "163149.069000",
    "163151.071000",
    "163153.071000",
    "163155.071000",
    "163157.069000",
    "163159.069000",
    "163201.069000",
    "163203.070000",
    "163205.070000",
    "163207.070000",
    "163209.070000",
    "163211.070000",
    "163213.070000",
    "163215.070000",
    "163217.069000",
    "163219.070000",
    "163221.069000",
    "163223.069000",
    "163225.070000",
    "163227.071000",
    "163229.071000",
    "163231.069000",
    "163233.070000",
    "163235.069000",
    "163237.070000",
    "163239.070000",
    "163241.070000",
    "163243.071000",
    "163245.070000",
    "163247.071000",
    "163249.070000",
    "163251.070000",
    "163253.070000",
    "163255.069000",
    "163257.070000",
    "163259.069000",
    "163301.071000",
    "163303.071000",
    "163305.071000",
    "163307.070000",
    "163309.069000",
    "163311.070000",
    "163313.070000",
    "163315.070000",
    "163317.070000",
    "163319.070000",
    "163321.071000",
    "163323.069000",
    "163325.070000",
    "163327.070000",
    "163329.070000",
    "163331.069000",
    "163333.070000",
    "163335.070000",
    "163336.703000"
   ],
   "InstanceCreationTime": [
    "162507.574000",
    "162509.071000",
    "162511.070000",
    "162513.070000",
    "162515.070000",
    "162517.069000",
    "162519.069000",
    "162521.069000",
    "162523.070000",
    "162525.069000",
    "162527.071000",
    "162529.071000",
    "162531.070000",
    "162533.070000",
    "162535.070000",
    "162537.070000",
    "162539.070000",
    "162541.070000",
    "162543.069000",
    "162545.070000",
    "162547.071000",
    "162549.070000",
    "162551.070000",
    "162553.069000",
    "162555.069000",
    "162557.069000",
    "162559.070000",
    "162601.070000",
    "162603.071000",
    "162605.070000",
    "162607.069000",
    "162609.070000",
    "162611.069000",
    "162613.070000",
    "162615.069000",
    "162617.069000",
    "162619.071000",
    "162621.070000",
    "162623.069000",
    "162625.070000",
    "162627.070000",
    "162629.070000",
    "162631.069000",
    "162633.070000",
    "162635.069000",
    "162637.070000",
    "162639.070000",
    "162641.069000",
    "162643.070000",
    "162645.070000",
    "162647.069000",
    "162649.070000",
    "162651.069000",
    "162653.069000",
    "162655.070000",
    "162657.070000",
    "162659.070000",
    "162701.070000",
    "162703.070000",
    "162705.070000",
    "162707.069000",
    "162709.069000",
    "162711.071000",
    "162713.070000",
    "162715.070000",
    "162717.070000",
    "162719.070000",
    "162721.073000",
    "162723.069000",
    "162725.069000",
    "162727.070000",
    "162729.070000",
    "162731.071000",
    "162733.069000",
    "162735.069000",
    "162737.070000",
    "162739.070000",
    "162741.069000",
    "162743.070000",
    "162745.069000",
    "162747.070000",
    "162749.070000",
    "162751.069000",
    "162753.070000",
    "162755.070000",
    "162757.069000",
    "162759.070000",
    "162801.070000",
    "162803.070000",
    "162805.071000",
    "162807.070000",
    "162809.069000",
    "162811.069000",
    "162813.070000",
    "162815.069000",
    "162817.070000",
    "162819.069000",
    "162821.071000",
    "162823.071000",
    "162825.071000",
    "162827.069000",
    "162829.070000",
    "162831.070000",
    "162833.070000",
    "162835.069000",
    "162837.070000",
    "162839.071000",
    "162841.071000",
    "162843.069000",
    "162845.070000",
    "162847.069000",
    "162849.070000",
    "162851.070000",
    "162853.070000",
    "162855.069000",
    "162857.070000",
    "162859.071000",
    "162901.070000",
    "162903.069000",
    "162905.069000",
    "162907.069000",
    "162909.070000",
    "162911.070000",
    "162913.071000",
    "162915.070000",
    "162917.070000",
    "162919.069000",
    "162921.070000",
    "162923.069000",
    "162925.069000",
    "162927.070000",
    "162929.070000",
    "162931.071000",
    "162933.071000",
    "162935.070000",
    "162937.070000",
    "162939.070000",
    "162941.070000",
    "162943.070000",
    "162945.069000",
    "162947.070000",
    "162949.071000",
    "162951.070000",
    "162953.070000",
    "162955.069000",
    "162957.069000",
    "162959.069000",
    "163001.069000",
    "163003.069000",
    "163005.069000",
    "163007.073000",
    "163009.070000",
    "163011.069000",
    "163013.069000",
    "163015.069000",
    "163017.069000",
    "163019.070000",
    "163021.069000",
    "163023.071000",
    "163025.070000",
    "163027.071000",
    "163029.069000",
    "163031.069000",
    "163033.070000",
    "163035.069000",
    "163037.070000",
    "163039.070000",
    "163041.070000",
    "163043.071000",
    "163045.071000",
    "163047.070000",
    "163049.070000",
    "163051.070000",
    "163053.072000",
    "163055.070000",
    "163057.069000",
    "163059.071000",
    "163101.071000",
    "163103.070000",
    "163105.069000",
    "163107.069000",
    "163109.069000",
    "163111.069000",
    "163113.070000",
    "163115.069000",
    "163117.070000",
    "163119.071000",
    "163121.070000",
    "163123.069000",
    "163125.069000",
    "163127.070000",
    "163129.069000",
    "163131.070000",
    "163133.070000",
    "163135.071000",
    "163137.071000",
    "163139.069000",
    "163141.070000",
    "163143.070000",
    "163145.069000",
    "163147.070000",
    "163149.069000",
    "163151.071000",
    "163153.071000",
    "163155.071000",
    "163157.069000",
    "163159.069000",
    "163201.069000",
    "163203.070000",
    "163205.070000",
    "163207.070000",
    "163209.070000",
    "163211.070000",
    "163213.070000",
    "163215.070000",
    "163217.069000",
    "163219.070000",
    "163221.069000",
    "163223.069000",
    "163225.070000",
    "163227.071000",
    "163229.071000",
    "163231.069000",
    "163233.070000",
    "163235.069000",
    "163237.070000",
    "163239.070000",
    "163241.070000",
    "163243.071000",
    "163245.070000",
    "163247.071000",
    "163249.070000",
    "163251.070000",
    "163253.070000",
    "163255.069000",
    "163257.070000",
    "163259.069000",
    "163301.071000",
    "163303.071000",
    "163305.071000",
    "163307.070000",
    "163309.069000",
    "163311.070000",
    "163313.070000",
    "163315.070000",
    "163317.070000",
    "163319.070000",
    "163321.071000",
    "163323.069000",
    "163325.070000",
    "163327.070000",
    "163329.070000",
    "163331.069000",
    "163333.070000",
    "163335.070000",
    "163336.703000"
   ],
   "InstanceNumber": [
    1,
    2,
    3,
    4,
    5,
    6,
    7,
    8,
    9,
    10,
    11,
    12,
    13,
    14,
    15,
    16,
    17,
    18,
    19,
    20,
    21,
    22,
    23,
    24,
    25,
    26,
    27,
    28,
    29,
    30,
    31,
    32,
    33,
    34,
    35,
    36,
    37,
    38,
    39,
    40,
    41,
    42,
    43,
    44,
    45,
    46,
    47,
    48,
    49,
    50,
    51,
    52,
    53,
    54,
    55,
    56,
    57,
    58,
    59,
    60,
    61,
    62,
    63,
    64,
    65,
    66,
    67,
    68,
    69,
    70,
    71,
    72,
    73,
    74,
    75,
    76,
    77,
    78,
    79,
    80,
    81,
    82,
    83,
    84,
    85,
    86,
    87,
    88,
    89,
    90,
    91,
    92,
    93,
    94,
    95,
    96,
    97,
    98,
    99,
    100,
    101,
    102,
    103,
    104,
    105,
    106,
    107,
    108,
    109,
    110,
    111,
    112,
    113,
    114,
    115,
    116,
    117,
    118,
    119,
    120,
    121,
    122,
    123,
    124,
    125,
    126,
    127,
    128,
    129,
    130,
    131,
    132,
    133,
    134,
    135,
    136,
    137,
    138,
    139,
    140,
    141,
    142,
    143,
    144,
    145,
    146,
    147,
    148,
    149,
    150,
    151,
    152,
    153,
    154,
    155,
    156,
    157,
    158,
    159,
    160,
    161,
    162,
    163,
    164,
    165,
    166,
    167,
    168,
    169,
    170,
    171,
    172,
    173,
    174,
    175,
    176,
    177,
    178,
    179,
    180,
    181,
    182,
    183,
    184,
    185,
    186,
    187,
    188,
    189,
    190,
    191,
    192,
    193,
    194,
    195,
    196,
    197,
    198,
    199,
    200,
    201,
    202,
    203,
    204,
    205,
    206,
    207,
    208,
    209,
    210,
    211,
    212,
    213,
    214,
    215,
    216,
    217,
    218,
    219,
    220,
    221,
    222,
    223,
    224,
    225,
    226,
    227,
    228,
    229,
    230,
    231,
    232,
    233,
    234,
    235,
    236,
    237,
    238,
    239,
    240,
    241,
    242,
    243,
    244,
    245,
    246,
    247,
    248,
    249,
    250,
    251,
    252,
    253,
    254,
    255,
    256
   ],
   "LargestImagePixelValue": [
    2451,
    2372,
    2272,
    2152,
    2160,
    2218,
    2316,
    2209,
    2356,
    2282,
    2256,
    2281,
    2269,
    2293,
    2288,
    2290,
    2254,
    2730,
    2292,
    2715,
    2560,
    2685,
    2224,
    2562,
    2173,
    2481,
    2189,
    2468,
    2319,
    2283,
    2325,
    2261,
    2341,
    2328,
    2282,
    2260,
    2271,
    2311,
    2297,
    2296,
    2296,
    2309,
    2298,
    2295,
    2329,
    2274,
    2271,
    2264,
    2253,
    2419,
    2341,
    2276,
    2284,
    2242,
    2244,
    2382,
    2282,
    2254,
    2281,
    2275,
    2285,
    2304,
    2300,
    2315,
    2257,
    2336,
    2250,
    2232,
    2575,
    2314,
    2556,
    2337,
    2475,
    2329,
    2275,
    2635,
    2460,
    2360,
    2320,
    2239,
    2370,
    2297,
    2262,
    2289,
    2292,
    2307,
    2276,
    2239,
    2260,
    2285,
    2317,
    2345,
    2271,
    2489,
    2298,
    2449,
    2219,
    2349,
    2193,
    2462,
    2336,
    2308,
    2265,
    2257,
    2192,
    2253,
    2298,
    2220,
    2549,
    2321,
    2251,
    2235,
    2260,
    2338,
    2323,
    2244,
    2180,
    2257,
    2269,
    2205,
    2291,
    2616,
    2539,
    2201,
    2373,
    2195,
    2262,
    2188,
    2532,
    2190,
    2412,
    2258,
    2216,
    2250,
    2240,
    2238,
    2250,
    2271,
    2308,
    2298,
    2401,
    2292,
    2258,
    2249,
    2270,
    2297,
    2274,
    2268,
    2253,
    2338,
    2252,
    2248,
    2571,
    2300,
    2268,
    2240,
    2246,
    2254,
    2246,
    2264,
    2236,
    2281,
    2263,
    2234,
    2272,
    2258,
    2255,
    2253,
    2277,
    2357,
    2251,
    2238,
    2418,
    2277,
    2252,
    2253,
    2213,
    2863,
    2208,
    2214,
    2206,
    2428,
    2530,
    2201,
    2200,
    2182,
    2305,
    2462,
    2188,
    2209,
    2176,
    2577,
    2198,
    2245,
    2166,
    2165,
    2299,
    2277,
    2262,
    2173,
    2496,
    2297,
    2305,
    2309,
    2514,
    2300,
    2269,
    2361,
    2314,
    2531,
    2337,
    2280,
    2463,
    2244,
    2231,
    2284,
    2514,
    2239,
    2275,
    2296,
    2194,
    2156,
    2243,
    2236,
    2233,
    2186,
    2176,
    2444,
    2166,
    2517,
    2228,
    2479,
    2198,
    2419,
    2334,
    2265,
    2258,
    2168,
    2330,
    2311,
    2216,
    2367,
    2209,
    2364,
    2197,
    2423,
    2367,
    2336,
    2315,
    2283,
    2454,
    2399,
    2327,
    2354,
    2322,
    2318
   ],
   "WindowCenter": [
    718.0,
    716.0,
    714.0,
    711.0,
    711.0,
    713.0,
    715.0,
    714.0,
    717.0,
    715.0,
    715.0,
    715.0,
    714.0,
    715.0,
    715.0,
    716.0,
    715.0,
    720.0,
    714.0,
    719.0,
    717.0,
    718.0,
    714.0,
    719.0,
    714.0,
    717.0,
    713.0,
    717.0,
    715.0,
    714.0,
    714.0,
    713.0,
    715.0,
    714.0,
    714.0,
    715.0,
    715.0,
    715.0,
    714.0,
    714.0,
    715.0,
    715.0,
    715.0,
    715.0,
    714.0,
    713.0,
    714.0,
    715.0,
    715.0,
    716.0,
    715.0,
    714.0,
    714.0,
    713.0,
    713.0,
    715.0,
    714.0,
    713.0,
    714.0,
    714.0,
    714.0,
    714.0,
    714.0,
    715.0,
    714.0,
    715.0,
    713.0,
    713.0,
    717.0,
    714.0,
    718.0,
    715.0,
    717.0,
    715.0,
    715.0,
    720.0,
    718.0,
    716.0,
    715.0,
    714.0,
    716.0,
    715.0,
    714.0,
    714.0,
    715.0,
    715.0,
    715.0,
    714.0,
    714.0,
    713.0,
    714.0,
    715.0,
    714.0,
    716.0,
    714.0,
    716.0,
    714.0,
    715.0,
    713.0,
    716.0,
    715.0,
    715.0,
    715.0,
    715.0,
    714.0,
    714.0,
    714.0,
    713.0,
    718.0,
    715.0,
    713.0,
