{
  "AcquisitionMatrixPE": 100,
  "AcquisitionNumber": 1,
  "AcquisitionTime": "15:26:37.895000",
  "BandwidthPerPixelPhaseEncode": 18.519,
  "BaseResolution": 100,
  "BodyPartExamined": "BRAIN",
  "ConsistencyInfo": "N4_VE11C_LATEST_20160120",
  "ConversionSoftware": "dcm2niix",
  "ConversionSoftwareVersion": "v1.0.20180622 GCC4.9.2",
  "DerivedVendorReportedEchoSpacing": 0.000539986,
  "DeviceSerialNumber": "166078",
  "DwellTime": 2.1e-06,
  "EchoTime": 0.034,
  "EchoTrainLength": 100,
  "EffectiveEchoSpacing": 0.000539986,
  "FlipAngle": 90,
  "ImageOrientationPatientDICOM": [0.999888, -0.0109462, 0.010219, 0.0104712, 0.998913, 0.0454298],
  "ImageType": [
    "ORIGINAL",
    "PRIMARY",
    "M",
    "ND",
    "MOSAIC"
],
  "InPlanePhaseEncodingDirectionDICOM": "COL",
  "InstitutionAddress": "Street_StreetNo_Bei_Jing_District_CN_ZIP",
  "InstitutionName": "BeiJing_Normal_University",
  "InstitutionalDepartmentName": "Department",
  "MRAcquisitionType": "2D",
  "MagneticFieldStrength": 3,
  "Manufacturer": "Siemens",
  "ManufacturersModelName": "Prisma",
  "Modality": "MR",
  "MultibandAccelerationFactor": 3,
  "PartialFourier": 1,
  "PatientPosition": "HFS",
  "PercentPhaseFOV": 100,
  "PhaseEncodingDirection": "j-",
  "PhaseEncodingSteps": 100,
  "PhaseResolution": 1,
  "PixelBandwidth": 2380,
  "ProcedureStepDescription": "BNU_P2018_64CH_Zhen.ZongLei",
  "ProtocolName": "bold_100x100_s3_2x2x2_static_256",
  "PulseSequenceDetails": "%SiemensSeq%_ep2d_bold",
  "ReceiveCoilActiveElements": "HC1-7;NC1",
  "ReceiveCoilName": "HeadNeck_64",
  "ReconMatrixPE": 100,
  "RepetitionTime": 2,
  "SAR": 0.071091,
  "ScanOptions": "FS",
  "ScanningSequence": "EP",
  "SequenceName": "_epfid2d1_100",
  "SequenceVariant": "SK",
  "SeriesDescription": "bold_100x100_s3_2x2x2_static_256",
  "SeriesNumber": 5,
  "ShimSetting": [-5459, -11492, -1340, 505, 5, -254, 1, 68],
  "SliceThickness": 2,
  "SliceTiming": [1.485, 0, 0.99, 0.0825, 1.0725, 0.165, 1.155, 0.2475, 1.2375, 0.33, 1.32, 0.4125, 1.4025, 0.5775, 1.5675, 0.66, 1.65, 0.7425, 1.7325, 0.825, 1.815, 0.9075, 1.8975, 0.495, 1.485, 0, 0.99, 0.0825, 1.0725, 0.165, 1.155, 0.2475, 1.2375, 0.33, 1.32, 0.4125, 1.4025, 0.5775, 1.5675, 0.66, 1.65, 0.7425, 1.7325, 0.825, 1.815, 0.9075, 1.8975, 0.495, 1.485, 0, 0.99, 0.0825, 1.0725, 0.165, 1.155, 0.2475, 1.2375, 0.33, 1.32, 0.4125, 1.4025, 0.5775, 1.5675, 0.66, 1.65, 0.7425, 1.7325, 0.825, 1.815, 0.9075, 1.8975, 0.495],
  "SoftwareVersions": "syngo_MR_E11",
  "SpacingBetweenSlices": 2,
  "StationName": "AWP166078",
  "TaskName": "naturalvision",
  "TotalReadoutTime": 0.0534586,
  "TxRefAmp": 211.897,
  "dcmmeta_affine": [
    [-1.999775767326355, 0.020942488685250282, 0.021410301327705383, 97.06842041015625],
    [0.02189243584871292, 1.997825264930725, 0.09063538908958435, -87.27497863769531],
    [0.020437955856323242, -0.09085959196090698, 1.9978305101394653, -84.22418212890625],
    [0.0, 0.0, 0.0, 1.0]
],
  "dcmmeta_reorient_transform": [
    [0.0, -1.0, 0.0, 99.0],
    [1.0, 0.0, 0.0, 0.0],
    [0.0, 0.0, 1.0, 0.0],
    [0.0, 0.0, 0.0, 1.0]
],
  "dcmmeta_shape": [100, 100, 72, 256],
  "dcmmeta_slice_dim": 2,
  "dcmmeta_version": 0.6,
  "global": {
    "const": {
      "AcquisitionMatrix": [100, 0, 0, 100],
      "AngioFlag": "N",
      "BitsAllocated": 16,
      "BitsStored": 12,
      "BodyPartExamined": "BRAIN",
      "Columns": 900,
      "EchoNumbers": 1,
      "EchoTime": 34.0,
      "EchoTrainLength": 100,
      "FlipAngle": 90.0,
      "HighBit": 11,
      "ImageOrientationPatient": [0.99988787010732, -0.0109462182917, 0.01021897829354, 0.01047124398999, 0.99891265219936, 0.04542979556786],
      "ImagePositionPatient": [-907.42901583322, -900.88287187676, -137.73830016178],
      "ImageType": [
        "ORIGINAL",
        "PRIMARY",
        "M",
        "ND",
        "MOSAIC"
],
      "ImagedNucleus": "1H",
      "ImagingFrequency": 123.257799,
      "InPlanePhaseEncodingDirection": "COL",
      "MRAcquisitionType": "2D",
      "MagneticFieldStrength": 3.0,
      "Manufacturer": "SIEMENS",
      "ManufacturerModelName": "Prisma",
      "Modality": "MR",
      "NumberOfAverages": 1.0,
      "NumberOfPhaseEncodingSteps": 100,
      "PercentPhaseFieldOfView": 100.0,
      "PercentSampling": 100.0,
      "PerformedProcedureStepStartTime": "150445.485000",
      "PhotometricInterpretation": "MONOCHROME2",
      "PixelBandwidth": 2380.0,
      "PixelRepresentation": 0,
      "PixelSpacing": [2.0, 2.0],
      "ProtocolName": "bold_100x100_s3_2x2x2_static_256",
      "RepetitionTime": 2000.0,
      "Rows": 900,
      "SAR": 0.07109095885845,
      "SamplesPerPixel": 1,
      "ScanOptions": "FS",
      "ScanningSequence": "EP",
      "SequenceName": "*epfid2d1_100",
      "SequenceVariant": "SK",
      "SeriesDescription": "bold_100x100_s3_2x2x2_static_256",
      "SeriesNumber": 5,
      "SeriesTime": "152640.023000",
      "SliceLocation": -87.048789560308,
      "SliceThickness": 2.0,
      "SmallestImagePixelValue": 0,
      "SoftwareVersions": "syngo MR E11",
      "SpacingBetweenSlices": 1.9999999817312,
      "SpecificCharacterSet": "ISO_IR 100",
      "StudyID": "1",
      "StudyTime": "150445.397000",
      "TransmitCoilName": "Body",
      "VariableFlipAngleFlag": "N",
      "WindowCenterWidthExplanation": "Algo1",
      "dBdt": 0.0},
    "slices": {}
  },
  "time": {
    "samples": {
      "AcquisitionNumber": [1, 2, 3, 4, 5, 6, 7, 8, 9, 10, 11, 12, 13, 14, 15, 16, 17, 18, 19, 20, 21, 22, 23, 24, 25, 26, 27, 28, 29, 30, 31, 32, 33, 34, 35, 36, 37, 38, 39, 40, 41, 42, 43, 44, 45, 46, 47, 48, 49, 50, 51, 52, 53, 54, 55, 56, 57, 58, 59, 60, 61, 62, 63, 64, 65, 66, 67, 68, 69, 70, 71, 72, 73, 74, 75, 76, 77, 78, 79, 80, 81, 82, 83, 84, 85, 86, 87, 88, 89, 90, 91, 92, 93, 94, 95, 96, 97, 98, 99, 100, 101, 102, 103, 104, 105, 106, 107, 108, 109, 110, 111, 112, 113, 114, 115, 116, 117, 118, 119, 120, 121, 122, 123, 124, 125, 126, 127, 128, 129, 130, 131, 132, 133, 134, 135, 136, 137, 138, 139, 140, 141, 142, 143, 144, 145, 146, 147, 148, 149, 150, 151, 152, 153, 154, 155, 156, 157, 158, 159, 160, 161, 162, 163, 164, 165, 166, 167, 168, 169, 170, 171, 172, 173, 174, 175, 176, 177, 178, 179, 180, 181, 182, 183, 184, 185, 186, 187, 188, 189, 190, 191, 192, 193, 194, 195, 196, 197, 198, 199, 200, 201, 202, 203, 204, 205, 206, 207, 208, 209, 210, 211, 212, 213, 214, 215, 216, 217, 218, 219, 220, 221, 222, 223, 224, 225, 226, 227, 228, 229, 230, 231, 232, 233, 234, 235, 236, 237, 238, 239, 240, 241, 242, 243, 244, 245, 246, 247, 248, 249, 250, 251, 252, 253, 254, 255, 256],
      "AcquisitionTime": ["152637.895000", "152639.895000", "152641.895000", "152643.895000", "152645.895000", "152647.895000", "152649.895000", "152651.895000", "152653.895000", "152655.895000", "152657.895000", "152659.895000", "152701.895000", "152703.895000", "152705.895000", "152707.895000", "152709.895000", "152711.895000", "152713.895000", "152715.895000", "152717.895000", "152719.895000", "152721.895000", "152723.895000", "152725.895000", "152727.895000", "152729.895000", "152731.895000", "152733.895000", "152735.895000", "152737.895000", "152739.895000", "152741.895000", "152743.895000", "152745.895000", "152747.895000", "152749.895000", "152751.895000", "152753.895000", "152755.895000", "152757.895000", "152759.895000", "152801.895000", "152803.895000", "152805.895000", "152807.895000", "152809.895000", "152811.895000", "152813.895000", "152815.895000", "152817.895000", "152819.895000", "152821.895000", "152823.895000", "152825.895000", "152827.895000", "152829.895000", "152831.895000", "152833.895000", "152835.895000", "152837.895000", "152839.895000", "152841.895000", "152843.895000", "152845.895000", "152847.895000", "152849.895000", "152851.895000", "152853.895000", "152855.895000", "152857.895000", "152859.895000", "152901.895000", "152903.895000", "152905.895000", "152907.895000", "152909.895000", "152911.895000", "152913.895000", "152915.895000", "152917.895000", "152919.895000", "152921.895000", "152923.895000", "152925.895000", "152927.895000", "152929.895000", "152931.895000", "152933.895000", "152935.895000", "152937.895000", "152939.895000", "152941.895000", "152943.895000", "152945.895000", "152947.895000", "152949.895000", "152951.895000", "152953.895000", "152955.895000", "152957.895000", "152959.895000", "153001.895000", "153003.895000", "153005.895000", "153007.895000", "153009.895000", "153011.895000", "153013.895000", "153015.895000", "153017.895000", "153019.895000", "153021.895000", "153023.895000", "153025.895000", "153027.895000", "153029.895000", "153031.895000", "153033.895000", "153035.895000", "153037.895000", "153039.895000", "153041.895000", "153043.895000", "153045.895000", "153047.895000", "153049.895000", "153051.895000", "153053.895000", "153055.895000", "153057.895000", "153059.895000", "153101.895000", "153103.895000", "153105.895000", "153107.895000", "153109.895000", "153111.895000", "153113.895000", "153115.895000", "153117.895000", "153119.895000", "153121.895000", "153123.895000", "153125.895000", "153127.895000", "153129.895000", "153131.895000", "153133.895000", "153135.895000", "153137.895000", "153139.895000", "153141.895000", "153143.895000", "153145.895000", "153147.895000", "153149.895000", "153151.895000", "153153.895000", "153155.895000", "153157.895000", "153159.895000", "153201.895000", "153203.895000", "153205.895000", "153207.895000", "153209.895000", "153211.895000", "153213.895000", "153215.895000", "153217.895000", "153219.895000", "153221.895000", "153223.895000", "153225.895000", "153227.895000", "153229.895000", "153231.895000", "153233.895000", "153235.895000", "153237.895000", "153239.895000", "153241.895000", "153243.895000", "153245.895000", "153247.895000", "153249.895000", "153251.895000", "153253.895000", "153255.895000", "153257.895000", "153259.895000", "153301.895000", "153303.895000", "153305.895000", "153307.895000", "153309.895000", "153311.895000", "153313.895000", "153315.895000", "153317.895000", "153319.895000", "153321.895000", "153323.895000", "153325.895000", "153327.895000", "153329.895000", "153331.895000", "153333.895000", "153335.895000", "153337.895000", "153339.895000", "153341.895000", "153343.895000", "153345.895000", "153347.895000", "153349.895000", "153351.895000", "153353.895000", "153355.895000", "153357.895000", "153359.895000", "153401.895000", "153403.895000", "153405.895000", "153407.895000", "153409.895000", "153411.895000", "153413.895000", "153415.895000", "153417.895000", "153419.895000", "153421.895000", "153423.895000", "153425.895000", "153427.895000", "153429.895000", "153431.895000", "153433.895000", "153435.895000", "153437.895000", "153439.895000", "153441.895000", "153443.895000", "153445.895000", "153447.895000", "153449.895000", "153451.895000", "153453.895000", "153455.895000", "153457.895000", "153459.895000", "153501.895000", "153503.895000", "153505.895000", "153507.895000"],
      "ContentTime": ["152640.027000", "152641.522000", "152643.522000", "152645.522000", "152647.522000", "152649.522000", "152651.522000", "152654.022000", "152655.522000", "152657.522000", "152659.522000", "152701.522000", "152703.523000", "152705.522000", "152707.521000", "152709.523000", "152711.522000", "152713.522000", "152715.522000", "152717.522000", "152719.522000", "152721.523000", "152723.522000", "152725.521000", "152727.522000", "152729.522000", "152731.522000", "152733.523000", "152735.523000", "152737.523000", "152739.522000", "152741.522000", "152743.521000", "152745.522000", "152747.522000", "152749.522000", "152751.523000", "152753.523000", "152755.523000", "152757.523000", "152759.523000", "152801.522000", "152804.023000", "152805.522000", "152807.522000", "152809.522000", "152811.523000", "152814.023000", "152815.523000", "152817.521000", "152819.522000", "152821.522000", "152823.523000", "152825.522000", "152827.522000", "152829.522000", "152831.523000", "152834.022000", "152835.522000", "152837.522000", "152839.522000", "152841.523000", "152843.522000", "152845.522000", "152847.523000", "152849.523000", "152851.523000", "152853.522000", "152855.522000", "152857.522000", "152859.522000", "152901.522000", "152903.523000", "152905.522000", "152907.522000", "152909.522000", "152911.522000", "152913.522000", "152915.523000", "152917.522000", "152919.523000", "152921.522000", "152923.522000", "152926.022000", "152927.522000", "152929.523000", "152931.522000", "152933.522000", "152936.022000", "152937.523000", "152939.522000", "152941.522000", "152943.522000", "152945.521000", "152947.523000", "152949.522000", "152951.523000", "152953.522000", "152955.522000", "152957.522000", "152959.522000", "153001.523000", "153003.522000", "153005.522000", "153007.523000", "153009.522000", "153011.523000", "153013.523000", "153015.522000", "153017.523000", "153019.523000", "153022.023000", "153023.523000", "153025.523000", "153027.523000", "153029.523000", "153031.523000", "153033.523000", "153035.523000", "153038.021000", "153040.023000", "153041.522000", "153043.522000", "153045.523000", "153047.522000", "153049.523000", "153052.022000", "153053.523000", "153055.525000", "153057.522000", "153059.523000", "153101.522000", "153103.539000", "153106.022000", "153107.522000", "153109.522000", "153111.523000", "153113.522000", "153115.523000", "153117.522000", "153119.524000", "153121.522000", "153123.523000", "153125.522000", "153127.523000", "153129.522000", "153131.523000", "153133.522000", "153135.522000", "153137.522000", "153139.522000", "153141.522000", "153143.522000", "153145.522000", "153147.522000", "153150.023000", "153151.522000", "153153.522000", "153155.523000", "153157.523000", "153159.522000", "153201.522000", "153203.522000", "153205.521000", "153207.523000", "153209.523000", "153211.522000", "153213.523000", "153215.522000", "153218.023000", "153219.523000", "153221.522000", "153223.522000", "153225.522000", "153227.522000", "153229.522000", "153231.523000", "153233.523000", "153235.522000", "153237.522000", "153239.523000", "153241.522000", "153243.522000", "153245.523000", "153247.523000", "153250.023000", "153251.523000", "153253.522000", "153255.523000", "153257.522000", "153300.022000", "153301.523000", "153303.522000", "153305.523000", "153307.522000", "153309.522000", "153311.523000", "153313.522000", "153315.522000", "153317.523000", "153319.523000", "153321.522000", "153323.523000", "153325.523000", "153327.523000", "153329.522000", "153331.523000", "153333.521000", "153335.522000", "153337.522000", "153339.523000", "153342.022000", "153343.523000", "153346.023000", "153347.522000", "153349.523000", "153351.522000", "153354.022000", "153355.523000", "153357.523000", "153359.522000", "153401.523000", "153403.542000", "153405.523000", "153407.521000", "153409.523000", "153411.523000", "153413.522000", "153415.523000", "153417.523000", "153419.522000", "153421.523000", "153423.523000", "153426.021000", "153427.523000", "153429.523000", "153431.522000", "153433.523000", "153436.022000", "153437.523000", "153439.523000", "153441.523000", "153443.522000", "153445.522000", "153447.522000", "153449.523000", "153451.523000", "153454.023000", "153455.523000", "153457.523000", "153459.521000", "153502.023000", "153503.522000", "153505.523000", "153507.523000", "153509.422000"],
      "InstanceCreationTime": ["152640.027000", "152641.522000", "152643.522000", "152645.522000", "152647.522000", "152649.522000", "152651.522000", "152654.022000", "152655.522000", "152657.522000", "152659.522000", "152701.522000", "152703.523000", "152705.522000", "152707.521000", "152709.523000", "152711.522000", "152713.522000", "152715.522000", "152717.522000", "152719.522000", "152721.523000", "152723.522000", "152725.521000", "152727.522000", "152729.522000", "152731.522000", "152733.523000", "152735.523000", "152737.523000", "152739.522000", "152741.522000", "152743.521000", "152745.522000", "152747.522000", "152749.522000", "152751.523000", "152753.523000", "152755.523000", "152757.523000", "152759.523000", "152801.522000", "152804.023000", "152805.522000", "152807.522000", "152809.522000", "152811.523000", "152814.023000", "152815.523000", "152817.521000", "152819.522000", "152821.522000", "152823.523000", "152825.522000", "152827.522000", "152829.522000", "152831.523000", "152834.022000", "152835.522000", "152837.522000", "152839.522000", "152841.523000", "152843.522000", "152845.522000", "152847.523000", "152849.523000", "152851.523000", "152853.522000", "152855.522000", "152857.522000", "152859.522000", "152901.522000", "152903.523000", "152905.522000", "152907.522000", "152909.522000", "152911.522000", "152913.522000", "152915.523000", "152917.522000", "152919.523000", "152921.522000", "152923.522000", "152926.022000", "152927.522000", "152929.523000", "152931.522000", "152933.522000", "152936.022000", "152937.523000", "152939.522000", "152941.522000", "152943.522000", "152945.521000", "152947.523000", "152949.522000", "152951.523000", "152953.522000", "152955.522000", "152957.522000", "152959.522000", "153001.523000", "153003.522000", "153005.522000", "153007.523000", "153009.522000", "153011.523000", "153013.523000", "153015.522000", "153017.523000", "153019.523000", "153022.023000", "153023.523000", "153025.523000", "153027.523000", "153029.523000", "153031.523000", "153033.523000", "153035.523000", "153038.021000", "153040.023000", "153041.522000", "153043.522000", "153045.523000", "153047.522000", "153049.523000", "153052.022000", "153053.523000", "153055.525000", "153057.522000", "153059.523000", "153101.522000", "153103.539000", "153106.022000", "153107.522000", "153109.522000", "153111.523000", "153113.522000", "153115.523000", "153117.522000", "153119.524000", "153121.522000", "153123.523000", "153125.522000", "153127.523000", "153129.522000", "153131.523000", "153133.522000", "153135.522000", "153137.522000", "153139.522000", "153141.522000", "153143.522000", "153145.522000", "153147.522000", "153150.023000", "153151.522000", "153153.522000", "153155.523000", "153157.523000", "153159.522000", "153201.522000", "153203.522000", "153205.521000", "153207.523000", "153209.523000", "153211.522000", "153213.523000", "153215.522000", "153218.023000", "153219.523000", "153221.522000", "153223.522000", "153225.522000", "153227.522000", "153229.522000", "153231.523000", "153233.523000", "153235.522000", "153237.522000", "153239.523000", "153241.522000", "153243.522000", "153245.523000", "153247.523000", "153250.023000", "153251.523000", "153253.522000", "153255.523000", "153257.522000", "153300.022000", "153301.523000", "153303.522000", "153305.523000", "153307.522000", "153309.522000", "153311.523000", "153313.522000", "153315.522000", "153317.523000", "153319.523000", "153321.522000", "153323.523000", "153325.523000", "153327.523000", "153329.522000", "153331.523000", "153333.521000", "153335.522000", "153337.522000", "153339.523000", "153342.022000", "153343.523000", "153346.023000", "153347.522000", "153349.523000", "153351.522000", "153354.022000", "153355.523000", "153357.523000", "153359.522000", "153401.523000", "153403.542000", "153405.523000", "153407.521000", "153409.523000", "153411.523000", "153413.522000", "153415.523000", "153417.523000", "153419.522000", "153421.523000", "153423.523000", "153426.021000", "153427.523000", "153429.523000", "153431.522000", "153433.523000", "153436.022000", "153437.523000", "153439.523000", "153441.523000", "153443.522000", "153445.522000", "153447.522000", "153449.523000", "153451.523000", "153454.023000", "153455.523000", "153457.523000", "153459.521000", "153502.023000", "153503.522000", "153505.523000", "153507.523000", "153509.422000"],
      "InstanceNumber": [1, 2, 3, 4, 5, 6, 7, 8, 9, 10, 11, 12, 13, 14, 15, 16, 17, 18, 19, 20, 21, 22, 23, 24, 25, 26, 27, 28, 29, 30, 31, 32, 33, 34, 35, 36, 37, 38, 39, 40, 41, 42, 43, 44, 45, 46, 47, 48, 49, 50, 51, 52, 53, 54, 55, 56, 57, 58, 59, 60, 61, 62, 63, 64, 65, 66, 67, 68, 69, 70, 71, 72, 73, 74, 75, 76, 77, 78, 79, 80, 81, 82, 83, 84, 85, 86, 87, 88, 89, 90, 91, 92, 93, 94, 95, 96, 97, 98, 99, 100, 101, 102, 103, 104, 105, 106, 107, 108, 109, 110, 111, 112, 113, 114, 115, 116, 117, 118, 119, 120, 121, 122, 123, 124, 125, 126, 127, 128, 129, 130, 131, 132, 133, 134, 135, 136, 137, 138, 139, 140, 141, 142, 143, 144, 145, 146, 147, 148, 149, 150, 151, 152, 153, 154, 155, 156, 157, 158, 159, 160, 161, 162, 163, 164, 165, 166, 167, 168, 169, 170, 171, 172, 173, 174, 175, 176, 177, 178, 179, 180, 181, 182, 183, 184, 185, 186, 187, 188, 189, 190, 191, 192, 193, 194, 195, 196, 197, 198, 199, 200, 201, 202, 203, 204, 205, 206, 207, 208, 209, 210, 211, 212, 213, 214, 215, 216, 217, 218, 219, 220, 221, 222, 223, 224, 225, 226, 227, 228, 229, 230, 231, 232, 233, 234, 235, 236, 237, 238, 239, 240, 241, 242, 243, 244, 245, 246, 247, 248, 249, 250, 251, 252, 253, 254, 255, 256],
      "LargestImagePixelValue": [2502, 2871, 2477, 2338, 2372, 2390, 2421, 2404, 2210, 2779, 2191, 2613, 2225, 2492, 2227, 2524, 2374, 2377, 2334, 2397, 2213, 2265, 2306, 2512, 2228, 2483, 2318, 2259, 2219, 2671, 2285, 2228, 2237, 2305, 2262, 2511, 2207, 2365, 2257, 2243, 2230, 2350, 2303, 2386, 2231, 2375, 2235, 2491, 2213, 2232, 2578, 2238, 2393, 2266, 2232, 2241, 2237, 2236, 2235, 2353, 2381, 2227, 2336, 2226, 2335, 2436, 2325, 2312, 2328, 2230, 2227, 2323, 2298, 2287, 2284, 2319, 2264, 2315, 2222, 2237, 2273, 2238, 2241, 2340, 2262, 2242, 2327, 2259, 2287, 2753, 2313, 2267, 2229, 2272, 2248, 2251, 2214, 2440, 2290, 2422, 2287, 2327, 2367, 2407, 2468, 2447, 2292, 2520, 2241, 2478, 2228, 2408, 2235, 2442, 2409, 2378, 2237, 2480, 2242, 2608, 2469, 2226, 2432, 2541, 2408, 2511, 2215, 2583, 2485, 2444, 2212, 2393, 2234, 2571, 2258, 2566, 2418, 2343, 2366, 2438, 2244, 2318, 2380, 2437, 2339, 2228, 2332, 2234, 2342, 2407, 2252, 2421, 2258, 2507, 2291, 2497, 2292, 2464, 2282, 2555, 2279, 2562, 2424, 2341, 2236, 2537, 2290, 2338, 2272, 2321, 2246, 2514, 2194, 2667, 2371, 2402, 2388, 2278, 2245, 2342, 2266, 2356, 2223, 2344, 2266, 2316, 2318, 2290, 2236, 2406, 2277, 2375, 2305, 2367, 2386, 2311, 2428, 2372, 2366, 2340, 2236, 2278, 2393, 2223, 2326, 2476, 2440, 2465, 2503, 2597, 2490, 2408, 2268, 2467, 2236, 2542, 2282, 2466, 2441, 2448, 2434, 2375, 2262, 2381, 2305, 2284, 2307, 2400, 2237, 2713, 2400, 2353, 2450, 2372, 2387, 2442, 2476, 2422, 2425, 2300, 2330, 2377, 2257, 2265, 2450, 2420, 2265, 2279, 2360, 2495, 2488, 2446, 2389, 2276, 2461, 2508],
      "WindowCenter": [717.0, 719.0, 715.0, 713.0, 714.0, 716.0, 715.0, 714.0, 711.0, 718.0, 712.0, 718.0, 712.0, 715.0, 711.0, 715.0, 713.0, 714.0, 713.0, 713.0, 710.0, 710.0, 711.0, 715.0, 711.0, 714.0, 712.0, 711.0, 711.0, 716.0, 711.0, 711.0, 711.0, 712.0, 711.0, 714.0, 711.0, 712.0, 710.0, 710.0, 710.0, 712.0, 711.0, 713.0, 711.0, 713.0, 711.0, 714.0, 711.0, 711.0, 716.0, 712.0, 714.0, 712.0, 712.0, 712.0, 712.0, 712.0, 712.0, 712.0, 713.0, 712.0, 713.0, 711.0, 713.0, 714.0, 712.0, 712.0, 712.0, 711.0, 712.0, 714.0, 713.0, 713.0, 712.0, 712.0, 712.0, 713.0, 711.0, 710.0, 711.0, 711.0, 712.0, 713.0, 712.0, 712.0, 713.0, 714.0, 715.0, 720.0, 715.0, 715.0, 715.0, 715.0, 715.0, 715.0, 713.0, 716.0, 714.0, 715.0, 713.0, 714.0, 715.0, 716.0, 717.0, 716.0, 716.0, 718.0, 715.0, 717.0, 715.0, 717.0, 715.0, 716.0, 715.0, 715.0, 714.0, 717.0, 714.0, 718.0, 716.0, 713.0, 716.0, 717.0, 714.0, 715.0, 711.0, 717.0, 716.0, 715.0, 712.0, 715.0, 713.0, 717.0, 712.0, 716.0, 715.0, 714.0, 714.0, 716.0, 712.0, 712.0, 713.0, 714.0, 714.0, 712.0, 714.0, 712.0, 712.0, 713.0, 712.0, 714.0, 710.0, 713.0, 711.0, 715.0, 712.0, 714.0, 712.0, 715.0, 711.0, 715.0, 714.0, 713.0, 711.0, 715.0, 712.0, 712.0, 712.0, 712.0, 711.0, 715.0, 711.0, 717.0, 713.0, 713.0, 713.0, 711.0, 711.0, 712.0, 712.0, 714.0, 712.0, 712.0, 711.0, 713.0, 713.0, 711.0, 710.0, 712.0, 712.0, 714.0, 714.0, 715.0, 715.0, 714.0, 715.0, 715.0, 716.0, 716.0, 716.0, 716.0, 717.0, 715.0, 716.0, 718.0, 715.0, 715.0, 715.0, 717.0, 715.0, 712.0, 710.0, 713.0, 711.0, 715.0, 712.0, 714.0, 714.0, 714.0, 714.0, 713.0, 712.0, 713.0, 712.0, 712.0, 712.0, 713.0, 711.0, 717.0, 714.0, 714.0, 715.0, 713.0, 713.0, 714.0, 715.0, 714.0, 714.0, 713.0, 713.0, 712.0, 710.0, 711.0, 714.0, 713.0, 711.0, 711.0, 712.0, 714.0, 713.0, 713.0, 713.0, 712.0, 714.0, 714.0],
      "WindowWidth": [1522.0, 1526.0, 1515.0, 1511.0, 1515.0, 1518.0, 1517.0, 1514.0, 1506.0, 1522.0, 1510.0, 1523.0, 1510.0, 1516.0, 1507.0, 1515.0, 1512.0, 1513.0, 1512.0, 1511.0, 1504.0, 1505.0, 1507.0, 1515.0, 1507.0, 1513.0, 1508.0, 1508.0, 1507.0, 1518.0, 1508.0, 1508.0, 1508.0, 1509.0, 1506.0, 1514.0, 1506.0, 1509.0, 1505.0, 1504.0, 1505.0, 1508.0, 1507.0, 1511.0, 1507.0, 1510.0, 1506.0, 1514.0, 1507.0, 1508.0, 1518.0, 1509.0, 1514.0, 1509.0, 1509.0, 1509.0, 1509.0, 1509.0, 1509.0, 1510.0, 1512.0, 1509.0, 1513.0, 1508.0, 1512.0, 1514.0, 1510.0, 1509.0, 1509.0, 1508.0, 1510.0, 1513.0, 1512.0, 1511.0, 1509.0, 1509.0, 1510.0, 1512.0, 1508.0, 1505.0, 1506.0, 1507.0, 1510.0, 1513.0, 1510.0, 1509.0, 1513.0, 1515.0, 1516.0, 1528.0, 1517.0, 1516.0, 1516.0, 1518.0, 1517.0, 1517.0, 1512.0, 1519.0, 1515.0, 1517.0, 1512.0, 1515.0, 1518.0, 1519.0, 1520.0, 1520.0, 1518.0, 1525.0, 1517.0, 1523.0, 1517.0, 1523.0, 1516.0, 1520.0, 1518.0, 1518.0, 1514.0, 1522.0, 1515.0, 1524.0, 1519.0, 1512.0, 1519.0, 1520.0, 1514.0, 1516.0, 1508.0, 1520.0, 1517.0, 1516.0, 1510.0, 1518.0, 1512.0, 1520.0, 1510.0, 1520.0, 1516.0, 1513.0, 1514.0, 1518.0, 1510.0, 1509.0, 1512.0, 1515.0, 1514.0, 1510.0, 1515.0, 1508.0, 1510.0, 1512.0, 1510.0, 1513.0, 1506.0, 1512.0, 1508.0, 1515.0, 1509.0, 1514.0, 1508.0, 1516.0, 1507.0, 1516.0, 1513.0, 1512.0, 1508.0, 1516.0, 1509.0, 1510.0, 1508.0, 1510.0, 1507.0, 1516.0, 1507.0, 1521.0, 1512.0, 1511.0, 1511.0, 1507.0, 1508.0, 1510.0, 1509.0, 1515.0, 1510.0, 1510.0, 1507.0, 1511.0, 1511.0, 1508.0, 1504.0, 1510.0, 1510.0, 1514.0, 1513.0, 1516.0, 1517.0, 1515.0, 1517.0, 1517.0, 1518.0, 1520.0, 1519.0, 1520.0, 1523.0, 1517.0, 1519.0, 1523.0, 1517.0, 1515.0, 1517.0, 1519.0, 1515.0, 1509.0, 1504.0, 1512.0, 1507.0, 1515.0, 1508.0, 1515.0, 1514.0, 1514.0, 1513.0, 1512.0, 1509.0, 1512.0, 1510.0, 1508.0, 1510.0, 1512.0, 1506.0, 1519.0, 1514.0, 1514.0, 1516.0, 1512.0, 1511.0, 1515.0, 1515.0, 1513.0, 1515.0, 1511.0, 1511.0, 1510.0, 1505.0, 1508.0, 1515.0, 1512.0, 1507.0, 1508.0, 1509.0, 1514.0, 1512.0, 1511.0, 1511.0, 1509.0, 1513.0, 1514.0]
    },
    "slices": {}
  }
}