{
 "AcquisitionMatrixPE": 100,
 "AcquisitionNumber": 1,
 "AcquisitionTime": "14:13:16.767500",
 "BandwidthPerPixelPhaseEncode": 18.519,
 "BaseResolution": 100,
 "BodyPartExamined": "BRAIN",
 "ConsistencyInfo": "N4_VE11C_LATEST_20160120",
 "ConversionSoftware": "dcm2niix",
 "ConversionSoftwareVersion": "v1.0.20180622 GCC4.9.2",
 "DerivedVendorReportedEchoSpacing": 0.000539986,
 "DeviceSerialNumber": "166078",
 "DwellTime": 2.1e-06,
 "EchoTime": 0.034,
 "EchoTrainLength": 100,
 "EffectiveEchoSpacing": 0.000539986,
 "FlipAngle": 90,
 "ImageOrientationPatientDICOM": [
  0.999848,
  0.0172696,
  -0.00251936,
  -0.0174524,
  0.989375,
  -0.144334
 ],
 "ImageType": [
  "ORIGINAL",
  "PRIMARY",
  "M",
  "ND",
  "MOSAIC"
 ],
 "InPlanePhaseEncodingDirectionDICOM": "COL",
 "InstitutionAddress": "Street_StreetNo_Bei_Jing_District_CN_ZIP",
 "InstitutionName": "BeiJing_Normal_University",
 "InstitutionalDepartmentName": "Department",
 "MRAcquisitionType": "2D",
 "MagneticFieldStrength": 3,
 "Manufacturer": "Siemens",
 "ManufacturersModelName": "Prisma",
 "Modality": "MR",
 "MultibandAccelerationFactor": 3,
 "PartialFourier": 1,
 "PatientPosition": "HFS",
 "PercentPhaseFOV": 100,
 "PhaseEncodingDirection": "j-",
 "PhaseEncodingSteps": 100,
 "PhaseResolution": 1,
 "PixelBandwidth": 2380,
 "ProcedureStepDescription": "BNU_P2018_64CH_Zhen.ZongLei",
 "ProtocolName": "bold_100x100_s3_2x2x2_static_256",
 "PulseSequenceDetails": "%SiemensSeq%_ep2d_bold",
 "ReceiveCoilActiveElements": "HC1-7;NC1",
 "ReceiveCoilName": "HeadNeck_64",
 "ReconMatrixPE": 100,
 "RepetitionTime": 2,
 "SAR": 0.0845056,
 "ScanOptions": "FS",
 "ScanningSequence": "EP",
 "SequenceName": "_epfid2d1_100",
 "SequenceVariant": "SK",
 "SeriesDescription": "bold_100x100_s3_2x2x2_static_256",
 "SeriesNumber": 10,
 "ShimSetting": [
  -5466,
  -11519,
  -1239,
  264,
  -34,
  -100,
  -141,
  97
 ],
 "SliceThickness": 2,
 "SliceTiming": [
  1.485,
  0,
  0.99,
  0.0825,
  1.0725,
  0.165,
  1.155,
  0.2475,
  1.2375,
  0.33,
  1.32,
  0.4125,
  1.4025,
  0.5775,
  1.5675,
  0.66,
  1.65,
  0.7425,
  1.7325,
  0.825,
  1.815,
  0.9075,
  1.8975,
  0.495,
  1.485,
  0,
  0.99,
  0.0825,
  1.0725,
  0.165,
  1.155,
  0.2475,
  1.2375,
  0.33,
  1.32,
  0.4125,
  1.4025,
  0.5775,
  1.5675,
  0.66,
  1.65,
  0.7425,
  1.7325,
  0.825,
  1.815,
  0.9075,
  1.8975,
  0.495,
  1.485,
  0,
  0.99,
  0.0825,
  1.0725,
  0.165,
  1.155,
  0.2475,
  1.2375,
  0.33,
  1.32,
  0.4125,
  1.4025,
  0.5775,
  1.5675,
  0.66,
  1.65,
  0.7425,
  1.7325,
  0.825,
  1.815,
  0.9075,
  1.8975,
  0.495
 ],
 "SoftwareVersions": "syngo_MR_E11",
 "SpacingBetweenSlices": 2,
 "StationName": "AWP166078",
 "TaskName": "imagenet",
 "TotalReadoutTime": 0.0534586,
 "TxRefAmp": 245.542,
 "dcmmeta_affine": [
  [
   -1.9996954202651978,
   -0.0349048413336277,
   2.516546082631521e-09,
   101.69510650634766
  ],
  [
   -0.03453924134373665,
   1.9787501096725464,
   -0.28871241211891174,
   -80.0909423828125
  ],
  [
   -0.005038728006184101,
   0.2886684238910675,
   1.9790515899658203,
   -82.9732437133789
  ],
  [
   0.0,
   0.0,
   0.0,
   1.0
  ]
 ],
 "dcmmeta_reorient_transform": [
  [
   0.0,
   -1.0,
   0.0,
   99.0
  ],
  [
   1.0,
   0.0,
   0.0,
   0.0
  ],
  [
   0.0,
   0.0,
   1.0,
   0.0
  ],
  [
   0.0,
   0.0,
   0.0,
   1.0
  ]
 ],
 "dcmmeta_shape": [
  100,
  100,
  72,
  256
 ],
 "dcmmeta_slice_dim": 2,
 "dcmmeta_version": 0.6,
 "global": {
  "const": {
   "AcquisitionMatrix": [
    100,
    0,
    0,
    100
   ],
   "AngioFlag": "N",
   "BitsAllocated": 16,
   "BitsStored": 12,
   "BodyPartExamined": "BRAIN",
   "Columns": 900,
   "EchoNumbers": 1,
   "EchoTime": 34.0,
   "EchoTrainLength": 100,
   "FlipAngle": 90.0,
   "HighBit": 11,
   "ImageOrientationPatient": [
    0.99984769491393,
    0.01726962016802,
    -0.0025193639194,
    -0.017452420328,
    0.98937507869136,
    -0.1443342187049
   ],
   "ImagePositionPatient": [
    -884.15574712732,
    -921.1210857163,
    63.087795284719
   ],
   "ImageType": [
    "ORIGINAL",
    "PRIMARY",
    "M",
    "ND",
    "MOSAIC"
   ],
   "ImagedNucleus": "1H",
   "ImagingFrequency": 123.257758,
   "InPlanePhaseEncodingDirection": "COL",
   "MRAcquisitionType": "2D",
   "MagneticFieldStrength": 3.0,
   "Manufacturer": "SIEMENS",
   "ManufacturerModelName": "Prisma",
   "Modality": "MR",
   "NumberOfAverages": 1.0,
   "NumberOfPhaseEncodingSteps": 100,
   "PercentPhaseFieldOfView": 100.0,
   "PercentSampling": 100.0,
   "PerformedProcedureStepStartTime": "131910.311000",
   "PhotometricInterpretation": "MONOCHROME2",
   "PixelBandwidth": 2380.0,
   "PixelRepresentation": 0,
   "PixelSpacing": [
    2.0,
    2.0
   ],
   "ProtocolName": "bold_100x100_s3_2x2x2_static_256",
   "RepetitionTime": 2000.0,
   "Rows": 900,
   "SAR": 0.08450555289292,
   "SamplesPerPixel": 1,
   "ScanOptions": "FS",
   "ScanningSequence": "EP",
   "SequenceName": "*epfid2d1_100",
   "SequenceVariant": "SK",
   "SeriesDescription": "bold_100x100_s3_2x2x2_static_256",
   "SeriesNumber": 10,
   "SeriesTime": "141319.011000",
   "SliceLocation": -70.542542670664,
   "SliceThickness": 2.0,
   "SmallestImagePixelValue": 0,
   "SoftwareVersions": "syngo MR E11",
   "SpacingBetweenSlices": 2.0000000390806,
   "SpecificCharacterSet": "ISO_IR 100",
   "StudyID": "1",
   "StudyTime": "131910.219000",
   "TransmitCoilName": "Body",
   "VariableFlipAngleFlag": "N",
   "WindowCenterWidthExplanation": "Algo1",
   "dBdt": 0.0
  },
  "slices": {}
 },
 "time": {
  "samples": {
   "AcquisitionNumber": [
    1,
    2,
    3,
    4,
    5,
    6,
    7,
    8,
    9,
    10,
    11,
    12,
    13,
    14,
    15,
    16,
    17,
    18,
    19,
    20,
    21,
    22,
    23,
    24,
    25,
    26,
    27,
    28,
    29,
    30,
    31,
    32,
    33,
    34,
    35,
    36,
    37,
    38,
    39,
    40,
    41,
    42,
    43,
    44,
    45,
    46,
    47,
    48,
    49,
    50,
    51,
    52,
    53,
    54,
    55,
    56,
    57,
    58,
    59,
    60,
    61,
    62,
    63,
    64,
    65,
    66,
    67,
    68,
    69,
    70,
    71,
    72,
    73,
    74,
    75,
    76,
    77,
    78,
    79,
    80,
    81,
    82,
    83,
    84,
    85,
    86,
    87,
    88,
    89,
    90,
    91,
    92,
    93,
    94,
    95,
    96,
    97,
    98,
    99,
    100,
    101,
    102,
    103,
    104,
    105,
    106,
    107,
    108,
    109,
    110,
    111,
    112,
    113,
    114,
    115,
    116,
    117,
    118,
    119,
    120,
    121,
    122,
    123,
    124,
    125,
    126,
    127,
    128,
    129,
    130,
    131,
    132,
    133,
    134,
    135,
    136,
    137,
    138,
    139,
    140,
    141,
    142,
    143,
    144,
    145,
    146,
    147,
    148,
    149,
    150,
    151,
    152,
    153,
    154,
    155,
    156,
    157,
    158,
    159,
    160,
    161,
    162,
    163,
    164,
    165,
    166,
    167,
    168,
    169,
    170,
    171,
    172,
    173,
    174,
    175,
    176,
    177,
    178,
    179,
    180,
    181,
    182,
    183,
    184,
    185,
    186,
    187,
    188,
    189,
    190,
    191,
    192,
    193,
    194,
    195,
    196,
    197,
    198,
    199,
    200,
    201,
    202,
    203,
    204,
    205,
    206,
    207,
    208,
    209,
    210,
    211,
    212,
    213,
    214,
    215,
    216,
    217,
    218,
    219,
    220,
    221,
    222,
    223,
    224,
    225,
    226,
    227,
    228,
    229,
    230,
    231,
    232,
    233,
    234,
    235,
    236,
    237,
    238,
    239,
    240,
    241,
    242,
    243,
    244,
    245,
    246,
    247,
    248,
    249,
    250,
    251,
    252,
    253,
    254,
    255,
    256
   ],
   "AcquisitionTime": [
    "141316.767500",
    "141318.767500",
    "141320.767500",
    "141322.767500",
    "141324.767500",
    "141326.767500",
    "141328.767500",
    "141330.767500",
    "141332.767500",
    "141334.767500",
    "141336.767500",
    "141338.767500",
    "141340.767500",
    "141342.767500",
    "141344.767500",
    "141346.767500",
    "141348.767500",
    "141350.767500",
    "141352.767500",
    "141354.767500",
    "141356.767500",
    "141358.767500",
    "141400.767500",
    "141402.767500",
    "141404.767500",
    "141406.767500",
    "141408.767500",
    "141410.767500",
    "141412.767500",
    "141414.767500",
    "141416.767500",
    "141418.767500",
    "141420.767500",
    "141422.767500",
    "141424.767500",
    "141426.767500",
    "141428.767500",
    "141430.767500",
    "141432.767500",
    "141434.767500",
    "141436.767500",
    "141438.767500",
    "141440.767500",
    "141442.767500",
    "141444.767500",
    "141446.767500",
    "141448.767500",
    "141450.767500",
    "141452.767500",
    "141454.767500",
    "141456.767500",
    "141458.767500",
    "141500.767500",
    "141502.767500",
    "141504.767500",
    "141506.767500",
    "141508.767500",
    "141510.767500",
    "141512.767500",
    "141514.767500",
    "141516.767500",
    "141518.767500",
    "141520.767500",
    "141522.767500",
    "141524.767500",
    "141526.767500",
    "141528.767500",
    "141530.767500",
    "141532.767500",
    "141534.767500",
    "141536.767500",
    "141538.767500",
    "141540.767500",
    "141542.767500",
    "141544.767500",
    "141546.767500",
    "141548.767500",
    "141550.767500",
    "141552.767500",
    "141554.767500",
    "141556.767500",
    "141558.767500",
    "141600.767500",
    "141602.767500",
    "141604.767500",
    "141606.767500",
    "141608.767500",
    "141610.767500",
    "141612.767500",
    "141614.767500",
    "141616.767500",
    "141618.767500",
    "141620.767500",
    "141622.767500",
    "141624.767500",
    "141626.767500",
    "141628.767500",
    "141630.767500",
    "141632.767500",
    "141634.767500",
    "141636.767500",
    "141638.767500",
    "141640.767500",
    "141642.767500",
    "141644.767500",
    "141646.767500",
    "141648.767500",
    "141650.767500",
    "141652.767500",
    "141654.767500",
    "141656.767500",
    "141658.767500",
    "141700.767500",
    "141702.767500",
    "141704.767500",
    "141706.767500",
    "141708.767500",
    "141710.767500",
    "141712.767500",
    "141714.767500",
    "141716.767500",
    "141718.767500",
    "141720.767500",
    "141722.767500",
    "141724.767500",
    "141726.767500",
    "141728.767500",
    "141730.767500",
    "141732.767500",
    "141734.767500",
    "141736.767500",
    "141738.767500",
    "141740.767500",
    "141742.767500",
    "141744.767500",
    "141746.767500",
    "141748.767500",
    "141750.767500",
    "141752.767500",
    "141754.767500",
    "141756.767500",
    "141758.767500",
    "141800.767500",
    "141802.767500",
    "141804.767500",
    "141806.767500",
    "141808.767500",
    "141810.767500",
    "141812.767500",
    "141814.767500",
    "141816.767500",
    "141818.767500",
    "141820.767500",
    "141822.767500",
    "141824.767500",
    "141826.767500",
    "141828.767500",
    "141830.767500",
    "141832.767500",
    "141834.767500",
    "141836.767500",
    "141838.767500",
    "141840.767500",
    "141842.767500",
    "141844.767500",
    "141846.767500",
    "141848.767500",
    "141850.767500",
    "141852.767500",
    "141854.767500",
    "141856.767500",
    "141858.767500",
    "141900.767500",
    "141902.767500",
    "141904.767500",
    "141906.767500",
    "141908.767500",
    "141910.767500",
    "141912.767500",
    "141914.767500",
    "141916.767500",
    "141918.767500",
    "141920.767500",
    "141922.767500",
    "141924.767500",
    "141926.767500",
    "141928.767500",
    "141930.767500",
    "141932.767500",
    "141934.767500",
    "141936.767500",
    "141938.767500",
    "141940.767500",
    "141942.767500",
    "141944.767500",
    "141946.767500",
    "141948.767500",
    "141950.767500",
    "141952.767500",
    "141954.767500",
    "141956.767500",
    "141958.767500",
    "142000.767500",
    "142002.767500",
    "142004.767500",
    "142006.767500",
    "142008.767500",
    "142010.767500",
    "142012.767500",
    "142014.767500",
    "142016.767500",
    "142018.767500",
    "142020.767500",
    "142022.767500",
    "142024.767500",
    "142026.767500",
    "142028.767500",
    "142030.767500",
    "142032.767500",
    "142034.767500",
    "142036.767500",
    "142038.767500",
    "142040.767500",
    "142042.767500",
    "142044.767500",
    "142046.767500",
    "142048.767500",
    "142050.767500",
    "142052.767500",
    "142054.767500",
    "142056.767500",
    "142058.767500",
    "142100.767500",
    "142102.767500",
    "142104.767500",
    "142106.767500",
    "142108.767500",
    "142110.767500",
    "142112.767500",
    "142114.767500",
    "142116.767500",
    "142118.767500",
    "142120.767500",
    "142122.767500",
    "142124.767500",
    "142126.767500",
    "142128.767500",
    "142130.767500",
    "142132.767500",
    "142134.767500",
    "142136.767500",
    "142138.767500",
    "142140.767500",
    "142142.767500",
    "142144.767500",
    "142146.767500"
   ],
   "ContentTime": [
    "141319.015000",
    "141320.510000",
    "141322.510000",
    "141324.511000",
    "141326.511000",
    "141328.511000",
    "141330.511000",
    "141332.511000",
    "141334.512000",
    "141336.511000",
    "141338.510000",
    "141340.510000",
    "141342.511000",
    "141344.510000",
    "141346.510000",
    "141348.510000",
    "141350.511000",
    "141352.512000",
    "141354.511000",
    "141356.510000",
    "141358.511000",
    "141400.511000",
    "141402.510000",
    "141404.510000",
    "141406.510000",
    "141408.531000",
    "141410.512000",
    "141412.510000",
    "141414.511000",
    "141416.510000",
    "141418.511000",
    "141420.511000",
    "141422.511000",
    "141424.511000",
    "141426.511000",
    "141428.510000",
    "141430.511000",
    "141432.510000",
    "141434.511000",
    "141436.511000",
    "141438.510000",
    "141440.511000",
    "141442.510000",
    "141444.512000",
    "141446.511000",
    "141448.510000",
    "141450.510000",
    "141452.511000",
    "141454.511000",
    "141456.510000",
    "141458.511000",
    "141500.512000",
    "141502.511000",
    "141504.511000",
    "141506.511000",
    "141508.510000",
    "141510.511000",
    "141512.510000",
    "141514.511000",
    "141516.510000",
    "141518.511000",
    "141520.512000",
    "141522.510000",
    "141524.510000",
    "141526.510000",
    "141528.511000",
    "141530.511000",
    "141532.511000",
    "141534.510000",
    "141536.512000",
    "141538.511000",
    "141540.511000",
    "141542.510000",
    "141544.511000",
    "141546.510000",
    "141548.510000",
    "141550.510000",
    "141552.512000",
    "141554.512000",
    "141556.511000",
    "141558.511000",
    "141600.511000",
    "141602.510000",
    "141604.511000",
    "141606.510000",
    "141608.510000",
    "141610.512000",
    "141612.511000",
    "141614.511000",
    "141616.511000",
    "141618.510000",
    "141620.511000",
    "141622.511000",
    "141624.511000",
    "141626.511000",
    "141628.512000",
    "141630.512000",
    "141632.511000",
    "141634.511000",
    "141636.511000",
    "141638.510000",
    "141640.510000",
    "141642.511000",
    "141644.510000",
    "141646.512000",
    "141648.511000",
    "141650.511000",
    "141652.510000",
    "141654.510000",
    "141656.510000",
    "141658.510000",
    "141700.510000",
    "141702.512000",
    "141704.511000",
    "141706.511000",
    "141708.511000",
    "141710.511000",
    "141712.511000",
    "141714.510000",
    "141716.511000",
    "141718.511000",
    "141720.512000",
    "141722.512000",
    "141724.511000",
    "141726.511000",
    "141728.510000",
    "141730.511000",
    "141732.511000",
    "141734.511000",
    "141736.511000",
    "141738.512000",
    "141740.512000",
    "141742.511000",
    "141744.510000",
    "141746.511000",
    "141748.511000",
    "141750.511000",
    "141752.511000",
    "141754.511000",
    "141756.512000",
    "141758.510000",
    "141800.510000",
    "141802.511000",
    "141804.511000",
    "141806.510000",
    "141808.511000",
    "141810.511000",
    "141812.511000",
    "141814.512000",
    "141816.511000",
    "141818.510000",
    "141820.510000",
    "141822.510000",
    "141824.510000",
    "141826.522000",
    "141828.510000",
    "141830.512000",
    "141832.512000",
    "141834.511000",
    "141836.511000",
    "141838.511000",
    "141840.510000",
    "141842.511000",
    "141844.511000",
    "141846.510000",
    "141848.512000",
    "141850.512000",
    "141852.510000",
    "141854.510000",
    "141856.511000",
    "141858.511000",
    "141900.511000",
    "141902.511000",
    "141904.511000",
    "141906.512000",
    "141908.511000",
    "141910.510000",
    "141912.510000",
    "141914.511000",
    "141916.510000",
    "141918.510000",
    "141920.511000",
    "141922.511000",
    "141924.512000",
    "141926.511000",
    "141928.511000",
    "141930.511000",
    "141932.511000",
    "141934.511000",
    "141936.511000",
    "141938.511000",
    "141940.512000",
    "141942.511000",
    "141944.511000",
    "141946.511000",
    "141948.511000",
    "141950.510000",
    "141952.511000",
    "141954.511000",
    "141956.510000",
    "141958.512000",
    "142000.512000",
    "142002.511000",
    "142004.510000",
    "142006.510000",
    "142008.510000",
    "142010.511000",
    "142012.510000",
    "142014.510000",
    "142016.512000",
    "142018.511000",
    "142020.511000",
    "142022.511000",
    "142024.511000",
    "142026.510000",
    "142028.511000",
    "142030.511000",
    "142032.512000",
    "142034.512000",
    "142036.511000",
    "142038.511000",
    "142040.511000",
    "142042.511000",
    "142044.510000",
    "142046.511000",
    "142048.511000",
    "142050.511000",
    "142052.512000",
    "142054.511000",
    "142056.511000",
    "142058.510000",
    "142100.511000",
    "142102.511000",
    "142104.511000",
    "142106.511000",
    "142108.511000",
    "142110.511000",
    "142112.511000",
    "142114.511000",
    "142116.511000",
    "142118.511000",
    "142120.511000",
    "142122.511000",
    "142124.511000",
    "142126.511000",
    "142128.511000",
    "142130.511000",
    "142132.511000",
    "142134.510000",
    "142136.511000",
    "142138.510000",
    "142140.510000",
    "142142.512000",
    "142144.512000",
    "142146.511000",
    "142148.272000"
   ],
   "InstanceCreationTime": [
    "141319.015000",
    "141320.510000",
    "141322.510000",
    "141324.511000",
    "141326.511000",
    "141328.511000",
    "141330.511000",
    "141332.511000",
    "141334.512000",
    "141336.511000",
    "141338.510000",
    "141340.510000",
    "141342.511000",
    "141344.510000",
    "141346.510000",
    "141348.510000",
    "141350.511000",
    "141352.512000",
    "141354.511000",
    "141356.510000",
    "141358.511000",
    "141400.511000",
    "141402.510000",
    "141404.510000",
    "141406.510000",
    "141408.531000",
    "141410.512000",
    "141412.510000",
    "141414.511000",
    "141416.510000",
    "141418.511000",
    "141420.511000",
    "141422.511000",
    "141424.511000",
    "141426.511000",
    "141428.510000",
    "141430.511000",
    "141432.510000",
    "141434.511000",
    "141436.511000",
    "141438.510000",
    "141440.511000",
    "141442.510000",
    "141444.512000",
    "141446.511000",
    "141448.510000",
    "141450.510000",
    "141452.511000",
    "141454.511000",
    "141456.510000",
    "141458.511000",
    "141500.512000",
    "141502.511000",
    "141504.511000",
    "141506.511000",
    "141508.510000",
    "141510.511000",
    "141512.510000",
    "141514.511000",
    "141516.510000",
    "141518.511000",
    "141520.512000",
    "141522.510000",
    "141524.510000",
    "141526.510000",
    "141528.511000",
    "141530.511000",
    "141532.511000",
    "141534.510000",
    "141536.512000",
    "141538.511000",
    "141540.511000",
    "141542.510000",
    "141544.511000",
    "141546.510000",
    "141548.510000",
    "141550.510000",
    "141552.512000",
    "141554.512000",
    "141556.511000",
    "141558.511000",
    "141600.511000",
    "141602.510000",
    "141604.511000",
    "141606.510000",
    "141608.510000",
    "141610.512000",
    "141612.511000",
    "141614.511000",
    "141616.511000",
    "141618.510000",
    "141620.511000",
    "141622.511000",
    "141624.511000",
    "141626.511000",
    "141628.512000",
    "141630.512000",
    "141632.511000",
    "141634.511000",
    "141636.511000",
    "141638.510000",
    "141640.510000",
    "141642.511000",
    "141644.510000",
    "141646.512000",
    "141648.511000",
    "141650.511000",
    "141652.510000",
    "141654.510000",
    "141656.510000",
    "141658.510000",
    "141700.510000",
    "141702.512000",
    "141704.511000",
    "141706.511000",
    "141708.511000",
    "141710.511000",
    "141712.511000",
    "141714.510000",
    "141716.511000",
    "141718.511000",
    "141720.512000",
    "141722.512000",
    "141724.511000",
    "141726.511000",
    "141728.510000",
    "141730.511000",
    "141732.511000",
    "141734.511000",
    "141736.511000",
    "141738.512000",
    "141740.512000",
    "141742.511000",
    "141744.510000",
    "141746.511000",
    "141748.511000",
    "141750.511000",
    "141752.511000",
    "141754.511000",
    "141756.512000",
    "141758.510000",
    "141800.510000",
    "141802.511000",
    "141804.511000",
    "141806.510000",
    "141808.511000",
    "141810.511000",
    "141812.511000",
    "141814.512000",
    "141816.511000",
    "141818.510000",
    "141820.510000",
    "141822.510000",
    "141824.510000",
    "141826.522000",
    "141828.510000",
    "141830.512000",
    "141832.512000",
    "141834.511000",
    "141836.511000",
    "141838.511000",
    "141840.510000",
    "141842.511000",
    "141844.511000",
    "141846.510000",
    "141848.512000",
    "141850.512000",
    "141852.510000",
    "141854.510000",
    "141856.511000",
    "141858.511000",
    "141900.511000",
    "141902.511000",
    "141904.511000",
    "141906.512000",
    "141908.511000",
    "141910.510000",
    "141912.510000",
    "141914.511000",
    "141916.510000",
    "141918.510000",
    "141920.511000",
    "141922.511000",
    "141924.512000",
    "141926.511000",
    "141928.511000",
    "141930.511000",
    "141932.511000",
    "141934.511000",
    "141936.511000",
    "141938.511000",
    "141940.512000",
    "141942.511000",
    "141944.511000",
    "141946.511000",
    "141948.511000",
    "141950.510000",
    "141952.511000",
    "141954.511000",
    "141956.510000",
    "141958.512000",
    "142000.512000",
    "142002.511000",
    "142004.510000",
    "142006.510000",
    "142008.510000",
    "142010.511000",
    "142012.510000",
    "142014.510000",
    "142016.512000",
    "142018.511000",
    "142020.511000",
    "142022.511000",
    "142024.511000",
    "142026.510000",
    "142028.511000",
    "142030.511000",
    "142032.512000",
    "142034.512000",
    "142036.511000",
    "142038.511000",
    "142040.511000",
    "142042.511000",
    "142044.510000",
    "142046.511000",
    "142048.511000",
    "142050.511000",
    "142052.512000",
    "142054.511000",
    "142056.511000",
    "142058.510000",
    "142100.511000",
    "142102.511000",
    "142104.511000",
    "142106.511000",
    "142108.511000",
    "142110.511000",
    "142112.511000",
    "142114.511000",
    "142116.511000",
    "142118.511000",
    "142120.511000",
    "142122.511000",
    "142124.511000",
    "142126.511000",
    "142128.511000",
    "142130.511000",
    "142132.511000",
    "142134.510000",
    "142136.511000",
    "142138.510000",
    "142140.510000",
    "142142.512000",
    "142144.512000",
    "142146.511000",
    "142148.272000"
   ],
   "InstanceNumber": [
    1,
    2,
    3,
    4,
    5,
    6,
    7,
    8,
    9,
    10,
    11,
    12,
    13,
    14,
    15,
    16,
    17,
    18,
    19,
    20,
    21,
    22,
    23,
    24,
    25,
    26,
    27,
    28,
    29,
    30,
    31,
    32,
    33,
    34,
    35,
    36,
    37,
    38,
    39,
    40,
    41,
    42,
    43,
    44,
    45,
    46,
    47,
    48,
    49,
    50,
    51,
    52,
    53,
    54,
    55,
    56,
    57,
    58,
    59,
    60,
    61,
    62,
    63,
    64,
    65,
    66,
    67,
    68,
    69,
    70,
    71,
    72,
    73,
    74,
    75,
    76,
    77,
    78,
    79,
    80,
    81,
    82,
    83,
    84,
    85,
    86,
    87,
    88,
    89,
    90,
    91,
    92,
    93,
    94,
    95,
    96,
    97,
    98,
    99,
    100,
    101,
    102,
    103,
    104,
    105,
    106,
    107,
    108,
    109,
    110,
    111,
    112,
    113,
    114,
    115,
    116,
    117,
    118,
    119,
    120,
    121,
    122,
    123,
    124,
    125,
    126,
    127,
    128,
    129,
    130,
    131,
    132,
    133,
    134,
    135,
    136,
    137,
    138,
    139,
    140,
    141,
    142,
    143,
    144,
    145,
    146,
    147,
    148,
    149,
    150,
    151,
    152,
    153,
    154,
    155,
    156,
    157,
    158,
    159,
    160,
    161,
    162,
    163,
    164,
    165,
    166,
    167,
    168,
    169,
    170,
    171,
    172,
    173,
    174,
    175,
    176,
    177,
    178,
    179,
    180,
    181,
    182,
    183,
    184,
    185,
    186,
    187,
    188,
    189,
    190,
    191,
    192,
    193,
    194,
    195,
    196,
    197,
    198,
    199,
    200,
    201,
    202,
    203,
    204,
    205,
    206,
    207,
    208,
    209,
    210,
    211,
    212,
    213,
    214,
    215,
    216,
    217,
    218,
    219,
    220,
    221,
    222,
    223,
    224,
    225,
    226,
    227,
    228,
    229,
    230,
    231,
    232,
    233,
    234,
    235,
    236,
    237,
    238,
    239,
    240,
    241,
    242,
    243,
    244,
    245,
    246,
    247,
    248,
    249,
    250,
    251,
    252,
    253,
    254,
    255,
    256
   ],
   "LargestImagePixelValue": [
    3284,
    3199,
    3202,
    3156,
    3166,
    3181,
    3183,
    3181,
    3180,
    3167,
    3213,
    3167,
    3220,
    3169,
    3214,
    3171,
    3176,
    3188,
    3181,
    3199,
    3173,
    3189,
    3178,
    3238,
    3172,
    3196,
    3188,
    3213,
    3195,
    3212,
    3189,
    3171,
    3191,
    3195,
    3185,
    3199,
    3179,
    3165,
    3182,
    3191,
    3193,
    3172,
    3221,
    3219,
    3206,
    3222,
    3196,
    3213,
    3212,
    3202,
    3239,
    3199,
    3206,
    3205,
    3189,
    3187,
    3223,
    3247,
    3231,
    3261,
    3201,
    3198,
    3206,
    3221,
    3187,
    3180,
    3208,
    3168,
    3216,
    3193,
    3229,
    3195,
    3237,
    3185,
    3211,
    3208,
    3268,
    3258,
    3240,
    3202,
    3242,
    3203,
    3167,
    3201,
    3197,
    3197,
    3224,
    3243,
    3206,
    3241,
    3231,
    3236,
    3238,
    3261,
    3241,
    3242,
    3261,
    3233,
    3258,
    3243,
    3261,
    3279,
    3316,
    3272,
    3268,
    3242,
    3249,
    3256,
    3308,
    3280,
    3268,
    3260,
    3273,
    3273,
    3244,
    3260,
    3266,
    3259,
    3245,
    3308,
    3297,
    3269,
    3314,
    3267,
    3314,
    3283,
    3277,
    3296,
    3302,
    3286,
    3276,
    3311,
    3332,
    3340,
    3306,
    3335,
    3276,
    3319,
    3311,
    3287,
    3313,
    3279,
    3269,
    3285,
    3263,
    3298,
    3327,
    3283,
    3301,
    3322,
    3284,
    3271,
    3282,
    3318,
    3266,
    3279,
    3293,
    3296,
    3307,
    3284,
    3323,
    3313,
    3320,
    3326,
    3333,
    3317,
    3336,
    3325,
    3288,
    3298,
    3299,
    3307,
    3305,
    3295,
    3323,
    3255,
    3246,
    3254,
    3249,
    3263,
    3251,
    3234,
    3218,
    3198,
    3190,
    3190,
    3221,
    3241,
    3222,
    3231,
    3217,
    3213,
    3227,
    3231,
    3221,
    3247,
    3230,
    3210,
    3194,
    3218,
    3215,
    3245,
    3217,
    3209,
    3217,
    3191,
    3248,
    3233,
    3210,
    3237,
    3230,
    3227,
    3224,
    3215,
    3211,
    3241,
    3227,
    3225,
    3233,
    3233,
    3245,
    3230,
    3239,
    3236,
    3241,
    3243,
    3211,
    3252,
    3215,
    3230,
    3212,
    3217,
    3221,
    3203,
    3178,
    3229,
    3226,
    3257,
    3251,
    3225,
    3231,
    3228,
    3214,
    3249,
    3225,
    3226,
    3212,
    3229,
    3232,
    3244,
    3232,
    3244,
    3224,
    3209,
    3189,
    3236
   ],
   "WindowCenter": [
    837.0,
    835.0,
    835.0,
    834.0,
    832.0,
    831.0,
    832.0,
    832.0,
    832.0,
    834.0,
    835.0,
    834.0,
    833.0,
    833.0,
    834.0,
    833.0,
    833.0,
    833.0,
    833.0,
    833.0,
    833.0,
    833.0,
    833.0,
    834.0,
    835.0,
    834.0,
    834.0,
    834.0,
    834.0,
    833.0,
    834.0,
    834.0,
    834.0,
    835.0,
    836.0,
    835.0,
    834.0,
    835.0,
    835.0,
    834.0,
    833.0,
    834.0,
    836.0,
    835.0,
    832.0,
    832.0,
    834.0,
    834.0,
    832.0,
    830.0,
    830.0,
    830.0,
    831.0,
    833.0,
    835.0,
    834.0,
    834.0,
    835.0,
    836.0,
    836.0,
    835.0,
    835.0,
    835.0,
    835.0,
    835.0,
    837.0,
    838.0,
    835.0,
    834.0,
    833.0,
    833.0,
    833.0,
    833.0,
    833.0,
    833.0,
    834.0,
    835.0,
    836.0,
    835.0,
    833.0,
    833.0,
    833.0,
    834.0,
    834.0,
    834.0,
    835.0,
    835.0,
    834.0,
    835.0,
    838.0,
    837.0,
    835.0,
    834.0,
    834.0,
    835.0,
    835.0,
    835.0,
    835.0,
    835.0,
    835.0,
    834.0,
    834.0,
    836.0,
    834.0,
    834.0,
    835.0,
    834.0,
    834.0,
    835.0,
