{
 "AcquisitionMatrixPE": 100,
 "AcquisitionNumber": 1,
 "AcquisitionTime": "14:32:17.397500",
 "BandwidthPerPixelPhaseEncode": 18.519,
 "BaseResolution": 100,
 "BodyPartExamined": "BRAIN",
 "ConsistencyInfo": "N4_VE11C_LATEST_20160120",
 "ConversionSoftware": "dcm2niix",
 "ConversionSoftwareVersion": "v1.0.20180622 GCC4.9.2",
 "DerivedVendorReportedEchoSpacing": 0.000539986,
 "DeviceSerialNumber": "166078",
 "DwellTime": 2.1e-06,
 "EchoTime": 0.034,
 "EchoTrainLength": 100,
 "EffectiveEchoSpacing": 0.000539986,
 "FlipAngle": 90,
 "ImageOrientationPatientDICOM": [
  0.999848,
  0.0172696,
  -0.00251936,
  -0.0174524,
  0.989375,
  -0.144334
 ],
 "ImageType": [
  "ORIGINAL",
  "PRIMARY",
  "M",
  "ND",
  "MOSAIC"
 ],
 "InPlanePhaseEncodingDirectionDICOM": "COL",
 "InstitutionAddress": "Street_StreetNo_Bei_Jing_District_CN_ZIP",
 "InstitutionName": "BeiJing_Normal_University",
 "InstitutionalDepartmentName": "Department",
 "MRAcquisitionType": "2D",
 "MagneticFieldStrength": 3,
 "Manufacturer": "Siemens",
 "ManufacturersModelName": "Prisma",
 "Modality": "MR",
 "MultibandAccelerationFactor": 3,
 "PartialFourier": 1,
 "PatientPosition": "HFS",
 "PercentPhaseFOV": 100,
 "PhaseEncodingDirection": "j-",
 "PhaseEncodingSteps": 100,
 "PhaseResolution": 1,
 "PixelBandwidth": 2380,
 "ProcedureStepDescription": "BNU_P2018_64CH_Zhen.ZongLei",
 "ProtocolName": "bold_100x100_s3_2x2x2_static_256",
 "PulseSequenceDetails": "%SiemensSeq%_ep2d_bold",
 "ReceiveCoilActiveElements": "HC1-7;NC1",
 "ReceiveCoilName": "HeadNeck_64",
 "ReconMatrixPE": 100,
 "RepetitionTime": 2,
 "SAR": 0.0845056,
 "ScanOptions": "FS",
 "ScanningSequence": "EP",
 "SequenceName": "_epfid2d1_100",
 "SequenceVariant": "SK",
 "SeriesDescription": "bold_100x100_s3_2x2x2_static_256",
 "SeriesNumber": 12,
 "ShimSetting": [
  -5466,
  -11519,
  -1239,
  264,
  -34,
  -100,
  -141,
  97
 ],
 "SliceThickness": 2,
 "SliceTiming": [
  1.485,
  0,
  0.99,
  0.0825,
  1.0725,
  0.165,
  1.155,
  0.2475,
  1.2375,
  0.33,
  1.32,
  0.4125,
  1.4025,
  0.5775,
  1.5675,
  0.66,
  1.65,
  0.7425,
  1.7325,
  0.825,
  1.815,
  0.9075,
  1.8975,
  0.495,
  1.485,
  0,
  0.99,
  0.0825,
  1.0725,
  0.165,
  1.155,
  0.2475,
  1.2375,
  0.33,
  1.32,
  0.4125,
  1.4025,
  0.5775,
  1.5675,
  0.66,
  1.65,
  0.7425,
  1.7325,
  0.825,
  1.815,
  0.9075,
  1.8975,
  0.495,
  1.485,
  0,
  0.99,
  0.0825,
  1.0725,
  0.165,
  1.155,
  0.2475,
  1.2375,
  0.33,
  1.32,
  0.4125,
  1.4025,
  0.5775,
  1.5675,
  0.66,
  1.65,
  0.7425,
  1.7325,
  0.825,
  1.815,
  0.9075,
  1.8975,
  0.495
 ],
 "SoftwareVersions": "syngo_MR_E11",
 "SpacingBetweenSlices": 2,
 "StationName": "AWP166078",
 "TaskName": "imagenet",
 "TotalReadoutTime": 0.0534586,
 "TxRefAmp": 245.542,
 "dcmmeta_affine": [
  [
   -1.9996954202651978,
   -0.0349048413336277,
   2.516546082631521e-09,
   101.69510650634766
  ],
  [
   -0.03453924134373665,
   1.9787501096725464,
   -0.28871241211891174,
   -80.0909423828125
  ],
  [
   -0.005038728006184101,
   0.2886684238910675,
   1.9790515899658203,
   -82.9732437133789
  ],
  [
   0.0,
   0.0,
   0.0,
   1.0
  ]
 ],
 "dcmmeta_reorient_transform": [
  [
   0.0,
   -1.0,
   0.0,
   99.0
  ],
  [
   1.0,
   0.0,
   0.0,
   0.0
  ],
  [
   0.0,
   0.0,
   1.0,
   0.0
  ],
  [
   0.0,
   0.0,
   0.0,
   1.0
  ]
 ],
 "dcmmeta_shape": [
  100,
  100,
  72,
  256
 ],
 "dcmmeta_slice_dim": 2,
 "dcmmeta_version": 0.6,
 "global": {
  "const": {
   "AcquisitionMatrix": [
    100,
    0,
    0,
    100
   ],
   "AngioFlag": "N",
   "BitsAllocated": 16,
   "BitsStored": 12,
   "BodyPartExamined": "BRAIN",
   "Columns": 900,
   "EchoNumbers": 1,
   "EchoTime": 34.0,
   "EchoTrainLength": 100,
   "FlipAngle": 90.0,
   "HighBit": 11,
   "ImageOrientationPatient": [
    0.99984769491393,
    0.01726962016802,
    -0.0025193639194,
    -0.017452420328,
    0.98937507869136,
    -0.1443342187049
   ],
   "ImagePositionPatient": [
    -884.15574712732,
    -921.1210857163,
    63.087795284719
   ],
   "ImageType": [
    "ORIGINAL",
    "PRIMARY",
    "M",
    "ND",
    "MOSAIC"
   ],
   "ImagedNucleus": "1H",
   "ImagingFrequency": 123.257768,
   "InPlanePhaseEncodingDirection": "COL",
   "MRAcquisitionType": "2D",
   "MagneticFieldStrength": 3.0,
   "Manufacturer": "SIEMENS",
   "ManufacturerModelName": "Prisma",
   "Modality": "MR",
   "NumberOfAverages": 1.0,
   "NumberOfPhaseEncodingSteps": 100,
   "PercentPhaseFieldOfView": 100.0,
   "PercentSampling": 100.0,
   "PerformedProcedureStepStartTime": "131910.311000",
   "PhotometricInterpretation": "MONOCHROME2",
   "PixelBandwidth": 2380.0,
   "PixelRepresentation": 0,
   "PixelSpacing": [
    2.0,
    2.0
   ],
   "ProtocolName": "bold_100x100_s3_2x2x2_static_256",
   "RepetitionTime": 2000.0,
   "Rows": 900,
   "SAR": 0.08450555289292,
   "SamplesPerPixel": 1,
   "ScanOptions": "FS",
   "ScanningSequence": "EP",
   "SequenceName": "*epfid2d1_100",
   "SequenceVariant": "SK",
   "SeriesDescription": "bold_100x100_s3_2x2x2_static_256",
   "SeriesNumber": 12,
   "SeriesTime": "143219.846000",
   "SliceLocation": -70.542542670664,
   "SliceThickness": 2.0,
   "SmallestImagePixelValue": 0,
   "SoftwareVersions": "syngo MR E11",
   "SpacingBetweenSlices": 2.0000000390806,
   "SpecificCharacterSet": "ISO_IR 100",
   "StudyID": "1",
   "StudyTime": "131910.219000",
   "TransmitCoilName": "Body",
   "VariableFlipAngleFlag": "N",
   "WindowCenterWidthExplanation": "Algo1",
   "dBdt": 0.0
  },
  "slices": {}
 },
 "time": {
  "samples": {
   "AcquisitionNumber": [
    1,
    2,
    3,
    4,
    5,
    6,
    7,
    8,
    9,
    10,
    11,
    12,
    13,
    14,
    15,
    16,
    17,
    18,
    19,
    20,
    21,
    22,
    23,
    24,
    25,
    26,
    27,
    28,
    29,
    30,
    31,
    32,
    33,
    34,
    35,
    36,
    37,
    38,
    39,
    40,
    41,
    42,
    43,
    44,
    45,
    46,
    47,
    48,
    49,
    50,
    51,
    52,
    53,
    54,
    55,
    56,
    57,
    58,
    59,
    60,
    61,
    62,
    63,
    64,
    65,
    66,
    67,
    68,
    69,
    70,
    71,
    72,
    73,
    74,
    75,
    76,
    77,
    78,
    79,
    80,
    81,
    82,
    83,
    84,
    85,
    86,
    87,
    88,
    89,
    90,
    91,
    92,
    93,
    94,
    95,
    96,
    97,
    98,
    99,
    100,
    101,
    102,
    103,
    104,
    105,
    106,
    107,
    108,
    109,
    110,
    111,
    112,
    113,
    114,
    115,
    116,
    117,
    118,
    119,
    120,
    121,
    122,
    123,
    124,
    125,
    126,
    127,
    128,
    129,
    130,
    131,
    132,
    133,
    134,
    135,
    136,
    137,
    138,
    139,
    140,
    141,
    142,
    143,
    144,
    145,
    146,
    147,
    148,
    149,
    150,
    151,
    152,
    153,
    154,
    155,
    156,
    157,
    158,
    159,
    160,
    161,
    162,
    163,
    164,
    165,
    166,
    167,
    168,
    169,
    170,
    171,
    172,
    173,
    174,
    175,
    176,
    177,
    178,
    179,
    180,
    181,
    182,
    183,
    184,
    185,
    186,
    187,
    188,
    189,
    190,
    191,
    192,
    193,
    194,
    195,
    196,
    197,
    198,
    199,
    200,
    201,
    202,
    203,
    204,
    205,
    206,
    207,
    208,
    209,
    210,
    211,
    212,
    213,
    214,
    215,
    216,
    217,
    218,
    219,
    220,
    221,
    222,
    223,
    224,
    225,
    226,
    227,
    228,
    229,
    230,
    231,
    232,
    233,
    234,
    235,
    236,
    237,
    238,
    239,
    240,
    241,
    242,
    243,
    244,
    245,
    246,
    247,
    248,
    249,
    250,
    251,
    252,
    253,
    254,
    255,
    256
   ],
   "AcquisitionTime": [
    "143217.397500",
    "143219.397500",
    "143221.397500",
    "143223.397500",
    "143225.397500",
    "143227.397500",
    "143229.397500",
    "143231.397500",
    "143233.397500",
    "143235.397500",
    "143237.397500",
    "143239.397500",
    "143241.397500",
    "143243.397500",
    "143245.397500",
    "143247.397500",
    "143249.397500",
    "143251.397500",
    "143253.397500",
    "143255.397500",
    "143257.397500",
    "143259.397500",
    "143301.397500",
    "143303.397500",
    "143305.397500",
    "143307.397500",
    "143309.397500",
    "143311.397500",
    "143313.397500",
    "143315.397500",
    "143317.397500",
    "143319.397500",
    "143321.397500",
    "143323.397500",
    "143325.397500",
    "143327.397500",
    "143329.397500",
    "143331.397500",
    "143333.397500",
    "143335.397500",
    "143337.397500",
    "143339.397500",
    "143341.397500",
    "143343.397500",
    "143345.397500",
    "143347.397500",
    "143349.397500",
    "143351.397500",
    "143353.397500",
    "143355.397500",
    "143357.397500",
    "143359.397500",
    "143401.397500",
    "143403.397500",
    "143405.397500",
    "143407.397500",
    "143409.397500",
    "143411.397500",
    "143413.397500",
    "143415.397500",
    "143417.397500",
    "143419.397500",
    "143421.397500",
    "143423.397500",
    "143425.397500",
    "143427.397500",
    "143429.397500",
    "143431.397500",
    "143433.397500",
    "143435.397500",
    "143437.397500",
    "143439.397500",
    "143441.397500",
    "143443.397500",
    "143445.397500",
    "143447.397500",
    "143449.397500",
    "143451.397500",
    "143453.397500",
    "143455.397500",
    "143457.397500",
    "143459.397500",
    "143501.397500",
    "143503.397500",
    "143505.397500",
    "143507.397500",
    "143509.397500",
    "143511.397500",
    "143513.397500",
    "143515.397500",
    "143517.397500",
    "143519.397500",
    "143521.397500",
    "143523.397500",
    "143525.397500",
    "143527.397500",
    "143529.397500",
    "143531.397500",
    "143533.397500",
    "143535.397500",
    "143537.397500",
    "143539.397500",
    "143541.397500",
    "143543.397500",
    "143545.397500",
    "143547.397500",
    "143549.397500",
    "143551.397500",
    "143553.397500",
    "143555.397500",
    "143557.397500",
    "143559.397500",
    "143601.397500",
    "143603.397500",
    "143605.397500",
    "143607.397500",
    "143609.397500",
    "143611.397500",
    "143613.397500",
    "143615.397500",
    "143617.397500",
    "143619.397500",
    "143621.397500",
    "143623.397500",
    "143625.397500",
    "143627.397500",
    "143629.397500",
    "143631.397500",
    "143633.397500",
    "143635.397500",
    "143637.397500",
    "143639.397500",
    "143641.397500",
    "143643.397500",
    "143645.397500",
    "143647.397500",
    "143649.397500",
    "143651.397500",
    "143653.397500",
    "143655.397500",
    "143657.397500",
    "143659.397500",
    "143701.397500",
    "143703.397500",
    "143705.397500",
    "143707.397500",
    "143709.397500",
    "143711.397500",
    "143713.397500",
    "143715.397500",
    "143717.397500",
    "143719.397500",
    "143721.397500",
    "143723.397500",
    "143725.397500",
    "143727.397500",
    "143729.397500",
    "143731.397500",
    "143733.397500",
    "143735.397500",
    "143737.397500",
    "143739.397500",
    "143741.397500",
    "143743.397500",
    "143745.397500",
    "143747.397500",
    "143749.397500",
    "143751.397500",
    "143753.397500",
    "143755.397500",
    "143757.397500",
    "143759.397500",
    "143801.397500",
    "143803.397500",
    "143805.397500",
    "143807.397500",
    "143809.397500",
    "143811.397500",
    "143813.397500",
    "143815.397500",
    "143817.397500",
    "143819.397500",
    "143821.397500",
    "143823.397500",
    "143825.397500",
    "143827.397500",
    "143829.397500",
    "143831.397500",
    "143833.397500",
    "143835.397500",
    "143837.397500",
    "143839.397500",
    "143841.397500",
    "143843.397500",
    "143845.397500",
    "143847.397500",
    "143849.397500",
    "143851.397500",
    "143853.397500",
    "143855.397500",
    "143857.397500",
    "143859.397500",
    "143901.397500",
    "143903.397500",
    "143905.397500",
    "143907.397500",
    "143909.397500",
    "143911.397500",
    "143913.397500",
    "143915.397500",
    "143917.397500",
    "143919.397500",
    "143921.397500",
    "143923.397500",
    "143925.397500",
    "143927.397500",
    "143929.397500",
    "143931.397500",
    "143933.397500",
    "143935.397500",
    "143937.397500",
    "143939.397500",
    "143941.397500",
    "143943.397500",
    "143945.397500",
    "143947.397500",
    "143949.397500",
    "143951.397500",
    "143953.397500",
    "143955.397500",
    "143957.397500",
    "143959.397500",
    "144001.397500",
    "144003.397500",
    "144005.397500",
    "144007.397500",
    "144009.397500",
    "144011.397500",
    "144013.397500",
    "144015.397500",
    "144017.397500",
    "144019.397500",
    "144021.397500",
    "144023.397500",
    "144025.397500",
    "144027.397500",
    "144029.397500",
    "144031.397500",
    "144033.397500",
    "144035.397500",
    "144037.397500",
    "144039.397500",
    "144041.397500",
    "144043.397500",
    "144045.397500",
    "144047.397500"
   ],
   "ContentTime": [
    "143219.850000",
    "143220.845000",
    "143222.845000",
    "143224.846000",
    "143226.846000",
    "143228.846000",
    "143230.847000",
    "143232.845000",
    "143234.846000",
    "143236.845000",
    "143238.845000",
    "143240.846000",
    "143242.845000",
    "143244.845000",
    "143246.846000",
    "143248.846000",
    "143250.846000",
    "143252.845000",
    "143254.846000",
    "143256.845000",
    "143258.845000",
    "143300.845000",
    "143302.845000",
    "143304.847000",
    "143306.846000",
    "143309.346000",
    "143310.845000",
    "143312.845000",
    "143314.845000",
    "143316.846000",
    "143318.845000",
    "143320.846000",
    "143322.846000",
    "143324.846000",
    "143326.845000",
    "143328.846000",
    "143330.846000",
    "143332.845000",
    "143334.846000",
    "143336.846000",
    "143338.845000",
    "143340.847000",
    "143342.846000",
    "143344.845000",
    "143346.845000",
    "143348.845000",
    "143350.846000",
    "143352.845000",
    "143354.846000",
    "143356.846000",
    "143358.846000",
    "143400.846000",
    "143402.845000",
    "143404.845000",
    "143406.845000",
    "143408.846000",
    "143410.845000",
    "143412.845000",
    "143414.846000",
    "143416.845000",
    "143418.845000",
    "143420.845000",
    "143422.845000",
    "143424.845000",
    "143426.845000",
    "143428.845000",
    "143430.846000",
    "143432.846000",
    "143434.846000",
    "143436.845000",
    "143438.845000",
    "143440.846000",
    "143442.845000",
    "143444.845000",
    "143446.845000",
    "143448.846000",
    "143450.847000",
    "143452.846000",
    "143454.845000",
    "143456.845000",
    "143458.846000",
    "143500.846000",
    "143502.846000",
    "143504.846000",
    "143506.846000",
    "143508.847000",
    "143510.846000",
    "143512.845000",
    "143514.846000",
    "143516.846000",
    "143518.846000",
    "143520.846000",
    "143522.845000",
    "143524.847000",
    "143526.845000",
    "143528.845000",
    "143530.845000",
    "143532.845000",
    "143534.845000",
    "143536.845000",
    "143538.845000",
    "143540.845000",
    "143542.846000",
    "143544.846000",
    "143546.846000",
    "143548.845000",
    "143550.845000",
    "143552.845000",
    "143554.846000",
    "143556.846000",
    "143558.845000",
    "143600.846000",
    "143602.845000",
    "143604.845000",
    "143606.865000",
    "143608.846000",
    "143610.846000",
    "143612.846000",
    "143614.845000",
    "143616.847000",
    "143618.847000",
    "143620.846000",
    "143622.846000",
    "143624.846000",
    "143626.846000",
    "143628.845000",
    "143630.845000",
    "143632.845000",
    "143634.846000",
    "143636.845000",
    "143638.845000",
    "143640.845000",
    "143642.845000",
    "143644.846000",
    "143646.846000",
    "143648.846000",
    "143650.846000",
    "143652.847000",
    "143654.846000",
    "143656.845000",
    "143658.845000",
    "143700.845000",
    "143702.846000",
    "143704.846000",
    "143706.845000",
    "143708.846000",
    "143710.847000",
    "143712.845000",
    "143714.845000",
    "143716.846000",
    "143718.845000",
    "143720.846000",
    "143722.846000",
    "143724.845000",
    "143726.846000",
    "143728.847000",
    "143730.846000",
    "143732.846000",
    "143734.845000",
    "143736.845000",
    "143738.846000",
    "143740.846000",
    "143742.846000",
    "143744.846000",
    "143746.846000",
    "143748.846000",
    "143750.845000",
    "143752.846000",
    "143754.845000",
    "143756.846000",
    "143758.845000",
    "143800.845000",
    "143802.846000",
    "143804.845000",
    "143806.846000",
    "143808.846000",
    "143810.846000",
    "143812.845000",
    "143814.846000",
    "143816.845000",
    "143818.846000",
    "143820.846000",
    "143822.845000",
    "143824.845000",
    "143826.846000",
    "143828.845000",
    "143830.846000",
    "143832.863000",
    "143834.846000",
    "143836.846000",
    "143838.847000",
    "143840.846000",
    "143842.846000",
    "143844.846000",
    "143846.846000",
    "143848.845000",
    "143850.845000",
    "143852.846000",
    "143854.846000",
    "143856.845000",
    "143858.845000",
    "143900.846000",
    "143902.846000",
    "143904.845000",
    "143906.846000",
    "143908.845000",
    "143910.846000",
    "143912.847000",
    "143914.846000",
    "143916.846000",
    "143918.846000",
    "143920.846000",
    "143922.845000",
    "143924.846000",
    "143926.845000",
    "143928.846000",
    "143930.846000",
    "143932.846000",
    "143934.845000",
    "143936.846000",
    "143938.846000",
    "143940.845000",
    "143942.846000",
    "143944.845000",
    "143946.847000",
    "143948.847000",
    "143950.845000",
    "143952.845000",
    "143954.845000",
    "143956.845000",
    "143958.846000",
    "144000.846000",
    "144002.845000",
    "144004.847000",
    "144006.845000",
    "144008.845000",
    "144010.846000",
    "144012.845000",
    "144014.845000",
    "144016.845000",
    "144018.846000",
    "144020.846000",
    "144022.846000",
    "144024.845000",
    "144026.846000",
    "144028.845000",
    "144030.846000",
    "144032.845000",
    "144034.846000",
    "144037.345000",
    "144038.847000",
    "144040.846000",
    "144042.845000",
    "144044.846000",
    "144046.846000",
    "144048.691000"
   ],
   "InstanceCreationTime": [
    "143219.850000",
    "143220.845000",
    "143222.845000",
    "143224.846000",
    "143226.846000",
    "143228.846000",
    "143230.847000",
    "143232.845000",
    "143234.846000",
    "143236.845000",
    "143238.845000",
    "143240.846000",
    "143242.845000",
    "143244.845000",
    "143246.846000",
    "143248.846000",
    "143250.846000",
    "143252.845000",
    "143254.846000",
    "143256.845000",
    "143258.845000",
    "143300.845000",
    "143302.845000",
    "143304.847000",
    "143306.846000",
    "143309.346000",
    "143310.845000",
    "143312.845000",
    "143314.845000",
    "143316.846000",
    "143318.845000",
    "143320.846000",
    "143322.846000",
    "143324.846000",
    "143326.845000",
    "143328.846000",
    "143330.846000",
    "143332.845000",
    "143334.846000",
    "143336.846000",
    "143338.845000",
    "143340.847000",
    "143342.846000",
    "143344.845000",
    "143346.845000",
    "143348.845000",
    "143350.846000",
    "143352.845000",
    "143354.846000",
    "143356.846000",
    "143358.846000",
    "143400.846000",
    "143402.845000",
    "143404.845000",
    "143406.845000",
    "143408.846000",
    "143410.845000",
    "143412.845000",
    "143414.846000",
    "143416.845000",
    "143418.845000",
    "143420.845000",
    "143422.845000",
    "143424.845000",
    "143426.845000",
    "143428.845000",
    "143430.846000",
    "143432.846000",
    "143434.846000",
    "143436.845000",
    "143438.845000",
    "143440.846000",
    "143442.845000",
    "143444.845000",
    "143446.845000",
    "143448.846000",
    "143450.847000",
    "143452.846000",
    "143454.845000",
    "143456.845000",
    "143458.846000",
    "143500.846000",
    "143502.846000",
    "143504.846000",
    "143506.846000",
    "143508.847000",
    "143510.846000",
    "143512.845000",
    "143514.846000",
    "143516.846000",
    "143518.846000",
    "143520.846000",
    "143522.845000",
    "143524.847000",
    "143526.845000",
    "143528.845000",
    "143530.845000",
    "143532.845000",
    "143534.845000",
    "143536.845000",
    "143538.845000",
    "143540.845000",
    "143542.846000",
    "143544.846000",
    "143546.846000",
    "143548.845000",
    "143550.845000",
    "143552.845000",
    "143554.846000",
    "143556.846000",
    "143558.845000",
    "143600.846000",
    "143602.845000",
    "143604.845000",
    "143606.865000",
    "143608.846000",
    "143610.846000",
    "143612.846000",
    "143614.845000",
    "143616.847000",
    "143618.847000",
    "143620.846000",
    "143622.846000",
    "143624.846000",
    "143626.846000",
    "143628.845000",
    "143630.845000",
    "143632.845000",
    "143634.846000",
    "143636.845000",
    "143638.845000",
    "143640.845000",
    "143642.845000",
    "143644.846000",
    "143646.846000",
    "143648.846000",
    "143650.846000",
    "143652.847000",
    "143654.846000",
    "143656.845000",
    "143658.845000",
    "143700.845000",
    "143702.846000",
    "143704.846000",
    "143706.845000",
    "143708.846000",
    "143710.847000",
    "143712.845000",
    "143714.845000",
    "143716.846000",
    "143718.845000",
    "143720.846000",
    "143722.846000",
    "143724.845000",
    "143726.846000",
    "143728.847000",
    "143730.846000",
    "143732.846000",
    "143734.845000",
    "143736.845000",
    "143738.846000",
    "143740.846000",
    "143742.846000",
    "143744.846000",
    "143746.846000",
    "143748.846000",
    "143750.845000",
    "143752.846000",
    "143754.845000",
    "143756.846000",
    "143758.845000",
    "143800.845000",
    "143802.846000",
    "143804.845000",
    "143806.846000",
    "143808.846000",
    "143810.846000",
    "143812.845000",
    "143814.846000",
    "143816.845000",
    "143818.846000",
    "143820.846000",
    "143822.845000",
    "143824.845000",
    "143826.846000",
    "143828.845000",
    "143830.846000",
    "143832.863000",
    "143834.846000",
    "143836.846000",
    "143838.847000",
    "143840.846000",
    "143842.846000",
    "143844.846000",
    "143846.846000",
    "143848.845000",
    "143850.845000",
    "143852.846000",
    "143854.846000",
    "143856.845000",
    "143858.845000",
    "143900.846000",
    "143902.846000",
    "143904.845000",
    "143906.846000",
    "143908.845000",
    "143910.846000",
    "143912.847000",
    "143914.846000",
    "143916.846000",
    "143918.846000",
    "143920.846000",
    "143922.845000",
    "143924.846000",
    "143926.845000",
    "143928.846000",
    "143930.846000",
    "143932.846000",
    "143934.845000",
    "143936.846000",
    "143938.846000",
    "143940.845000",
    "143942.846000",
    "143944.845000",
    "143946.847000",
    "143948.847000",
    "143950.845000",
    "143952.845000",
    "143954.845000",
    "143956.845000",
    "143958.846000",
    "144000.846000",
    "144002.845000",
    "144004.847000",
    "144006.845000",
    "144008.845000",
    "144010.846000",
    "144012.845000",
    "144014.845000",
    "144016.845000",
    "144018.846000",
    "144020.846000",
    "144022.846000",
    "144024.845000",
    "144026.846000",
    "144028.845000",
    "144030.846000",
    "144032.845000",
    "144034.846000",
    "144037.345000",
    "144038.847000",
    "144040.846000",
    "144042.845000",
    "144044.846000",
    "144046.846000",
    "144048.691000"
   ],
   "InstanceNumber": [
    1,
    2,
    3,
    4,
    5,
    6,
    7,
    8,
    9,
    10,
    11,
    12,
    13,
    14,
    15,
    16,
    17,
    18,
    19,
    20,
    21,
    22,
    23,
    24,
    25,
    26,
    27,
    28,
    29,
    30,
    31,
    32,
    33,
    34,
    35,
    36,
    37,
    38,
    39,
    40,
    41,
    42,
    43,
    44,
    45,
    46,
    47,
    48,
    49,
    50,
    51,
    52,
    53,
    54,
    55,
    56,
    57,
    58,
    59,
    60,
    61,
    62,
    63,
    64,
    65,
    66,
    67,
    68,
    69,
    70,
    71,
    72,
    73,
    74,
    75,
    76,
    77,
    78,
    79,
    80,
    81,
    82,
    83,
    84,
    85,
    86,
    87,
    88,
    89,
    90,
    91,
    92,
    93,
    94,
    95,
    96,
    97,
    98,
    99,
    100,
    101,
    102,
    103,
    104,
    105,
    106,
    107,
    108,
    109,
    110,
    111,
    112,
    113,
    114,
    115,
    116,
    117,
    118,
    119,
    120,
    121,
    122,
    123,
    124,
    125,
    126,
    127,
    128,
    129,
    130,
    131,
    132,
    133,
    134,
    135,
    136,
    137,
    138,
    139,
    140,
    141,
    142,
    143,
    144,
    145,
    146,
    147,
    148,
    149,
    150,
    151,
    152,
    153,
    154,
    155,
    156,
    157,
    158,
    159,
    160,
    161,
    162,
    163,
    164,
    165,
    166,
    167,
    168,
    169,
    170,
    171,
    172,
    173,
    174,
    175,
    176,
    177,
    178,
    179,
    180,
    181,
    182,
    183,
    184,
    185,
    186,
    187,
    188,
    189,
    190,
    191,
    192,
    193,
    194,
    195,
    196,
    197,
    198,
    199,
    200,
    201,
    202,
    203,
    204,
    205,
    206,
    207,
    208,
    209,
    210,
    211,
    212,
    213,
    214,
    215,
    216,
    217,
    218,
    219,
    220,
    221,
    222,
    223,
    224,
    225,
    226,
    227,
    228,
    229,
    230,
    231,
    232,
    233,
    234,
    235,
    236,
    237,
    238,
    239,
    240,
    241,
    242,
    243,
    244,
    245,
    246,
    247,
    248,
    249,
    250,
    251,
    252,
    253,
    254,
    255,
    256
   ],
   "LargestImagePixelValue": [
    3505,
    3451,
    3430,
    3412,
    3408,
    3336,
    3345,
    3372,
    3354,
    3362,
    3367,
    3405,
    3390,
    3411,
    3423,
    3401,
    3374,
    3384,
    3434,
    3376,
    3280,
    3328,
    3338,
    3289,
    3286,
    3287,
    3377,
    3389,
    3326,
    3374,
    3282,
    3272,
    3399,
    3430,
    3380,
    3409,
    3347,
    3311,
    3256,
    3326,
    3401,
    3443,
    3432,
    3420,
    3447,
    3377,
    3220,
    3208,
    3295,
    3312,
    3345,
    3348,
    3357,
    3317,
    3305,
    3332,
    3351,
    3356,
    3338,
    3323,
    3385,
    3364,
    3365,
    3369,
    3425,
    3419,
    3216,
    3310,
    3353,
    3322,
    3350,
    3344,
    3329,
    3328,
    3351,
    3289,
    3233,
    3208,
    3246,
    3224,
    3207,
    3197,
    3224,
    3212,
    3230,
    3224,
    3254,
    3246,
    3238,
    3271,
    3308,
    3277,
    3274,
    3260,
    3380,
    3340,
    3341,
    3310,
    3312,
    3309,
    3346,
    3319,
    3331,
    3319,
    3379,
    3332,
    3330,
    3343,
    3341,
    3366,
    3359,
    3412,
    3402,
    3423,
    3332,
    3370,
    3323,
    3355,
    3333,
    3318,
    3262,
    3268,
    3192,
    3196,
    3221,
    3282,
    3317,
    3311,
    3344,
    3351,
    3333,
    3340,
    3331,
    3157,
    3170,
    3187,
    3214,
    3296,
    3255,
    3180,
    3222,
    3194,
    3200,
    3319,
    3286,
    3305,
    3296,
    3270,
    3239,
    3242,
    3270,
    3256,
    3316,
    3301,
    3226,
    3191,
    3241,
    3222,
    3194,
    3249,
    3292,
    3278,
    3332,
    3241,
    3248,
    3274,
    3252,
    3210,
    3190,
    3248,
    3342,
    3299,
    3325,
    3336,
    3312,
    3300,
    3321,
    3295,
    3296,
    3305,
    3312,
    3294,
    3230,
    3188,
    3188,
    3239,
    3225,
    3202,
    3234,
    3200,
    3219,
    3205,
    3218,
    3192,
    3227,
    3219,
    3242,
    3278,
    3193,
    3203,
    3211,
    3177,
    3191,
    3188,
    3236,
    3193,
    3196,
    3257,
    3216,
    3240,
    3230,
    3222,
    3258,
    3256,
    3247,
    3211,
    3213,
    3232,
    3209,
    3201,
    3223,
    3181,
    3191,
    3235,
    3224,
    3240,
    3229,
    3215,
    3249,
    3236,
    3268,
    3246,
    3245,
    3211,
    3208,
    3205,
    3183,
    3216,
    3210,
    3205,
    3186,
    3223,
    3200,
    3217,
    3241,
    3228,
    3214,
    3215,
    3271,
    3247,
    3271,
    3256,
    3266,
    3240,
    3226,
    3234
   ],
   "WindowCenter": [
    840.0,
    838.0,
    837.0,
    836.0,
    835.0,
    834.0,
    834.0,
    835.0,
    835.0,
    835.0,
    837.0,
    837.0,
    836.0,
    835.0,
    835.0,
    835.0,
    836.0,
    836.0,
    837.0,
    836.0,
    835.0,
    836.0,
    838.0,
    837.0,
    836.0,
    836.0,
    837.0,
    836.0,
    835.0,
    835.0,
    838.0,
    839.0,
    838.0,
    836.0,
    835.0,
    835.0,
    835.0,
    833.0,
    834.0,
    835.0,
    835.0,
    835.0,
    836.0,
    836.0,
    836.0,
    835.0,
    834.0,
    833.0,
    834.0,
    834.0,
    834.0,
    834.0,
    836.0,
    834.0,
    834.0,
    835.0,
    836.0,
    835.0,
    834.0,
    833.0,
    834.0,
    835.0,
    836.0,
    836.0,
    836.0,
    836.0,
    836.0,
    838.0,
    837.0,
    834.0,
    833.0,
    833.0,
    833.0,
    834.0,
    835.0,
    836.0,
    836.0,
    834.0,
    834.0,
    833.0,
    832.0,
    833.0,
    834.0,
    834.0,
    834.0,
    834.0,
    836.0,
    836.0,
    835.0,
    836.0,
    836.0,
    835.0,
    834.0,
    834.0,
    837.0,
    836.0,
    836.0,
    836.0,
    836.0,
    837.0,
    837.0,
    836.0,
    836.0,
    836.0,
    836.0,
    836.0,
    836.0,
    836.0,
    836.0,
