{
  "AcquisitionMatrixPE": 100,
  "AcquisitionNumber": 1,
  "AcquisitionTime": "16:16:21.022500",
  "BandwidthPerPixelPhaseEncode": 18.519,
  "BaseResolution": 100,
  "BodyPartExamined": "BRAIN",
  "ConsistencyInfo": "N4_VE11C_LATEST_20160120",
  "ConversionSoftware": "dcm2niix",
  "ConversionSoftwareVersion": "v1.0.20180622 GCC4.9.2",
  "DerivedVendorReportedEchoSpacing": 0.000539986,
  "DeviceSerialNumber": "166078",
  "DwellTime": 2.1e-06,
  "EchoTime": 0.034,
  "EchoTrainLength": 100,
  "EffectiveEchoSpacing": 0.000539986,
  "FlipAngle": 90,
  "ImageOrientationPatientDICOM": [1, -7.37861e-06, -6.87783e-05, 2.87274e-08, 0.994339, -0.106256],
  "ImageType": [
    "ORIGINAL",
    "PRIMARY",
    "M",
    "ND",
    "MOSAIC"
],
  "InPlanePhaseEncodingDirectionDICOM": "COL",
  "InstitutionAddress": "Street_StreetNo_Bei_Jing_District_CN_ZIP",
  "InstitutionName": "BeiJing_Normal_University",
  "InstitutionalDepartmentName": "Department",
  "MRAcquisitionType": "2D",
  "MagneticFieldStrength": 3,
  "Manufacturer": "Siemens",
  "ManufacturersModelName": "Prisma",
  "Modality": "MR",
  "MultibandAccelerationFactor": 3,
  "PartialFourier": 1,
  "PatientPosition": "HFS",
  "PercentPhaseFOV": 100,
  "PhaseEncodingDirection": "j-",
  "PhaseEncodingSteps": 100,
  "PhaseResolution": 1,
  "PixelBandwidth": 2380,
  "ProcedureStepDescription": "BNU_P2018_64CH_Zhen.ZongLei",
  "ProtocolName": "bold_100x100_s3_2x2x2_retino_150",
  "PulseSequenceDetails": "%SiemensSeq%_ep2d_bold",
  "ReceiveCoilActiveElements": "HC1-7;NC1",
  "ReceiveCoilName": "HeadNeck_64",
  "ReconMatrixPE": 100,
  "RepetitionTime": 2,
  "SAR": 0.0816931,
  "ScanOptions": "FS",
  "ScanningSequence": "EP",
  "SequenceName": "_epfid2d1_100",
  "SequenceVariant": "SK",
  "SeriesDescription": "bold_100x100_s3_2x2x2_retino_150",
  "SeriesNumber": 13,
  "ShimSetting": [-5461, -11518, -1248, 228, -37, -154, -137, 42],
  "SliceThickness": 2,
  "SliceTiming": [1.485, 0, 0.99, 0.0825, 1.0725, 0.165, 1.155, 0.2475, 1.2375, 0.33, 1.32, 0.4125, 1.4025, 0.5775, 1.5675, 0.66, 1.65, 0.7425, 1.7325, 0.825, 1.815, 0.9075, 1.8975, 0.495, 1.485, 0, 0.99, 0.0825, 1.0725, 0.165, 1.155, 0.2475, 1.2375, 0.33, 1.32, 0.4125, 1.4025, 0.5775, 1.5675, 0.66, 1.65, 0.7425, 1.7325, 0.825, 1.815, 0.9075, 1.8975, 0.495, 1.485, 0, 0.99, 0.0825, 1.0725, 0.165, 1.155, 0.2475, 1.2375, 0.33, 1.32, 0.4125, 1.4025, 0.5775, 1.5675, 0.66, 1.65, 0.7425, 1.7325, 0.825, 1.815, 0.9075, 1.8975, 0.495],
  "SoftwareVersions": "syngo_MR_E11",
  "SpacingBetweenSlices": 2,
  "StationName": "AWP166078",
  "TaskName": "retinotopy",
  "TotalReadoutTime": 0.0534586,
  "TxRefAmp": 249.589,
  "dcmmeta_affine": [
    [-2.0, 5.745484088492958e-08, -0.000138345843879506, 100.02751922607422],
    [1.4757224562345073e-05, 1.9886776208877563, -0.2125122994184494, -81.75200653076172],
    [-0.00013755651889368892, 0.2125122845172882, 1.9886776208877563, -79.15380096435547],
    [0.0, 0.0, 0.0, 1.0]
],
  "dcmmeta_reorient_transform": [
    [0.0, -1.0, 0.0, 99.0],
    [1.0, 0.0, 0.0, 0.0],
    [0.0, 0.0, 1.0, 0.0],
    [0.0, 0.0, 0.0, 1.0]
],
  "dcmmeta_shape": [100, 100, 72, 150],
  "dcmmeta_slice_dim": 2,
  "dcmmeta_version": 0.6,
  "global": {
    "const": {
      "AcquisitionMatrix": [100, 0, 0, 100],
      "AngioFlag": "N",
      "BitsAllocated": 16,
      "BitsStored": 12,
      "BodyPartExamined": "BRAIN",
      "Columns": 900,
      "EchoNumbers": 1,
      "EchoTime": 34.0,
      "EchoTrainLength": 100,
      "FlipAngle": 90.0,
      "HighBit": 11,
      "ImageOrientationPatient": [0.99999999760755, -7.37861208e-06, -6.87782609e-05, 2.8727421e-08, 0.9943387912732, -0.1062561441487],
      "ImagePositionPatient": [-900.02754367261, -910.59220774297, 26.944856316083],
      "ImageType": [
        "ORIGINAL",
        "PRIMARY",
        "M",
        "ND",
        "MOSAIC"
],
      "ImagedNucleus": "1H",
      "ImagingFrequency": 123.257761,
      "InPlanePhaseEncodingDirection": "COL",
      "MRAcquisitionType": "2D",
      "MagneticFieldStrength": 3.0,
      "Manufacturer": "SIEMENS",
      "ManufacturerModelName": "Prisma",
      "Modality": "MR",
      "NumberOfAverages": 1.0,
      "NumberOfPhaseEncodingSteps": 100,
      "PercentPhaseFieldOfView": 100.0,
      "PercentSampling": 100.0,
      "PerformedProcedureStepStartTime": "151925.678000",
      "PhotometricInterpretation": "MONOCHROME2",
      "PixelBandwidth": 2380.0,
      "PixelRepresentation": 0,
      "PixelSpacing": [2.0, 2.0],
      "ProtocolName": "bold_100x100_s3_2x2x2_retino_150",
      "RepetitionTime": 2000.0,
      "Rows": 900,
      "SAR": 0.08169310377612,
      "SamplesPerPixel": 1,
      "ScanOptions": "FS",
      "ScanningSequence": "EP",
      "SequenceName": "*epfid2d1_100",
      "SequenceVariant": "SK",
      "SeriesDescription": "bold_100x100_s3_2x2x2_retino_150",
      "SeriesNumber": 13,
      "SeriesTime": "161623.730000",
      "SliceLocation": -70.025958386435,
      "SliceThickness": 2.0,
      "SmallestImagePixelValue": 0,
      "SoftwareVersions": "syngo MR E11",
      "SpacingBetweenSlices": 2.0000000766297,
      "SpecificCharacterSet": "ISO_IR 100",
      "StudyID": "1",
      "StudyTime": "151925.613000",
      "TransmitCoilName": "Body",
      "VariableFlipAngleFlag": "N",
      "WindowCenterWidthExplanation": "Algo1",
      "dBdt": 0.0},
    "slices": {}
  },
  "time": {
    "samples": {
      "AcquisitionNumber": [1, 2, 3, 4, 5, 6, 7, 8, 9, 10, 11, 12, 13, 14, 15, 16, 17, 18, 19, 20, 21, 22, 23, 24, 25, 26, 27, 28, 29, 30, 31, 32, 33, 34, 35, 36, 37, 38, 39, 40, 41, 42, 43, 44, 45, 46, 47, 48, 49, 50, 51, 52, 53, 54, 55, 56, 57, 58, 59, 60, 61, 62, 63, 64, 65, 66, 67, 68, 69, 70, 71, 72, 73, 74, 75, 76, 77, 78, 79, 80, 81, 82, 83, 84, 85, 86, 87, 88, 89, 90, 91, 92, 93, 94, 95, 96, 97, 98, 99, 100, 101, 102, 103, 104, 105, 106, 107, 108, 109, 110, 111, 112, 113, 114, 115, 116, 117, 118, 119, 120, 121, 122, 123, 124, 125, 126, 127, 128, 129, 130, 131, 132, 133, 134, 135, 136, 137, 138, 139, 140, 141, 142, 143, 144, 145, 146, 147, 148, 149, 150],
      "AcquisitionTime": ["161621.022500", "161623.022500", "161625.022500", "161627.022500", "161629.022500", "161631.022500", "161633.022500", "161635.022500", "161637.022500", "161639.022500", "161641.022500", "161643.022500", "161645.022500", "161647.022500", "161649.022500", "161651.022500", "161653.022500", "161655.022500", "161657.022500", "161659.022500", "161701.022500", "161703.022500", "161705.022500", "161707.022500", "161709.022500", "161711.022500", "161713.022500", "161715.022500", "161717.022500", "161719.022500", "161721.022500", "161723.022500", "161725.022500", "161727.022500", "161729.022500", "161731.022500", "161733.022500", "161735.022500", "161737.022500", "161739.022500", "161741.022500", "161743.022500", "161745.022500", "161747.022500", "161749.022500", "161751.022500", "161753.022500", "161755.022500", "161757.022500", "161759.022500", "161801.022500", "161803.022500", "161805.022500", "161807.022500", "161809.022500", "161811.022500", "161813.022500", "161815.022500", "161817.022500", "161819.022500", "161821.022500", "161823.022500", "161825.022500", "161827.022500", "161829.022500", "161831.022500", "161833.022500", "161835.022500", "161837.022500", "161839.022500", "161841.022500", "161843.022500", "161845.022500", "161847.022500", "161849.022500", "161851.022500", "161853.022500", "161855.022500", "161857.022500", "161859.022500", "161901.022500", "161903.022500", "161905.022500", "161907.022500", "161909.022500", "161911.022500", "161913.022500", "161915.022500", "161917.022500", "161919.022500", "161921.022500", "161923.022500", "161925.022500", "161927.022500", "161929.022500", "161931.022500", "161933.022500", "161935.022500", "161937.022500", "161939.022500", "161941.022500", "161943.022500", "161945.022500", "161947.022500", "161949.022500", "161951.022500", "161953.022500", "161955.022500", "161957.022500", "161959.022500", "162001.022500", "162003.022500", "162005.022500", "162007.022500", "162009.022500", "162011.022500", "162013.022500", "162015.022500", "162017.022500", "162019.022500", "162021.022500", "162023.022500", "162025.022500", "162027.022500", "162029.022500", "162031.022500", "162033.022500", "162035.022500", "162037.022500", "162039.022500", "162041.022500", "162043.022500", "162045.022500", "162047.022500", "162049.022500", "162051.022500", "162053.022500", "162055.022500", "162057.022500", "162059.022500", "162101.022500", "162103.022500", "162105.022500", "162107.022500", "162109.022500", "162111.022500", "162113.022500", "162115.022500", "162117.022500", "162119.022500"],
      "ContentTime": ["161623.734000", "161625.230000", "161627.229000", "161629.229000", "161631.229000", "161633.230000", "161635.230000", "161637.229000", "161639.229000", "161641.229000", "161643.229000", "161645.229000", "161647.229000", "161649.229000", "161651.229000", "161653.229000", "161655.230000", "161657.229000", "161659.229000", "161701.229000", "161703.229000", "161705.229000", "161707.229000", "161709.229000", "161711.229000", "161713.230000", "161715.229000", "161717.229000", "161719.230000", "161721.229000", "161723.230000", "161725.229000", "161727.229000", "161729.230000", "161731.230000", "161733.229000", "161735.229000", "161737.229000", "161739.229000", "161741.229000", "161743.229000", "161745.229000", "161747.229000", "161749.229000", "161750.729000", "161753.230000", "161755.229000", "161757.229000", "161759.229000", "161801.229000", "161803.229000", "161805.229000", "161807.229000", "161809.230000", "161811.229000", "161813.229000", "161815.229000", "161817.229000", "161819.230000", "161821.230000", "161823.230000", "161825.229000", "161827.230000", "161829.230000", "161831.229000", "161833.229000", "161835.229000", "161837.229000", "161839.230000", "161841.229000", "161843.229000", "161845.229000", "161847.229000", "161849.229000", "161851.229000", "161853.229000", "161855.229000", "161857.229000", "161859.230000", "161901.229000", "161903.229000", "161905.230000", "161907.229000", "161909.229000", "161911.230000", "161913.229000", "161915.230000", "161917.230000", "161919.229000", "161921.229000", "161923.230000", "161925.230000", "161927.229000", "161929.229000", "161931.230000", "161933.230000", "161935.230000", "161937.250000", "161939.229000", "161941.229000", "161943.230000", "161945.229000", "161946.729000", "161949.229000", "161951.229000", "161953.230000", "161955.229000", "161957.230000", "161959.229000", "162001.229000", "162003.230000", "162005.230000", "162007.230000", "162009.229000", "162011.229000", "162013.229000", "162015.229000", "162017.229000", "162019.230000", "162021.229000", "162023.229000", "162025.229000", "162027.229000", "162029.229000", "162031.229000", "162033.229000", "162035.229000", "162037.230000", "162039.229000", "162041.230000", "162043.229000", "162045.230000", "162047.229000", "162049.230000", "162051.230000", "162053.230000", "162055.230000", "162057.230000", "162059.230000", "162101.230000", "162103.229000", "162105.229000", "162107.230000", "162109.229000", "162111.229000", "162113.230000", "162115.230000", "162117.230000", "162119.229000", "162120.748000"],
      "InstanceCreationTime": ["161623.734000", "161625.230000", "161627.229000", "161629.229000", "161631.229000", "161633.230000", "161635.230000", "161637.229000", "161639.229000", "161641.229000", "161643.229000", "161645.229000", "161647.229000", "161649.229000", "161651.229000", "161653.229000", "161655.230000", "161657.229000", "161659.229000", "161701.229000", "161703.229000", "161705.229000", "161707.229000", "161709.229000", "161711.229000", "161713.230000", "161715.229000", "161717.229000", "161719.230000", "161721.229000", "161723.230000", "161725.229000", "161727.229000", "161729.230000", "161731.230000", "161733.229000", "161735.229000", "161737.229000", "161739.229000", "161741.229000", "161743.229000", "161745.229000", "161747.229000", "161749.229000", "161750.729000", "161753.230000", "161755.229000", "161757.229000", "161759.229000", "161801.229000", "161803.229000", "161805.229000", "161807.229000", "161809.230000", "161811.229000", "161813.229000", "161815.229000", "161817.229000", "161819.230000", "161821.230000", "161823.230000", "161825.229000", "161827.230000", "161829.230000", "161831.229000", "161833.229000", "161835.229000", "161837.229000", "161839.230000", "161841.229000", "161843.229000", "161845.229000", "161847.229000", "161849.229000", "161851.229000", "161853.229000", "161855.229000", "161857.229000", "161859.230000", "161901.229000", "161903.229000", "161905.230000", "161907.229000", "161909.229000", "161911.230000", "161913.229000", "161915.230000", "161917.230000", "161919.229000", "161921.229000", "161923.230000", "161925.230000", "161927.229000", "161929.229000", "161931.230000", "161933.230000", "161935.230000", "161937.250000", "161939.229000", "161941.229000", "161943.230000", "161945.229000", "161946.729000", "161949.229000", "161951.229000", "161953.230000", "161955.229000", "161957.230000", "161959.229000", "162001.229000", "162003.230000", "162005.230000", "162007.230000", "162009.229000", "162011.229000", "162013.229000", "162015.229000", "162017.229000", "162019.230000", "162021.229000", "162023.229000", "162025.229000", "162027.229000", "162029.229000", "162031.229000", "162033.229000", "162035.229000", "162037.230000", "162039.229000", "162041.230000", "162043.229000", "162045.230000", "162047.229000", "162049.230000", "162051.230000", "162053.230000", "162055.230000", "162057.230000", "162059.230000", "162101.230000", "162103.229000", "162105.229000", "162107.230000", "162109.229000", "162111.229000", "162113.230000", "162115.230000", "162117.230000", "162119.229000", "162120.748000"],
      "InstanceNumber": [1, 2, 3, 4, 5, 6, 7, 8, 9, 10, 11, 12, 13, 14, 15, 16, 17, 18, 19, 20, 21, 22, 23, 24, 25, 26, 27, 28, 29, 30, 31, 32, 33, 34, 35, 36, 37, 38, 39, 40, 41, 42, 43, 44, 45, 46, 47, 48, 49, 50, 51, 52, 53, 54, 55, 56, 57, 58, 59, 60, 61, 62, 63, 64, 65, 66, 67, 68, 69, 70, 71, 72, 73, 74, 75, 76, 77, 78, 79, 80, 81, 82, 83, 84, 85, 86, 87, 88, 89, 90, 91, 92, 93, 94, 95, 96, 97, 98, 99, 100, 101, 102, 103, 104, 105, 106, 107, 108, 109, 110, 111, 112, 113, 114, 115, 116, 117, 118, 119, 120, 121, 122, 123, 124, 125, 126, 127, 128, 129, 130, 131, 132, 133, 134, 135, 136, 137, 138, 139, 140, 141, 142, 143, 144, 145, 146, 147, 148, 149, 150],
      "LargestImagePixelValue": [2915, 2780, 2757, 2731, 2790, 2748, 2783, 2748, 2757, 2743, 2743, 2765, 2728, 2753, 2739, 2741, 2747, 2744, 2740, 2754, 2746, 2729, 2732, 2733, 2737, 2719, 2730, 2725, 2744, 2715, 2721, 2740, 2712, 2765, 2715, 2739, 2718, 2752, 2726, 2798, 2736, 2711, 2740, 2736, 2724, 2729, 2761, 2715, 2737, 2734, 2725, 2733, 2738, 2736, 2738, 2743, 2728, 2761, 2780, 2726, 2732, 2735, 2737, 2761, 2733, 2720, 2919, 2798, 2725, 2771, 2758, 2753, 2738, 2713, 2722, 2708, 2712, 2742, 2749, 2730, 2727, 2741, 2738, 2719, 2758, 2746, 2718, 2756, 2756, 2755, 2752, 2764, 2720, 2718, 2735, 2749, 2759, 2726, 2726, 2714, 2733, 2751, 2777, 2740, 2770, 2745, 2968, 2762, 2772, 2761, 2751, 2979, 2807, 2835, 2803, 2814, 2803, 2767, 2721, 2740, 2753, 2773, 2910, 2759, 2743, 2736, 2730, 2999, 2883, 2742, 2760, 2752, 2769, 2754, 2741, 2733, 2740, 2747, 2751, 2772, 2762, 2762, 2764, 2792, 2781, 2778, 2865, 2778, 2783, 2756],
      "WindowCenter": [803.0, 801.0, 800.0, 799.0, 799.0, 797.0, 798.0, 799.0, 800.0, 801.0, 801.0, 802.0, 800.0, 800.0, 800.0, 799.0, 799.0, 800.0, 800.0, 801.0, 801.0, 801.0, 800.0, 799.0, 798.0, 797.0, 797.0, 799.0, 802.0, 801.0, 800.0, 801.0, 802.0, 802.0, 801.0, 800.0, 799.0, 800.0, 798.0, 799.0, 799.0, 798.0, 799.0, 798.0, 799.0, 801.0, 802.0, 801.0, 800.0, 800.0, 800.0, 799.0, 799.0, 799.0, 799.0, 799.0, 800.0, 801.0, 803.0, 801.0, 800.0, 799.0, 798.0, 798.0, 800.0, 801.0, 802.0, 802.0, 801.0, 801.0, 801.0, 799.0, 798.0, 797.0, 797.0, 798.0, 799.0, 800.0, 800.0, 802.0, 801.0, 800.0, 799.0, 797.0, 798.0, 797.0, 797.0, 799.0, 800.0, 800.0, 802.0, 803.0, 802.0, 800.0, 799.0, 798.0, 798.0, 799.0, 800.0, 799.0, 799.0, 800.0, 801.0, 802.0, 802.0, 801.0, 803.0, 802.0, 802.0, 801.0, 801.0, 804.0, 806.0, 806.0, 804.0, 802.0, 800.0, 798.0, 796.0, 797.0, 798.0, 799.0, 801.0, 799.0, 799.0, 799.0, 797.0, 800.0, 800.0, 800.0, 799.0, 800.0, 800.0, 799.0, 799.0, 799.0, 799.0, 800.0, 799.0, 800.0, 800.0, 800.0, 801.0, 802.0, 802.0, 804.0, 805.0, 802.0, 800.0, 799.0],
      "WindowWidth": [1691.0, 1685.0, 1683.0, 1680.0, 1679.0, 1676.0, 1678.0, 1679.0, 1683.0, 1685.0, 1686.0, 1687.0, 1684.0, 1683.0, 1682.0, 1681.0, 1682.0, 1684.0, 1684.0, 1685.0, 1686.0, 1684.0, 1683.0, 1680.0, 1677.0, 1674.0, 1675.0, 1680.0, 1687.0, 1685.0, 1683.0, 1685.0, 1687.0, 1687.0, 1685.0, 1684.0, 1681.0, 1682.0, 1679.0, 1681.0, 1679.0, 1679.0, 1680.0, 1678.0, 1680.0, 1684.0, 1688.0, 1685.0, 1683.0, 1683.0, 1682.0, 1681.0, 1681.0, 1681.0, 1681.0, 1680.0, 1682.0, 1686.0, 1689.0, 1686.0, 1682.0, 1680.0, 1677.0, 1678.0, 1683.0, 1684.0, 1688.0, 1687.0, 1684.0, 1684.0, 1684.0, 1681.0, 1677.0, 1675.0, 1675.0, 1677.0, 1679.0, 1681.0, 1682.0, 1687.0, 1685.0, 1682.0, 1679.0, 1676.0, 1676.0, 1674.0, 1674.0, 1679.0, 1681.0, 1682.0, 1687.0, 1690.0, 1686.0, 1681.0, 1678.0, 1678.0, 1677.0, 1679.0, 1681.0, 1679.0, 1678.0, 1681.0, 1685.0, 1687.0, 1686.0, 1683.0, 1689.0, 1687.0, 1687.0, 1685.0, 1683.0, 1692.0, 1695.0, 1696.0, 1690.0, 1686.0, 1680.0, 1677.0, 1673.0, 1675.0, 1678.0, 1680.0, 1685.0, 1680.0, 1680.0, 1679.0, 1674.0, 1681.0, 1682.0, 1681.0, 1680.0, 1681.0, 1681.0, 1679.0, 1679.0, 1679.0, 1680.0, 1682.0, 1681.0, 1682.0, 1681.0, 1683.0, 1684.0, 1686.0, 1688.0, 1690.0, 1693.0, 1687.0, 1682.0, 1679.0]
    },
    "slices": {}
  }
}