{
  "AcquisitionMatrixPE": 100,
  "AcquisitionNumber": 1,
  "AcquisitionTime": "16:09:59.742500",
  "BandwidthPerPixelPhaseEncode": 18.519,
  "BaseResolution": 100,
  "BodyPartExamined": "BRAIN",
  "ConsistencyInfo": "N4_VE11C_LATEST_20160120",
  "ConversionSoftware": "dcm2niix",
  "ConversionSoftwareVersion": "v1.0.20180622 GCC4.9.2",
  "DerivedVendorReportedEchoSpacing": 0.000539986,
  "DeviceSerialNumber": "166078",
  "DwellTime": 2.1e-06,
  "EchoTime": 0.034,
  "EchoTrainLength": 100,
  "EffectiveEchoSpacing": 0.000539986,
  "FlipAngle": 90,
  "ImageOrientationPatientDICOM": [1, -7.37861e-06, -6.87783e-05, 2.87274e-08, 0.994339, -0.106256],
  "ImageType": [
    "ORIGINAL",
    "PRIMARY",
    "M",
    "ND",
    "MOSAIC"
],
  "InPlanePhaseEncodingDirectionDICOM": "COL",
  "InstitutionAddress": "Street_StreetNo_Bei_Jing_District_CN_ZIP",
  "InstitutionName": "BeiJing_Normal_University",
  "InstitutionalDepartmentName": "Department",
  "MRAcquisitionType": "2D",
  "MagneticFieldStrength": 3,
  "Manufacturer": "Siemens",
  "ManufacturersModelName": "Prisma",
  "Modality": "MR",
  "MultibandAccelerationFactor": 3,
  "PartialFourier": 1,
  "PatientPosition": "HFS",
  "PercentPhaseFOV": 100,
  "PhaseEncodingDirection": "j-",
  "PhaseEncodingSteps": 100,
  "PhaseResolution": 1,
  "PixelBandwidth": 2380,
  "ProcedureStepDescription": "BNU_P2018_64CH_Zhen.ZongLei",
  "ProtocolName": "bold_100x100_s3_2x2x2_retino_150",
  "PulseSequenceDetails": "%SiemensSeq%_ep2d_bold",
  "ReceiveCoilActiveElements": "HC1-7;NC1",
  "ReceiveCoilName": "HeadNeck_64",
  "ReconMatrixPE": 100,
  "RepetitionTime": 2,
  "SAR": 0.0816931,
  "ScanOptions": "FS",
  "ScanningSequence": "EP",
  "SequenceName": "_epfid2d1_100",
  "SequenceVariant": "SK",
  "SeriesDescription": "bold_100x100_s3_2x2x2_retino_150",
  "SeriesNumber": 12,
  "ShimSetting": [-5461, -11518, -1248, 228, -37, -154, -137, 42],
  "SliceThickness": 2,
  "SliceTiming": [1.485, 0, 0.99, 0.0825, 1.0725, 0.165, 1.155, 0.2475, 1.2375, 0.33, 1.32, 0.4125, 1.4025, 0.5775, 1.5675, 0.66, 1.65, 0.7425, 1.7325, 0.825, 1.815, 0.9075, 1.8975, 0.495, 1.485, 0, 0.99, 0.0825, 1.0725, 0.165, 1.155, 0.2475, 1.2375, 0.33, 1.32, 0.4125, 1.4025, 0.5775, 1.5675, 0.66, 1.65, 0.7425, 1.7325, 0.825, 1.815, 0.9075, 1.8975, 0.495, 1.485, 0, 0.99, 0.0825, 1.0725, 0.165, 1.155, 0.2475, 1.2375, 0.33, 1.32, 0.4125, 1.4025, 0.5775, 1.5675, 0.66, 1.65, 0.7425, 1.7325, 0.825, 1.815, 0.9075, 1.8975, 0.495],
  "SoftwareVersions": "syngo_MR_E11",
  "SpacingBetweenSlices": 2,
  "StationName": "AWP166078",
  "TaskName": "retinotopy",
  "TotalReadoutTime": 0.0534586,
  "TxRefAmp": 249.589,
  "dcmmeta_affine": [
    [-2.0, 5.745484088492958e-08, -0.000138345843879506, 100.02751922607422],
    [1.4757224562345073e-05, 1.9886776208877563, -0.2125122994184494, -81.75200653076172],
    [-0.00013755651889368892, 0.2125122845172882, 1.9886776208877563, -79.15380096435547],
    [0.0, 0.0, 0.0, 1.0]
],
  "dcmmeta_reorient_transform": [
    [0.0, -1.0, 0.0, 99.0],
    [1.0, 0.0, 0.0, 0.0],
    [0.0, 0.0, 1.0, 0.0],
    [0.0, 0.0, 0.0, 1.0]
],
  "dcmmeta_shape": [100, 100, 72, 150],
  "dcmmeta_slice_dim": 2,
  "dcmmeta_version": 0.6,
  "global": {
    "const": {
      "AcquisitionMatrix": [100, 0, 0, 100],
      "AngioFlag": "N",
      "BitsAllocated": 16,
      "BitsStored": 12,
      "BodyPartExamined": "BRAIN",
      "Columns": 900,
      "EchoNumbers": 1,
      "EchoTime": 34.0,
      "EchoTrainLength": 100,
      "FlipAngle": 90.0,
      "HighBit": 11,
      "ImageOrientationPatient": [0.99999999760755, -7.37861208e-06, -6.87782609e-05, 2.8727421e-08, 0.9943387912732, -0.1062561441487],
      "ImagePositionPatient": [-900.02754367261, -910.59220774297, 26.944856316083],
      "ImageType": [
        "ORIGINAL",
        "PRIMARY",
        "M",
        "ND",
        "MOSAIC"
],
      "ImagedNucleus": "1H",
      "ImagingFrequency": 123.257757,
      "InPlanePhaseEncodingDirection": "COL",
      "MRAcquisitionType": "2D",
      "MagneticFieldStrength": 3.0,
      "Manufacturer": "SIEMENS",
      "ManufacturerModelName": "Prisma",
      "Modality": "MR",
      "NumberOfAverages": 1.0,
      "NumberOfPhaseEncodingSteps": 100,
      "PercentPhaseFieldOfView": 100.0,
      "PercentSampling": 100.0,
      "PerformedProcedureStepStartTime": "151925.678000",
      "PhotometricInterpretation": "MONOCHROME2",
      "PixelBandwidth": 2380.0,
      "PixelRepresentation": 0,
      "PixelSpacing": [2.0, 2.0],
      "ProtocolName": "bold_100x100_s3_2x2x2_retino_150",
      "RepetitionTime": 2000.0,
      "Rows": 900,
      "SAR": 0.08169310377612,
      "SamplesPerPixel": 1,
      "ScanOptions": "FS",
      "ScanningSequence": "EP",
      "SequenceName": "*epfid2d1_100",
      "SequenceVariant": "SK",
      "SeriesDescription": "bold_100x100_s3_2x2x2_retino_150",
      "SeriesNumber": 12,
      "SeriesTime": "161002.295000",
      "SliceLocation": -70.025958386435,
      "SliceThickness": 2.0,
      "SmallestImagePixelValue": 0,
      "SoftwareVersions": "syngo MR E11",
      "SpacingBetweenSlices": 2.0000000766297,
      "SpecificCharacterSet": "ISO_IR 100",
      "StudyID": "1",
      "StudyTime": "151925.613000",
      "TransmitCoilName": "Body",
      "VariableFlipAngleFlag": "N",
      "WindowCenterWidthExplanation": "Algo1",
      "dBdt": 0.0},
    "slices": {}
  },
  "time": {
    "samples": {
      "AcquisitionNumber": [1, 2, 3, 4, 5, 6, 7, 8, 9, 10, 11, 12, 13, 14, 15, 16, 17, 18, 19, 20, 21, 22, 23, 24, 25, 26, 27, 28, 29, 30, 31, 32, 33, 34, 35, 36, 37, 38, 39, 40, 41, 42, 43, 44, 45, 46, 47, 48, 49, 50, 51, 52, 53, 54, 55, 56, 57, 58, 59, 60, 61, 62, 63, 64, 65, 66, 67, 68, 69, 70, 71, 72, 73, 74, 75, 76, 77, 78, 79, 80, 81, 82, 83, 84, 85, 86, 87, 88, 89, 90, 91, 92, 93, 94, 95, 96, 97, 98, 99, 100, 101, 102, 103, 104, 105, 106, 107, 108, 109, 110, 111, 112, 113, 114, 115, 116, 117, 118, 119, 120, 121, 122, 123, 124, 125, 126, 127, 128, 129, 130, 131, 132, 133, 134, 135, 136, 137, 138, 139, 140, 141, 142, 143, 144, 145, 146, 147, 148, 149, 150],
      "AcquisitionTime": ["160959.742500", "161001.742500", "161003.742500", "161005.742500", "161007.742500", "161009.742500", "161011.742500", "161013.742500", "161015.742500", "161017.742500", "161019.742500", "161021.742500", "161023.742500", "161025.742500", "161027.742500", "161029.742500", "161031.742500", "161033.742500", "161035.742500", "161037.742500", "161039.742500", "161041.742500", "161043.742500", "161045.742500", "161047.742500", "161049.742500", "161051.742500", "161053.742500", "161055.742500", "161057.742500", "161059.742500", "161101.742500", "161103.742500", "161105.742500", "161107.742500", "161109.742500", "161111.742500", "161113.742500", "161115.742500", "161117.742500", "161119.742500", "161121.742500", "161123.742500", "161125.742500", "161127.742500", "161129.742500", "161131.742500", "161133.742500", "161135.742500", "161137.742500", "161139.742500", "161141.742500", "161143.742500", "161145.742500", "161147.742500", "161149.742500", "161151.742500", "161153.742500", "161155.742500", "161157.742500", "161159.742500", "161201.742500", "161203.742500", "161205.742500", "161207.742500", "161209.742500", "161211.742500", "161213.742500", "161215.742500", "161217.742500", "161219.742500", "161221.742500", "161223.742500", "161225.742500", "161227.742500", "161229.742500", "161231.742500", "161233.742500", "161235.742500", "161237.742500", "161239.742500", "161241.742500", "161243.742500", "161245.742500", "161247.742500", "161249.742500", "161251.742500", "161253.742500", "161255.742500", "161257.742500", "161259.742500", "161301.742500", "161303.742500", "161305.742500", "161307.742500", "161309.742500", "161311.742500", "161313.742500", "161315.742500", "161317.742500", "161319.742500", "161321.742500", "161323.742500", "161325.742500", "161327.742500", "161329.742500", "161331.742500", "161333.742500", "161335.742500", "161337.742500", "161339.742500", "161341.742500", "161343.742500", "161345.742500", "161347.742500", "161349.742500", "161351.742500", "161353.742500", "161355.742500", "161357.742500", "161359.742500", "161401.742500", "161403.742500", "161405.742500", "161407.742500", "161409.742500", "161411.742500", "161413.742500", "161415.742500", "161417.742500", "161419.742500", "161421.742500", "161423.742500", "161425.742500", "161427.742500", "161429.742500", "161431.742500", "161433.742500", "161435.742500", "161437.742500", "161439.742500", "161441.742500", "161443.742500", "161445.742500", "161447.742500", "161449.742500", "161451.742500", "161453.742500", "161455.742500", "161457.742500"],
      "ContentTime": ["161002.299000", "161003.794000", "161005.794000", "161007.794000", "161009.795000", "161011.794000", "161013.794000", "161015.794000", "161017.794000", "161019.795000", "161021.794000", "161023.794000", "161025.795000", "161027.795000", "161029.794000", "161031.794000", "161033.794000", "161035.794000", "161037.794000", "161039.795000", "161041.795000", "161043.795000", "161045.798000", "161047.794000", "161049.794000", "161051.794000", "161053.795000", "161055.794000", "161057.794000", "161059.795000", "161101.795000", "161103.794000", "161105.795000", "161107.794000", "161109.795000", "161111.794000", "161113.794000", "161115.795000", "161117.794000", "161119.795000", "161121.795000", "161123.795000", "161125.794000", "161127.794000", "161129.794000", "161131.793000", "161133.794000", "161135.794000", "161137.795000", "161139.794000", "161141.795000", "161143.795000", "161145.795000", "161147.794000", "161149.795000", "161151.795000", "161153.795000", "161155.795000", "161157.795000", "161159.795000", "161201.794000", "161203.795000", "161205.793000", "161207.795000", "161209.794000", "161211.794000", "161213.795000", "161215.794000", "161217.796000", "161219.795000", "161221.794000", "161223.794000", "161225.794000", "161227.794000", "161229.795000", "161231.794000", "161233.794000", "161235.795000", "161237.794000", "161239.796000", "161241.793000", "161243.794000", "161245.795000", "161247.794000", "161249.795000", "161251.794000", "161253.794000", "161255.794000", "161257.795000", "161259.795000", "161301.795000", "161303.795000", "161305.794000", "161307.795000", "161309.795000", "161311.795000", "161313.795000", "161315.794000", "161317.795000", "161319.795000", "161321.795000", "161323.795000", "161325.794000", "161327.795000", "161329.794000", "161331.795000", "161333.794000", "161335.794000", "161337.794000", "161339.795000", "161341.795000", "161343.795000", "161345.794000", "161347.794000", "161349.795000", "161351.794000", "161353.794000", "161355.795000", "161357.795000", "161359.794000", "161401.795000", "161403.795000", "161405.794000", "161407.798000", "161409.794000", "161411.795000", "161413.795000", "161415.794000", "161417.795000", "161419.794000", "161421.794000", "161423.795000", "161425.794000", "161427.795000", "161429.795000", "161431.795000", "161433.795000", "161435.795000", "161437.795000", "161439.794000", "161441.795000", "161443.793000", "161445.795000", "161447.795000", "161449.795000", "161451.794000", "161453.795000", "161455.795000", "161457.794000", "161459.524000"],
      "InstanceCreationTime": ["161002.299000", "161003.794000", "161005.794000", "161007.794000", "161009.795000", "161011.794000", "161013.794000", "161015.794000", "161017.794000", "161019.795000", "161021.794000", "161023.794000", "161025.795000", "161027.795000", "161029.794000", "161031.794000", "161033.794000", "161035.794000", "161037.794000", "161039.795000", "161041.795000", "161043.795000", "161045.798000", "161047.794000", "161049.794000", "161051.794000", "161053.795000", "161055.794000", "161057.794000", "161059.795000", "161101.795000", "161103.794000", "161105.795000", "161107.794000", "161109.795000", "161111.794000", "161113.794000", "161115.795000", "161117.794000", "161119.795000", "161121.795000", "161123.795000", "161125.794000", "161127.794000", "161129.794000", "161131.793000", "161133.794000", "161135.794000", "161137.795000", "161139.794000", "161141.795000", "161143.795000", "161145.795000", "161147.794000", "161149.795000", "161151.795000", "161153.795000", "161155.795000", "161157.795000", "161159.795000", "161201.794000", "161203.795000", "161205.793000", "161207.795000", "161209.794000", "161211.794000", "161213.795000", "161215.794000", "161217.796000", "161219.795000", "161221.794000", "161223.794000", "161225.794000", "161227.794000", "161229.795000", "161231.794000", "161233.794000", "161235.795000", "161237.794000", "161239.796000", "161241.793000", "161243.794000", "161245.795000", "161247.794000", "161249.795000", "161251.794000", "161253.794000", "161255.794000", "161257.795000", "161259.795000", "161301.795000", "161303.795000", "161305.794000", "161307.795000", "161309.795000", "161311.795000", "161313.795000", "161315.794000", "161317.795000", "161319.795000", "161321.795000", "161323.795000", "161325.794000", "161327.795000", "161329.794000", "161331.795000", "161333.794000", "161335.794000", "161337.794000", "161339.795000", "161341.795000", "161343.795000", "161345.794000", "161347.794000", "161349.795000", "161351.794000", "161353.794000", "161355.795000", "161357.795000", "161359.794000", "161401.795000", "161403.795000", "161405.794000", "161407.798000", "161409.794000", "161411.795000", "161413.795000", "161415.794000", "161417.795000", "161419.794000", "161421.794000", "161423.795000", "161425.794000", "161427.795000", "161429.795000", "161431.795000", "161433.795000", "161435.795000", "161437.795000", "161439.794000", "161441.795000", "161443.793000", "161445.795000", "161447.795000", "161449.795000", "161451.794000", "161453.795000", "161455.795000", "161457.794000", "161459.524000"],
      "InstanceNumber": [1, 2, 3, 4, 5, 6, 7, 8, 9, 10, 11, 12, 13, 14, 15, 16, 17, 18, 19, 20, 21, 22, 23, 24, 25, 26, 27, 28, 29, 30, 31, 32, 33, 34, 35, 36, 37, 38, 39, 40, 41, 42, 43, 44, 45, 46, 47, 48, 49, 50, 51, 52, 53, 54, 55, 56, 57, 58, 59, 60, 61, 62, 63, 64, 65, 66, 67, 68, 69, 70, 71, 72, 73, 74, 75, 76, 77, 78, 79, 80, 81, 82, 83, 84, 85, 86, 87, 88, 89, 90, 91, 92, 93, 94, 95, 96, 97, 98, 99, 100, 101, 102, 103, 104, 105, 106, 107, 108, 109, 110, 111, 112, 113, 114, 115, 116, 117, 118, 119, 120, 121, 122, 123, 124, 125, 126, 127, 128, 129, 130, 131, 132, 133, 134, 135, 136, 137, 138, 139, 140, 141, 142, 143, 144, 145, 146, 147, 148, 149, 150],
      "LargestImagePixelValue": [2841, 2779, 2829, 2795, 2799, 2790, 2791, 2801, 2789, 2749, 2770, 2797, 2805, 2804, 2773, 2794, 2792, 2782, 2795, 2783, 2799, 2774, 2793, 2780, 2786, 2800, 2793, 2784, 2796, 2802, 2803, 2788, 2795, 2816, 2799, 2842, 2811, 2812, 2819, 2795, 2793, 2818, 2828, 2800, 2826, 2796, 2806, 2807, 2822, 2808, 2781, 2801, 2789, 2820, 2815, 2782, 2821, 2782, 2814, 2780, 2812, 2773, 2781, 2796, 2769, 2793, 2807, 2803, 2815, 2805, 2859, 2849, 2815, 2859, 2842, 2820, 2785, 2853, 2792, 2812, 2780, 2802, 2778, 2805, 2783, 2773, 2779, 2796, 2771, 2798, 2794, 2787, 2770, 2763, 2773, 2768, 2775, 2793, 2795, 2826, 2792, 2814, 2818, 2893, 2824, 2810, 2815, 2827, 2803, 2837, 2826, 2834, 2804, 2814, 2820, 2804, 2799, 2812, 2809, 2816, 2798, 2785, 2821, 2808, 2906, 2858, 2806, 2875, 2839, 2868, 2882, 2863, 2828, 2804, 2889, 2787, 2839, 2799, 2828, 2804, 2847, 2871, 2833, 2895, 3312, 2819, 2889, 2833, 2878, 2824],
      "WindowCenter": [805.0, 804.0, 803.0, 802.0, 801.0, 801.0, 801.0, 800.0, 800.0, 800.0, 800.0, 800.0, 800.0, 800.0, 800.0, 801.0, 801.0, 801.0, 800.0, 799.0, 799.0, 799.0, 800.0, 800.0, 801.0, 802.0, 801.0, 800.0, 800.0, 799.0, 800.0, 799.0, 800.0, 800.0, 800.0, 800.0, 799.0, 800.0, 801.0, 800.0, 800.0, 800.0, 799.0, 799.0, 799.0, 800.0, 801.0, 800.0, 800.0, 800.0, 800.0, 800.0, 799.0, 800.0, 799.0, 799.0, 801.0, 801.0, 800.0, 799.0, 798.0, 798.0, 798.0, 798.0, 798.0, 799.0, 799.0, 800.0, 801.0, 801.0, 802.0, 802.0, 802.0, 802.0, 802.0, 801.0, 800.0, 801.0, 801.0, 801.0, 800.0, 798.0, 796.0, 796.0, 797.0, 798.0, 799.0, 800.0, 802.0, 803.0, 802.0, 800.0, 800.0, 799.0, 798.0, 797.0, 796.0, 797.0, 799.0, 801.0, 801.0, 802.0, 802.0, 803.0, 801.0, 801.0, 800.0, 800.0, 800.0, 802.0, 802.0, 802.0, 801.0, 801.0, 801.0, 800.0, 800.0, 800.0, 800.0, 801.0, 800.0, 800.0, 800.0, 800.0, 801.0, 802.0, 801.0, 801.0, 800.0, 799.0, 799.0, 799.0, 799.0, 798.0, 801.0, 800.0, 800.0, 800.0, 798.0, 797.0, 796.0, 799.0, 800.0, 801.0, 805.0, 800.0, 800.0, 800.0, 799.0, 798.0],
      "WindowWidth": [1694.0, 1691.0, 1689.0, 1686.0, 1685.0, 1685.0, 1683.0, 1682.0, 1682.0, 1682.0, 1682.0, 1682.0, 1682.0, 1682.0, 1683.0, 1685.0, 1686.0, 1684.0, 1683.0, 1681.0, 1680.0, 1680.0, 1682.0, 1683.0, 1684.0, 1686.0, 1686.0, 1683.0, 1682.0, 1681.0, 1682.0, 1681.0, 1682.0, 1683.0, 1682.0, 1681.0, 1680.0, 1683.0, 1685.0, 1684.0, 1682.0, 1681.0, 1680.0, 1680.0, 1681.0, 1683.0, 1684.0, 1683.0, 1682.0, 1682.0, 1682.0, 1682.0, 1680.0, 1681.0, 1680.0, 1680.0, 1684.0, 1685.0, 1681.0, 1679.0, 1678.0, 1678.0, 1677.0, 1678.0, 1678.0, 1680.0, 1681.0, 1683.0, 1685.0, 1684.0, 1686.0, 1687.0, 1687.0, 1687.0, 1686.0, 1683.0, 1681.0, 1683.0, 1683.0, 1685.0, 1682.0, 1677.0, 1673.0, 1673.0, 1674.0, 1677.0, 1679.0, 1682.0, 1685.0, 1688.0, 1686.0, 1681.0, 1680.0, 1679.0, 1677.0, 1675.0, 1673.0, 1674.0, 1680.0, 1684.0, 1684.0, 1687.0, 1687.0, 1688.0, 1685.0, 1683.0, 1683.0, 1683.0, 1684.0, 1686.0, 1687.0, 1686.0, 1684.0, 1686.0, 1686.0, 1684.0, 1682.0, 1683.0, 1684.0, 1684.0, 1683.0, 1682.0, 1683.0, 1681.0, 1684.0, 1686.0, 1685.0, 1685.0, 1682.0, 1679.0, 1679.0, 1679.0, 1679.0, 1678.0, 1683.0, 1682.0, 1683.0, 1682.0, 1678.0, 1674.0, 1673.0, 1679.0, 1681.0, 1683.0, 1693.0, 1682.0, 1682.0, 1682.0, 1680.0, 1678.0]
    },
    "slices": {}
  }
}