{
 "AcquisitionMatrixPE": 100,
 "AcquisitionNumber": 1,
 "AcquisitionTime": "16:35:0.072500",
 "BandwidthPerPixelPhaseEncode": 18.519,
 "BaseResolution": 100,
 "BodyPartExamined": "BRAIN",
 "ConsistencyInfo": "N4_VE11C_LATEST_20160120",
 "ConversionSoftware": "dcm2niix",
 "ConversionSoftwareVersion": "v1.0.20180622 GCC4.9.2",
 "DerivedVendorReportedEchoSpacing": 0.000539986,
 "DeviceSerialNumber": "166078",
 "DwellTime": 2.1e-06,
 "EchoTime": 0.034,
 "EchoTrainLength": 100,
 "EffectiveEchoSpacing": 0.000539986,
 "FlipAngle": 90,
 "ImageOrientationPatientDICOM": [
  1,
  -7.37861e-06,
  -6.87783e-05,
  2.87274e-08,
  0.994339,
  -0.106256
 ],
 "ImageType": [
  "ORIGINAL",
  "PRIMARY",
  "M",
  "ND",
  "MOSAIC"
 ],
 "InPlanePhaseEncodingDirectionDICOM": "COL",
 "InstitutionAddress": "Street_StreetNo_Bei_Jing_District_CN_ZIP",
 "InstitutionName": "BeiJing_Normal_University",
 "InstitutionalDepartmentName": "Department",
 "MRAcquisitionType": "2D",
 "MagneticFieldStrength": 3,
 "Manufacturer": "Siemens",
 "ManufacturersModelName": "Prisma",
 "Modality": "MR",
 "MultibandAccelerationFactor": 3,
 "PartialFourier": 1,
 "PatientPosition": "HFS",
 "PercentPhaseFOV": 100,
 "PhaseEncodingDirection": "j-",
 "PhaseEncodingSteps": 100,
 "PhaseResolution": 1,
 "PixelBandwidth": 2380,
 "ProcedureStepDescription": "BNU_P2018_64CH_Zhen.ZongLei",
 "ProtocolName": "bold_100x100_s3_2x2x2_retino_150",
 "PulseSequenceDetails": "%SiemensSeq%_ep2d_bold",
 "ReceiveCoilActiveElements": "HC1-7;NC1",
 "ReceiveCoilName": "HeadNeck_64",
 "ReconMatrixPE": 100,
 "RepetitionTime": 2,
 "SAR": 0.0816931,
 "ScanOptions": "FS",
 "ScanningSequence": "EP",
 "SequenceName": "_epfid2d1_100",
 "SequenceVariant": "SK",
 "SeriesDescription": "bold_100x100_s3_2x2x2_retino_150",
 "SeriesNumber": 16,
 "ShimSetting": [
  -5461,
  -11518,
  -1248,
  228,
  -37,
  -154,
  -137,
  42
 ],
 "SliceThickness": 2,
 "SliceTiming": [
  1.4825,
  0,
  0.9875,
  0.08,
  1.07,
  0.1625,
  1.1525,
  0.245,
  1.235,
  0.3275,
  1.3175,
  0.41,
  1.4,
  0.575,
  1.565,
  0.6575,
  1.6475,
  0.74,
  1.73,
  0.8225,
  1.8125,
  0.905,
  1.895,
  0.4925,
  1.4825,
  0,
  0.9875,
  0.08,
  1.07,
  0.1625,
  1.1525,
  0.245,
  1.235,
  0.3275,
  1.3175,
  0.41,
  1.4,
  0.575,
  1.565,
  0.6575,
  1.6475,
  0.74,
  1.73,
  0.8225,
  1.8125,
  0.905,
  1.895,
  0.4925,
  1.4825,
  0,
  0.9875,
  0.08,
  1.07,
  0.1625,
  1.1525,
  0.245,
  1.235,
  0.3275,
  1.3175,
  0.41,
  1.4,
  0.575,
  1.565,
  0.6575,
  1.6475,
  0.74,
  1.73,
  0.8225,
  1.8125,
  0.905,
  1.895,
  0.4925
 ],
 "SoftwareVersions": "syngo_MR_E11",
 "SpacingBetweenSlices": 2,
 "StationName": "AWP166078",
 "TaskName": "prf",
 "TotalReadoutTime": 0.0534586,
 "TxRefAmp": 249.589,
 "dcmmeta_affine": [
  [
   -2.0,
   5.745484088492958e-08,
   -0.000138345843879506,
   100.02751922607422
  ],
  [
   1.4757224562345073e-05,
   1.9886776208877563,
   -0.2125122994184494,
   -81.75200653076172
  ],
  [
   -0.00013755651889368892,
   0.2125122845172882,
   1.9886776208877563,
   -79.15380096435547
  ],
  [
   0.0,
   0.0,
   0.0,
   1.0
  ]
 ],
 "dcmmeta_reorient_transform": [
  [
   0.0,
   -1.0,
   0.0,
   99.0
  ],
  [
   1.0,
   0.0,
   0.0,
   0.0
  ],
  [
   0.0,
   0.0,
   1.0,
   0.0
  ],
  [
   0.0,
   0.0,
   0.0,
   1.0
  ]
 ],
 "dcmmeta_shape": [
  100,
  100,
  72,
  150
 ],
 "dcmmeta_slice_dim": 2,
 "dcmmeta_version": 0.6,
 "global": {
  "const": {
   "AcquisitionMatrix": [
    100,
    0,
    0,
    100
   ],
   "AngioFlag": "N",
   "BitsAllocated": 16,
   "BitsStored": 12,
   "BodyPartExamined": "BRAIN",
   "Columns": 900,
   "EchoNumbers": 1,
   "EchoTime": 34.0,
   "EchoTrainLength": 100,
   "FlipAngle": 90.0,
   "HighBit": 11,
   "ImageOrientationPatient": [
    0.99999999760755,
    -7.37861208e-06,
    -6.87782609e-05,
    2.8727421e-08,
    0.9943387912732,
    -0.1062561441487
   ],
   "ImagePositionPatient": [
    -900.02754367261,
    -910.59220774297,
    26.944856316083
   ],
   "ImageType": [
    "ORIGINAL",
    "PRIMARY",
    "M",
    "ND",
    "MOSAIC"
   ],
   "ImagedNucleus": "1H",
   "ImagingFrequency": 123.257762,
   "InPlanePhaseEncodingDirection": "COL",
   "MRAcquisitionType": "2D",
   "MagneticFieldStrength": 3.0,
   "Manufacturer": "SIEMENS",
   "ManufacturerModelName": "Prisma",
   "Modality": "MR",
   "NumberOfAverages": 1.0,
   "NumberOfPhaseEncodingSteps": 100,
   "PercentPhaseFieldOfView": 100.0,
   "PercentSampling": 100.0,
   "PerformedProcedureStepStartTime": "151925.678000",
   "PhotometricInterpretation": "MONOCHROME2",
   "PixelBandwidth": 2380.0,
   "PixelRepresentation": 0,
   "PixelSpacing": [
    2.0,
    2.0
   ],
   "ProtocolName": "bold_100x100_s3_2x2x2_retino_150",
   "RepetitionTime": 2000.0,
   "Rows": 900,
   "SAR": 0.08169310377612,
   "SamplesPerPixel": 1,
   "ScanOptions": "FS",
   "ScanningSequence": "EP",
   "SequenceName": "*epfid2d1_100",
   "SequenceVariant": "SK",
   "SeriesDescription": "bold_100x100_s3_2x2x2_retino_150",
   "SeriesNumber": 16,
   "SeriesTime": "163502.692000",
   "SliceLocation": -70.025958386435,
   "SliceThickness": 2.0,
   "SmallestImagePixelValue": 0,
   "SoftwareVersions": "syngo MR E11",
   "SpacingBetweenSlices": 2.0000000766297,
   "SpecificCharacterSet": "ISO_IR 100",
   "StudyID": "1",
   "StudyTime": "151925.613000",
   "TransmitCoilName": "Body",
   "VariableFlipAngleFlag": "N",
   "WindowCenterWidthExplanation": "Algo1",
   "dBdt": 0.0
  },
  "slices": {}
 },
 "time": {
  "samples": {
   "AcquisitionNumber": [
    1,
    2,
    3,
    4,
    5,
    6,
    7,
    8,
    9,
    10,
    11,
    12,
    13,
    14,
    15,
    16,
    17,
    18,
    19,
    20,
    21,
    22,
    23,
    24,
    25,
    26,
    27,
    28,
    29,
    30,
    31,
    32,
    33,
    34,
    35,
    36,
    37,
    38,
    39,
    40,
    41,
    42,
    43,
    44,
    45,
    46,
    47,
    48,
    49,
    50,
    51,
    52,
    53,
    54,
    55,
    56,
    57,
    58,
    59,
    60,
    61,
    62,
    63,
    64,
    65,
    66,
    67,
    68,
    69,
    70,
    71,
    72,
    73,
    74,
    75,
    76,
    77,
    78,
    79,
    80,
    81,
    82,
    83,
    84,
    85,
    86,
    87,
    88,
    89,
    90,
    91,
    92,
    93,
    94,
    95,
    96,
    97,
    98,
    99,
    100,
    101,
    102,
    103,
    104,
    105,
    106,
    107,
    108,
    109,
    110,
    111,
    112,
    113,
    114,
    115,
    116,
    117,
    118,
    119,
    120,
    121,
    122,
    123,
    124,
    125,
    126,
    127,
    128,
    129,
    130,
    131,
    132,
    133,
    134,
    135,
    136,
    137,
    138,
    139,
    140,
    141,
    142,
    143,
    144,
    145,
    146,
    147,
    148,
    149,
    150
   ],
   "AcquisitionTime": [
    "163500.072500",
    "163502.072500",
    "163504.072500",
    "163506.072500",
    "163508.072500",
    "163510.072500",
    "163512.072500",
    "163514.072500",
    "163516.072500",
    "163518.072500",
    "163520.072500",
    "163522.072500",
    "163524.072500",
    "163526.072500",
    "163528.072500",
    "163530.072500",
    "163532.072500",
    "163534.072500",
    "163536.072500",
    "163538.072500",
    "163540.072500",
    "163542.072500",
    "163544.072500",
    "163546.072500",
    "163548.072500",
    "163550.072500",
    "163552.072500",
    "163554.072500",
    "163556.072500",
    "163558.072500",
    "163600.072500",
    "163602.072500",
    "163604.072500",
    "163606.072500",
    "163608.072500",
    "163610.072500",
    "163612.072500",
    "163614.072500",
    "163616.072500",
    "163618.072500",
    "163620.072500",
    "163622.072500",
    "163624.072500",
    "163626.072500",
    "163628.072500",
    "163630.072500",
    "163632.072500",
    "163634.072500",
    "163636.072500",
    "163638.072500",
    "163640.072500",
    "163642.072500",
    "163644.072500",
    "163646.072500",
    "163648.072500",
    "163650.072500",
    "163652.072500",
    "163654.072500",
    "163656.072500",
    "163658.072500",
    "163700.072500",
    "163702.072500",
    "163704.072500",
    "163706.072500",
    "163708.072500",
    "163710.072500",
    "163712.072500",
    "163714.072500",
    "163716.072500",
    "163718.072500",
    "163720.072500",
    "163722.072500",
    "163724.072500",
    "163726.072500",
    "163728.072500",
    "163730.072500",
    "163732.072500",
    "163734.072500",
    "163736.072500",
    "163738.072500",
    "163740.072500",
    "163742.072500",
    "163744.072500",
    "163746.072500",
    "163748.072500",
    "163750.072500",
    "163752.072500",
    "163754.072500",
    "163756.072500",
    "163758.072500",
    "163800.072500",
    "163802.072500",
    "163804.072500",
    "163806.072500",
    "163808.072500",
    "163810.072500",
    "163812.072500",
    "163814.072500",
    "163816.072500",
    "163818.072500",
    "163820.072500",
    "163822.072500",
    "163824.072500",
    "163826.072500",
    "163828.072500",
    "163830.072500",
    "163832.072500",
    "163834.072500",
    "163836.072500",
    "163838.072500",
    "163840.072500",
    "163842.072500",
    "163844.072500",
    "163846.072500",
    "163848.072500",
    "163850.072500",
    "163852.072500",
    "163854.072500",
    "163856.072500",
    "163858.072500",
    "163900.072500",
    "163902.072500",
    "163904.072500",
    "163906.072500",
    "163908.072500",
    "163910.072500",
    "163912.072500",
    "163914.072500",
    "163916.072500",
    "163918.072500",
    "163920.072500",
    "163922.072500",
    "163924.072500",
    "163926.072500",
    "163928.072500",
    "163930.072500",
    "163932.072500",
    "163934.072500",
    "163936.072500",
    "163938.072500",
    "163940.072500",
    "163942.072500",
    "163944.072500",
    "163946.072500",
    "163948.072500",
    "163950.072500",
    "163952.072500",
    "163954.072500",
    "163956.072500",
    "163958.072500"
   ],
   "ContentTime": [
    "163502.696000",
    "163504.192000",
    "163506.191000",
    "163508.192000",
    "163510.192000",
    "163512.193000",
    "163514.193000",
    "163516.191000",
    "163518.191000",
    "163520.191000",
    "163522.194000",
    "163524.191000",
    "163526.193000",
    "163528.193000",
    "163530.193000",
    "163532.193000",
    "163534.191000",
    "163536.191000",
    "163538.191000",
    "163540.192000",
    "163542.192000",
    "163544.192000",
    "163546.192000",
    "163548.193000",
    "163550.193000",
    "163552.191000",
    "163554.191000",
    "163556.191000",
    "163558.191000",
    "163600.191000",
    "163602.193000",
    "163604.192000",
    "163606.193000",
    "163608.192000",
    "163610.192000",
    "163612.192000",
    "163614.192000",
    "163616.192000",
    "163618.193000",
    "163620.192000",
    "163622.192000",
    "163624.192000",
    "163626.192000",
    "163628.192000",
    "163630.191000",
    "163632.192000",
    "163634.192000",
    "163636.193000",
    "163638.192000",
    "163640.193000",
    "163642.192000",
    "163644.192000",
    "163646.192000",
    "163648.191000",
    "163650.192000",
    "163652.191000",
    "163654.193000",
    "163656.192000",
    "163658.193000",
    "163700.192000",
    "163702.192000",
    "163704.191000",
    "163706.192000",
    "163708.191000",
    "163710.191000",
    "163712.193000",
    "163714.192000",
    "163716.193000",
    "163718.192000",
    "163720.191000",
    "163722.192000",
    "163724.191000",
    "163726.191000",
    "163728.193000",
    "163730.193000",
    "163732.192000",
    "163734.192000",
    "163736.192000",
    "163738.191000",
    "163740.191000",
    "163742.191000",
    "163744.192000",
    "163746.192000",
    "163748.193000",
    "163750.193000",
    "163752.192000",
    "163754.192000",
    "163756.192000",
    "163758.191000",
    "163800.191000",
    "163802.191000",
    "163804.193000",
    "163806.192000",
    "163808.192000",
    "163810.192000",
    "163812.192000",
    "163814.192000",
    "163816.192000",
    "163818.192000",
    "163820.191000",
    "163822.192000",
    "163824.192000",
    "163826.192000",
    "163828.192000",
    "163830.192000",
    "163832.191000",
    "163834.191000",
    "163836.192000",
    "163838.193000",
    "163840.192000",
    "163842.193000",
    "163844.193000",
    "163846.192000",
    "163848.191000",
    "163850.191000",
    "163852.192000",
    "163854.191000",
    "163856.192000",
    "163858.192000",
    "163900.193000",
    "163902.193000",
    "163904.192000",
    "163906.192000",
    "163908.192000",
    "163910.191000",
    "163912.191000",
    "163914.193000",
    "163916.192000",
    "163918.192000",
    "163920.193000",
    "163922.192000",
    "163924.191000",
    "163926.192000",
    "163928.192000",
    "163930.192000",
    "163932.192000",
    "163934.193000",
    "163936.192000",
    "163938.192000",
    "163940.191000",
    "163942.192000",
    "163944.191000",
    "163946.192000",
    "163948.192000",
    "163950.192000",
    "163952.193000",
    "163954.193000",
    "163956.191000",
    "163958.191000",
    "163959.746000"
   ],
   "InstanceCreationTime": [
    "163502.696000",
    "163504.192000",
    "163506.191000",
    "163508.192000",
    "163510.192000",
    "163512.193000",
    "163514.193000",
    "163516.191000",
    "163518.191000",
    "163520.191000",
    "163522.194000",
    "163524.191000",
    "163526.193000",
    "163528.193000",
    "163530.193000",
    "163532.193000",
    "163534.191000",
    "163536.191000",
    "163538.191000",
    "163540.192000",
    "163542.192000",
    "163544.192000",
    "163546.192000",
    "163548.193000",
    "163550.193000",
    "163552.191000",
    "163554.191000",
    "163556.191000",
    "163558.191000",
    "163600.191000",
    "163602.193000",
    "163604.192000",
    "163606.193000",
    "163608.192000",
    "163610.192000",
    "163612.192000",
    "163614.192000",
    "163616.192000",
    "163618.193000",
    "163620.192000",
    "163622.192000",
    "163624.192000",
    "163626.192000",
    "163628.192000",
    "163630.191000",
    "163632.192000",
    "163634.192000",
    "163636.193000",
    "163638.192000",
    "163640.193000",
    "163642.192000",
    "163644.192000",
    "163646.192000",
    "163648.191000",
    "163650.192000",
    "163652.191000",
    "163654.193000",
    "163656.192000",
    "163658.193000",
    "163700.192000",
    "163702.192000",
    "163704.191000",
    "163706.192000",
    "163708.191000",
    "163710.191000",
    "163712.193000",
    "163714.192000",
    "163716.193000",
    "163718.192000",
    "163720.191000",
    "163722.192000",
    "163724.191000",
    "163726.191000",
    "163728.193000",
    "163730.193000",
    "163732.192000",
    "163734.192000",
    "163736.192000",
    "163738.191000",
    "163740.191000",
    "163742.191000",
    "163744.192000",
    "163746.192000",
    "163748.193000",
    "163750.193000",
    "163752.192000",
    "163754.192000",
    "163756.192000",
    "163758.191000",
    "163800.191000",
    "163802.191000",
    "163804.193000",
    "163806.192000",
    "163808.192000",
    "163810.192000",
    "163812.192000",
    "163814.192000",
    "163816.192000",
    "163818.192000",
    "163820.191000",
    "163822.192000",
    "163824.192000",
    "163826.192000",
    "163828.192000",
    "163830.192000",
    "163832.191000",
    "163834.191000",
    "163836.192000",
    "163838.193000",
    "163840.192000",
    "163842.193000",
    "163844.193000",
    "163846.192000",
    "163848.191000",
    "163850.191000",
    "163852.192000",
    "163854.191000",
    "163856.192000",
    "163858.192000",
    "163900.193000",
    "163902.193000",
    "163904.192000",
    "163906.192000",
    "163908.192000",
    "163910.191000",
    "163912.191000",
    "163914.193000",
    "163916.192000",
    "163918.192000",
    "163920.193000",
    "163922.192000",
    "163924.191000",
    "163926.192000",
    "163928.192000",
    "163930.192000",
    "163932.192000",
    "163934.193000",
    "163936.192000",
    "163938.192000",
    "163940.191000",
    "163942.192000",
    "163944.191000",
    "163946.192000",
    "163948.192000",
    "163950.192000",
    "163952.193000",
    "163954.193000",
    "163956.191000",
    "163958.191000",
    "163959.746000"
   ],
   "InstanceNumber": [
    1,
    2,
    3,
    4,
    5,
    6,
    7,
    8,
    9,
    10,
    11,
    12,
    13,
    14,
    15,
    16,
    17,
    18,
    19,
    20,
    21,
    22,
    23,
    24,
    25,
    26,
    27,
    28,
    29,
    30,
    31,
    32,
    33,
    34,
    35,
    36,
    37,
    38,
    39,
    40,
    41,
    42,
    43,
    44,
    45,
    46,
    47,
    48,
    49,
    50,
    51,
    52,
    53,
    54,
    55,
    56,
    57,
    58,
    59,
    60,
    61,
    62,
    63,
    64,
    65,
    66,
    67,
    68,
    69,
    70,
    71,
    72,
    73,
    74,
    75,
    76,
    77,
    78,
    79,
    80,
    81,
    82,
    83,
    84,
    85,
    86,
    87,
    88,
    89,
    90,
    91,
    92,
    93,
    94,
    95,
    96,
    97,
    98,
    99,
    100,
    101,
    102,
    103,
    104,
    105,
    106,
    107,
    108,
    109,
    110,
    111,
    112,
    113,
    114,
    115,
    116,
    117,
    118,
    119,
    120,
    121,
    122,
    123,
    124,
    125,
    126,
    127,
    128,
    129,
    130,
    131,
    132,
    133,
    134,
    135,
    136,
    137,
    138,
    139,
    140,
    141,
    142,
    143,
    144,
    145,
    146,
    147,
    148,
    149,
    150
   ],
   "LargestImagePixelValue": [
    2962,
    2899,
    2924,
    2924,
    2899,
    2933,
    2901,
    2959,
    2925,
    2930,
    2955,
    2916,
    2959,
    2963,
    2916,
    2935,
    2979,
    2921,
    2934,
    2937,
    2972,
    2924,
    2960,
    2947,
    2970,
    2957,
    2968,
    2944,
    2984,
    2942,
    2964,
    2941,
    2930,
    2945,
    2936,
    2929,
    2949,
    2950,
    2952,
    2936,
    2921,
    2934,
    2955,
    2946,
    2941,
    2925,
    2939,
    2924,
    2938,
    2944,
    2927,
    2941,
    2929,
    2952,
    2967,
    2924,
    2956,
    2941,
    2932,
    2939,
    2937,
    2939,
    2943,
    2977,
    2950,
    2950,
    2955,
    2955,
    2978,
    2943,
    2951,
    2963,
    2947,
    2937,
    2974,
    2965,
    2953,
    2957,
    2962,
    2946,
    2957,
    2954,
    2949,
    2957,
    2955,
    2957,
    2948,
    2978,
    2956,
    2998,
    3079,
    2993,
    2961,
    2979,
    2985,
    2971,
    2946,
    2989,
    2958,
    2948,
    2968,
    2958,
    2954,
    2950,
    2954,
    2950,
    2946,
    2927,
    2973,
    2956,
    2959,
    2956,
    2930,
    2938,
    2952,
    2970,
    2963,
    2994,
    2959,
    2954,
    2979,
    2958,
    2981,
    2972,
    2975,
    2940,
    2941,
    2955,
    3004,
    2945,
    2937,
    2950,
    2954,
    2947,
    2938,
    2953,
    2964,
    2936,
    2945,
    2965,
    2949,
    2933,
    2945,
    2942,
    2959,
    2984,
    2988,
    2981,
    2972,
    2958
   ],
   "WindowCenter": [
    810.0,
    807.0,
    806.0,
    806.0,
    805.0,
    805.0,
    804.0,
    805.0,
    805.0,
    806.0,
    806.0,
    805.0,
    805.0,
    806.0,
    806.0,
    807.0,
    806.0,
    805.0,
    805.0,
    804.0,
    804.0,
    803.0,
    804.0,
    805.0,
    805.0,
    805.0,
    804.0,
    804.0,
    806.0,
    805.0,
    805.0,
    806.0,
    806.0,
    806.0,
    806.0,
    805.0,
    806.0,
    805.0,
    805.0,
    805.0,
    805.0,
    805.0,
    806.0,
    806.0,
    805.0,
    805.0,
    804.0,
    804.0,
    804.0,
    804.0,
    804.0,
    805.0,
    805.0,
    804.0,
    805.0,
    805.0,
    806.0,
    806.0,
    807.0,
    806.0,
    805.0,
    805.0,
    804.0,
    806.0,
    806.0,
    806.0,
    806.0,
    804.0,
    804.0,
    804.0,
    804.0,
    804.0,
    804.0,
    804.0,
    804.0,
    804.0,
    805.0,
    806.0,
    806.0,
    806.0,
    806.0,
    805.0,
    805.0,
    806.0,
    806.0,
    805.0,
    806.0,
    806.0,
    805.0,
    805.0,
    806.0,
    805.0,
    805.0,
    805.0,
    804.0,
    805.0,
    805.0,
    805.0,
    805.0,
    805.0,
    805.0,
    804.0,
    805.0,
    806.0,
    807.0,
    807.0,
    807.0,
    806.0,
    806.0,
    806.0,
    806.0,
    805.0,
    805.0,
    806.0,
    806.0,
    805.0,
    805.0,
    805.0,
    804.0,
    804.0,
    805.0,
    806.0,
    806.0,
    805.0,
    806.0,
    806.0,
    807.0,
    806.0,
    807.0,
    807.0,
    807.0,
    807.0,
    807.0,
    807.0,
    807.0,
    807.0,
    807.0,
    808.0,
    808.0,
    807.0,
    805.0,
    805.0,
    806.0,
    806.0,
    806.0,
    805.0,
    804.0,
    805.0,
    804.0,
    804.0
   ],
   "WindowWidth": [
    1706.0,
    1698.0,
    1696.0,
    1696.0,
    1694.0,
    1693.0,
    1691.0,
    1694.0,
    1694.0,
    1696.0,
    1697.0,
    1694.0,
    1694.0,
    1696.0,
    1696.0,
    1698.0,
    1696.0,
    1695.0,
    1694.0,
    1691.0,
    1690.0,
    1688.0,
    1691.0,
    1694.0,
    1694.0,
    1693.0,
    1692.0,
    1692.0,
    1696.0,
    1695.0,
    1694.0,
    1695.0,
    1696.0,
    1696.0,
    1696.0,
    1695.0,
    1696.0,
    1693.0,
    1693.0,
    1693.0,
    1694.0,
    1694.0,
    1695.0,
    1695.0,
    1693.0,
    1693.0,
    1691.0,
    1690.0,
    1690.0,
    1690.0,
    1691.0,
    1693.0,
    1693.0,
    1692.0,
    1693.0,
    1695.0,
    1696.0,
    1697.0,
    1698.0,
    1696.0,
    1695.0,
    1693.0,
    1693.0,
    1696.0,
    1697.0,
    1697.0,
    1695.0,
    1693.0,
    1692.0,
    1692.0,
    1691.0,
    1692.0,
    1691.0,
    1691.0,
    1692.0,
    1692.0,
    1694.0,
    1696.0,
    1697.0,
    1697.0,
    1696.0,
    1694.0,
    1694.0,
    1696.0,
    1695.0,
    1694.0,
    1696.0,
    1696.0,
    1695.0,
    1695.0,
    1696.0,
    1694.0,
    1693.0,
    1693.0,
    1691.0,
    1693.0,
    1693.0,
    1694.0,
    1693.0,
    1693.0,
    1694.0,
    1690.0,
    1693.0,
    1696.0,
    1699.0,
    1699.0,
    1698.0,
    1697.0,
    1697.0,
    1696.0,
    1695.0,
    1695.0,
    1695.0,
    1695.0,
    1696.0,
    1694.0,
    1694.0,
    1693.0,
    1692.0,
    1692.0,
    1693.0,
    1695.0,
    1695.0,
    1694.0,
    1695.0,
    1696.0,
    1698.0,
    1697.0,
    1698.0,
    1698.0,
    1699.0,
    1699.0,
    1698.0,
    1697.0,
    1697.0,
    1698.0,
    1699.0,
    1701.0,
    1700.0,
    1697.0,
    1693.0,
    1693.0,
    1695.0,
    1696.0,
    1695.0,
    1693.0,
    1692.0,
    1692.0,
    1691.0,
    1690.0
   ]
  },
  "slices": {}
 }
}