{
 "AcquisitionMatrixPE": 100,
 "AcquisitionNumber": 1,
 "AcquisitionTime": "13:50:41.407500",
 "BandwidthPerPixelPhaseEncode": 18.519,
 "BaseResolution": 100,
 "BodyPartExamined": "BRAIN",
 "ConsistencyInfo": "N4_VE11C_LATEST_20160120",
 "ConversionSoftware": "dcm2niix",
 "ConversionSoftwareVersion": "v1.0.20180622 GCC4.9.2",
 "DerivedVendorReportedEchoSpacing": 0.000539986,
 "DeviceSerialNumber": "166078",
 "DwellTime": 2.1e-06,
 "EchoTime": 0.034,
 "EchoTrainLength": 100,
 "EffectiveEchoSpacing": 0.000539986,
 "FlipAngle": 90,
 "ImageOrientationPatientDICOM": [
  1,
  -4.5782e-06,
  -5.48897e-05,
  -3.03345e-08,
  0.996494,
  -0.0836675
 ],
 "ImageType": [
  "ORIGINAL",
  "PRIMARY",
  "M",
  "ND",
  "MOSAIC"
 ],
 "InPlanePhaseEncodingDirectionDICOM": "COL",
 "InstitutionAddress": "Street_StreetNo_Bei_Jing_District_CN_ZIP",
 "InstitutionName": "BeiJing_Normal_University",
 "InstitutionalDepartmentName": "Department",
 "MRAcquisitionType": "2D",
 "MagneticFieldStrength": 3,
 "Manufacturer": "Siemens",
 "ManufacturersModelName": "Prisma",
 "Modality": "MR",
 "MultibandAccelerationFactor": 3,
 "PartialFourier": 1,
 "PatientPosition": "HFS",
 "PercentPhaseFOV": 100,
 "PhaseEncodingDirection": "j-",
 "PhaseEncodingSteps": 100,
 "PhaseResolution": 1,
 "PixelBandwidth": 2380,
 "ProcedureStepDescription": "BNU_P2018_64CH_Zhen.ZongLei",
 "ProtocolName": "bold_100x100_s3_2x2x2_static_256",
 "PulseSequenceDetails": "%SiemensSeq%_ep2d_bold",
 "ReceiveCoilActiveElements": "HC1-7;NC1",
 "ReceiveCoilName": "HeadNeck_64",
 "ReconMatrixPE": 100,
 "RepetitionTime": 2,
 "SAR": 0.0793508,
 "ScanOptions": "FS",
 "ScanningSequence": "EP",
 "SequenceName": "_epfid2d1_100",
 "SequenceVariant": "SK",
 "SeriesDescription": "bold_100x100_s3_2x2x2_static_256",
 "SeriesNumber": 13,
 "ShimSetting": [
  -5465,
  -11514,
  -1298,
  434,
  -8,
  -201,
  -135,
  -16
 ],
 "SliceThickness": 2,
 "SliceTiming": [
  1.485,
  0,
  0.99,
  0.0825,
  1.0725,
  0.165,
  1.155,
  0.2475,
  1.2375,
  0.33,
  1.32,
  0.4125,
  1.4025,
  0.5775,
  1.5675,
  0.66,
  1.65,
  0.7425,
  1.7325,
  0.825,
  1.815,
  0.9075,
  1.8975,
  0.495,
  1.485,
  0,
  0.99,
  0.0825,
  1.0725,
  0.165,
  1.155,
  0.2475,
  1.2375,
  0.33,
  1.32,
  0.4125,
  1.4025,
  0.5775,
  1.5675,
  0.66,
  1.65,
  0.7425,
  1.7325,
  0.825,
  1.815,
  0.9075,
  1.8975,
  0.495,
  1.485,
  0,
  0.99,
  0.0825,
  1.0725,
  0.165,
  1.155,
  0.2475,
  1.2375,
  0.33,
  1.32,
  0.4125,
  1.4025,
  0.5775,
  1.5675,
  0.66,
  1.65,
  0.7425,
  1.7325,
  0.825,
  1.815,
  0.9075,
  1.8975,
  0.495
 ],
 "SoftwareVersions": "syngo_MR_E11",
 "SpacingBetweenSlices": 2,
 "StationName": "AWP166078",
 "TaskName": "imagenet",
 "TotalReadoutTime": 0.0534586,
 "TxRefAmp": 212.831,
 "dcmmeta_affine": [
  [
   -2.0,
   -6.066899516099511e-08,
   -0.00011016056669177487,
   104.11992645263672
  ],
  [
   9.156405212706886e-06,
   1.9929873943328857,
   -0.16733504831790924,
   -85.59622955322266
  ],
  [
   -0.00010977938654832542,
   0.16733504831790924,
   1.9929875135421753,
   -70.5794677734375
  ],
  [
   0.0,
   0.0,
   0.0,
   1.0
  ]
 ],
 "dcmmeta_reorient_transform": [
  [
   0.0,
   -1.0,
   0.0,
   99.0
  ],
  [
   1.0,
   0.0,
   0.0,
   0.0
  ],
  [
   0.0,
   0.0,
   1.0,
   0.0
  ],
  [
   0.0,
   0.0,
   0.0,
   1.0
  ]
 ],
 "dcmmeta_shape": [
  100,
  100,
  72,
  256
 ],
 "dcmmeta_slice_dim": 2,
 "dcmmeta_version": 0.6,
 "global": {
  "const": {
   "AcquisitionMatrix": [
    100,
    0,
    0,
    100
   ],
   "AngioFlag": "N",
   "BitsAllocated": 16,
   "BitsStored": 12,
   "BodyPartExamined": "BRAIN",
   "Columns": 900,
   "EchoNumbers": 1,
   "EchoTime": 34.0,
   "EchoTrainLength": 100,
   "FlipAngle": 90.0,
   "HighBit": 11,
   "ImageOrientationPatient": [
    0.99999999848308,
    -4.57820243e-06,
    -5.48896923e-05,
    -3.0334497e-08,
    0.9964937259729,
    -0.0836675211575
   ],
   "ImagePositionPatient": [
    -904.11989683269,
    -908.9008437646,
    12.964633570993
   ],
   "ImageType": [
    "ORIGINAL",
    "PRIMARY",
    "M",
    "ND",
    "MOSAIC"
   ],
   "ImagedNucleus": "1H",
   "ImagingFrequency": 123.257773,
   "InPlanePhaseEncodingDirection": "COL",
   "MRAcquisitionType": "2D",
   "MagneticFieldStrength": 3.0,
   "Manufacturer": "SIEMENS",
   "ManufacturerModelName": "Prisma",
   "Modality": "MR",
   "NumberOfAverages": 1.0,
   "NumberOfPhaseEncodingSteps": 100,
   "PercentPhaseFieldOfView": 100.0,
   "PercentSampling": 100.0,
   "PerformedProcedureStepStartTime": "120754.453000",
   "PhotometricInterpretation": "MONOCHROME2",
   "PixelBandwidth": 2380.0,
   "PixelRepresentation": 0,
   "PixelSpacing": [
    2.0,
    2.0
   ],
   "ProtocolName": "bold_100x100_s3_2x2x2_static_256",
   "RepetitionTime": 2000.0,
   "Rows": 900,
   "SAR": 0.07935082826242,
   "SamplesPerPixel": 1,
   "ScanOptions": "FS",
   "ScanningSequence": "EP",
   "SequenceName": "*epfid2d1_100",
   "SequenceVariant": "SK",
   "SeriesDescription": "bold_100x100_s3_2x2x2_static_256",
   "SeriesNumber": 13,
   "SeriesTime": "135043.345000",
   "SliceLocation": -63.176103646327,
   "SliceThickness": 2.0,
   "SmallestImagePixelValue": 0,
   "SoftwareVersions": "syngo MR E11",
   "SpacingBetweenSlices": 2.0000000620842,
   "SpecificCharacterSet": "ISO_IR 100",
   "StudyID": "1",
   "StudyTime": "120754.308000",
   "TransmitCoilName": "Body",
   "VariableFlipAngleFlag": "N",
   "WindowCenterWidthExplanation": "Algo1",
   "dBdt": 0.0
  },
  "slices": {}
 },
 "time": {
  "samples": {
   "AcquisitionNumber": [
    1,
    2,
    3,
    4,
    5,
    6,
    7,
    8,
    9,
    10,
    11,
    12,
    13,
    14,
    15,
    16,
    17,
    18,
    19,
    20,
    21,
    22,
    23,
    24,
    25,
    26,
    27,
    28,
    29,
    30,
    31,
    32,
    33,
    34,
    35,
    36,
    37,
    38,
    39,
    40,
    41,
    42,
    43,
    44,
    45,
    46,
    47,
    48,
    49,
    50,
    51,
    52,
    53,
    54,
    55,
    56,
    57,
    58,
    59,
    60,
    61,
    62,
    63,
    64,
    65,
    66,
    67,
    68,
    69,
    70,
    71,
    72,
    73,
    74,
    75,
    76,
    77,
    78,
    79,
    80,
    81,
    82,
    83,
    84,
    85,
    86,
    87,
    88,
    89,
    90,
    91,
    92,
    93,
    94,
    95,
    96,
    97,
    98,
    99,
    100,
    101,
    102,
    103,
    104,
    105,
    106,
    107,
    108,
    109,
    110,
    111,
    112,
    113,
    114,
    115,
    116,
    117,
    118,
    119,
    120,
    121,
    122,
    123,
    124,
    125,
    126,
    127,
    128,
    129,
    130,
    131,
    132,
    133,
    134,
    135,
    136,
    137,
    138,
    139,
    140,
    141,
    142,
    143,
    144,
    145,
    146,
    147,
    148,
    149,
    150,
    151,
    152,
    153,
    154,
    155,
    156,
    157,
    158,
    159,
    160,
    161,
    162,
    163,
    164,
    165,
    166,
    167,
    168,
    169,
    170,
    171,
    172,
    173,
    174,
    175,
    176,
    177,
    178,
    179,
    180,
    181,
    182,
    183,
    184,
    185,
    186,
    187,
    188,
    189,
    190,
    191,
    192,
    193,
    194,
    195,
    196,
    197,
    198,
    199,
    200,
    201,
    202,
    203,
    204,
    205,
    206,
    207,
    208,
    209,
    210,
    211,
    212,
    213,
    214,
    215,
    216,
    217,
    218,
    219,
    220,
    221,
    222,
    223,
    224,
    225,
    226,
    227,
    228,
    229,
    230,
    231,
    232,
    233,
    234,
    235,
    236,
    237,
    238,
    239,
    240,
    241,
    242,
    243,
    244,
    245,
    246,
    247,
    248,
    249,
    250,
    251,
    252,
    253,
    254,
    255,
    256
   ],
   "AcquisitionTime": [
    "135041.407500",
    "135043.407500",
    "135045.407500",
    "135047.407500",
    "135049.407500",
    "135051.407500",
    "135053.407500",
    "135055.407500",
    "135057.407500",
    "135059.407500",
    "135101.407500",
    "135103.407500",
    "135105.407500",
    "135107.407500",
    "135109.407500",
    "135111.407500",
    "135113.407500",
    "135115.407500",
    "135117.407500",
    "135119.407500",
    "135121.407500",
    "135123.407500",
    "135125.407500",
    "135127.407500",
    "135129.407500",
    "135131.407500",
    "135133.407500",
    "135135.407500",
    "135137.407500",
    "135139.407500",
    "135141.407500",
    "135143.407500",
    "135145.407500",
    "135147.407500",
    "135149.407500",
    "135151.407500",
    "135153.407500",
    "135155.407500",
    "135157.407500",
    "135159.407500",
    "135201.407500",
    "135203.407500",
    "135205.407500",
    "135207.407500",
    "135209.407500",
    "135211.407500",
    "135213.407500",
    "135215.407500",
    "135217.407500",
    "135219.407500",
    "135221.407500",
    "135223.407500",
    "135225.407500",
    "135227.407500",
    "135229.407500",
    "135231.407500",
    "135233.407500",
    "135235.407500",
    "135237.407500",
    "135239.407500",
    "135241.407500",
    "135243.407500",
    "135245.407500",
    "135247.407500",
    "135249.407500",
    "135251.407500",
    "135253.407500",
    "135255.407500",
    "135257.407500",
    "135259.407500",
    "135301.407500",
    "135303.407500",
    "135305.407500",
    "135307.407500",
    "135309.407500",
    "135311.407500",
    "135313.407500",
    "135315.407500",
    "135317.407500",
    "135319.407500",
    "135321.407500",
    "135323.407500",
    "135325.407500",
    "135327.407500",
    "135329.407500",
    "135331.407500",
    "135333.407500",
    "135335.407500",
    "135337.407500",
    "135339.407500",
    "135341.407500",
    "135343.407500",
    "135345.407500",
    "135347.407500",
    "135349.407500",
    "135351.407500",
    "135353.407500",
    "135355.407500",
    "135357.407500",
    "135359.407500",
    "135401.407500",
    "135403.407500",
    "135405.407500",
    "135407.407500",
    "135409.407500",
    "135411.407500",
    "135413.407500",
    "135415.407500",
    "135417.407500",
    "135419.407500",
    "135421.407500",
    "135423.407500",
    "135425.407500",
    "135427.407500",
    "135429.407500",
    "135431.407500",
    "135433.407500",
    "135435.407500",
    "135437.407500",
    "135439.407500",
    "135441.407500",
    "135443.407500",
    "135445.407500",
    "135447.407500",
    "135449.407500",
    "135451.407500",
    "135453.407500",
    "135455.407500",
    "135457.407500",
    "135459.407500",
    "135501.407500",
    "135503.407500",
    "135505.407500",
    "135507.407500",
    "135509.407500",
    "135511.407500",
    "135513.407500",
    "135515.407500",
    "135517.407500",
    "135519.407500",
    "135521.407500",
    "135523.407500",
    "135525.407500",
    "135527.407500",
    "135529.407500",
    "135531.407500",
    "135533.407500",
    "135535.407500",
    "135537.407500",
    "135539.407500",
    "135541.407500",
    "135543.407500",
    "135545.407500",
    "135547.407500",
    "135549.407500",
    "135551.407500",
    "135553.407500",
    "135555.407500",
    "135557.407500",
    "135559.407500",
    "135601.407500",
    "135603.407500",
    "135605.407500",
    "135607.407500",
    "135609.407500",
    "135611.407500",
    "135613.407500",
    "135615.407500",
    "135617.407500",
    "135619.407500",
    "135621.407500",
    "135623.407500",
    "135625.407500",
    "135627.407500",
    "135629.407500",
    "135631.407500",
    "135633.407500",
    "135635.407500",
    "135637.407500",
    "135639.407500",
    "135641.407500",
    "135643.407500",
    "135645.407500",
    "135647.407500",
    "135649.407500",
    "135651.407500",
    "135653.407500",
    "135655.407500",
    "135657.407500",
    "135659.407500",
    "135701.407500",
    "135703.407500",
    "135705.407500",
    "135707.407500",
    "135709.407500",
    "135711.407500",
    "135713.407500",
    "135715.407500",
    "135717.407500",
    "135719.407500",
    "135721.407500",
    "135723.407500",
    "135725.407500",
    "135727.407500",
    "135729.407500",
    "135731.407500",
    "135733.407500",
    "135735.407500",
    "135737.407500",
    "135739.407500",
    "135741.407500",
    "135743.407500",
    "135745.407500",
    "135747.407500",
    "135749.407500",
    "135751.407500",
    "135753.407500",
    "135755.407500",
    "135757.407500",
    "135759.407500",
    "135801.407500",
    "135803.407500",
    "135805.407500",
    "135807.407500",
    "135809.407500",
    "135811.407500",
    "135813.407500",
    "135815.407500",
    "135817.407500",
    "135819.407500",
    "135821.407500",
    "135823.407500",
    "135825.407500",
    "135827.407500",
    "135829.407500",
    "135831.407500",
    "135833.407500",
    "135835.407500",
    "135837.407500",
    "135839.407500",
    "135841.407500",
    "135843.407500",
    "135845.407500",
    "135847.407500",
    "135849.407500",
    "135851.407500",
    "135853.407500",
    "135855.407500",
    "135857.407500",
    "135859.407500",
    "135901.407500",
    "135903.407500",
    "135905.407500",
    "135907.407500",
    "135909.407500",
    "135911.407500"
   ],
   "ContentTime": [
    "135043.349000",
    "135044.844000",
    "135046.844000",
    "135048.843000",
    "135050.843000",
    "135052.844000",
    "135054.844000",
    "135056.844000",
    "135058.844000",
    "135101.344000",
    "135102.845000",
    "135104.845000",
    "135106.843000",
    "135108.844000",
    "135110.843000",
    "135112.865000",
    "135114.844000",
    "135116.844000",
    "135118.844000",
    "135120.845000",
    "135122.844000",
    "135124.843000",
    "135126.843000",
    "135128.843000",
    "135130.845000",
    "135133.345000",
    "135134.844000",
    "135136.844000",
    "135138.845000",
    "135140.843000",
    "135142.843000",
    "135144.844000",
    "135146.844000",
    "135148.845000",
    "135150.844000",
    "135152.845000",
    "135154.845000",
    "135156.844000",
    "135158.844000",
    "135200.844000",
    "135202.843000",
    "135204.844000",
    "135206.865000",
    "135208.845000",
    "135210.845000",
    "135212.844000",
    "135214.844000",
    "135216.843000",
    "135219.343000",
    "135220.843000",
    "135222.845000",
    "135224.844000",
    "135226.844000",
    "135228.845000",
    "135230.844000",
    "135232.844000",
    "135234.843000",
    "135236.844000",
    "135238.844000",
    "135240.845000",
    "135242.845000",
    "135244.845000",
    "135246.844000",
    "135248.844000",
    "135250.844000",
    "135252.844000",
    "135254.844000",
    "135256.844000",
    "135258.845000",
    "135300.845000",
    "135302.844000",
    "135304.845000",
    "135306.845000",
    "135308.844000",
    "135310.844000",
    "135312.843000",
    "135314.844000",
    "135316.844000",
    "135319.344000",
    "135320.845000",
    "135323.345000",
    "135324.844000",
    "135326.844000",
    "135328.844000",
    "135330.843000",
    "135332.844000",
    "135334.844000",
    "135336.844000",
    "135338.864000",
    "135341.344000",
    "135342.844000",
    "135344.843000",
    "135346.843000",
    "135349.344000",
    "135350.844000",
    "135352.845000",
    "135354.864000",
    "135356.845000",
    "135358.845000",
    "135400.843000",
    "135402.843000",
    "135404.844000",
    "135406.845000",
    "135408.845000",
    "135410.844000",
    "135412.864000",
    "135414.844000",
    "135416.844000",
    "135418.843000",
    "135420.844000",
    "135422.844000",
    "135424.845000",
    "135426.845000",
    "135428.844000",
    "135430.844000",
    "135432.844000",
    "135434.845000",
    "135437.344000",
    "135438.843000",
    "135441.343000",
    "135442.845000",
    "135444.844000",
    "135446.845000",
    "135449.344000",
    "135450.844000",
    "135452.844000",
    "135454.844000",
    "135456.843000",
    "135458.843000",
    "135501.345000",
    "135502.845000",
    "135504.845000",
    "135506.845000",
    "135508.844000",
    "135511.343000",
    "135512.863000",
    "135514.843000",
    "135516.844000",
    "135518.844000",
    "135520.844000",
    "135522.844000",
    "135524.865000",
    "135526.844000",
    "135528.843000",
    "135530.843000",
    "135532.843000",
    "135534.844000",
    "135536.845000",
    "135538.844000",
    "135541.345000",
    "135542.844000",
    "135544.845000",
    "135546.844000",
    "135548.844000",
    "135550.853000",
    "135552.844000",
    "135554.844000",
    "135556.845000",
    "135559.344000",
    "135600.845000",
    "135602.844000",
    "135605.344000",
    "135607.344000",
    "135608.843000",
    "135610.844000",
    "135612.845000",
    "135614.845000",
    "135616.845000",
    "135618.845000",
    "135620.843000",
    "135623.344000",
    "135624.843000",
    "135626.845000",
    "135628.845000",
    "135630.845000",
    "135632.844000",
    "135635.345000",
    "135637.345000",
    "135638.844000",
    "135640.844000",
    "135642.843000",
    "135644.844000",
    "135647.344000",
    "135648.845000",
    "135650.845000",
    "135653.345000",
    "135654.844000",
    "135656.843000",
    "135658.844000",
    "135700.843000",
    "135702.845000",
    "135704.844000",
    "135707.344000",
    "135708.844000",
    "135710.844000",
    "135712.845000",
    "135714.844000",
    "135716.843000",
    "135719.344000",
    "135720.845000",
    "135722.844000",
    "135724.845000",
    "135726.845000",
    "135728.845000",
    "135731.344000",
    "135732.843000",
    "135734.843000",
    "135736.845000",
    "135738.844000",
    "135740.845000",
    "135742.844000",
    "135744.844000",
    "135746.845000",
    "135749.344000",
    "135750.843000",
    "135752.843000",
    "135755.345000",
    "135757.345000",
    "135758.845000",
    "135800.844000",
    "135803.345000",
    "135804.844000",
    "135806.843000",
    "135808.843000",
    "135810.844000",
    "135813.345000",
    "135814.845000",
    "135816.844000",
    "135818.844000",
    "135820.844000",
    "135823.344000",
    "135825.344000",
    "135826.844000",
    "135828.845000",
    "135830.845000",
    "135832.844000",
    "135834.845000",
    "135836.844000",
    "135838.844000",
    "135840.844000",
    "135842.844000",
    "135844.844000",
    "135846.844000",
    "135848.845000",
    "135850.845000",
    "135852.844000",
    "135854.845000",
    "135857.345000",
    "135858.844000",
    "135900.844000",
    "135902.844000",
    "135904.845000",
    "135906.845000",
    "135908.844000",
    "135910.845000",
    "135912.768000"
   ],
   "InstanceCreationTime": [
    "135043.349000",
    "135044.844000",
    "135046.844000",
    "135048.843000",
    "135050.843000",
    "135052.844000",
    "135054.844000",
    "135056.844000",
    "135058.844000",
    "135101.344000",
    "135102.845000",
    "135104.845000",
    "135106.843000",
    "135108.844000",
    "135110.843000",
    "135112.865000",
    "135114.844000",
    "135116.844000",
    "135118.844000",
    "135120.845000",
    "135122.844000",
    "135124.843000",
    "135126.843000",
    "135128.843000",
    "135130.845000",
    "135133.345000",
    "135134.844000",
    "135136.844000",
    "135138.845000",
    "135140.843000",
    "135142.843000",
    "135144.844000",
    "135146.844000",
    "135148.845000",
    "135150.844000",
    "135152.845000",
    "135154.845000",
    "135156.844000",
    "135158.844000",
    "135200.844000",
    "135202.843000",
    "135204.844000",
    "135206.865000",
    "135208.845000",
    "135210.845000",
    "135212.844000",
    "135214.844000",
    "135216.843000",
    "135219.343000",
    "135220.843000",
    "135222.845000",
    "135224.844000",
    "135226.844000",
    "135228.845000",
    "135230.844000",
    "135232.844000",
    "135234.843000",
    "135236.844000",
    "135238.844000",
    "135240.845000",
    "135242.845000",
    "135244.845000",
    "135246.844000",
    "135248.844000",
    "135250.844000",
    "135252.844000",
    "135254.844000",
    "135256.844000",
    "135258.845000",
    "135300.845000",
    "135302.844000",
    "135304.845000",
    "135306.845000",
    "135308.844000",
    "135310.844000",
    "135312.843000",
    "135314.844000",
    "135316.844000",
    "135319.344000",
    "135320.845000",
    "135323.345000",
    "135324.844000",
    "135326.844000",
    "135328.844000",
    "135330.843000",
    "135332.844000",
    "135334.844000",
    "135336.844000",
    "135338.864000",
    "135341.344000",
    "135342.844000",
    "135344.843000",
    "135346.843000",
    "135349.344000",
    "135350.844000",
    "135352.845000",
    "135354.864000",
    "135356.845000",
    "135358.845000",
    "135400.843000",
    "135402.843000",
    "135404.844000",
    "135406.845000",
    "135408.845000",
    "135410.844000",
    "135412.864000",
    "135414.844000",
    "135416.844000",
    "135418.843000",
    "135420.844000",
    "135422.844000",
    "135424.845000",
    "135426.845000",
    "135428.844000",
    "135430.844000",
    "135432.844000",
    "135434.845000",
    "135437.344000",
    "135438.843000",
    "135441.343000",
    "135442.845000",
    "135444.844000",
    "135446.845000",
    "135449.344000",
    "135450.844000",
    "135452.844000",
    "135454.844000",
    "135456.843000",
    "135458.843000",
    "135501.345000",
    "135502.845000",
    "135504.845000",
    "135506.845000",
    "135508.844000",
    "135511.343000",
    "135512.863000",
    "135514.843000",
    "135516.844000",
    "135518.844000",
    "135520.844000",
    "135522.844000",
    "135524.865000",
    "135526.844000",
    "135528.843000",
    "135530.843000",
    "135532.843000",
    "135534.844000",
    "135536.845000",
    "135538.844000",
    "135541.345000",
    "135542.844000",
    "135544.845000",
    "135546.844000",
    "135548.844000",
    "135550.853000",
    "135552.844000",
    "135554.844000",
    "135556.845000",
    "135559.344000",
    "135600.845000",
    "135602.844000",
    "135605.344000",
    "135607.344000",
    "135608.843000",
    "135610.844000",
    "135612.845000",
    "135614.845000",
    "135616.845000",
    "135618.845000",
    "135620.843000",
    "135623.344000",
    "135624.843000",
    "135626.845000",
    "135628.845000",
    "135630.845000",
    "135632.844000",
    "135635.345000",
    "135637.345000",
    "135638.844000",
    "135640.844000",
    "135642.843000",
    "135644.844000",
    "135647.344000",
    "135648.845000",
    "135650.845000",
    "135653.345000",
    "135654.844000",
    "135656.843000",
    "135658.844000",
    "135700.843000",
    "135702.845000",
    "135704.844000",
    "135707.344000",
    "135708.844000",
    "135710.844000",
    "135712.845000",
    "135714.844000",
    "135716.843000",
    "135719.344000",
    "135720.845000",
    "135722.844000",
    "135724.845000",
    "135726.845000",
    "135728.845000",
    "135731.344000",
    "135732.843000",
    "135734.843000",
    "135736.845000",
    "135738.844000",
    "135740.845000",
    "135742.844000",
    "135744.844000",
    "135746.845000",
    "135749.344000",
    "135750.843000",
    "135752.843000",
    "135755.345000",
    "135757.345000",
    "135758.845000",
    "135800.844000",
    "135803.345000",
    "135804.844000",
    "135806.843000",
    "135808.843000",
    "135810.844000",
    "135813.345000",
    "135814.845000",
    "135816.844000",
    "135818.844000",
    "135820.844000",
    "135823.344000",
    "135825.344000",
    "135826.844000",
    "135828.845000",
    "135830.845000",
    "135832.844000",
    "135834.845000",
    "135836.844000",
    "135838.844000",
    "135840.844000",
    "135842.844000",
    "135844.844000",
    "135846.844000",
    "135848.845000",
    "135850.845000",
    "135852.844000",
    "135854.845000",
    "135857.345000",
    "135858.844000",
    "135900.844000",
    "135902.844000",
    "135904.845000",
    "135906.845000",
    "135908.844000",
    "135910.845000",
    "135912.768000"
   ],
   "InstanceNumber": [
    1,
    2,
    3,
    4,
    5,
    6,
    7,
    8,
    9,
    10,
    11,
    12,
    13,
    14,
    15,
    16,
    17,
    18,
    19,
    20,
    21,
    22,
    23,
    24,
    25,
    26,
    27,
    28,
    29,
    30,
    31,
    32,
    33,
    34,
    35,
    36,
    37,
    38,
    39,
    40,
    41,
    42,
    43,
    44,
    45,
    46,
    47,
    48,
    49,
    50,
    51,
    52,
    53,
    54,
    55,
    56,
    57,
    58,
    59,
    60,
    61,
    62,
    63,
    64,
    65,
    66,
    67,
    68,
    69,
    70,
    71,
    72,
    73,
    74,
    75,
    76,
    77,
    78,
    79,
    80,
    81,
    82,
    83,
    84,
    85,
    86,
    87,
    88,
    89,
    90,
    91,
    92,
    93,
    94,
    95,
    96,
    97,
    98,
    99,
    100,
    101,
    102,
    103,
    104,
    105,
    106,
    107,
    108,
    109,
    110,
    111,
    112,
    113,
    114,
    115,
    116,
    117,
    118,
    119,
    120,
    121,
    122,
    123,
    124,
    125,
    126,
    127,
    128,
    129,
    130,
    131,
    132,
    133,
    134,
    135,
    136,
    137,
    138,
    139,
    140,
    141,
    142,
    143,
    144,
    145,
    146,
    147,
    148,
    149,
    150,
    151,
    152,
    153,
    154,
    155,
    156,
    157,
    158,
    159,
    160,
    161,
    162,
    163,
    164,
    165,
    166,
    167,
    168,
    169,
    170,
    171,
    172,
    173,
    174,
    175,
    176,
    177,
    178,
    179,
    180,
    181,
    182,
    183,
    184,
    185,
    186,
    187,
    188,
    189,
    190,
    191,
    192,
    193,
    194,
    195,
    196,
    197,
    198,
    199,
    200,
    201,
    202,
    203,
    204,
    205,
    206,
    207,
    208,
    209,
    210,
    211,
    212,
    213,
    214,
    215,
    216,
    217,
    218,
    219,
    220,
    221,
    222,
    223,
    224,
    225,
    226,
    227,
    228,
    229,
    230,
    231,
    232,
    233,
    234,
    235,
    236,
    237,
    238,
    239,
    240,
    241,
    242,
    243,
    244,
    245,
    246,
    247,
    248,
    249,
    250,
    251,
    252,
    253,
    254,
    255,
    256
   ],
   "LargestImagePixelValue": [
    2933,
    2917,
    2916,
    2906,
    2915,
    2906,
    2937,
    2899,
    2919,
    2885,
    2874,
    2847,
    2861,
    2816,
    2799,
    2845,
    2859,
    2848,
    2844,
    2811,
    2835,
    2823,
    2790,
    2833,
    2825,
    2793,
    2778,
    2822,
    2825,
    2869,
    2833,
    2841,
    2857,
    2883,
    2845,
    2894,
    2857,
    2872,
    2902,
    2876,
    2915,
    2868,
    2863,
    2845,
    2850,
    2849,
    2835,
    2842,
    2839,
    2834,
    2849,
    2820,
    2830,
    2829,
    2849,
    2828,
    2823,
    2832,
    2821,
    2829,
    2855,
    2862,
    2836,
    2835,
    2823,
    2834,
    2818,
    2818,
    2845,
    2790,
    2813,
    2802,
    2849,
    2862,
    2868,
    2843,
    2838,
    2878,
    2846,
    2855,
    2827,
    2864,
    2812,
    2838,
    2855,
    2819,
    2818,
    2817,
    2830,
    2861,
    2826,
    2827,
    2843,
    2857,
    2844,
    2869,
    2868,
    2840,
    2841,
    2853,
    2805,
    2856,
    2868,
    2864,
    2872,
    2802,
    2852,
    2808,
    2834,
    2787,
    2825,
    2850,
    2848,
    2823,
    2800,
    2878,
    2825,
    2881,
    2818,
    2810,
    2795,
    2768,
    2822,
    2793,
    2826,
    2802,
    2789,
    2753,
    2761,
    3212,
    2738,
    2759,
    2745,
    2736,
    2706,
    2711,
    2701,
    2730,
    2731,
    2748,
    2710,
    2732,
    2710,
    2719,
    2712,
    2728,
    2720,
    2711,
    2701,
    2737,
    2726,
    2712,
    2716,
    2744,
    2688,
    2750,
    2934,
    2829,
    2762,
    2750,
    2708,
    2696,
    2743,
    2713,
    2676,
    2942,
    2714,
    2750,
    2722,
    2718,
    2729,
    2692,
    2695,
    2863,
    2704,
    2770,
    2739,
    2694,
    2739,
    2742,
    2837,
    2731,
    2695,
    2719,
    2671,
    2871,
    2674,
    2689,
    2686,
    2662,
    2700,
    2696,
    2712,
    2687,
    2726,
    2724,
    2698,
    2673,
    2728,
    2702,
    2682,
    2672,
    2676,
    2694,
    2686,
    2667,
    2673,
    2732,
    2701,
    2667,
    2686,
    2697,
    2725,
    2676,
    2697,
    2682,
    2728,
    2704,
    2655,
    2691,
    2681,
    2683,
    2677,
    2715,
    2719,
    2712,
    2674,
    2714,
    2694,
    2677,
    2689,
    2683,
    2675,
    2641,
    2685,
    2687,
    2661,
    2692,
    2685,
    2700,
    2666,
    2730,
    2646,
    2724,
    2662,
    3075,
    2641,
    2706,
    2681,
    2641,
    2665,
    2654,
    2704,
    2671,
    2686,
    2672
   ],
   "WindowCenter": [
    745.0,
    743.0,
    743.0,
    742.0,
    742.0,
    742.0,
    742.0,
    741.0,
    741.0,
    742.0,
    743.0,
    743.0,
    742.0,
    741.0,
    741.0,
    741.0,
    741.0,
    740.0,
    741.0,
    740.0,
    739.0,
    740.0,
    740.0,
    740.0,
    739.0,
    739.0,
    739.0,
    740.0,
    740.0,
    740.0,
    739.0,
    740.0,
    740.0,
    740.0,
    740.0,
    741.0,
    741.0,
    742.0,
    743.0,
    741.0,
    741.0,
    741.0,
    742.0,
    741.0,
    741.0,
    741.0,
    742.0,
    742.0,
    742.0,
    741.0,
    741.0,
    740.0,
    742.0,
    742.0,
    743.0,
    742.0,
    741.0,
    741.0,
    742.0,
    743.0,
    743.0,
    742.0,
    741.0,
    741.0,
    741.0,
    741.0,
    741.0,
    741.0,
    741.0,
    741.0,
    742.0,
    741.0,
    741.0,
    741.0,
    741.0,
    741.0,
    742.0,
    741.0,
    741.0,
    741.0,
    739.0,
    739.0,
    740.0,
    740.0,
    741.0,
    741.0,
    740.0,
    740.0,
    740.0,
    740.0,
    740.0,
    740.0,
    740.0,
    740.0,
    740.0,
    739.0,
    740.0,
    740.0,
    740.0,
    741.0,
    741.0,
    741.0,
    740.0,
    740.0,
    741.0,
    740.0,
    742.0,
    741.0,
    742.0,
    740.0,
