{
  "AcquisitionMatrixPE": 100,
  "AcquisitionNumber": 1,
  "AcquisitionTime": "12:23:48.825000",
  "BandwidthPerPixelPhaseEncode": 18.519,
  "BaseResolution": 100,
  "BodyPartExamined": "BRAIN",
  "ConsistencyInfo": "N4_VE11C_LATEST_20160120",
  "ConversionSoftware": "dcm2niix",
  "ConversionSoftwareVersion": "v1.0.20180622 GCC4.9.2",
  "DerivedVendorReportedEchoSpacing": 0.000539986,
  "DeviceSerialNumber": "166078",
  "DwellTime": 2.1e-06,
  "EchoTime": 0.034,
  "EchoTrainLength": 100,
  "EffectiveEchoSpacing": 0.000539986,
  "FlipAngle": 90,
  "ImageOrientationPatientDICOM": [1, -4.5782e-06, -5.48897e-05, -3.03345e-08, 0.996494, -0.0836675],
  "ImageType": [
    "ORIGINAL",
    "PRIMARY",
    "M",
    "ND",
    "MOSAIC"
],
  "InPlanePhaseEncodingDirectionDICOM": "COL",
  "InstitutionAddress": "Street_StreetNo_Bei_Jing_District_CN_ZIP",
  "InstitutionName": "BeiJing_Normal_University",
  "InstitutionalDepartmentName": "Department",
  "MRAcquisitionType": "2D",
  "MagneticFieldStrength": 3,
  "Manufacturer": "Siemens",
  "ManufacturersModelName": "Prisma",
  "Modality": "MR",
  "MultibandAccelerationFactor": 3,
  "PartialFourier": 1,
  "PatientPosition": "HFS",
  "PercentPhaseFOV": 100,
  "PhaseEncodingDirection": "j-",
  "PhaseEncodingSteps": 100,
  "PhaseResolution": 1,
  "PixelBandwidth": 2380,
  "ProcedureStepDescription": "BNU_P2018_64CH_Zhen.ZongLei",
  "ProtocolName": "bold_100x100_s3_2x2x2_static_256",
  "PulseSequenceDetails": "%SiemensSeq%_ep2d_bold",
  "ReceiveCoilActiveElements": "HC1-7;NC1",
  "ReceiveCoilName": "HeadNeck_64",
  "ReconMatrixPE": 100,
  "RepetitionTime": 2,
  "SAR": 0.0793508,
  "ScanOptions": "FS",
  "ScanningSequence": "EP",
  "SequenceName": "_epfid2d1_100",
  "SequenceVariant": "SK",
  "SeriesDescription": "bold_100x100_s3_2x2x2_static_256",
  "SeriesNumber": 3,
  "ShimSetting": [-5465, -11514, -1298, 434, -8, -201, -135, -16],
  "SliceThickness": 2,
  "SliceTiming": [1.485, 0, 0.99, 0.0825, 1.0725, 0.165, 1.155, 0.2475, 1.2375, 0.33, 1.32, 0.4125, 1.4025, 0.5775, 1.5675, 0.66, 1.65, 0.7425, 1.7325, 0.825, 1.815, 0.9075, 1.8975, 0.495, 1.485, 0, 0.99, 0.0825, 1.0725, 0.165, 1.155, 0.2475, 1.2375, 0.33, 1.32, 0.4125, 1.4025, 0.5775, 1.5675, 0.66, 1.65, 0.7425, 1.7325, 0.825, 1.815, 0.9075, 1.8975, 0.495, 1.485, 0, 0.99, 0.0825, 1.0725, 0.165, 1.155, 0.2475, 1.2375, 0.33, 1.32, 0.4125, 1.4025, 0.5775, 1.5675, 0.66, 1.65, 0.7425, 1.7325, 0.825, 1.815, 0.9075, 1.8975, 0.495],
  "SoftwareVersions": "syngo_MR_E11",
  "SpacingBetweenSlices": 2,
  "StationName": "AWP166078",
  "TaskName": "naturalvision",
  "TotalReadoutTime": 0.0534586,
  "TxRefAmp": 212.831,
  "dcmmeta_affine": [
    [-2.0, -6.066899516099511e-08, -0.00011016056669177487, 104.11992645263672],
    [9.156405212706886e-06, 1.9929873943328857, -0.16733504831790924, -85.59622955322266],
    [-0.00010977938654832542, 0.16733504831790924, 1.9929875135421753, -70.5794677734375],
    [0.0, 0.0, 0.0, 1.0]
],
  "dcmmeta_reorient_transform": [
    [0.0, -1.0, 0.0, 99.0],
    [1.0, 0.0, 0.0, 0.0],
    [0.0, 0.0, 1.0, 0.0],
    [0.0, 0.0, 0.0, 1.0]
],
  "dcmmeta_shape": [100, 100, 72, 256],
  "dcmmeta_slice_dim": 2,
  "dcmmeta_version": 0.6,
  "global": {
    "const": {
      "AcquisitionMatrix": [100, 0, 0, 100],
      "AngioFlag": "N",
      "BitsAllocated": 16,
      "BitsStored": 12,
      "BodyPartExamined": "BRAIN",
      "Columns": 900,
      "EchoNumbers": 1,
      "EchoTime": 34.0,
      "EchoTrainLength": 100,
      "FlipAngle": 90.0,
      "HighBit": 11,
      "ImageOrientationPatient": [0.99999999848308, -4.57820243e-06, -5.48896923e-05, -3.0334497e-08, 0.9964937259729, -0.0836675211575],
      "ImagePositionPatient": [-904.11989683269, -908.9008437646, 12.964633570993],
      "ImageType": [
        "ORIGINAL",
        "PRIMARY",
        "M",
        "ND",
        "MOSAIC"
],
      "ImagedNucleus": "1H",
      "ImagingFrequency": 123.25772,
      "InPlanePhaseEncodingDirection": "COL",
      "MRAcquisitionType": "2D",
      "MagneticFieldStrength": 3.0,
      "Manufacturer": "SIEMENS",
      "ManufacturerModelName": "Prisma",
      "Modality": "MR",
      "NumberOfAverages": 1.0,
      "NumberOfPhaseEncodingSteps": 100,
      "PercentPhaseFieldOfView": 100.0,
      "PercentSampling": 100.0,
      "PerformedProcedureStepStartTime": "120754.453000",
      "PhotometricInterpretation": "MONOCHROME2",
      "PixelBandwidth": 2380.0,
      "PixelRepresentation": 0,
      "PixelSpacing": [2.0, 2.0],
      "ProtocolName": "bold_100x100_s3_2x2x2_static_256",
      "RepetitionTime": 2000.0,
      "Rows": 900,
      "SAR": 0.07935082826242,
      "SamplesPerPixel": 1,
      "ScanOptions": "FS",
      "ScanningSequence": "EP",
      "SequenceName": "*epfid2d1_100",
      "SequenceVariant": "SK",
      "SeriesDescription": "bold_100x100_s3_2x2x2_static_256",
      "SeriesNumber": 3,
      "SeriesTime": "122351.632000",
      "SliceLocation": -63.176103646327,
      "SliceThickness": 2.0,
      "SmallestImagePixelValue": 0,
      "SoftwareVersions": "syngo MR E11",
      "SpacingBetweenSlices": 2.0000000620842,
      "SpecificCharacterSet": "ISO_IR 100",
      "StudyID": "1",
      "StudyTime": "120754.308000",
      "TransmitCoilName": "Body",
      "VariableFlipAngleFlag": "N",
      "WindowCenterWidthExplanation": "Algo1",
      "dBdt": 0.0},
    "slices": {}
  },
  "time": {
    "samples": {
      "AcquisitionNumber": [1, 2, 3, 4, 5, 6, 7, 8, 9, 10, 11, 12, 13, 14, 15, 16, 17, 18, 19, 20, 21, 22, 23, 24, 25, 26, 27, 28, 29, 30, 31, 32, 33, 34, 35, 36, 37, 38, 39, 40, 41, 42, 43, 44, 45, 46, 47, 48, 49, 50, 51, 52, 53, 54, 55, 56, 57, 58, 59, 60, 61, 62, 63, 64, 65, 66, 67, 68, 69, 70, 71, 72, 73, 74, 75, 76, 77, 78, 79, 80, 81, 82, 83, 84, 85, 86, 87, 88, 89, 90, 91, 92, 93, 94, 95, 96, 97, 98, 99, 100, 101, 102, 103, 104, 105, 106, 107, 108, 109, 110, 111, 112, 113, 114, 115, 116, 117, 118, 119, 120, 121, 122, 123, 124, 125, 126, 127, 128, 129, 130, 131, 132, 133, 134, 135, 136, 137, 138, 139, 140, 141, 142, 143, 144, 145, 146, 147, 148, 149, 150, 151, 152, 153, 154, 155, 156, 157, 158, 159, 160, 161, 162, 163, 164, 165, 166, 167, 168, 169, 170, 171, 172, 173, 174, 175, 176, 177, 178, 179, 180, 181, 182, 183, 184, 185, 186, 187, 188, 189, 190, 191, 192, 193, 194, 195, 196, 197, 198, 199, 200, 201, 202, 203, 204, 205, 206, 207, 208, 209, 210, 211, 212, 213, 214, 215, 216, 217, 218, 219, 220, 221, 222, 223, 224, 225, 226, 227, 228, 229, 230, 231, 232, 233, 234, 235, 236, 237, 238, 239, 240, 241, 242, 243, 244, 245, 246, 247, 248, 249, 250, 251, 252, 253, 254, 255, 256],
      "AcquisitionTime": ["122348.825000", "122350.825000", "122352.825000", "122354.825000", "122356.825000", "122358.825000", "122400.825000", "122402.825000", "122404.825000", "122406.825000", "122408.825000", "122410.825000", "122412.825000", "122414.825000", "122416.825000", "122418.825000", "122420.825000", "122422.825000", "122424.825000", "122426.825000", "122428.825000", "122430.825000", "122432.825000", "122434.825000", "122436.825000", "122438.825000", "122440.825000", "122442.825000", "122444.825000", "122446.825000", "122448.825000", "122450.825000", "122452.825000", "122454.825000", "122456.825000", "122458.825000", "122500.825000", "122502.825000", "122504.825000", "122506.825000", "122508.825000", "122510.825000", "122512.825000", "122514.825000", "122516.825000", "122518.825000", "122520.825000", "122522.825000", "122524.825000", "122526.825000", "122528.825000", "122530.825000", "122532.825000", "122534.825000", "122536.825000", "122538.825000", "122540.825000", "122542.825000", "122544.825000", "122546.825000", "122548.825000", "122550.825000", "122552.825000", "122554.825000", "122556.825000", "122558.825000", "122600.825000", "122602.825000", "122604.825000", "122606.825000", "122608.825000", "122610.825000", "122612.825000", "122614.825000", "122616.825000", "122618.825000", "122620.825000", "122622.825000", "122624.825000", "122626.825000", "122628.825000", "122630.825000", "122632.825000", "122634.825000", "122636.825000", "122638.825000", "122640.825000", "122642.825000", "122644.825000", "122646.825000", "122648.825000", "122650.825000", "122652.825000", "122654.825000", "122656.825000", "122658.825000", "122700.825000", "122702.825000", "122704.825000", "122706.825000", "122708.825000", "122710.825000", "122712.825000", "122714.825000", "122716.825000", "122718.825000", "122720.825000", "122722.825000", "122724.825000", "122726.825000", "122728.825000", "122730.825000", "122732.825000", "122734.825000", "122736.825000", "122738.825000", "122740.825000", "122742.825000", "122744.825000", "122746.825000", "122748.825000", "122750.825000", "122752.825000", "122754.825000", "122756.825000", "122758.825000", "122800.825000", "122802.825000", "122804.825000", "122806.825000", "122808.825000", "122810.825000", "122812.825000", "122814.825000", "122816.825000", "122818.825000", "122820.825000", "122822.825000", "122824.825000", "122826.825000", "122828.825000", "122830.825000", "122832.825000", "122834.825000", "122836.825000", "122838.825000", "122840.825000", "122842.825000", "122844.825000", "122846.825000", "122848.825000", "122850.825000", "122852.825000", "122854.825000", "122856.825000", "122858.825000", "122900.825000", "122902.825000", "122904.825000", "122906.825000", "122908.825000", "122910.825000", "122912.825000", "122914.825000", "122916.825000", "122918.825000", "122920.825000", "122922.825000", "122924.825000", "122926.825000", "122928.825000", "122930.825000", "122932.825000", "122934.825000", "122936.825000", "122938.825000", "122940.825000", "122942.825000", "122944.825000", "122946.825000", "122948.825000", "122950.825000", "122952.825000", "122954.825000", "122956.825000", "122958.825000", "123000.825000", "123002.825000", "123004.825000", "123006.825000", "123008.825000", "123010.825000", "123012.825000", "123014.825000", "123016.825000", "123018.825000", "123020.825000", "123022.825000", "123024.825000", "123026.825000", "123028.825000", "123030.825000", "123032.825000", "123034.825000", "123036.825000", "123038.825000", "123040.825000", "123042.825000", "123044.825000", "123046.825000", "123048.825000", "123050.825000", "123052.825000", "123054.825000", "123056.825000", "123058.825000", "123100.825000", "123102.825000", "123104.825000", "123106.825000", "123108.825000", "123110.825000", "123112.825000", "123114.825000", "123116.825000", "123118.825000", "123120.825000", "123122.825000", "123124.825000", "123126.825000", "123128.825000", "123130.825000", "123132.825000", "123134.825000", "123136.825000", "123138.825000", "123140.825000", "123142.825000", "123144.825000", "123146.825000", "123148.825000", "123150.825000", "123152.825000", "123154.825000", "123156.825000", "123158.825000", "123200.825000", "123202.825000", "123204.825000", "123206.825000", "123208.825000", "123210.825000", "123212.825000", "123214.825000", "123216.825000", "123218.825000"],
      "ContentTime": ["122351.636000", "122353.131000", "122355.130000", "122357.131000", "122359.130000", "122401.131000", "122403.131000", "122405.131000", "122407.131000", "122409.131000", "122411.130000", "122413.130000", "122415.131000", "122417.130000", "122419.131000", "122421.131000", "122423.132000", "122425.132000", "122427.132000", "122429.131000", "122431.131000", "122433.130000", "122435.131000", "122437.132000", "122439.131000", "122441.131000", "122443.132000", "122445.132000", "122447.131000", "122449.130000", "122451.130000", "122453.130000", "122455.131000", "122457.132000", "122459.132000", "122501.131000", "122503.130000", "122505.131000", "122507.131000", "122509.130000", "122511.131000", "122513.131000", "122515.132000", "122517.132000", "122519.132000", "122521.131000", "122523.131000", "122525.131000", "122527.131000", "122529.131000", "122531.131000", "122533.131000", "122535.132000", "122537.131000", "122539.131000", "122541.131000", "122543.131000", "122545.130000", "122547.130000", "122549.131000", "122551.132000", "122553.131000", "122555.131000", "122557.130000", "122559.131000", "122601.130000", "122603.131000", "122605.130000", "122607.132000", "122609.131000", "122611.131000", "122613.130000", "122615.130000", "122617.131000", "122619.130000", "122621.130000", "122623.130000", "122625.131000", "122627.131000", "122629.131000", "122631.130000", "122633.130000", "122635.130000", "122637.130000", "122639.130000", "122641.130000", "122643.131000", "122645.131000", "122647.132000", "122649.130000", "122651.130000", "122653.130000", "122655.130000", "122657.130000", "122659.131000", "122701.132000", "122703.131000", "122705.131000", "122707.130000", "122709.131000", "122711.131000", "122713.130000", "122715.131000", "122717.131000", "122719.131000", "122721.131000", "122723.130000", "122725.131000", "122727.131000", "122729.130000", "122731.131000", "122733.131000", "122735.131000", "122737.131000", "122739.132000", "122741.130000", "122743.130000", "122745.131000", "122747.131000", "122749.131000", "122751.131000", "122753.131000", "122755.132000", "122757.132000", "122759.130000", "122801.130000", "122803.131000", "122805.130000", "122807.131000", "122809.131000", "122811.131000", "122813.131000", "122815.132000", "122817.130000", "122819.130000", "122821.131000", "122823.130000", "122825.131000", "122827.131000", "122829.132000", "122831.132000", "122833.130000", "122835.131000", "122837.130000", "122839.131000", "122841.131000", "122843.130000", "122845.131000", "122847.132000", "122849.132000", "122851.130000", "122853.130000", "122855.131000", "122857.130000", "122859.130000", "122901.131000", "122903.131000", "122905.132000", "122907.132000", "122909.131000", "122911.130000", "122913.130000", "122915.131000", "122917.150000", "122919.132000", "122921.132000", "122923.132000", "122925.132000", "122927.130000", "122929.131000", "122931.130000", "122933.130000", "122935.130000", "122937.131000", "122939.131000", "122941.132000", "122943.130000", "122945.131000", "122947.130000", "122949.131000", "122951.130000", "122953.131000", "122955.131000", "122957.131000", "122959.131000", "123001.130000", "123003.131000", "123005.130000", "123007.130000", "123009.130000", "123011.131000", "123013.131000", "123015.132000", "123017.132000", "123019.131000", "123021.131000", "123023.131000", "123025.131000", "123027.131000", "123029.131000", "123031.132000", "123033.131000", "123035.132000", "123037.131000", "123039.130000", "123041.131000", "123043.131000", "123045.131000", "123047.131000", "123049.132000", "123051.132000", "123053.131000", "123055.131000", "123057.131000", "123059.130000", "123101.131000", "123103.130000", "123105.132000", "123107.132000", "123109.131000", "123111.130000", "123113.130000", "123115.130000", "123117.130000", "123119.131000", "123121.130000", "123123.132000", "123125.132000", "123127.132000", "123129.130000", "123131.131000", "123133.131000", "123135.131000", "123137.131000", "123139.131000", "123141.131000", "123143.132000", "123145.132000", "123147.131000", "123149.130000", "123151.130000", "123153.130000", "123155.130000", "123157.131000", "123159.131000", "123201.131000", "123203.131000", "123205.131000", "123207.131000", "123209.131000", "123211.130000", "123213.131000", "123215.132000", "123217.131000", "123219.132000", "123220.828000"],
      "InstanceCreationTime": ["122351.636000", "122353.131000", "122355.130000", "122357.131000", "122359.130000", "122401.131000", "122403.131000", "122405.131000", "122407.131000", "122409.131000", "122411.130000", "122413.130000", "122415.131000", "122417.130000", "122419.131000", "122421.131000", "122423.132000", "122425.132000", "122427.132000", "122429.131000", "122431.131000", "122433.130000", "122435.131000", "122437.132000", "122439.131000", "122441.131000", "122443.132000", "122445.132000", "122447.131000", "122449.130000", "122451.130000", "122453.130000", "122455.131000", "122457.132000", "122459.132000", "122501.131000", "122503.130000", "122505.131000", "122507.131000", "122509.130000", "122511.131000", "122513.131000", "122515.132000", "122517.132000", "122519.132000", "122521.131000", "122523.131000", "122525.131000", "122527.131000", "122529.131000", "122531.131000", "122533.131000", "122535.132000", "122537.131000", "122539.131000", "122541.131000", "122543.131000", "122545.130000", "122547.130000", "122549.131000", "122551.132000", "122553.131000", "122555.131000", "122557.130000", "122559.131000", "122601.130000", "122603.131000", "122605.130000", "122607.132000", "122609.131000", "122611.131000", "122613.130000", "122615.130000", "122617.131000", "122619.130000", "122621.130000", "122623.130000", "122625.131000", "122627.131000", "122629.131000", "122631.130000", "122633.130000", "122635.130000", "122637.130000", "122639.130000", "122641.130000", "122643.131000", "122645.131000", "122647.132000", "122649.130000", "122651.130000", "122653.130000", "122655.130000", "122657.130000", "122659.131000", "122701.132000", "122703.131000", "122705.131000", "122707.130000", "122709.131000", "122711.131000", "122713.130000", "122715.131000", "122717.131000", "122719.131000", "122721.131000", "122723.130000", "122725.131000", "122727.131000", "122729.130000", "122731.131000", "122733.131000", "122735.131000", "122737.131000", "122739.132000", "122741.130000", "122743.130000", "122745.131000", "122747.131000", "122749.131000", "122751.131000", "122753.131000", "122755.132000", "122757.132000", "122759.130000", "122801.130000", "122803.131000", "122805.130000", "122807.131000", "122809.131000", "122811.131000", "122813.131000", "122815.132000", "122817.130000", "122819.130000", "122821.131000", "122823.130000", "122825.131000", "122827.131000", "122829.132000", "122831.132000", "122833.130000", "122835.131000", "122837.130000", "122839.131000", "122841.131000", "122843.130000", "122845.131000", "122847.132000", "122849.132000", "122851.130000", "122853.130000", "122855.131000", "122857.130000", "122859.130000", "122901.131000", "122903.131000", "122905.132000", "122907.132000", "122909.131000", "122911.130000", "122913.130000", "122915.131000", "122917.150000", "122919.132000", "122921.132000", "122923.132000", "122925.132000", "122927.130000", "122929.131000", "122931.130000", "122933.130000", "122935.130000", "122937.131000", "122939.131000", "122941.132000", "122943.130000", "122945.131000", "122947.130000", "122949.131000", "122951.130000", "122953.131000", "122955.131000", "122957.131000", "122959.131000", "123001.130000", "123003.131000", "123005.130000", "123007.130000", "123009.130000", "123011.131000", "123013.131000", "123015.132000", "123017.132000", "123019.131000", "123021.131000", "123023.131000", "123025.131000", "123027.131000", "123029.131000", "123031.132000", "123033.131000", "123035.132000", "123037.131000", "123039.130000", "123041.131000", "123043.131000", "123045.131000", "123047.131000", "123049.132000", "123051.132000", "123053.131000", "123055.131000", "123057.131000", "123059.130000", "123101.131000", "123103.130000", "123105.132000", "123107.132000", "123109.131000", "123111.130000", "123113.130000", "123115.130000", "123117.130000", "123119.131000", "123121.130000", "123123.132000", "123125.132000", "123127.132000", "123129.130000", "123131.131000", "123133.131000", "123135.131000", "123137.131000", "123139.131000", "123141.131000", "123143.132000", "123145.132000", "123147.131000", "123149.130000", "123151.130000", "123153.130000", "123155.130000", "123157.131000", "123159.131000", "123201.131000", "123203.131000", "123205.131000", "123207.131000", "123209.131000", "123211.130000", "123213.131000", "123215.132000", "123217.131000", "123219.132000", "123220.828000"],
      "InstanceNumber": [1, 2, 3, 4, 5, 6, 7, 8, 9, 10, 11, 12, 13, 14, 15, 16, 17, 18, 19, 20, 21, 22, 23, 24, 25, 26, 27, 28, 29, 30, 31, 32, 33, 34, 35, 36, 37, 38, 39, 40, 41, 42, 43, 44, 45, 46, 47, 48, 49, 50, 51, 52, 53, 54, 55, 56, 57, 58, 59, 60, 61, 62, 63, 64, 65, 66, 67, 68, 69, 70, 71, 72, 73, 74, 75, 76, 77, 78, 79, 80, 81, 82, 83, 84, 85, 86, 87, 88, 89, 90, 91, 92, 93, 94, 95, 96, 97, 98, 99, 100, 101, 102, 103, 104, 105, 106, 107, 108, 109, 110, 111, 112, 113, 114, 115, 116, 117, 118, 119, 120, 121, 122, 123, 124, 125, 126, 127, 128, 129, 130, 131, 132, 133, 134, 135, 136, 137, 138, 139, 140, 141, 142, 143, 144, 145, 146, 147, 148, 149, 150, 151, 152, 153, 154, 155, 156, 157, 158, 159, 160, 161, 162, 163, 164, 165, 166, 167, 168, 169, 170, 171, 172, 173, 174, 175, 176, 177, 178, 179, 180, 181, 182, 183, 184, 185, 186, 187, 188, 189, 190, 191, 192, 193, 194, 195, 196, 197, 198, 199, 200, 201, 202, 203, 204, 205, 206, 207, 208, 209, 210, 211, 212, 213, 214, 215, 216, 217, 218, 219, 220, 221, 222, 223, 224, 225, 226, 227, 228, 229, 230, 231, 232, 233, 234, 235, 236, 237, 238, 239, 240, 241, 242, 243, 244, 245, 246, 247, 248, 249, 250, 251, 252, 253, 254, 255, 256],
      "LargestImagePixelValue": [3301, 3234, 3218, 3186, 3219, 3148, 3210, 3177, 3141, 3139, 3173, 3212, 3197, 3186, 3141, 3165, 3162, 3163, 3146, 3121, 3161, 3160, 3137, 3170, 3139, 3199, 3167, 3145, 3161, 3158, 3170, 3148, 3171, 3179, 3212, 3222, 3243, 3267, 3223, 3226, 3205, 3206, 3183, 3201, 3169, 3173, 3202, 3255, 3239, 3203, 3225, 3177, 3200, 3173, 3139, 3154, 3157, 3229, 3251, 3246, 3163, 3200, 3205, 3224, 3200, 3222, 3185, 3207, 3195, 3245, 3243, 3292, 3286, 3211, 3272, 3232, 3200, 3228, 3219, 3193, 3214, 3232, 3302, 3244, 3245, 3213, 3178, 3237, 3179, 3199, 3207, 3195, 3182, 3173, 3170, 3246, 3258, 3238, 3262, 3268, 3219, 3250, 3233, 3226, 3256, 3250, 3261, 3257, 3203, 3236, 3173, 3213, 3194, 3210, 3202, 3217, 3200, 3214, 3228, 3190, 3188, 3206, 3179, 3221, 3226, 3255, 3188, 3181, 3177, 3213, 3189, 3249, 3201, 3218, 3184, 3219, 3239, 3240, 3218, 3174, 3181, 3218, 3177, 3186, 3215, 3206, 3190, 3184, 3174, 3208, 3190, 3238, 3254, 3206, 3189, 3187, 3227, 3185, 3254, 3193, 3221, 3210, 3190, 3189, 3183, 3191, 3196, 3183, 3206, 3218, 3187, 3233, 3244, 3198, 3217, 3175, 3232, 3231, 3199, 3251, 3229, 3219, 3206, 3232, 3233, 3219, 3199, 3232, 3240, 3192, 3213, 3262, 3233, 3191, 3224, 3219, 3216, 3239, 3259, 3235, 3282, 3242, 3215, 3237, 3241, 3214, 3299, 3235, 3269, 3234, 3285, 3239, 3271, 3217, 3326, 3245, 3293, 3247, 3255, 3256, 3245, 3245, 3186, 3236, 3237, 3269, 3252, 3242, 3224, 3273, 3256, 3282, 3262, 3280, 3265, 3313, 3264, 3232, 3232, 3248, 3223, 3233, 3279, 3279, 3237, 3220, 3241, 3280, 3230, 3295, 3257, 3335, 3281, 3304, 3341, 3287],
      "WindowCenter": [770.0, 769.0, 768.0, 768.0, 767.0, 769.0, 770.0, 770.0, 768.0, 769.0, 772.0, 773.0, 771.0, 769.0, 768.0, 769.0, 770.0, 769.0, 769.0, 768.0, 768.0, 769.0, 769.0, 769.0, 768.0, 769.0, 769.0, 769.0, 769.0, 769.0, 769.0, 769.0, 768.0, 769.0, 769.0, 769.0, 768.0, 767.0, 767.0, 768.0, 768.0, 768.0, 768.0, 768.0, 768.0, 769.0, 770.0, 771.0, 770.0, 769.0, 768.0, 769.0, 768.0, 768.0, 769.0, 770.0, 769.0, 768.0, 770.0, 772.0, 771.0, 770.0, 768.0, 768.0, 769.0, 770.0, 769.0, 768.0, 767.0, 770.0, 771.0, 772.0, 769.0, 768.0, 769.0, 769.0, 769.0, 767.0, 769.0, 769.0, 769.0, 770.0, 772.0, 770.0, 770.0, 770.0, 770.0, 771.0, 770.0, 770.0, 769.0, 769.0, 769.0, 770.0, 770.0, 771.0, 771.0, 772.0, 771.0, 771.0, 769.0, 769.0, 769.0, 768.0, 770.0, 771.0, 771.0, 769.0, 767.0, 768.0, 769.0, 770.0, 769.0, 769.0, 769.0, 770.0, 770.0, 770.0, 770.0, 770.0, 770.0, 771.0, 771.0, 771.0, 770.0, 771.0, 771.0, 771.0, 770.0, 771.0, 770.0, 771.0, 770.0, 770.0, 770.0, 772.0, 771.0, 770.0, 770.0, 770.0, 770.0, 770.0, 771.0, 771.0, 771.0, 771.0, 771.0, 770.0, 770.0, 770.0, 771.0, 771.0, 770.0, 770.0, 769.0, 770.0, 771.0, 770.0, 771.0, 771.0, 772.0, 770.0, 770.0, 770.0, 770.0, 770.0, 769.0, 770.0, 770.0, 770.0, 770.0, 770.0, 771.0, 772.0, 772.0, 771.0, 771.0, 770.0, 769.0, 772.0, 773.0, 773.0, 772.0, 772.0, 773.0, 773.0, 773.0, 772.0, 770.0, 771.0, 771.0, 771.0, 772.0, 771.0, 770.0, 772.0, 771.0, 772.0, 772.0, 771.0, 771.0, 770.0, 771.0, 771.0, 771.0, 769.0, 771.0, 771.0, 772.0, 772.0, 771.0, 770.0, 771.0, 770.0, 772.0, 773.0, 773.0, 772.0, 772.0, 772.0, 770.0, 771.0, 771.0, 771.0, 771.0, 772.0, 773.0, 772.0, 770.0, 770.0, 770.0, 771.0, 771.0, 771.0, 772.0, 773.0, 772.0, 772.0, 772.0, 771.0, 771.0, 771.0, 771.0, 771.0, 772.0, 771.0, 770.0, 770.0, 770.0, 772.0, 771.0, 772.0, 771.0, 771.0, 772.0, 772.0],
      "WindowWidth": [1688.0, 1685.0, 1682.0, 1682.0, 1679.0, 1684.0, 1688.0, 1686.0, 1680.0, 1683.0, 1693.0, 1695.0, 1689.0, 1685.0, 1682.0, 1684.0, 1686.0, 1684.0, 1683.0, 1680.0, 1681.0, 1683.0, 1684.0, 1684.0, 1681.0, 1682.0, 1683.0, 1684.0, 1683.0, 1683.0, 1683.0, 1682.0, 1682.0, 1685.0, 1685.0, 1683.0, 1681.0, 1679.0, 1677.0, 1679.0, 1680.0, 1681.0, 1680.0, 1680.0, 1680.0, 1684.0, 1686.0, 1690.0, 1687.0, 1683.0, 1681.0, 1682.0, 1681.0, 1680.0, 1684.0, 1685.0, 1682.0, 1681.0, 1687.0, 1692.0, 1690.0, 1685.0, 1679.0, 1681.0, 1682.0, 1684.0, 1682.0, 1681.0, 1678.0, 1687.0, 1689.0, 1691.0, 1683.0, 1680.0, 1685.0, 1684.0, 1682.0, 1678.0, 1684.0, 1683.0, 1684.0, 1687.0, 1691.0, 1686.0, 1685.0, 1687.0, 1687.0, 1689.0, 1685.0, 1685.0, 1683.0, 1682.0, 1682.0, 1685.0, 1687.0, 1690.0, 1690.0, 1691.0, 1690.0, 1690.0, 1684.0, 1682.0, 1684.0, 1681.0, 1685.0, 1690.0, 1690.0, 1683.0, 1676.0, 1680.0, 1683.0, 1685.0, 1684.0, 1684.0, 1682.0, 1685.0, 1685.0, 1687.0, 1686.0, 1685.0, 1686.0, 1690.0, 1689.0, 1688.0, 1685.0, 1687.0, 1689.0, 1689.0, 1687.0, 1688.0, 1687.0, 1688.0, 1685.0, 1686.0, 1686.0, 1690.0, 1689.0, 1687.0, 1685.0, 1687.0, 1685.0, 1686.0, 1687.0, 1690.0, 1690.0, 1688.0, 1688.0, 1686.0, 1685.0, 1687.0, 1689.0, 1689.0, 1687.0, 1684.0, 1683.0, 1684.0, 1688.0, 1686.0, 1688.0, 1688.0, 1690.0, 1686.0, 1685.0, 1684.0, 1685.0, 1685.0, 1683.0, 1685.0, 1686.0, 1686.0, 1685.0, 1686.0, 1689.0, 1690.0, 1692.0, 1688.0, 1688.0, 1685.0, 1683.0, 1691.0, 1693.0, 1693.0, 1690.0, 1690.0, 1693.0, 1693.0, 1693.0, 1690.0, 1686.0, 1688.0, 1688.0, 1689.0, 1690.0, 1687.0, 1686.0, 1689.0, 1688.0, 1690.0, 1691.0, 1689.0, 1688.0, 1686.0, 1687.0, 1688.0, 1688.0, 1683.0, 1688.0, 1687.0, 1691.0, 1689.0, 1689.0, 1686.0, 1687.0, 1686.0, 1692.0, 1693.0, 1694.0, 1690.0, 1691.0, 1689.0, 1686.0, 1687.0, 1686.0, 1689.0, 1687.0, 1690.0, 1693.0, 1690.0, 1686.0, 1686.0, 1686.0, 1688.0, 1687.0, 1689.0, 1690.0, 1693.0, 1689.0, 1691.0, 1690.0, 1688.0, 1686.0, 1687.0, 1688.0, 1689.0, 1691.0, 1687.0, 1685.0, 1685.0, 1685.0, 1690.0, 1688.0, 1692.0, 1688.0, 1690.0, 1692.0, 1690.0]
    },
    "slices": {}
  }
}