{
  "AcquisitionMatrixPE": 100,
  "AcquisitionNumber": 1,
  "AcquisitionTime": "13:41:4.170000",
  "BandwidthPerPixelPhaseEncode": 18.519,
  "BaseResolution": 100,
  "BodyPartExamined": "BRAIN",
  "ConsistencyInfo": "N4_VE11C_LATEST_20160120",
  "ConversionSoftware": "dcm2niix",
  "ConversionSoftwareVersion": "v1.0.20180622 GCC4.9.2",
  "DerivedVendorReportedEchoSpacing": 0.000539986,
  "DeviceSerialNumber": "166078",
  "DwellTime": 2.1e-06,
  "EchoTime": 0.034,
  "EchoTrainLength": 100,
  "EffectiveEchoSpacing": 0.000539986,
  "FlipAngle": 90,
  "ImageOrientationPatientDICOM": [1, -4.5782e-06, -5.48897e-05, -3.03345e-08, 0.996494, -0.0836675],
  "ImageType": [
    "ORIGINAL",
    "PRIMARY",
    "M",
    "ND",
    "MOSAIC"
],
  "InPlanePhaseEncodingDirectionDICOM": "COL",
  "InstitutionAddress": "Street_StreetNo_Bei_Jing_District_CN_ZIP",
  "InstitutionName": "BeiJing_Normal_University",
  "InstitutionalDepartmentName": "Department",
  "MRAcquisitionType": "2D",
  "MagneticFieldStrength": 3,
  "Manufacturer": "Siemens",
  "ManufacturersModelName": "Prisma",
  "Modality": "MR",
  "MultibandAccelerationFactor": 3,
  "PartialFourier": 1,
  "PatientPosition": "HFS",
  "PercentPhaseFOV": 100,
  "PhaseEncodingDirection": "j-",
  "PhaseEncodingSteps": 100,
  "PhaseResolution": 1,
  "PixelBandwidth": 2380,
  "ProcedureStepDescription": "BNU_P2018_64CH_Zhen.ZongLei",
  "ProtocolName": "bold_100x100_s3_2x2x2_static_256",
  "PulseSequenceDetails": "%SiemensSeq%_ep2d_bold",
  "ReceiveCoilActiveElements": "HC1-7;NC1",
  "ReceiveCoilName": "HeadNeck_64",
  "ReconMatrixPE": 100,
  "RepetitionTime": 2,
  "SAR": 0.0793508,
  "ScanOptions": "FS",
  "ScanningSequence": "EP",
  "SequenceName": "_epfid2d1_100",
  "SequenceVariant": "SK",
  "SeriesDescription": "bold_100x100_s3_2x2x2_static_256",
  "SeriesNumber": 12,
  "ShimSetting": [-5465, -11514, -1298, 434, -8, -201, -135, -16],
  "SliceThickness": 2,
  "SliceTiming": [1.485, 0, 0.99, 0.0825, 1.0725, 0.165, 1.155, 0.2475, 1.2375, 0.33, 1.32, 0.4125, 1.4025, 0.5775, 1.5675, 0.66, 1.65, 0.7425, 1.7325, 0.825, 1.815, 0.9075, 1.8975, 0.495, 1.485, 0, 0.99, 0.0825, 1.0725, 0.165, 1.155, 0.2475, 1.2375, 0.33, 1.32, 0.4125, 1.4025, 0.5775, 1.5675, 0.66, 1.65, 0.7425, 1.7325, 0.825, 1.815, 0.9075, 1.8975, 0.495, 1.485, 0, 0.99, 0.0825, 1.0725, 0.165, 1.155, 0.2475, 1.2375, 0.33, 1.32, 0.4125, 1.4025, 0.5775, 1.5675, 0.66, 1.65, 0.7425, 1.7325, 0.825, 1.815, 0.9075, 1.8975, 0.495],
  "SoftwareVersions": "syngo_MR_E11",
  "SpacingBetweenSlices": 2,
  "StationName": "AWP166078",
  "TaskName": "naturalvision",
  "TotalReadoutTime": 0.0534586,
  "TxRefAmp": 212.831,
  "dcmmeta_affine": [
    [-2.0, -6.066899516099511e-08, -0.00011016056669177487, 104.11992645263672],
    [9.156405212706886e-06, 1.9929873943328857, -0.16733504831790924, -85.59622955322266],
    [-0.00010977938654832542, 0.16733504831790924, 1.9929875135421753, -70.5794677734375],
    [0.0, 0.0, 0.0, 1.0]
],
  "dcmmeta_reorient_transform": [
    [0.0, -1.0, 0.0, 99.0],
    [1.0, 0.0, 0.0, 0.0],
    [0.0, 0.0, 1.0, 0.0],
    [0.0, 0.0, 0.0, 1.0]
],
  "dcmmeta_shape": [100, 100, 72, 256],
  "dcmmeta_slice_dim": 2,
  "dcmmeta_version": 0.6,
  "global": {
    "const": {
      "AcquisitionMatrix": [100, 0, 0, 100],
      "AngioFlag": "N",
      "BitsAllocated": 16,
      "BitsStored": 12,
      "BodyPartExamined": "BRAIN",
      "Columns": 900,
      "EchoNumbers": 1,
      "EchoTime": 34.0,
      "EchoTrainLength": 100,
      "FlipAngle": 90.0,
      "HighBit": 11,
      "ImageOrientationPatient": [0.99999999848308, -4.57820243e-06, -5.48896923e-05, -3.0334497e-08, 0.9964937259729, -0.0836675211575],
      "ImagePositionPatient": [-904.11989683269, -908.9008437646, 12.964633570993],
      "ImageType": [
        "ORIGINAL",
        "PRIMARY",
        "M",
        "ND",
        "MOSAIC"
],
      "ImagedNucleus": "1H",
      "ImagingFrequency": 123.257771,
      "InPlanePhaseEncodingDirection": "COL",
      "MRAcquisitionType": "2D",
      "MagneticFieldStrength": 3.0,
      "Manufacturer": "SIEMENS",
      "ManufacturerModelName": "Prisma",
      "Modality": "MR",
      "NumberOfAverages": 1.0,
      "NumberOfPhaseEncodingSteps": 100,
      "PercentPhaseFieldOfView": 100.0,
      "PercentSampling": 100.0,
      "PerformedProcedureStepStartTime": "120754.453000",
      "PhotometricInterpretation": "MONOCHROME2",
      "PixelBandwidth": 2380.0,
      "PixelRepresentation": 0,
      "PixelSpacing": [2.0, 2.0],
      "ProtocolName": "bold_100x100_s3_2x2x2_static_256",
      "RepetitionTime": 2000.0,
      "Rows": 900,
      "SAR": 0.07935082826242,
      "SamplesPerPixel": 1,
      "ScanOptions": "FS",
      "ScanningSequence": "EP",
      "SequenceName": "*epfid2d1_100",
      "SequenceVariant": "SK",
      "SeriesDescription": "bold_100x100_s3_2x2x2_static_256",
      "SeriesNumber": 12,
      "SeriesTime": "134106.949000",
      "SliceLocation": -63.176103646327,
      "SliceThickness": 2.0,
      "SmallestImagePixelValue": 0,
      "SoftwareVersions": "syngo MR E11",
      "SpacingBetweenSlices": 2.0000000620842,
      "SpecificCharacterSet": "ISO_IR 100",
      "StudyID": "1",
      "StudyTime": "120754.308000",
      "TransmitCoilName": "Body",
      "VariableFlipAngleFlag": "N",
      "WindowCenterWidthExplanation": "Algo1",
      "dBdt": 0.0},
    "slices": {}
  },
  "time": {
    "samples": {
      "AcquisitionNumber": [1, 2, 3, 4, 5, 6, 7, 8, 9, 10, 11, 12, 13, 14, 15, 16, 17, 18, 19, 20, 21, 22, 23, 24, 25, 26, 27, 28, 29, 30, 31, 32, 33, 34, 35, 36, 37, 38, 39, 40, 41, 42, 43, 44, 45, 46, 47, 48, 49, 50, 51, 52, 53, 54, 55, 56, 57, 58, 59, 60, 61, 62, 63, 64, 65, 66, 67, 68, 69, 70, 71, 72, 73, 74, 75, 76, 77, 78, 79, 80, 81, 82, 83, 84, 85, 86, 87, 88, 89, 90, 91, 92, 93, 94, 95, 96, 97, 98, 99, 100, 101, 102, 103, 104, 105, 106, 107, 108, 109, 110, 111, 112, 113, 114, 115, 116, 117, 118, 119, 120, 121, 122, 123, 124, 125, 126, 127, 128, 129, 130, 131, 132, 133, 134, 135, 136, 137, 138, 139, 140, 141, 142, 143, 144, 145, 146, 147, 148, 149, 150, 151, 152, 153, 154, 155, 156, 157, 158, 159, 160, 161, 162, 163, 164, 165, 166, 167, 168, 169, 170, 171, 172, 173, 174, 175, 176, 177, 178, 179, 180, 181, 182, 183, 184, 185, 186, 187, 188, 189, 190, 191, 192, 193, 194, 195, 196, 197, 198, 199, 200, 201, 202, 203, 204, 205, 206, 207, 208, 209, 210, 211, 212, 213, 214, 215, 216, 217, 218, 219, 220, 221, 222, 223, 224, 225, 226, 227, 228, 229, 230, 231, 232, 233, 234, 235, 236, 237, 238, 239, 240, 241, 242, 243, 244, 245, 246, 247, 248, 249, 250, 251, 252, 253, 254, 255, 256],
      "AcquisitionTime": ["134104.170000", "134106.170000", "134108.170000", "134110.170000", "134112.170000", "134114.170000", "134116.170000", "134118.170000", "134120.170000", "134122.170000", "134124.170000", "134126.170000", "134128.170000", "134130.170000", "134132.170000", "134134.170000", "134136.170000", "134138.170000", "134140.170000", "134142.170000", "134144.170000", "134146.170000", "134148.170000", "134150.170000", "134152.170000", "134154.170000", "134156.170000", "134158.170000", "134200.170000", "134202.170000", "134204.170000", "134206.170000", "134208.170000", "134210.170000", "134212.170000", "134214.170000", "134216.170000", "134218.170000", "134220.170000", "134222.170000", "134224.170000", "134226.170000", "134228.170000", "134230.170000", "134232.170000", "134234.170000", "134236.170000", "134238.170000", "134240.170000", "134242.170000", "134244.170000", "134246.170000", "134248.170000", "134250.170000", "134252.170000", "134254.170000", "134256.170000", "134258.170000", "134300.170000", "134302.170000", "134304.170000", "134306.170000", "134308.170000", "134310.170000", "134312.170000", "134314.170000", "134316.170000", "134318.170000", "134320.170000", "134322.170000", "134324.170000", "134326.170000", "134328.170000", "134330.170000", "134332.170000", "134334.170000", "134336.170000", "134338.170000", "134340.170000", "134342.170000", "134344.170000", "134346.170000", "134348.170000", "134350.170000", "134352.170000", "134354.170000", "134356.170000", "134358.170000", "134400.170000", "134402.170000", "134404.170000", "134406.170000", "134408.170000", "134410.170000", "134412.170000", "134414.170000", "134416.170000", "134418.170000", "134420.170000", "134422.170000", "134424.170000", "134426.170000", "134428.170000", "134430.170000", "134432.170000", "134434.170000", "134436.170000", "134438.170000", "134440.170000", "134442.170000", "134444.170000", "134446.170000", "134448.170000", "134450.170000", "134452.170000", "134454.170000", "134456.170000", "134458.170000", "134500.170000", "134502.170000", "134504.170000", "134506.170000", "134508.170000", "134510.170000", "134512.170000", "134514.170000", "134516.170000", "134518.170000", "134520.170000", "134522.170000", "134524.170000", "134526.170000", "134528.170000", "134530.170000", "134532.170000", "134534.170000", "134536.170000", "134538.170000", "134540.170000", "134542.170000", "134544.170000", "134546.170000", "134548.170000", "134550.170000", "134552.170000", "134554.170000", "134556.170000", "134558.170000", "134600.170000", "134602.170000", "134604.170000", "134606.170000", "134608.170000", "134610.170000", "134612.170000", "134614.170000", "134616.170000", "134618.170000", "134620.170000", "134622.170000", "134624.170000", "134626.170000", "134628.170000", "134630.170000", "134632.170000", "134634.170000", "134636.170000", "134638.170000", "134640.170000", "134642.170000", "134644.170000", "134646.170000", "134648.170000", "134650.170000", "134652.170000", "134654.170000", "134656.170000", "134658.170000", "134700.170000", "134702.170000", "134704.170000", "134706.170000", "134708.170000", "134710.170000", "134712.170000", "134714.170000", "134716.170000", "134718.170000", "134720.170000", "134722.170000", "134724.170000", "134726.170000", "134728.170000", "134730.170000", "134732.170000", "134734.170000", "134736.170000", "134738.170000", "134740.170000", "134742.170000", "134744.170000", "134746.170000", "134748.170000", "134750.170000", "134752.170000", "134754.170000", "134756.170000", "134758.170000", "134800.170000", "134802.170000", "134804.170000", "134806.170000", "134808.170000", "134810.170000", "134812.170000", "134814.170000", "134816.170000", "134818.170000", "134820.170000", "134822.170000", "134824.170000", "134826.170000", "134828.170000", "134830.170000", "134832.170000", "134834.170000", "134836.170000", "134838.170000", "134840.170000", "134842.170000", "134844.170000", "134846.170000", "134848.170000", "134850.170000", "134852.170000", "134854.170000", "134856.170000", "134858.170000", "134900.170000", "134902.170000", "134904.170000", "134906.170000", "134908.170000", "134910.170000", "134912.170000", "134914.170000", "134916.170000", "134918.170000", "134920.170000", "134922.170000", "134924.170000", "134926.170000", "134928.170000", "134930.170000", "134932.170000", "134934.170000"],
      "ContentTime": ["134106.952000", "134108.447000", "134110.447000", "134112.447000", "134114.446000", "134116.446000", "134118.447000", "134120.447000", "134122.448000", "134124.447000", "134126.448000", "134128.447000", "134130.446000", "134132.447000", "134134.447000", "134136.448000", "134138.447000", "134140.447000", "134142.447000", "134144.448000", "134146.448000", "134148.446000", "134150.446000", "134152.448000", "134154.448000", "134156.447000", "134158.448000", "134200.447000", "134202.448000", "134204.448000", "134206.446000", "134208.446000", "134210.448000", "134212.447000", "134214.448000", "134216.447000", "134218.447000", "134220.447000", "134222.447000", "134224.446000", "134226.447000", "134228.447000", "134230.448000", "134232.448000", "134234.447000", "134236.447000", "134238.447000", "134240.447000", "134242.447000", "134244.446000", "134246.448000", "134248.447000", "134250.448000", "134252.447000", "134254.448000", "134256.447000", "134258.447000", "134300.446000", "134302.448000", "134304.448000", "134306.447000", "134308.447000", "134310.447000", "134312.447000", "134314.448000", "134316.447000", "134318.446000", "134320.448000", "134322.447000", "134324.448000", "134326.448000", "134328.447000", "134330.447000", "134332.446000", "134334.447000", "134336.447000", "134338.447000", "134340.447000", "134342.448000", "134344.447000", "134346.447000", "134348.447000", "134350.447000", "134352.447000", "134354.447000", "134356.447000", "134358.447000", "134400.447000", "134402.447000", "134404.447000", "134406.448000", "134408.447000", "134410.447000", "134412.448000", "134414.447000", "134416.447000", "134418.448000", "134420.447000", "134422.448000", "134424.448000", "134426.446000", "134428.447000", "134430.448000", "134432.448000", "134434.447000", "134436.447000", "134438.447000", "134440.447000", "134442.447000", "134444.447000", "134446.446000", "134448.447000", "134450.447000", "134452.448000", "134454.447000", "134456.447000", "134458.447000", "134500.446000", "134502.447000", "134504.447000", "134506.448000", "134508.467000", "134510.447000", "134512.448000", "134514.447000", "134516.447000", "134518.447000", "134520.446000", "134522.447000", "134524.448000", "134526.447000", "134528.447000", "134530.448000", "134532.447000", "134534.448000", "134536.446000", "134538.447000", "134540.447000", "134542.448000", "134544.448000", "134546.448000", "134548.448000", "134550.447000", "134552.447000", "134554.446000", "134556.447000", "134558.447000", "134600.447000", "134602.447000", "134604.447000", "134606.448000", "134608.447000", "134610.447000", "134612.447000", "134614.447000", "134616.447000", "134618.448000", "134620.447000", "134622.447000", "134624.447000", "134626.447000", "134628.447000", "134630.447000", "134632.448000", "134634.448000", "134636.448000", "134638.448000", "134640.447000", "134642.447000", "134644.447000", "134646.447000", "134648.447000", "134650.448000", "134652.448000", "134654.447000", "134656.447000", "134658.448000", "134700.448000", "134702.446000", "134704.447000", "134706.446000", "134708.448000", "134710.448000", "134712.447000", "134714.448000", "134716.448000", "134718.447000", "134720.447000", "134722.447000", "134724.447000", "134726.448000", "134728.451000", "134730.447000", "134732.448000", "134734.447000", "134736.447000", "134738.447000", "134740.447000", "134742.448000", "134744.448000", "134746.447000", "134748.447000", "134750.448000", "134752.448000", "134754.447000", "134756.447000", "134758.447000", "134800.447000", "134802.448000", "134804.448000", "134806.447000", "134808.447000", "134810.447000", "134812.446000", "134814.447000", "134816.447000", "134818.447000", "134820.448000", "134822.447000", "134824.447000", "134826.447000", "134828.448000", "134830.447000", "134832.447000", "134834.448000", "134836.448000", "134838.447000", "134840.448000", "134842.448000", "134844.448000", "134846.447000", "134848.446000", "134850.447000", "134852.448000", "134854.448000", "134856.448000", "134858.447000", "134900.447000", "134902.447000", "134904.446000", "134906.447000", "134908.447000", "134910.448000", "134912.448000", "134914.447000", "134916.447000", "134918.448000", "134920.447000", "134922.446000", "134924.446000", "134926.446000", "134928.448000", "134930.448000", "134932.447000", "134934.447000", "134936.123000"],
      "InstanceCreationTime": ["134106.952000", "134108.447000", "134110.447000", "134112.447000", "134114.446000", "134116.446000", "134118.447000", "134120.447000", "134122.448000", "134124.447000", "134126.448000", "134128.447000", "134130.446000", "134132.447000", "134134.447000", "134136.448000", "134138.447000", "134140.447000", "134142.447000", "134144.448000", "134146.448000", "134148.446000", "134150.446000", "134152.448000", "134154.448000", "134156.447000", "134158.448000", "134200.447000", "134202.448000", "134204.448000", "134206.446000", "134208.446000", "134210.448000", "134212.447000", "134214.448000", "134216.447000", "134218.447000", "134220.447000", "134222.447000", "134224.446000", "134226.447000", "134228.447000", "134230.448000", "134232.448000", "134234.447000", "134236.447000", "134238.447000", "134240.447000", "134242.447000", "134244.446000", "134246.448000", "134248.447000", "134250.448000", "134252.447000", "134254.448000", "134256.447000", "134258.447000", "134300.446000", "134302.448000", "134304.448000", "134306.447000", "134308.447000", "134310.447000", "134312.447000", "134314.448000", "134316.447000", "134318.446000", "134320.448000", "134322.447000", "134324.448000", "134326.448000", "134328.447000", "134330.447000", "134332.446000", "134334.447000", "134336.447000", "134338.447000", "134340.447000", "134342.448000", "134344.447000", "134346.447000", "134348.447000", "134350.447000", "134352.447000", "134354.447000", "134356.447000", "134358.447000", "134400.447000", "134402.447000", "134404.447000", "134406.448000", "134408.447000", "134410.447000", "134412.448000", "134414.447000", "134416.447000", "134418.448000", "134420.447000", "134422.448000", "134424.448000", "134426.446000", "134428.447000", "134430.448000", "134432.448000", "134434.447000", "134436.447000", "134438.447000", "134440.447000", "134442.447000", "134444.447000", "134446.446000", "134448.447000", "134450.447000", "134452.448000", "134454.447000", "134456.447000", "134458.447000", "134500.446000", "134502.447000", "134504.447000", "134506.448000", "134508.467000", "134510.447000", "134512.448000", "134514.447000", "134516.447000", "134518.447000", "134520.446000", "134522.447000", "134524.448000", "134526.447000", "134528.447000", "134530.448000", "134532.447000", "134534.448000", "134536.446000", "134538.447000", "134540.447000", "134542.448000", "134544.448000", "134546.448000", "134548.448000", "134550.447000", "134552.447000", "134554.446000", "134556.447000", "134558.447000", "134600.447000", "134602.447000", "134604.447000", "134606.448000", "134608.447000", "134610.447000", "134612.447000", "134614.447000", "134616.447000", "134618.448000", "134620.447000", "134622.447000", "134624.447000", "134626.447000", "134628.447000", "134630.447000", "134632.448000", "134634.448000", "134636.448000", "134638.448000", "134640.447000", "134642.447000", "134644.447000", "134646.447000", "134648.447000", "134650.448000", "134652.448000", "134654.447000", "134656.447000", "134658.448000", "134700.448000", "134702.446000", "134704.447000", "134706.446000", "134708.448000", "134710.448000", "134712.447000", "134714.448000", "134716.448000", "134718.447000", "134720.447000", "134722.447000", "134724.447000", "134726.448000", "134728.451000", "134730.447000", "134732.448000", "134734.447000", "134736.447000", "134738.447000", "134740.447000", "134742.448000", "134744.448000", "134746.447000", "134748.447000", "134750.448000", "134752.448000", "134754.447000", "134756.447000", "134758.447000", "134800.447000", "134802.448000", "134804.448000", "134806.447000", "134808.447000", "134810.447000", "134812.446000", "134814.447000", "134816.447000", "134818.447000", "134820.448000", "134822.447000", "134824.447000", "134826.447000", "134828.448000", "134830.447000", "134832.447000", "134834.448000", "134836.448000", "134838.447000", "134840.448000", "134842.448000", "134844.448000", "134846.447000", "134848.446000", "134850.447000", "134852.448000", "134854.448000", "134856.448000", "134858.447000", "134900.447000", "134902.447000", "134904.446000", "134906.447000", "134908.447000", "134910.448000", "134912.448000", "134914.447000", "134916.447000", "134918.448000", "134920.447000", "134922.446000", "134924.446000", "134926.446000", "134928.448000", "134930.448000", "134932.447000", "134934.447000", "134936.123000"],
      "InstanceNumber": [1, 2, 3, 4, 5, 6, 7, 8, 9, 10, 11, 12, 13, 14, 15, 16, 17, 18, 19, 20, 21, 22, 23, 24, 25, 26, 27, 28, 29, 30, 31, 32, 33, 34, 35, 36, 37, 38, 39, 40, 41, 42, 43, 44, 45, 46, 47, 48, 49, 50, 51, 52, 53, 54, 55, 56, 57, 58, 59, 60, 61, 62, 63, 64, 65, 66, 67, 68, 69, 70, 71, 72, 73, 74, 75, 76, 77, 78, 79, 80, 81, 82, 83, 84, 85, 86, 87, 88, 89, 90, 91, 92, 93, 94, 95, 96, 97, 98, 99, 100, 101, 102, 103, 104, 105, 106, 107, 108, 109, 110, 111, 112, 113, 114, 115, 116, 117, 118, 119, 120, 121, 122, 123, 124, 125, 126, 127, 128, 129, 130, 131, 132, 133, 134, 135, 136, 137, 138, 139, 140, 141, 142, 143, 144, 145, 146, 147, 148, 149, 150, 151, 152, 153, 154, 155, 156, 157, 158, 159, 160, 161, 162, 163, 164, 165, 166, 167, 168, 169, 170, 171, 172, 173, 174, 175, 176, 177, 178, 179, 180, 181, 182, 183, 184, 185, 186, 187, 188, 189, 190, 191, 192, 193, 194, 195, 196, 197, 198, 199, 200, 201, 202, 203, 204, 205, 206, 207, 208, 209, 210, 211, 212, 213, 214, 215, 216, 217, 218, 219, 220, 221, 222, 223, 224, 225, 226, 227, 228, 229, 230, 231, 232, 233, 234, 235, 236, 237, 238, 239, 240, 241, 242, 243, 244, 245, 246, 247, 248, 249, 250, 251, 252, 253, 254, 255, 256],
      "LargestImagePixelValue": [3003, 2931, 2879, 2882, 2836, 2819, 2852, 2823, 2840, 2811, 2855, 2876, 2875, 2883, 2849, 2888, 2867, 2883, 2872, 2853, 2823, 2860, 2854, 2873, 2851, 2839, 2861, 2832, 2850, 2883, 2899, 2876, 2914, 2924, 2935, 2921, 2925, 2914, 2903, 2924, 2894, 2854, 2890, 2891, 2897, 2872, 2892, 2901, 2856, 2883, 2882, 2880, 2888, 2928, 2897, 2890, 2895, 2844, 2843, 2855, 2849, 2862, 2843, 2875, 2881, 2860, 2841, 2843, 2846, 2871, 2867, 2872, 2883, 2898, 2917, 2918, 2886, 2880, 2885, 2892, 2886, 2914, 2874, 2874, 2901, 2894, 2915, 2922, 2944, 2913, 2888, 2892, 2894, 2927, 2889, 2904, 2898, 2901, 2894, 2904, 2887, 2857, 2923, 2897, 2911, 2867, 2849, 2835, 2859, 2868, 2893, 2906, 2916, 2946, 2912, 2911, 2925, 2940, 2926, 2943, 2920, 2947, 2967, 2931, 2942, 2979, 2941, 2942, 2933, 2936, 3030, 2959, 2893, 2934, 2921, 2956, 2930, 2921, 2936, 2948, 2897, 2915, 2908, 2849, 2865, 2841, 2878, 2875, 2920, 2909, 2857, 2910, 2879, 2888, 2900, 2865, 2873, 2877, 2911, 2892, 2897, 2902, 2896, 2881, 2888, 2899, 2864, 2923, 2901, 2898, 2873, 2899, 2848, 2882, 2895, 2849, 2906, 2852, 2844, 2839, 2800, 2812, 2861, 2850, 2898, 2929, 2888, 2900, 2896, 2920, 2858, 2887, 2837, 2830, 2867, 2913, 2851, 2794, 2867, 2849, 2853, 2840, 2846, 2834, 2846, 2806, 2840, 2855, 2865, 2847, 2850, 2820, 2813, 2846, 2833, 2811, 2850, 2819, 2824, 2810, 2783, 2767, 2751, 2753, 2759, 2727, 2741, 2754, 2764, 2758, 2782, 2773, 2764, 2732, 2740, 2768, 2774, 2715, 2742, 2797, 2767, 2715, 2744, 2705, 2752, 2758, 2756, 2735, 2684, 2772, 2734, 2725, 2720, 2691, 2698, 2713],
      "WindowCenter": [743.0, 742.0, 741.0, 741.0, 739.0, 739.0, 740.0, 740.0, 739.0, 739.0, 740.0, 740.0, 741.0, 740.0, 740.0, 740.0, 741.0, 740.0, 740.0, 739.0, 738.0, 739.0, 739.0, 739.0, 739.0, 738.0, 738.0, 739.0, 739.0, 739.0, 740.0, 739.0, 739.0, 738.0, 739.0, 739.0, 740.0, 739.0, 739.0, 740.0, 741.0, 740.0, 741.0, 741.0, 741.0, 740.0, 741.0, 741.0, 741.0, 741.0, 741.0, 740.0, 740.0, 740.0, 740.0, 741.0, 741.0, 741.0, 741.0, 741.0, 741.0, 741.0, 742.0, 741.0, 741.0, 741.0, 741.0, 742.0, 741.0, 742.0, 742.0, 742.0, 742.0, 742.0, 742.0, 743.0, 743.0, 743.0, 743.0, 743.0, 742.0, 742.0, 743.0, 742.0, 743.0, 742.0, 742.0, 742.0, 742.0, 742.0, 741.0, 742.0, 741.0, 742.0, 742.0, 742.0, 742.0, 741.0, 741.0, 741.0, 741.0, 741.0, 741.0, 741.0, 741.0, 741.0, 741.0, 743.0, 743.0, 742.0, 741.0, 740.0, 740.0, 741.0, 740.0, 740.0, 740.0, 740.0, 741.0, 741.0, 742.0, 742.0, 742.0, 741.0, 741.0, 742.0, 743.0, 742.0, 742.0, 741.0, 744.0, 744.0, 743.0, 743.0, 742.0, 742.0, 741.0, 741.0, 741.0, 740.0, 740.0, 740.0, 741.0, 740.0, 742.0, 742.0, 742.0, 741.0, 740.0, 741.0, 741.0, 741.0, 741.0, 741.0, 743.0, 743.0, 743.0, 743.0, 742.0, 742.0, 742.0, 742.0, 742.0, 742.0, 742.0, 741.0, 741.0, 741.0, 741.0, 741.0, 740.0, 741.0, 741.0, 742.0, 742.0, 741.0, 740.0, 741.0, 741.0, 741.0, 740.0, 740.0, 740.0, 738.0, 737.0, 737.0, 737.0, 738.0, 737.0, 738.0, 738.0, 738.0, 739.0, 738.0, 738.0, 740.0, 738.0, 737.0, 738.0, 738.0, 738.0, 738.0, 738.0, 739.0, 739.0, 738.0, 739.0, 739.0, 740.0, 738.0, 739.0, 739.0, 737.0, 737.0, 738.0, 739.0, 739.0, 739.0, 739.0, 740.0, 741.0, 739.0, 737.0, 736.0, 735.0, 734.0, 735.0, 737.0, 737.0, 737.0, 737.0, 737.0, 738.0, 737.0, 738.0, 738.0, 738.0, 737.0, 739.0, 740.0, 738.0, 737.0, 738.0, 737.0, 738.0, 739.0, 739.0, 739.0, 737.0, 738.0, 737.0, 737.0, 738.0, 738.0, 737.0, 736.0],
      "WindowWidth": [1608.0, 1605.0, 1602.0, 1601.0, 1596.0, 1595.0, 1598.0, 1599.0, 1597.0, 1595.0, 1598.0, 1600.0, 1601.0, 1599.0, 1599.0, 1600.0, 1600.0, 1598.0, 1598.0, 1597.0, 1594.0, 1596.0, 1596.0, 1596.0, 1595.0, 1594.0, 1595.0, 1596.0, 1597.0, 1597.0, 1599.0, 1596.0, 1595.0, 1594.0, 1595.0, 1596.0, 1598.0, 1597.0, 1596.0, 1599.0, 1602.0, 1600.0, 1601.0, 1601.0, 1600.0, 1600.0, 1601.0, 1602.0, 1601.0, 1602.0, 1602.0, 1600.0, 1598.0, 1598.0, 1600.0, 1602.0, 1602.0, 1601.0, 1601.0, 1600.0, 1600.0, 1602.0, 1603.0, 1602.0, 1602.0, 1601.0, 1602.0, 1605.0, 1602.0, 1604.0, 1604.0, 1604.0, 1603.0, 1604.0, 1604.0, 1606.0, 1608.0, 1607.0, 1608.0, 1606.0, 1604.0, 1604.0, 1606.0, 1605.0, 1606.0, 1604.0, 1605.0, 1603.0, 1603.0, 1603.0, 1601.0, 1603.0, 1601.0, 1603.0, 1603.0, 1604.0, 1604.0, 1602.0, 1603.0, 1603.0, 1603.0, 1601.0, 1602.0, 1601.0, 1602.0, 1601.0, 1602.0, 1606.0, 1606.0, 1604.0, 1600.0, 1600.0, 1600.0, 1600.0, 1599.0, 1599.0, 1598.0, 1599.0, 1601.0, 1602.0, 1604.0, 1604.0, 1603.0, 1601.0, 1602.0, 1604.0, 1606.0, 1604.0, 1605.0, 1603.0, 1610.0, 1609.0, 1608.0, 1607.0, 1604.0, 1603.0, 1601.0, 1601.0, 1600.0, 1599.0, 1597.0, 1598.0, 1602.0, 1600.0, 1605.0, 1605.0, 1603.0, 1601.0, 1599.0, 1601.0, 1601.0, 1602.0, 1602.0, 1602.0, 1607.0, 1606.0, 1608.0, 1606.0, 1603.0, 1603.0, 1604.0, 1605.0, 1604.0, 1604.0, 1604.0, 1601.0, 1602.0, 1600.0, 1600.0, 1601.0, 1600.0, 1600.0, 1602.0, 1603.0, 1603.0, 1601.0, 1599.0, 1603.0, 1601.0, 1601.0, 1600.0, 1599.0, 1598.0, 1592.0, 1589.0, 1590.0, 1591.0, 1592.0, 1590.0, 1593.0, 1593.0, 1594.0, 1596.0, 1594.0, 1592.0, 1597.0, 1593.0, 1590.0, 1594.0, 1593.0, 1593.0, 1593.0, 1593.0, 1596.0, 1595.0, 1594.0, 1595.0, 1596.0, 1597.0, 1594.0, 1597.0, 1595.0, 1591.0, 1591.0, 1595.0, 1595.0, 1597.0, 1595.0, 1595.0, 1599.0, 1601.0, 1596.0, 1591.0, 1588.0, 1586.0, 1584.0, 1586.0, 1591.0, 1590.0, 1590.0, 1590.0, 1590.0, 1593.0, 1592.0, 1593.0, 1592.0, 1593.0, 1592.0, 1595.0, 1597.0, 1594.0, 1591.0, 1594.0, 1591.0, 1594.0, 1596.0, 1596.0, 1595.0, 1590.0, 1593.0, 1590.0, 1590.0, 1593.0, 1592.0, 1590.0, 1587.0]
    },
    "slices": {}
  }
}