{
 "AcquisitionMatrixPE": 100,
 "AcquisitionNumber": 1,
 "AcquisitionTime": "12:54:11.012500",
 "BandwidthPerPixelPhaseEncode": 18.519,
 "BaseResolution": 100,
 "BodyPartExamined": "BRAIN",
 "ConsistencyInfo": "N4_VE11C_LATEST_20160120",
 "ConversionSoftware": "dcm2niix",
 "ConversionSoftwareVersion": "v1.0.20180622 GCC4.9.2",
 "DerivedVendorReportedEchoSpacing": 0.000539986,
 "DeviceSerialNumber": "166078",
 "DwellTime": 2.1e-06,
 "EchoTime": 0.034,
 "EchoTrainLength": 100,
 "EffectiveEchoSpacing": 0.000539986,
 "FlipAngle": 90,
 "ImageOrientationPatientDICOM": [
  1,
  -4.5782e-06,
  -5.48897e-05,
  -3.03345e-08,
  0.996494,
  -0.0836675
 ],
 "ImageType": [
  "ORIGINAL",
  "PRIMARY",
  "M",
  "ND",
  "MOSAIC"
 ],
 "InPlanePhaseEncodingDirectionDICOM": "COL",
 "InstitutionAddress": "Street_StreetNo_Bei_Jing_District_CN_ZIP",
 "InstitutionName": "BeiJing_Normal_University",
 "InstitutionalDepartmentName": "Department",
 "MRAcquisitionType": "2D",
 "MagneticFieldStrength": 3,
 "Manufacturer": "Siemens",
 "ManufacturersModelName": "Prisma",
 "Modality": "MR",
 "MultibandAccelerationFactor": 3,
 "PartialFourier": 1,
 "PatientPosition": "HFS",
 "PercentPhaseFOV": 100,
 "PhaseEncodingDirection": "j-",
 "PhaseEncodingSteps": 100,
 "PhaseResolution": 1,
 "PixelBandwidth": 2380,
 "ProcedureStepDescription": "BNU_P2018_64CH_Zhen.ZongLei",
 "ProtocolName": "bold_100x100_s3_2x2x2_static_256",
 "PulseSequenceDetails": "%SiemensSeq%_ep2d_bold",
 "ReceiveCoilActiveElements": "HC1-7;NC1",
 "ReceiveCoilName": "HeadNeck_64",
 "ReconMatrixPE": 100,
 "RepetitionTime": 2,
 "SAR": 0.0793508,
 "ScanOptions": "FS",
 "ScanningSequence": "EP",
 "SequenceName": "_epfid2d1_100",
 "SequenceVariant": "SK",
 "SeriesDescription": "bold_100x100_s3_2x2x2_static_256",
 "SeriesNumber": 6,
 "ShimSetting": [
  -5465,
  -11514,
  -1298,
  434,
  -8,
  -201,
  -135,
  -16
 ],
 "SliceThickness": 2,
 "SliceTiming": [
  1.485,
  0,
  0.99,
  0.0825,
  1.0725,
  0.165,
  1.155,
  0.2475,
  1.2375,
  0.33,
  1.32,
  0.4125,
  1.4025,
  0.5775,
  1.5675,
  0.66,
  1.65,
  0.7425,
  1.7325,
  0.825,
  1.815,
  0.9075,
  1.8975,
  0.495,
  1.485,
  0,
  0.99,
  0.0825,
  1.0725,
  0.165,
  1.155,
  0.2475,
  1.2375,
  0.33,
  1.32,
  0.4125,
  1.4025,
  0.5775,
  1.5675,
  0.66,
  1.65,
  0.7425,
  1.7325,
  0.825,
  1.815,
  0.9075,
  1.8975,
  0.495,
  1.485,
  0,
  0.99,
  0.0825,
  1.0725,
  0.165,
  1.155,
  0.2475,
  1.2375,
  0.33,
  1.32,
  0.4125,
  1.4025,
  0.5775,
  1.5675,
  0.66,
  1.65,
  0.7425,
  1.7325,
  0.825,
  1.815,
  0.9075,
  1.8975,
  0.495
 ],
 "SoftwareVersions": "syngo_MR_E11",
 "SpacingBetweenSlices": 2,
 "StationName": "AWP166078",
 "TaskName": "imagenet",
 "TotalReadoutTime": 0.0534586,
 "TxRefAmp": 212.831,
 "dcmmeta_affine": [
  [
   -2.0,
   -6.066899516099511e-08,
   -0.00011016056669177487,
   104.11992645263672
  ],
  [
   9.156405212706886e-06,
   1.9929873943328857,
   -0.16733504831790924,
   -85.59622955322266
  ],
  [
   -0.00010977938654832542,
   0.16733504831790924,
   1.9929875135421753,
   -70.5794677734375
  ],
  [
   0.0,
   0.0,
   0.0,
   1.0
  ]
 ],
 "dcmmeta_reorient_transform": [
  [
   0.0,
   -1.0,
   0.0,
   99.0
  ],
  [
   1.0,
   0.0,
   0.0,
   0.0
  ],
  [
   0.0,
   0.0,
   1.0,
   0.0
  ],
  [
   0.0,
   0.0,
   0.0,
   1.0
  ]
 ],
 "dcmmeta_shape": [
  100,
  100,
  72,
  256
 ],
 "dcmmeta_slice_dim": 2,
 "dcmmeta_version": 0.6,
 "global": {
  "const": {
   "AcquisitionMatrix": [
    100,
    0,
    0,
    100
   ],
   "AngioFlag": "N",
   "BitsAllocated": 16,
   "BitsStored": 12,
   "BodyPartExamined": "BRAIN",
   "Columns": 900,
   "EchoNumbers": 1,
   "EchoTime": 34.0,
   "EchoTrainLength": 100,
   "FlipAngle": 90.0,
   "HighBit": 11,
   "ImageOrientationPatient": [
    0.99999999848308,
    -4.57820243e-06,
    -5.48896923e-05,
    -3.0334497e-08,
    0.9964937259729,
    -0.0836675211575
   ],
   "ImagePositionPatient": [
    -904.11989683269,
    -908.9008437646,
    12.964633570993
   ],
   "ImageType": [
    "ORIGINAL",
    "PRIMARY",
    "M",
    "ND",
    "MOSAIC"
   ],
   "ImagedNucleus": "1H",
   "ImagingFrequency": 123.257755,
   "InPlanePhaseEncodingDirection": "COL",
   "MRAcquisitionType": "2D",
   "MagneticFieldStrength": 3.0,
   "Manufacturer": "SIEMENS",
   "ManufacturerModelName": "Prisma",
   "Modality": "MR",
   "NumberOfAverages": 1.0,
   "NumberOfPhaseEncodingSteps": 100,
   "PercentPhaseFieldOfView": 100.0,
   "PercentSampling": 100.0,
   "PerformedProcedureStepStartTime": "120754.453000",
   "PhotometricInterpretation": "MONOCHROME2",
   "PixelBandwidth": 2380.0,
   "PixelRepresentation": 0,
   "PixelSpacing": [
    2.0,
    2.0
   ],
   "ProtocolName": "bold_100x100_s3_2x2x2_static_256",
   "RepetitionTime": 2000.0,
   "Rows": 900,
   "SAR": 0.07935082826242,
   "SamplesPerPixel": 1,
   "ScanOptions": "FS",
   "ScanningSequence": "EP",
   "SequenceName": "*epfid2d1_100",
   "SequenceVariant": "SK",
   "SeriesDescription": "bold_100x100_s3_2x2x2_static_256",
   "SeriesNumber": 6,
   "SeriesTime": "125413.476000",
   "SliceLocation": -63.176103646327,
   "SliceThickness": 2.0,
   "SmallestImagePixelValue": 0,
   "SoftwareVersions": "syngo MR E11",
   "SpacingBetweenSlices": 2.0000000620842,
   "SpecificCharacterSet": "ISO_IR 100",
   "StudyID": "1",
   "StudyTime": "120754.308000",
   "TransmitCoilName": "Body",
   "VariableFlipAngleFlag": "N",
   "WindowCenterWidthExplanation": "Algo1",
   "dBdt": 0.0
  },
  "slices": {}
 },
 "time": {
  "samples": {
   "AcquisitionNumber": [
    1,
    2,
    3,
    4,
    5,
    6,
    7,
    8,
    9,
    10,
    11,
    12,
    13,
    14,
    15,
    16,
    17,
    18,
    19,
    20,
    21,
    22,
    23,
    24,
    25,
    26,
    27,
    28,
    29,
    30,
    31,
    32,
    33,
    34,
    35,
    36,
    37,
    38,
    39,
    40,
    41,
    42,
    43,
    44,
    45,
    46,
    47,
    48,
    49,
    50,
    51,
    52,
    53,
    54,
    55,
    56,
    57,
    58,
    59,
    60,
    61,
    62,
    63,
    64,
    65,
    66,
    67,
    68,
    69,
    70,
    71,
    72,
    73,
    74,
    75,
    76,
    77,
    78,
    79,
    80,
    81,
    82,
    83,
    84,
    85,
    86,
    87,
    88,
    89,
    90,
    91,
    92,
    93,
    94,
    95,
    96,
    97,
    98,
    99,
    100,
    101,
    102,
    103,
    104,
    105,
    106,
    107,
    108,
    109,
    110,
    111,
    112,
    113,
    114,
    115,
    116,
    117,
    118,
    119,
    120,
    121,
    122,
    123,
    124,
    125,
    126,
    127,
    128,
    129,
    130,
    131,
    132,
    133,
    134,
    135,
    136,
    137,
    138,
    139,
    140,
    141,
    142,
    143,
    144,
    145,
    146,
    147,
    148,
    149,
    150,
    151,
    152,
    153,
    154,
    155,
    156,
    157,
    158,
    159,
    160,
    161,
    162,
    163,
    164,
    165,
    166,
    167,
    168,
    169,
    170,
    171,
    172,
    173,
    174,
    175,
    176,
    177,
    178,
    179,
    180,
    181,
    182,
    183,
    184,
    185,
    186,
    187,
    188,
    189,
    190,
    191,
    192,
    193,
    194,
    195,
    196,
    197,
    198,
    199,
    200,
    201,
    202,
    203,
    204,
    205,
    206,
    207,
    208,
    209,
    210,
    211,
    212,
    213,
    214,
    215,
    216,
    217,
    218,
    219,
    220,
    221,
    222,
    223,
    224,
    225,
    226,
    227,
    228,
    229,
    230,
    231,
    232,
    233,
    234,
    235,
    236,
    237,
    238,
    239,
    240,
    241,
    242,
    243,
    244,
    245,
    246,
    247,
    248,
    249,
    250,
    251,
    252,
    253,
    254,
    255,
    256
   ],
   "AcquisitionTime": [
    "125411.012500",
    "125413.012500",
    "125415.012500",
    "125417.012500",
    "125419.012500",
    "125421.012500",
    "125423.012500",
    "125425.012500",
    "125427.012500",
    "125429.012500",
    "125431.012500",
    "125433.012500",
    "125435.012500",
    "125437.012500",
    "125439.012500",
    "125441.012500",
    "125443.012500",
    "125445.012500",
    "125447.012500",
    "125449.012500",
    "125451.012500",
    "125453.012500",
    "125455.012500",
    "125457.012500",
    "125459.012500",
    "125501.012500",
    "125503.012500",
    "125505.012500",
    "125507.012500",
    "125509.012500",
    "125511.012500",
    "125513.012500",
    "125515.012500",
    "125517.012500",
    "125519.012500",
    "125521.012500",
    "125523.012500",
    "125525.012500",
    "125527.012500",
    "125529.012500",
    "125531.012500",
    "125533.012500",
    "125535.012500",
    "125537.012500",
    "125539.012500",
    "125541.012500",
    "125543.012500",
    "125545.012500",
    "125547.012500",
    "125549.012500",
    "125551.012500",
    "125553.012500",
    "125555.012500",
    "125557.012500",
    "125559.012500",
    "125601.012500",
    "125603.012500",
    "125605.012500",
    "125607.012500",
    "125609.012500",
    "125611.012500",
    "125613.012500",
    "125615.012500",
    "125617.012500",
    "125619.012500",
    "125621.012500",
    "125623.012500",
    "125625.012500",
    "125627.012500",
    "125629.012500",
    "125631.012500",
    "125633.012500",
    "125635.012500",
    "125637.012500",
    "125639.012500",
    "125641.012500",
    "125643.012500",
    "125645.012500",
    "125647.012500",
    "125649.012500",
    "125651.012500",
    "125653.012500",
    "125655.012500",
    "125657.012500",
    "125659.012500",
    "125701.012500",
    "125703.012500",
    "125705.012500",
    "125707.012500",
    "125709.012500",
    "125711.012500",
    "125713.012500",
    "125715.012500",
    "125717.012500",
    "125719.012500",
    "125721.012500",
    "125723.012500",
    "125725.012500",
    "125727.012500",
    "125729.012500",
    "125731.012500",
    "125733.012500",
    "125735.012500",
    "125737.012500",
    "125739.012500",
    "125741.012500",
    "125743.012500",
    "125745.012500",
    "125747.012500",
    "125749.012500",
    "125751.012500",
    "125753.012500",
    "125755.012500",
    "125757.012500",
    "125759.012500",
    "125801.012500",
    "125803.012500",
    "125805.012500",
    "125807.012500",
    "125809.012500",
    "125811.012500",
    "125813.012500",
    "125815.012500",
    "125817.012500",
    "125819.012500",
    "125821.012500",
    "125823.012500",
    "125825.012500",
    "125827.012500",
    "125829.012500",
    "125831.012500",
    "125833.012500",
    "125835.012500",
    "125837.012500",
    "125839.012500",
    "125841.012500",
    "125843.012500",
    "125845.012500",
    "125847.012500",
    "125849.012500",
    "125851.012500",
    "125853.012500",
    "125855.012500",
    "125857.012500",
    "125859.012500",
    "125901.012500",
    "125903.012500",
    "125905.012500",
    "125907.012500",
    "125909.012500",
    "125911.012500",
    "125913.012500",
    "125915.012500",
    "125917.012500",
    "125919.012500",
    "125921.012500",
    "125923.012500",
    "125925.012500",
    "125927.012500",
    "125929.012500",
    "125931.012500",
    "125933.012500",
    "125935.012500",
    "125937.012500",
    "125939.012500",
    "125941.012500",
    "125943.012500",
    "125945.012500",
    "125947.012500",
    "125949.012500",
    "125951.012500",
    "125953.012500",
    "125955.012500",
    "125957.012500",
    "125959.012500",
    "130001.012500",
    "130003.012500",
    "130005.012500",
    "130007.012500",
    "130009.012500",
    "130011.012500",
    "130013.012500",
    "130015.012500",
    "130017.012500",
    "130019.012500",
    "130021.012500",
    "130023.012500",
    "130025.012500",
    "130027.012500",
    "130029.012500",
    "130031.012500",
    "130033.012500",
    "130035.012500",
    "130037.012500",
    "130039.012500",
    "130041.012500",
    "130043.012500",
    "130045.012500",
    "130047.012500",
    "130049.012500",
    "130051.012500",
    "130053.012500",
    "130055.012500",
    "130057.012500",
    "130059.012500",
    "130101.012500",
    "130103.012500",
    "130105.012500",
    "130107.012500",
    "130109.012500",
    "130111.012500",
    "130113.012500",
    "130115.012500",
    "130117.012500",
    "130119.012500",
    "130121.012500",
    "130123.012500",
    "130125.012500",
    "130127.012500",
    "130129.012500",
    "130131.012500",
    "130133.012500",
    "130135.012500",
    "130137.012500",
    "130139.012500",
    "130141.012500",
    "130143.012500",
    "130145.012500",
    "130147.012500",
    "130149.012500",
    "130151.012500",
    "130153.012500",
    "130155.012500",
    "130157.012500",
    "130159.012500",
    "130201.012500",
    "130203.012500",
    "130205.012500",
    "130207.012500",
    "130209.012500",
    "130211.012500",
    "130213.012500",
    "130215.012500",
    "130217.012500",
    "130219.012500",
    "130221.012500",
    "130223.012500",
    "130225.012500",
    "130227.012500",
    "130229.012500",
    "130231.012500",
    "130233.012500",
    "130235.012500",
    "130237.012500",
    "130239.012500",
    "130241.012500"
   ],
   "ContentTime": [
    "125413.479000",
    "125415.462000",
    "125417.462000",
    "125418.962000",
    "125420.963000",
    "125423.463000",
    "125424.964000",
    "125427.463000",
    "125428.964000",
    "125430.962000",
    "125433.462000",
    "125434.962000",
    "125437.462000",
    "125439.462000",
    "125441.463000",
    "125443.464000",
    "125444.963000",
    "125446.964000",
    "125448.962000",
    "125450.962000",
    "125453.462000",
    "125454.962000",
    "125457.463000",
    "125459.464000",
    "125500.963000",
    "125502.963000",
    "125504.963000",
    "125507.462000",
    "125508.963000",
    "125511.462000",
    "125512.962000",
    "125514.964000",
    "125516.963000",
    "125519.463000",
    "125520.963000",
    "125523.463000",
    "125524.962000",
    "125526.962000",
    "125529.462000",
    "125531.463000",
    "125532.963000",
    "125534.983000",
    "125537.463000",
    "125538.963000",
    "125541.463000",
    "125542.962000",
    "125544.963000",
    "125546.963000",
    "125548.962000",
    "125551.463000",
    "125553.464000",
    "125554.964000",
    "125557.464000",
    "125558.963000",
    "125601.462000",
    "125602.962000",
    "125604.962000",
    "125606.963000",
    "125609.464000",
    "125611.463000",
    "125612.963000",
    "125614.964000",
    "125616.963000",
    "125618.962000",
    "125621.462000",
    "125623.462000",
    "125624.963000",
    "125626.963000",
    "125629.463000",
    "125630.964000",
    "125633.463000",
    "125635.462000",
    "125637.462000",
    "125639.463000",
    "125640.962000",
    "125642.964000",
    "125645.464000",
    "125647.464000",
    "125649.463000",
    "125650.962000",
    "125653.462000",
    "125655.462000",
    "125656.963000",
    "125659.463000",
    "125701.463000",
    "125702.963000",
    "125704.964000",
    "125707.463000",
    "125708.962000",
    "125711.462000",
    "125713.463000",
    "125715.462000",
    "125716.963000",
    "125719.464000",
    "125720.963000",
    "125722.963000",
    "125724.963000",
    "125727.463000",
    "125728.963000",
    "125731.463000",
    "125733.463000",
    "125735.463000",
    "125736.963000",
    "125739.464000",
    "125741.463000",
    "125742.963000",
    "125745.463000",
    "125746.963000",
    "125748.962000",
    "125751.463000",
    "125753.464000",
    "125754.963000",
    "125756.964000",
    "125759.463000",
    "125800.963000",
    "125802.962000",
    "125805.463000",
    "125807.462000",
    "125809.462000",
    "125811.464000",
    "125812.963000",
    "125814.964000",
    "125817.464000",
    "125818.962000",
    "125820.962000",
    "125822.963000",
    "125825.462000",
    "125826.963000",
    "125829.464000",
    "125831.463000",
    "125832.963000",
    "125835.464000",
    "125836.962000",
    "125839.463000",
    "125840.963000",
    "125842.963000",
    "125845.464000",
    "125846.964000",
    "125849.464000",
    "125851.464000",
    "125853.462000",
    "125855.463000",
    "125857.462000",
    "125859.463000",
    "125901.462000",
    "125902.964000",
    "125904.964000",
    "125907.463000",
    "125908.963000",
    "125910.962000",
    "125912.962000",
    "125914.962000",
    "125917.463000",
    "125919.462000",
    "125921.464000",
    "125923.464000",
    "125925.464000",
    "125926.963000",
    "125929.462000",
    "125930.962000",
    "125933.463000",
    "125935.462000",
    "125937.463000",
    "125938.963000",
    "125941.463000",
    "125943.476000",
    "125945.464000",
    "125946.962000",
    "125949.463000",
    "125950.962000",
    "125953.462000",
    "125955.464000",
    "125957.464000",
    "125959.464000",
    "130001.464000",
    "130003.463000",
    "130004.963000",
    "130006.962000",
    "130009.462000",
    "130011.463000",
    "130013.463000",
    "130015.464000",
    "130016.964000",
    "130019.463000",
    "130021.463000",
    "130023.463000",
    "130024.962000",
    "130027.462000",
    "130028.963000",
    "130031.463000",
    "130033.464000",
    "130035.464000",
    "130037.464000",
    "130039.462000",
    "130041.462000",
    "130043.462000",
    "130045.463000",
    "130047.463000",
    "130049.464000",
    "130051.464000",
    "130053.463000",
    "130054.963000",
    "130056.963000",
    "130059.463000",
    "130101.463000",
    "130103.463000",
    "130105.464000",
    "130107.463000",
    "130108.963000",
    "130111.464000",
    "130112.964000",
    "130114.962000",
    "130117.463000",
    "130118.962000",
    "130120.962000",
    "130122.963000",
    "130124.964000",
    "130127.464000",
    "130129.464000",
    "130130.962000",
    "130133.462000",
    "130134.962000",
    "130136.963000",
    "130139.463000",
    "130141.464000",
    "130142.963000",
    "130145.464000",
    "130146.963000",
    "130148.963000",
    "130151.463000",
    "130152.963000",
    "130154.962000",
    "130156.963000",
    "130159.463000",
    "130201.463000",
    "130202.964000",
    "130204.964000",
    "130206.962000",
    "130209.463000",
    "130211.462000",
    "130213.463000",
    "130214.963000",
    "130217.463000",
    "130219.464000",
    "130221.464000",
    "130223.462000",
    "130224.963000",
    "130226.962000",
    "130228.963000",
    "130230.962000",
    "130233.464000",
    "130235.464000",
    "130237.464000",
    "130239.463000",
    "130241.462000",
    "130242.977000"
   ],
   "InstanceCreationTime": [
    "125413.479000",
    "125415.462000",
    "125417.462000",
    "125418.962000",
    "125420.963000",
    "125423.463000",
    "125424.964000",
    "125427.463000",
    "125428.964000",
    "125430.962000",
    "125433.462000",
    "125434.962000",
    "125437.462000",
    "125439.462000",
    "125441.463000",
    "125443.464000",
    "125444.963000",
    "125446.964000",
    "125448.962000",
    "125450.962000",
    "125453.462000",
    "125454.962000",
    "125457.463000",
    "125459.464000",
    "125500.963000",
    "125502.963000",
    "125504.963000",
    "125507.462000",
    "125508.963000",
    "125511.462000",
    "125512.962000",
    "125514.964000",
    "125516.963000",
    "125519.463000",
    "125520.963000",
    "125523.463000",
    "125524.962000",
    "125526.962000",
    "125529.462000",
    "125531.463000",
    "125532.963000",
    "125534.983000",
    "125537.463000",
    "125538.963000",
    "125541.463000",
    "125542.962000",
    "125544.963000",
    "125546.963000",
    "125548.962000",
    "125551.463000",
    "125553.464000",
    "125554.964000",
    "125557.464000",
    "125558.963000",
    "125601.462000",
    "125602.962000",
    "125604.962000",
    "125606.963000",
    "125609.464000",
    "125611.463000",
    "125612.963000",
    "125614.964000",
    "125616.963000",
    "125618.962000",
    "125621.462000",
    "125623.462000",
    "125624.963000",
    "125626.963000",
    "125629.463000",
    "125630.964000",
    "125633.463000",
    "125635.462000",
    "125637.462000",
    "125639.463000",
    "125640.962000",
    "125642.964000",
    "125645.464000",
    "125647.464000",
    "125649.463000",
    "125650.962000",
    "125653.462000",
    "125655.462000",
    "125656.963000",
    "125659.463000",
    "125701.463000",
    "125702.963000",
    "125704.964000",
    "125707.463000",
    "125708.962000",
    "125711.462000",
    "125713.463000",
    "125715.462000",
    "125716.963000",
    "125719.464000",
    "125720.963000",
    "125722.963000",
    "125724.963000",
    "125727.463000",
    "125728.963000",
    "125731.463000",
    "125733.463000",
    "125735.463000",
    "125736.963000",
    "125739.464000",
    "125741.463000",
    "125742.963000",
    "125745.463000",
    "125746.963000",
    "125748.962000",
    "125751.463000",
    "125753.464000",
    "125754.963000",
    "125756.964000",
    "125759.463000",
    "125800.963000",
    "125802.962000",
    "125805.463000",
    "125807.462000",
    "125809.462000",
    "125811.464000",
    "125812.963000",
    "125814.964000",
    "125817.464000",
    "125818.962000",
    "125820.962000",
    "125822.963000",
    "125825.462000",
    "125826.963000",
    "125829.464000",
    "125831.463000",
    "125832.963000",
    "125835.464000",
    "125836.962000",
    "125839.463000",
    "125840.963000",
    "125842.963000",
    "125845.464000",
    "125846.964000",
    "125849.464000",
    "125851.464000",
    "125853.462000",
    "125855.463000",
    "125857.462000",
    "125859.463000",
    "125901.462000",
    "125902.964000",
    "125904.964000",
    "125907.463000",
    "125908.963000",
    "125910.962000",
    "125912.962000",
    "125914.962000",
    "125917.463000",
    "125919.462000",
    "125921.464000",
    "125923.464000",
    "125925.464000",
    "125926.963000",
    "125929.462000",
    "125930.962000",
    "125933.463000",
    "125935.462000",
    "125937.463000",
    "125938.963000",
    "125941.463000",
    "125943.476000",
    "125945.464000",
    "125946.962000",
    "125949.463000",
    "125950.962000",
    "125953.462000",
    "125955.464000",
    "125957.464000",
    "125959.464000",
    "130001.464000",
    "130003.463000",
    "130004.963000",
    "130006.962000",
    "130009.462000",
    "130011.463000",
    "130013.463000",
    "130015.464000",
    "130016.964000",
    "130019.463000",
    "130021.463000",
    "130023.463000",
    "130024.962000",
    "130027.462000",
    "130028.963000",
    "130031.463000",
    "130033.464000",
    "130035.464000",
    "130037.464000",
    "130039.462000",
    "130041.462000",
    "130043.462000",
    "130045.463000",
    "130047.463000",
    "130049.464000",
    "130051.464000",
    "130053.463000",
    "130054.963000",
    "130056.963000",
    "130059.463000",
    "130101.463000",
    "130103.463000",
    "130105.464000",
    "130107.463000",
    "130108.963000",
    "130111.464000",
    "130112.964000",
    "130114.962000",
    "130117.463000",
    "130118.962000",
    "130120.962000",
    "130122.963000",
    "130124.964000",
    "130127.464000",
    "130129.464000",
    "130130.962000",
    "130133.462000",
    "130134.962000",
    "130136.963000",
    "130139.463000",
    "130141.464000",
    "130142.963000",
    "130145.464000",
    "130146.963000",
    "130148.963000",
    "130151.463000",
    "130152.963000",
    "130154.962000",
    "130156.963000",
    "130159.463000",
    "130201.463000",
    "130202.964000",
    "130204.964000",
    "130206.962000",
    "130209.463000",
    "130211.462000",
    "130213.463000",
    "130214.963000",
    "130217.463000",
    "130219.464000",
    "130221.464000",
    "130223.462000",
    "130224.963000",
    "130226.962000",
    "130228.963000",
    "130230.962000",
    "130233.464000",
    "130235.464000",
    "130237.464000",
    "130239.463000",
    "130241.462000",
    "130242.977000"
   ],
   "InstanceNumber": [
    1,
    2,
    3,
    4,
    5,
    6,
    7,
    8,
    9,
    10,
    11,
    12,
    13,
    14,
    15,
    16,
    17,
    18,
    19,
    20,
    21,
    22,
    23,
    24,
    25,
    26,
    27,
    28,
    29,
    30,
    31,
    32,
    33,
    34,
    35,
    36,
    37,
    38,
    39,
    40,
    41,
    42,
    43,
    44,
    45,
    46,
    47,
    48,
    49,
    50,
    51,
    52,
    53,
    54,
    55,
    56,
    57,
    58,
    59,
    60,
    61,
    62,
    63,
    64,
    65,
    66,
    67,
    68,
    69,
    70,
    71,
    72,
    73,
    74,
    75,
    76,
    77,
    78,
    79,
    80,
    81,
    82,
    83,
    84,
    85,
    86,
    87,
    88,
    89,
    90,
    91,
    92,
    93,
    94,
    95,
    96,
    97,
    98,
    99,
    100,
    101,
    102,
    103,
    104,
    105,
    106,
    107,
    108,
    109,
    110,
    111,
    112,
    113,
    114,
    115,
    116,
    117,
    118,
    119,
    120,
    121,
    122,
    123,
    124,
    125,
    126,
    127,
    128,
    129,
    130,
    131,
    132,
    133,
    134,
    135,
    136,
    137,
    138,
    139,
    140,
    141,
    142,
    143,
    144,
    145,
    146,
    147,
    148,
    149,
    150,
    151,
    152,
    153,
    154,
    155,
    156,
    157,
    158,
    159,
    160,
    161,
    162,
    163,
    164,
    165,
    166,
    167,
    168,
    169,
    170,
    171,
    172,
    173,
    174,
    175,
    176,
    177,
    178,
    179,
    180,
    181,
    182,
    183,
    184,
    185,
    186,
    187,
    188,
    189,
    190,
    191,
    192,
    193,
    194,
    195,
    196,
    197,
    198,
    199,
    200,
    201,
    202,
    203,
    204,
    205,
    206,
    207,
    208,
    209,
    210,
    211,
    212,
    213,
    214,
    215,
    216,
    217,
    218,
    219,
    220,
    221,
    222,
    223,
    224,
    225,
    226,
    227,
    228,
    229,
    230,
    231,
    232,
    233,
    234,
    235,
    236,
    237,
    238,
    239,
    240,
    241,
    242,
    243,
    244,
    245,
    246,
    247,
    248,
    249,
    250,
    251,
    252,
    253,
    254,
    255,
    256
   ],
   "LargestImagePixelValue": [
    3696,
    3601,
    3549,
    3481,
    3517,
    3506,
    3513,
    3484,
    3496,
    3507,
    3503,
    3482,
    3506,
    3497,
    3528,
    3529,
    3522,
    3509,
    3530,
    3481,
    3512,
    3491,
    3486,
    3434,
    3480,
    3466,
    3489,
    3473,
    3501,
    3502,
    3502,
    3512,
    3489,
    3475,
    3487,
    3466,
    3479,
    3523,
    3481,
    3502,
    3474,
    3500,
    3477,
    3476,
    3457,
    3484,
    3484,
    3464,
    3515,
    3446,
    3462,
    3476,
    3490,
    3409,
    3462,
    3439,
    3483,
    3480,
    3411,
    3405,
    3425,
    3466,
    3465,
    3482,
    3436,
    3479,
    3456,
    3463,
    3441,
    3425,
    3419,
    3437,
    3425,
    3411,
    3450,
    3444,
    3460,
    3453,
    3483,
    3464,
    3446,
    3416,
    3453,
    3455,
    3467,
    3455,
    3477,
    3449,
    3471,
    3464,
    3442,
    3466,
    3481,
    3445,
    3423,
    3475,
    3458,
    3503,
    3442,
    3457,
    3470,
    3464,
    3467,
    3483,
    3481,
    3466,
    3476,
    3467,
    3458,
    3482,
    3493,
    3494,
    3474,
    3472,
    3485,
    3453,
    3448,
    3487,
    3466,
    3516,
    3473,
    3436,
    3465,
    3481,
    3463,
    3482,
    3491,
    3497,
    3465,
    3434,
    3439,
    3467,
    3479,
    3495,
    3450,
    3470,
    3473,
    3478,
    3470,
    3459,
    3430,
    3478,
    3475,
    3471,
    3504,
    3502,
    3440,
    3446,
    3466,
    3529,
    3403,
    3425,
    3430,
    3488,
    3479,
    3503,
    3451,
    3483,
    3465,
    3511,
    3424,
    3395,
    3401,
    3451,
    3486,
    3441,
    3389,
    3405,
    3369,
    3379,
    3406,
    3374,
    3387,
    3353,
    3370,
    3379,
    3390,
    3321,
    3373,
    3418,
    3437,
    3457,
    3398,
    3407,
    3402,
    3408,
    3437,
    3349,
    3388,
    3367,
    3352,
    3373,
    3337,
    3341,
    3409,
    3392,
    3324,
    3333,
    3363,
    3327,
    3377,
    3357,
    3333,
    3336,
    3259,
    3279,
    3348,
    3333,
    3365,
    3323,
    3346,
    3299,
    3311,
    3226,
    3210,
    3224,
    3191,
    3246,
    3164,
    3246,
    3215,
    3211,
    3209,
    3254,
    3201,
    3199,
    3178,
    3209,
    3217,
    3196,
    3208,
    3192,
    3227,
    3395,
    3385,
    3312,
    3350,
    3315,
    3320,
    3288,
    3338,
    3332,
    3276,
    3257,
    3240,
    3258,
    3246,
    3239,
    3211,
    3165,
    3196,
    3193,
    3236,
    3191,
    3212,
    3234
   ],
   "WindowCenter": [
    771.0,
    769.0,
    768.0,
    768.0,
    768.0,
    768.0,
    768.0,
    767.0,
    766.0,
    767.0,
    769.0,
    769.0,
    769.0,
    769.0,
    769.0,
    768.0,
    767.0,
    767.0,
    767.0,
    767.0,
    767.0,
    767.0,
    767.0,
    767.0,
    767.0,
    766.0,
    766.0,
    767.0,
    768.0,
    769.0,
    768.0,
    768.0,
    767.0,
    766.0,
    767.0,
    768.0,
    768.0,
    768.0,
    769.0,
    769.0,
    768.0,
    767.0,
    767.0,
    767.0,
    768.0,
    768.0,
    768.0,
    768.0,
    768.0,
    767.0,
    767.0,
    767.0,
    767.0,
    766.0,
    767.0,
    767.0,
    767.0,
    766.0,
    766.0,
    766.0,
    767.0,
    768.0,
    768.0,
    767.0,
    767.0,
    768.0,
    768.0,
    767.0,
    767.0,
    767.0,
    767.0,
    767.0,
    767.0,
    767.0,
    768.0,
    768.0,
    768.0,
    768.0,
    768.0,
    767.0,
    766.0,
    767.0,
    767.0,
    768.0,
    768.0,
    769.0,
    768.0,
    768.0,
    768.0,
    769.0,
    768.0,
    767.0,
    766.0,
    767.0,
    768.0,
    769.0,
    768.0,
    768.0,
    768.0,
    768.0,
    768.0,
    768.0,
    768.0,
    767.0,
    766.0,
    767.0,
    769.0,
    769.0,
    768.0,
    768.0,
