{
 "AcquisitionMatrixPE": 100,
 "AcquisitionNumber": 1,
 "AcquisitionTime": "12:23:22.390000",
 "BandwidthPerPixelPhaseEncode": 18.519,
 "BaseResolution": 100,
 "BodyPartExamined": "BRAIN",
 "ConsistencyInfo": "N4_VE11C_LATEST_20160120",
 "ConversionSoftware": "dcm2niix",
 "ConversionSoftwareVersion": "v1.0.20180622 GCC4.9.2",
 "DerivedVendorReportedEchoSpacing": 0.000539986,
 "DeviceSerialNumber": "166078",
 "DwellTime": 2.1e-06,
 "EchoTime": 0.034,
 "EchoTrainLength": 100,
 "EffectiveEchoSpacing": 0.000539986,
 "FlipAngle": 90,
 "ImageOrientationPatientDICOM": [
  1,
  -4.59504e-07,
  -1.24617e-05,
  4.6189e-08,
  0.999451,
  -0.0331466
 ],
 "ImageType": [
  "ORIGINAL",
  "PRIMARY",
  "M",
  "ND",
  "MOSAIC"
 ],
 "InPlanePhaseEncodingDirectionDICOM": "COL",
 "InstitutionAddress": "Street_StreetNo_Bei_Jing_District_CN_ZIP",
 "InstitutionName": "BeiJing_Normal_University",
 "InstitutionalDepartmentName": "Department",
 "MRAcquisitionType": "2D",
 "MagneticFieldStrength": 3,
 "Manufacturer": "Siemens",
 "ManufacturersModelName": "Prisma",
 "Modality": "MR",
 "MultibandAccelerationFactor": 3,
 "PartialFourier": 1,
 "PatientPosition": "HFS",
 "PercentPhaseFOV": 100,
 "PhaseEncodingDirection": "j-",
 "PhaseEncodingSteps": 100,
 "PhaseResolution": 1,
 "PixelBandwidth": 2380,
 "ProcedureStepDescription": "BNU_P2018_64CH_Zhen.ZongLei",
 "ProtocolName": "bold_100x100_s3_2x2x2_retino_150",
 "PulseSequenceDetails": "%SiemensSeq%_ep2d_bold",
 "ReceiveCoilActiveElements": "HC1-7;NC1",
 "ReceiveCoilName": "HeadNeck_64",
 "ReconMatrixPE": 100,
 "RepetitionTime": 2,
 "SAR": 0.0808055,
 "ScanOptions": "FS",
 "ScanningSequence": "EP",
 "SequenceName": "_epfid2d1_100",
 "SequenceVariant": "SK",
 "SeriesDescription": "bold_100x100_s3_2x2x2_retino_150",
 "SeriesNumber": 15,
 "ShimSetting": [
  -5467,
  -11522,
  -1299,
  496,
  -16,
  -246,
  -103,
  19
 ],
 "SliceThickness": 2,
 "SliceTiming": [
  1.485,
  0,
  0.99,
  0.0825,
  1.0725,
  0.165,
  1.155,
  0.2475,
  1.2375,
  0.33,
  1.32,
  0.4125,
  1.4025,
  0.5775,
  1.5675,
  0.66,
  1.65,
  0.7425,
  1.7325,
  0.825,
  1.815,
  0.9075,
  1.8975,
  0.495,
  1.485,
  0,
  0.99,
  0.0825,
  1.0725,
  0.165,
  1.155,
  0.2475,
  1.2375,
  0.33,
  1.32,
  0.4125,
  1.4025,
  0.5775,
  1.5675,
  0.66,
  1.65,
  0.7425,
  1.7325,
  0.825,
  1.815,
  0.9075,
  1.8975,
  0.495,
  1.485,
  0,
  0.99,
  0.0825,
  1.0725,
  0.165,
  1.155,
  0.2475,
  1.2375,
  0.33,
  1.32,
  0.4125,
  1.4025,
  0.5775,
  1.5675,
  0.66,
  1.65,
  0.7425,
  1.7325,
  0.825,
  1.815,
  0.9075,
  1.8975,
  0.495
 ],
 "SoftwareVersions": "syngo_MR_E11",
 "SpacingBetweenSlices": 2,
 "StationName": "AWP166078",
 "TaskName": "prf",
 "TotalReadoutTime": 0.0534586,
 "TxRefAmp": 214.219,
 "dcmmeta_affine": [
  [
   -2.0,
   9.237798792582907e-08,
   -2.494008731446229e-05,
   100.09884643554688
  ],
  [
   9.190073910758656e-07,
   1.9989010095596313,
   -0.06629329174757004,
   -95.54011535644531
  ],
  [
   -2.4923319870140404e-05,
   0.06629329174757004,
   1.9989010095596313,
   -63.81886672973633
  ],
  [
   0.0,
   0.0,
   0.0,
   1.0
  ]
 ],
 "dcmmeta_reorient_transform": [
  [
   0.0,
   -1.0,
   0.0,
   99.0
  ],
  [
   1.0,
   0.0,
   0.0,
   0.0
  ],
  [
   0.0,
   0.0,
   1.0,
   0.0
  ],
  [
   0.0,
   0.0,
   0.0,
   1.0
  ]
 ],
 "dcmmeta_shape": [
  100,
  100,
  72,
  150
 ],
 "dcmmeta_slice_dim": 2,
 "dcmmeta_version": 0.6,
 "global": {
  "const": {
   "AcquisitionMatrix": [
    100,
    0,
    0,
    100
   ],
   "AngioFlag": "N",
   "BitsAllocated": 16,
   "BitsStored": 12,
   "BodyPartExamined": "BRAIN",
   "Columns": 900,
   "EchoNumbers": 1,
   "EchoTime": 34.0,
   "EchoTrainLength": 100,
   "FlipAngle": 90.0,
   "HighBit": 11,
   "ImageOrientationPatient": [
    0.99999999992225,
    -4.595037e-07,
    -1.246166e-05,
    4.6188993e-08,
    0.99945049901382,
    -0.0331466441894
   ],
   "ImagePositionPatient": [
    -900.09889233151,
    -901.91111318248,
    -30.728547747005
   ],
   "ImageType": [
    "ORIGINAL",
    "PRIMARY",
    "M",
    "ND",
    "MOSAIC"
   ],
   "ImagedNucleus": "1H",
   "ImagingFrequency": 123.257766,
   "InPlanePhaseEncodingDirection": "COL",
   "MRAcquisitionType": "2D",
   "MagneticFieldStrength": 3.0,
   "Manufacturer": "SIEMENS",
   "ManufacturerModelName": "Prisma",
   "Modality": "MR",
   "NumberOfAverages": 1.0,
   "NumberOfPhaseEncodingSteps": 100,
   "PercentPhaseFieldOfView": 100.0,
   "PercentSampling": 100.0,
   "PerformedProcedureStepStartTime": "110417.131000",
   "PhotometricInterpretation": "MONOCHROME2",
   "PixelBandwidth": 2380.0,
   "PixelRepresentation": 0,
   "PixelSpacing": [
    2.0,
    2.0
   ],
   "ProtocolName": "bold_100x100_s3_2x2x2_retino_150",
   "RepetitionTime": 2000.0,
   "Rows": 900,
   "SAR": 0.08080550004819,
   "SamplesPerPixel": 1,
   "ScanOptions": "FS",
   "ScanningSequence": "EP",
   "SequenceName": "*epfid2d1_100",
   "SequenceVariant": "SK",
   "SeriesDescription": "bold_100x100_s3_2x2x2_retino_150",
   "SeriesNumber": 15,
   "SeriesTime": "122324.590000",
   "SliceLocation": -60.61821340579,
   "SliceThickness": 2.0,
   "SmallestImagePixelValue": 0,
   "SoftwareVersions": "syngo MR E11",
   "SpacingBetweenSlices": 1.9999999932748,
   "SpecificCharacterSet": "ISO_IR 100",
   "StudyID": "1",
   "StudyTime": "110417.034000",
   "TransmitCoilName": "Body",
   "VariableFlipAngleFlag": "N",
   "WindowCenterWidthExplanation": "Algo1",
   "dBdt": 0.0
  },
  "slices": {}
 },
 "time": {
  "samples": {
   "AcquisitionNumber": [
    1,
    2,
    3,
    4,
    5,
    6,
    7,
    8,
    9,
    10,
    11,
    12,
    13,
    14,
    15,
    16,
    17,
    18,
    19,
    20,
    21,
    22,
    23,
    24,
    25,
    26,
    27,
    28,
    29,
    30,
    31,
    32,
    33,
    34,
    35,
    36,
    37,
    38,
    39,
    40,
    41,
    42,
    43,
    44,
    45,
    46,
    47,
    48,
    49,
    50,
    51,
    52,
    53,
    54,
    55,
    56,
    57,
    58,
    59,
    60,
    61,
    62,
    63,
    64,
    65,
    66,
    67,
    68,
    69,
    70,
    71,
    72,
    73,
    74,
    75,
    76,
    77,
    78,
    79,
    80,
    81,
    82,
    83,
    84,
    85,
    86,
    87,
    88,
    89,
    90,
    91,
    92,
    93,
    94,
    95,
    96,
    97,
    98,
    99,
    100,
    101,
    102,
    103,
    104,
    105,
    106,
    107,
    108,
    109,
    110,
    111,
    112,
    113,
    114,
    115,
    116,
    117,
    118,
    119,
    120,
    121,
    122,
    123,
    124,
    125,
    126,
    127,
    128,
    129,
    130,
    131,
    132,
    133,
    134,
    135,
    136,
    137,
    138,
    139,
    140,
    141,
    142,
    143,
    144,
    145,
    146,
    147,
    148,
    149,
    150
   ],
   "AcquisitionTime": [
    "122322.390000",
    "122324.390000",
    "122326.390000",
    "122328.390000",
    "122330.390000",
    "122332.390000",
    "122334.390000",
    "122336.390000",
    "122338.390000",
    "122340.390000",
    "122342.390000",
    "122344.390000",
    "122346.390000",
    "122348.390000",
    "122350.390000",
    "122352.390000",
    "122354.390000",
    "122356.390000",
    "122358.390000",
    "122400.390000",
    "122402.390000",
    "122404.390000",
    "122406.390000",
    "122408.390000",
    "122410.390000",
    "122412.390000",
    "122414.390000",
    "122416.390000",
    "122418.390000",
    "122420.390000",
    "122422.390000",
    "122424.390000",
    "122426.390000",
    "122428.390000",
    "122430.390000",
    "122432.390000",
    "122434.390000",
    "122436.390000",
    "122438.390000",
    "122440.390000",
    "122442.390000",
    "122444.390000",
    "122446.390000",
    "122448.390000",
    "122450.390000",
    "122452.390000",
    "122454.390000",
    "122456.390000",
    "122458.390000",
    "122500.390000",
    "122502.390000",
    "122504.390000",
    "122506.390000",
    "122508.390000",
    "122510.390000",
    "122512.390000",
    "122514.390000",
    "122516.390000",
    "122518.390000",
    "122520.390000",
    "122522.390000",
    "122524.390000",
    "122526.390000",
    "122528.390000",
    "122530.390000",
    "122532.390000",
    "122534.390000",
    "122536.390000",
    "122538.390000",
    "122540.390000",
    "122542.390000",
    "122544.390000",
    "122546.390000",
    "122548.390000",
    "122550.390000",
    "122552.390000",
    "122554.390000",
    "122556.390000",
    "122558.390000",
    "122600.390000",
    "122602.390000",
    "122604.390000",
    "122606.390000",
    "122608.390000",
    "122610.390000",
    "122612.390000",
    "122614.390000",
    "122616.390000",
    "122618.390000",
    "122620.390000",
    "122622.390000",
    "122624.390000",
    "122626.390000",
    "122628.390000",
    "122630.390000",
    "122632.390000",
    "122634.390000",
    "122636.390000",
    "122638.390000",
    "122640.390000",
    "122642.390000",
    "122644.390000",
    "122646.390000",
    "122648.390000",
    "122650.390000",
    "122652.390000",
    "122654.390000",
    "122656.390000",
    "122658.390000",
    "122700.390000",
    "122702.390000",
    "122704.390000",
    "122706.390000",
    "122708.390000",
    "122710.390000",
    "122712.390000",
    "122714.390000",
    "122716.390000",
    "122718.390000",
    "122720.390000",
    "122722.390000",
    "122724.390000",
    "122726.390000",
    "122728.390000",
    "122730.390000",
    "122732.390000",
    "122734.390000",
    "122736.390000",
    "122738.390000",
    "122740.390000",
    "122742.390000",
    "122744.390000",
    "122746.390000",
    "122748.390000",
    "122750.390000",
    "122752.390000",
    "122754.390000",
    "122756.390000",
    "122758.390000",
    "122800.390000",
    "122802.390000",
    "122804.390000",
    "122806.390000",
    "122808.390000",
    "122810.390000",
    "122812.390000",
    "122814.390000",
    "122816.390000",
    "122818.390000",
    "122820.390000"
   ],
   "ContentTime": [
    "122324.593000",
    "122326.089000",
    "122328.089000",
    "122330.089000",
    "122332.089000",
    "122334.089000",
    "122336.090000",
    "122338.090000",
    "122340.088000",
    "122342.089000",
    "122344.088000",
    "122346.090000",
    "122348.090000",
    "122350.090000",
    "122352.089000",
    "122354.089000",
    "122356.090000",
    "122358.089000",
    "122400.088000",
    "122402.088000",
    "122404.089000",
    "122406.089000",
    "122408.090000",
    "122410.090000",
    "122412.089000",
    "122414.088000",
    "122416.088000",
    "122418.088000",
    "122420.090000",
    "122422.089000",
    "122424.089000",
    "122426.089000",
    "122428.089000",
    "122430.089000",
    "122432.089000",
    "122434.089000",
    "122436.089000",
    "122438.090000",
    "122440.090000",
    "122442.090000",
    "122444.089000",
    "122446.090000",
    "122448.089000",
    "122450.088000",
    "122452.089000",
    "122454.089000",
    "122456.089000",
    "122458.089000",
    "122500.089000",
    "122502.089000",
    "122504.089000",
    "122506.089000",
    "122508.089000",
    "122510.088000",
    "122512.088000",
    "122514.090000",
    "122516.090000",
    "122518.089000",
    "122520.089000",
    "122522.089000",
    "122524.089000",
    "122526.089000",
    "122528.088000",
    "122530.090000",
    "122532.089000",
    "122534.089000",
    "122536.090000",
    "122538.089000",
    "122540.089000",
    "122542.088000",
    "122544.089000",
    "122546.088000",
    "122548.089000",
    "122550.089000",
    "122552.089000",
    "122554.090000",
    "122556.090000",
    "122558.089000",
    "122600.089000",
    "122602.088000",
    "122604.088000",
    "122606.089000",
    "122608.090000",
    "122610.090000",
    "122612.090000",
    "122614.089000",
    "122616.090000",
    "122618.089000",
    "122620.089000",
    "122622.088000",
    "122624.090000",
    "122626.090000",
    "122628.089000",
    "122630.090000",
    "122632.089000",
    "122634.088000",
    "122636.088000",
    "122638.088000",
    "122640.089000",
    "122642.590000",
    "122644.089000",
    "122646.089000",
    "122648.089000",
    "122650.089000",
    "122652.088000",
    "122654.089000",
    "122656.088000",
    "122658.089000",
    "122700.089000",
    "122702.089000",
    "122704.089000",
    "122706.090000",
    "122708.089000",
    "122710.088000",
    "122712.088000",
    "122714.089000",
    "122716.090000",
    "122718.089000",
    "122720.090000",
    "122722.090000",
    "122724.090000",
    "122726.089000",
    "122728.089000",
    "122730.089000",
    "122732.088000",
    "122734.089000",
    "122736.089000",
    "122738.090000",
    "122740.089000",
    "122742.089000",
    "122744.089000",
    "122746.088000",
    "122748.089000",
    "122750.089000",
    "122752.089000",
    "122754.090000",
    "122756.090000",
    "122758.090000",
    "122800.089000",
    "122802.089000",
    "122804.088000",
    "122806.088000",
    "122808.090000",
    "122810.090000",
    "122812.089000",
    "122814.089000",
    "122816.090000",
    "122818.089000",
    "122820.089000",
    "122821.920000"
   ],
   "InstanceCreationTime": [
    "122324.593000",
    "122326.089000",
    "122328.089000",
    "122330.089000",
    "122332.089000",
    "122334.089000",
    "122336.090000",
    "122338.090000",
    "122340.088000",
    "122342.089000",
    "122344.088000",
    "122346.090000",
    "122348.090000",
    "122350.090000",
    "122352.089000",
    "122354.089000",
    "122356.090000",
    "122358.089000",
    "122400.088000",
    "122402.088000",
    "122404.089000",
    "122406.089000",
    "122408.090000",
    "122410.090000",
    "122412.089000",
    "122414.088000",
    "122416.088000",
    "122418.088000",
    "122420.090000",
    "122422.089000",
    "122424.089000",
    "122426.089000",
    "122428.089000",
    "122430.089000",
    "122432.089000",
    "122434.089000",
    "122436.089000",
    "122438.090000",
    "122440.090000",
    "122442.090000",
    "122444.089000",
    "122446.090000",
    "122448.089000",
    "122450.088000",
    "122452.089000",
    "122454.089000",
    "122456.089000",
    "122458.089000",
    "122500.089000",
    "122502.089000",
    "122504.089000",
    "122506.089000",
    "122508.089000",
    "122510.088000",
    "122512.088000",
    "122514.090000",
    "122516.090000",
    "122518.089000",
    "122520.089000",
    "122522.089000",
    "122524.089000",
    "122526.089000",
    "122528.088000",
    "122530.090000",
    "122532.089000",
    "122534.089000",
    "122536.090000",
    "122538.089000",
    "122540.089000",
    "122542.088000",
    "122544.089000",
    "122546.088000",
    "122548.089000",
    "122550.089000",
    "122552.089000",
    "122554.090000",
    "122556.090000",
    "122558.089000",
    "122600.089000",
    "122602.088000",
    "122604.088000",
    "122606.089000",
    "122608.090000",
    "122610.090000",
    "122612.090000",
    "122614.089000",
    "122616.090000",
    "122618.089000",
    "122620.089000",
    "122622.088000",
    "122624.090000",
    "122626.090000",
    "122628.089000",
    "122630.090000",
    "122632.089000",
    "122634.088000",
    "122636.088000",
    "122638.088000",
    "122640.089000",
    "122642.590000",
    "122644.089000",
    "122646.089000",
    "122648.089000",
    "122650.089000",
    "122652.088000",
    "122654.089000",
    "122656.088000",
    "122658.089000",
    "122700.089000",
    "122702.089000",
    "122704.089000",
    "122706.090000",
    "122708.089000",
    "122710.088000",
    "122712.088000",
    "122714.089000",
    "122716.090000",
    "122718.089000",
    "122720.090000",
    "122722.090000",
    "122724.090000",
    "122726.089000",
    "122728.089000",
    "122730.089000",
    "122732.088000",
    "122734.089000",
    "122736.089000",
    "122738.090000",
    "122740.089000",
    "122742.089000",
    "122744.089000",
    "122746.088000",
    "122748.089000",
    "122750.089000",
    "122752.089000",
    "122754.090000",
    "122756.090000",
    "122758.090000",
    "122800.089000",
    "122802.089000",
    "122804.088000",
    "122806.088000",
    "122808.090000",
    "122810.090000",
    "122812.089000",
    "122814.089000",
    "122816.090000",
    "122818.089000",
    "122820.089000",
    "122821.920000"
   ],
   "InstanceNumber": [
    1,
    2,
    3,
    4,
    5,
    6,
    7,
    8,
    9,
    10,
    11,
    12,
    13,
    14,
    15,
    16,
    17,
    18,
    19,
    20,
    21,
    22,
    23,
    24,
    25,
    26,
    27,
    28,
    29,
    30,
    31,
    32,
    33,
    34,
    35,
    36,
    37,
    38,
    39,
    40,
    41,
    42,
    43,
    44,
    45,
    46,
    47,
    48,
    49,
    50,
    51,
    52,
    53,
    54,
    55,
    56,
    57,
    58,
    59,
    60,
    61,
    62,
    63,
    64,
    65,
    66,
    67,
    68,
    69,
    70,
    71,
    72,
    73,
    74,
    75,
    76,
    77,
    78,
    79,
    80,
    81,
    82,
    83,
    84,
    85,
    86,
    87,
    88,
    89,
    90,
    91,
    92,
    93,
    94,
    95,
    96,
    97,
    98,
    99,
    100,
    101,
    102,
    103,
    104,
    105,
    106,
    107,
    108,
    109,
    110,
    111,
    112,
    113,
    114,
    115,
    116,
    117,
    118,
    119,
    120,
    121,
    122,
    123,
    124,
    125,
    126,
    127,
    128,
    129,
    130,
    131,
    132,
    133,
    134,
    135,
    136,
    137,
    138,
    139,
    140,
    141,
    142,
    143,
    144,
    145,
    146,
    147,
    148,
    149,
    150
   ],
   "LargestImagePixelValue": [
    3132,
    3086,
    3129,
    3111,
    3060,
    3048,
    3028,
    3060,
    3048,
    3022,
    3019,
    2985,
    2983,
    2997,
    3007,
    3012,
    2989,
    3037,
    3013,
    3000,
    2970,
    3048,
    2989,
    3011,
    3023,
    3035,
    3012,
    3001,
    3034,
    3022,
    3036,
    3013,
    3021,
    3032,
    3056,
    3005,
    3007,
    3020,
    3007,
    3011,
    3018,
    3010,
    3000,
    3027,
    3003,
    2984,
    2970,
    2990,
    2988,
    3000,
    2975,
    3023,
    2981,
    2994,
    3009,
    2979,
    3004,
    2965,
    3011,
    2996,
    2982,
    3002,
    3008,
    2997,
    2998,
    3001,
    3029,
    3032,
    3015,
    3007,
    3019,
    3012,
    3035,
    3009,
    3016,
    2999,
    2985,
    3014,
    3001,
    3033,
    3007,
    2995,
    3014,
    3001,
    3015,
    3011,
    2995,
    2980,
    3017,
    2985,
    3001,
    2970,
    2979,
    2978,
    2993,
    2986,
    3018,
    3004,
    2968,
    2959,
    2954,
    2925,
    2900,
    2922,
    2908,
    2918,
    2906,
    2896,
    2924,
    2896,
    2891,
    2874,
    2889,
    2886,
    2940,
    2927,
    2948,
    2957,
    2974,
    2970,
    2996,
    2990,
    2985,
    2964,
    2975,
    3000,
    2963,
    2987,
    2990,
    3027,
    2990,
    3003,
    3008,
    3047,
    3032,
    3044,
    3024,
    3068,
    3056,
    3032,
    3052,
    3059,
    3029,
    3054,
    3048,
    3060,
    3042,
    3010,
    3056,
    2985
   ],
   "WindowCenter": [
    752.0,
    752.0,
    753.0,
    751.0,
    750.0,
    750.0,
    750.0,
    751.0,
    750.0,
    751.0,
    751.0,
    751.0,
    751.0,
    751.0,
    750.0,
    751.0,
    751.0,
    752.0,
    752.0,
    751.0,
    750.0,
    751.0,
    751.0,
    751.0,
    751.0,
    752.0,
    751.0,
    752.0,
    751.0,
    751.0,
    752.0,
    751.0,
    750.0,
    750.0,
    751.0,
    751.0,
    750.0,
    750.0,
    750.0,
    751.0,
    752.0,
    752.0,
    751.0,
    750.0,
    751.0,
    751.0,
    752.0,
    751.0,
    750.0,
    750.0,
    751.0,
    751.0,
    751.0,
    751.0,
    751.0,
    750.0,
    751.0,
    751.0,
    751.0,
    751.0,
    751.0,
    751.0,
    750.0,
    750.0,
    751.0,
    751.0,
    750.0,
    750.0,
    749.0,
    750.0,
    750.0,
    750.0,
    750.0,
    750.0,
    751.0,
    751.0,
    751.0,
    751.0,
    750.0,
    750.0,
    751.0,
    751.0,
    751.0,
    750.0,
    750.0,
    750.0,
    749.0,
    749.0,
    750.0,
    750.0,
    750.0,
    750.0,
    750.0,
    750.0,
    750.0,
    749.0,
    750.0,
    749.0,
    749.0,
    749.0,
    750.0,
    750.0,
    748.0,
    749.0,
    749.0,
    748.0,
    749.0,
    749.0,
    749.0,
    748.0,
    749.0,
    749.0,
    748.0,
    748.0,
    749.0,
    748.0,
    749.0,
    749.0,
    749.0,
    749.0,
    750.0,
    750.0,
    750.0,
    749.0,
    751.0,
    749.0,
    749.0,
    749.0,
    750.0,
    750.0,
    749.0,
    748.0,
    749.0,
    750.0,
    750.0,
    750.0,
    749.0,
    750.0,
    751.0,
    751.0,
    750.0,
    751.0,
    751.0,
    751.0,
    749.0,
    749.0,
    748.0,
    749.0,
    750.0,
    749.0
   ],
   "WindowWidth": [
    1634.0,
    1634.0,
    1635.0,
    1631.0,
    1627.0,
    1628.0,
    1626.0,
    1629.0,
    1628.0,
    1629.0,
    1631.0,
    1631.0,
    1632.0,
    1630.0,
    1629.0,
    1631.0,
    1632.0,
    1632.0,
    1632.0,
    1631.0,
    1629.0,
    1631.0,
    1630.0,
    1630.0,
    1630.0,
    1633.0,
    1631.0,
    1632.0,
    1632.0,
    1632.0,
    1632.0,
    1630.0,
    1627.0,
    1629.0,
    1630.0,
    1630.0,
    1629.0,
    1628.0,
    1626.0,
    1630.0,
    1634.0,
    1634.0,
    1631.0,
    1628.0,
    1629.0,
    1631.0,
    1632.0,
    1631.0,
    1628.0,
    1628.0,
    1629.0,
    1629.0,
    1630.0,
    1630.0,
    1629.0,
    1626.0,
    1629.0,
    1630.0,
    1631.0,
    1632.0,
    1631.0,
    1629.0,
    1627.0,
    1628.0,
    1630.0,
    1630.0,
    1628.0,
    1627.0,
    1626.0,
    1627.0,
    1629.0,
    1628.0,
    1628.0,
    1629.0,
    1630.0,
    1631.0,
    1631.0,
    1629.0,
    1627.0,
    1628.0,
    1630.0,
    1631.0,
    1630.0,
    1628.0,
    1628.0,
    1627.0,
    1625.0,
    1624.0,
    1628.0,
    1628.0,
    1629.0,
    1627.0,
    1627.0,
    1628.0,
    1627.0,
    1625.0,
    1627.0,
    1626.0,
    1624.0,
    1626.0,
    1629.0,
    1627.0,
    1623.0,
    1624.0,
    1623.0,
    1623.0,
    1624.0,
    1625.0,
    1624.0,
    1623.0,
    1625.0,
    1624.0,
    1623.0,
    1622.0,
    1625.0,
    1623.0,
    1624.0,
    1625.0,
    1625.0,
    1625.0,
    1627.0,
    1629.0,
    1628.0,
    1626.0,
    1629.0,
    1626.0,
    1624.0,
    1626.0,
    1627.0,
    1626.0,
    1624.0,
    1623.0,
    1624.0,
    1626.0,
    1627.0,
    1626.0,
    1624.0,
    1626.0,
    1628.0,
    1629.0,
    1628.0,
    1629.0,
    1629.0,
    1629.0,
    1626.0,
    1624.0,
    1623.0,
    1625.0,
    1627.0,
    1624.0
   ]
  },
  "slices": {}
 }
}