{
 "AcquisitionMatrixPE": 100,
 "AcquisitionNumber": 1,
 "AcquisitionTime": "12:09:45.090000",
 "BandwidthPerPixelPhaseEncode": 18.519,
 "BaseResolution": 100,
 "BodyPartExamined": "BRAIN",
 "ConsistencyInfo": "N4_VE11C_LATEST_20160120",
 "ConversionSoftware": "dcm2niix",
 "ConversionSoftwareVersion": "v1.0.20180622 GCC4.9.2",
 "DerivedVendorReportedEchoSpacing": 0.000539986,
 "DeviceSerialNumber": "166078",
 "DwellTime": 2.1e-06,
 "EchoTime": 0.034,
 "EchoTrainLength": 100,
 "EffectiveEchoSpacing": 0.000539986,
 "FlipAngle": 90,
 "ImageOrientationPatientDICOM": [
  1,
  -4.59504e-07,
  -1.24617e-05,
  4.6189e-08,
  0.999451,
  -0.0331466
 ],
 "ImageType": [
  "ORIGINAL",
  "PRIMARY",
  "M",
  "ND",
  "MOSAIC"
 ],
 "InPlanePhaseEncodingDirectionDICOM": "COL",
 "InstitutionAddress": "Street_StreetNo_Bei_Jing_District_CN_ZIP",
 "InstitutionName": "BeiJing_Normal_University",
 "InstitutionalDepartmentName": "Department",
 "MRAcquisitionType": "2D",
 "MagneticFieldStrength": 3,
 "Manufacturer": "Siemens",
 "ManufacturersModelName": "Prisma",
 "Modality": "MR",
 "MultibandAccelerationFactor": 3,
 "PartialFourier": 1,
 "PatientPosition": "HFS",
 "PercentPhaseFOV": 100,
 "PhaseEncodingDirection": "j-",
 "PhaseEncodingSteps": 100,
 "PhaseResolution": 1,
 "PixelBandwidth": 2380,
 "ProcedureStepDescription": "BNU_P2018_64CH_Zhen.ZongLei",
 "ProtocolName": "bold_100x100_s3_2x2x2_retino_150",
 "PulseSequenceDetails": "%SiemensSeq%_ep2d_bold",
 "ReceiveCoilActiveElements": "HC1-7;NC1",
 "ReceiveCoilName": "HeadNeck_64",
 "ReconMatrixPE": 100,
 "RepetitionTime": 2,
 "SAR": 0.0808055,
 "ScanOptions": "FS",
 "ScanningSequence": "EP",
 "SequenceName": "_epfid2d1_100",
 "SequenceVariant": "SK",
 "SeriesDescription": "bold_100x100_s3_2x2x2_retino_150",
 "SeriesNumber": 13,
 "ShimSetting": [
  -5467,
  -11522,
  -1299,
  496,
  -16,
  -246,
  -103,
  19
 ],
 "SliceThickness": 2,
 "SliceTiming": [
  1.485,
  0,
  0.99,
  0.0825,
  1.0725,
  0.165,
  1.155,
  0.2475,
  1.2375,
  0.33,
  1.32,
  0.4125,
  1.4025,
  0.5775,
  1.5675,
  0.66,
  1.65,
  0.7425,
  1.7325,
  0.825,
  1.815,
  0.9075,
  1.8975,
  0.495,
  1.485,
  0,
  0.99,
  0.0825,
  1.0725,
  0.165,
  1.155,
  0.2475,
  1.2375,
  0.33,
  1.32,
  0.4125,
  1.4025,
  0.5775,
  1.5675,
  0.66,
  1.65,
  0.7425,
  1.7325,
  0.825,
  1.815,
  0.9075,
  1.8975,
  0.495,
  1.485,
  0,
  0.99,
  0.0825,
  1.0725,
  0.165,
  1.155,
  0.2475,
  1.2375,
  0.33,
  1.32,
  0.4125,
  1.4025,
  0.5775,
  1.5675,
  0.66,
  1.65,
  0.7425,
  1.7325,
  0.825,
  1.815,
  0.9075,
  1.8975,
  0.495
 ],
 "SoftwareVersions": "syngo_MR_E11",
 "SpacingBetweenSlices": 2,
 "StationName": "AWP166078",
 "TaskName": "prf",
 "TotalReadoutTime": 0.0534586,
 "TxRefAmp": 214.219,
 "dcmmeta_affine": [
  [
   -2.0,
   9.237798792582907e-08,
   -2.494008731446229e-05,
   100.09884643554688
  ],
  [
   9.190073910758656e-07,
   1.9989010095596313,
   -0.06629329174757004,
   -95.54011535644531
  ],
  [
   -2.4923319870140404e-05,
   0.06629329174757004,
   1.9989010095596313,
   -63.81886672973633
  ],
  [
   0.0,
   0.0,
   0.0,
   1.0
  ]
 ],
 "dcmmeta_reorient_transform": [
  [
   0.0,
   -1.0,
   0.0,
   99.0
  ],
  [
   1.0,
   0.0,
   0.0,
   0.0
  ],
  [
   0.0,
   0.0,
   1.0,
   0.0
  ],
  [
   0.0,
   0.0,
   0.0,
   1.0
  ]
 ],
 "dcmmeta_shape": [
  100,
  100,
  72,
  150
 ],
 "dcmmeta_slice_dim": 2,
 "dcmmeta_version": 0.6,
 "global": {
  "const": {
   "AcquisitionMatrix": [
    100,
    0,
    0,
    100
   ],
   "AngioFlag": "N",
   "BitsAllocated": 16,
   "BitsStored": 12,
   "BodyPartExamined": "BRAIN",
   "Columns": 900,
   "EchoNumbers": 1,
   "EchoTime": 34.0,
   "EchoTrainLength": 100,
   "FlipAngle": 90.0,
   "HighBit": 11,
   "ImageOrientationPatient": [
    0.99999999992225,
    -4.595037e-07,
    -1.246166e-05,
    4.6188993e-08,
    0.99945049901382,
    -0.0331466441894
   ],
   "ImagePositionPatient": [
    -900.09889233151,
    -901.91111318248,
    -30.728547747005
   ],
   "ImageType": [
    "ORIGINAL",
    "PRIMARY",
    "M",
    "ND",
    "MOSAIC"
   ],
   "ImagedNucleus": "1H",
   "ImagingFrequency": 123.257763,
   "InPlanePhaseEncodingDirection": "COL",
   "MRAcquisitionType": "2D",
   "MagneticFieldStrength": 3.0,
   "Manufacturer": "SIEMENS",
   "ManufacturerModelName": "Prisma",
   "Modality": "MR",
   "NumberOfAverages": 1.0,
   "NumberOfPhaseEncodingSteps": 100,
   "PercentPhaseFieldOfView": 100.0,
   "PercentSampling": 100.0,
   "PerformedProcedureStepStartTime": "110417.131000",
   "PhotometricInterpretation": "MONOCHROME2",
   "PixelBandwidth": 2380.0,
   "PixelRepresentation": 0,
   "PixelSpacing": [
    2.0,
    2.0
   ],
   "ProtocolName": "bold_100x100_s3_2x2x2_retino_150",
   "RepetitionTime": 2000.0,
   "Rows": 900,
   "SAR": 0.08080550004819,
   "SamplesPerPixel": 1,
   "ScanOptions": "FS",
   "ScanningSequence": "EP",
   "SequenceName": "*epfid2d1_100",
   "SequenceVariant": "SK",
   "SeriesDescription": "bold_100x100_s3_2x2x2_retino_150",
   "SeriesNumber": 13,
   "SeriesTime": "120948.230000",
   "SliceLocation": -60.61821340579,
   "SliceThickness": 2.0,
   "SmallestImagePixelValue": 0,
   "SoftwareVersions": "syngo MR E11",
   "SpacingBetweenSlices": 1.9999999932748,
   "SpecificCharacterSet": "ISO_IR 100",
   "StudyID": "1",
   "StudyTime": "110417.034000",
   "TransmitCoilName": "Body",
   "VariableFlipAngleFlag": "N",
   "WindowCenterWidthExplanation": "Algo1",
   "dBdt": 0.0
  },
  "slices": {}
 },
 "time": {
  "samples": {
   "AcquisitionNumber": [
    1,
    2,
    3,
    4,
    5,
    6,
    7,
    8,
    9,
    10,
    11,
    12,
    13,
    14,
    15,
    16,
    17,
    18,
    19,
    20,
    21,
    22,
    23,
    24,
    25,
    26,
    27,
    28,
    29,
    30,
    31,
    32,
    33,
    34,
    35,
    36,
    37,
    38,
    39,
    40,
    41,
    42,
    43,
    44,
    45,
    46,
    47,
    48,
    49,
    50,
    51,
    52,
    53,
    54,
    55,
    56,
    57,
    58,
    59,
    60,
    61,
    62,
    63,
    64,
    65,
    66,
    67,
    68,
    69,
    70,
    71,
    72,
    73,
    74,
    75,
    76,
    77,
    78,
    79,
    80,
    81,
    82,
    83,
    84,
    85,
    86,
    87,
    88,
    89,
    90,
    91,
    92,
    93,
    94,
    95,
    96,
    97,
    98,
    99,
    100,
    101,
    102,
    103,
    104,
    105,
    106,
    107,
    108,
    109,
    110,
    111,
    112,
    113,
    114,
    115,
    116,
    117,
    118,
    119,
    120,
    121,
    122,
    123,
    124,
    125,
    126,
    127,
    128,
    129,
    130,
    131,
    132,
    133,
    134,
    135,
    136,
    137,
    138,
    139,
    140,
    141,
    142,
    143,
    144,
    145,
    146,
    147,
    148,
    149,
    150
   ],
   "AcquisitionTime": [
    "120945.090000",
    "120947.090000",
    "120949.090000",
    "120951.090000",
    "120953.090000",
    "120955.090000",
    "120957.090000",
    "120959.090000",
    "121001.090000",
    "121003.090000",
    "121005.090000",
    "121007.090000",
    "121009.090000",
    "121011.090000",
    "121013.090000",
    "121015.090000",
    "121017.090000",
    "121019.090000",
    "121021.090000",
    "121023.090000",
    "121025.090000",
    "121027.090000",
    "121029.090000",
    "121031.090000",
    "121033.090000",
    "121035.090000",
    "121037.090000",
    "121039.090000",
    "121041.090000",
    "121043.090000",
    "121045.090000",
    "121047.090000",
    "121049.090000",
    "121051.090000",
    "121053.090000",
    "121055.090000",
    "121057.090000",
    "121059.090000",
    "121101.090000",
    "121103.090000",
    "121105.090000",
    "121107.090000",
    "121109.090000",
    "121111.090000",
    "121113.090000",
    "121115.090000",
    "121117.090000",
    "121119.090000",
    "121121.090000",
    "121123.090000",
    "121125.090000",
    "121127.090000",
    "121129.090000",
    "121131.090000",
    "121133.090000",
    "121135.090000",
    "121137.090000",
    "121139.090000",
    "121141.090000",
    "121143.090000",
    "121145.090000",
    "121147.090000",
    "121149.090000",
    "121151.090000",
    "121153.090000",
    "121155.090000",
    "121157.090000",
    "121159.090000",
    "121201.090000",
    "121203.090000",
    "121205.090000",
    "121207.090000",
    "121209.090000",
    "121211.090000",
    "121213.090000",
    "121215.090000",
    "121217.090000",
    "121219.090000",
    "121221.090000",
    "121223.090000",
    "121225.090000",
    "121227.090000",
    "121229.090000",
    "121231.090000",
    "121233.090000",
    "121235.090000",
    "121237.090000",
    "121239.090000",
    "121241.090000",
    "121243.090000",
    "121245.090000",
    "121247.090000",
    "121249.090000",
    "121251.090000",
    "121253.090000",
    "121255.090000",
    "121257.090000",
    "121259.090000",
    "121301.090000",
    "121303.090000",
    "121305.090000",
    "121307.090000",
    "121309.090000",
    "121311.090000",
    "121313.090000",
    "121315.090000",
    "121317.090000",
    "121319.090000",
    "121321.090000",
    "121323.090000",
    "121325.090000",
    "121327.090000",
    "121329.090000",
    "121331.090000",
    "121333.090000",
    "121335.090000",
    "121337.090000",
    "121339.090000",
    "121341.090000",
    "121343.090000",
    "121345.090000",
    "121347.090000",
    "121349.090000",
    "121351.090000",
    "121353.090000",
    "121355.090000",
    "121357.090000",
    "121359.090000",
    "121401.090000",
    "121403.090000",
    "121405.090000",
    "121407.090000",
    "121409.090000",
    "121411.090000",
    "121413.090000",
    "121415.090000",
    "121417.090000",
    "121419.090000",
    "121421.090000",
    "121423.090000",
    "121425.090000",
    "121427.090000",
    "121429.090000",
    "121431.090000",
    "121433.090000",
    "121435.090000",
    "121437.090000",
    "121439.090000",
    "121441.090000",
    "121443.090000"
   ],
   "ContentTime": [
    "120948.233000",
    "120949.229000",
    "120951.728000",
    "120953.729000",
    "120955.727000",
    "120957.727000",
    "120959.727000",
    "121001.727000",
    "121003.228000",
    "121005.729000",
    "121007.728000",
    "121009.729000",
    "121011.728000",
    "121013.727000",
    "121015.727000",
    "121017.727000",
    "121019.727000",
    "121021.728000",
    "121023.729000",
    "121025.729000",
    "121027.728000",
    "121029.728000",
    "121031.728000",
    "121033.728000",
    "121035.727000",
    "121037.728000",
    "121039.728000",
    "121041.728000",
    "121043.728000",
    "121045.729000",
    "121047.727000",
    "121049.727000",
    "121051.227000",
    "121053.728000",
    "121055.728000",
    "121057.729000",
    "121059.729000",
    "121101.728000",
    "121103.729000",
    "121105.727000",
    "121107.728000",
    "121109.728000",
    "121111.727000",
    "121113.729000",
    "121115.229000",
    "121117.728000",
    "121119.729000",
    "121121.728000",
    "121123.728000",
    "121125.727000",
    "121127.727000",
    "121129.727000",
    "121131.228000",
    "121133.728000",
    "121135.728000",
    "121137.229000",
    "121139.729000",
    "121141.727000",
    "121143.727000",
    "121145.727000",
    "121147.727000",
    "121149.728000",
    "121151.729000",
    "121153.728000",
    "121155.729000",
    "121157.728000",
    "121159.727000",
    "121201.728000",
    "121203.727000",
    "121205.728000",
    "121207.729000",
    "121209.728000",
    "121211.729000",
    "121213.729000",
    "121215.727000",
    "121217.228000",
    "121219.727000",
    "121221.728000",
    "121223.728000",
    "121225.728000",
    "121227.728000",
    "121229.728000",
    "121231.729000",
    "121233.727000",
    "121235.727000",
    "121237.727000",
    "121239.728000",
    "121241.729000",
    "121243.728000",
    "121245.729000",
    "121247.728000",
    "121249.729000",
    "121251.727000",
    "121253.728000",
    "121255.728000",
    "121257.227000",
    "121259.729000",
    "121301.228000",
    "121303.729000",
    "121305.728000",
    "121307.727000",
    "121309.728000",
    "121311.728000",
    "121313.727000",
    "121315.728000",
    "121317.729000",
    "121319.729000",
    "121321.729000",
    "121323.728000",
    "121325.727000",
    "121327.727000",
    "121329.727000",
    "121331.727000",
    "121333.728000",
    "121335.728000",
    "121337.728000",
    "121339.728000",
    "121341.229000",
    "121343.727000",
    "121345.728000",
    "121347.728000",
    "121349.727000",
    "121351.728000",
    "121353.729000",
    "121355.729000",
    "121357.728000",
    "121359.728000",
    "121401.728000",
    "121403.727000",
    "121405.727000",
    "121407.728000",
    "121409.728000",
    "121411.729000",
    "121413.729000",
    "121415.728000",
    "121417.728000",
    "121419.728000",
    "121421.728000",
    "121423.727000",
    "121425.227000",
    "121427.228000",
    "121429.729000",
    "121431.729000",
    "121433.729000",
    "121435.728000",
    "121437.727000",
    "121439.727000",
    "121441.727000",
    "121443.729000",
    "121445.248000"
   ],
   "InstanceCreationTime": [
    "120948.233000",
    "120949.229000",
    "120951.728000",
    "120953.729000",
    "120955.727000",
    "120957.727000",
    "120959.727000",
    "121001.727000",
    "121003.228000",
    "121005.729000",
    "121007.728000",
    "121009.729000",
    "121011.728000",
    "121013.727000",
    "121015.727000",
    "121017.727000",
    "121019.727000",
    "121021.728000",
    "121023.729000",
    "121025.729000",
    "121027.728000",
    "121029.728000",
    "121031.728000",
    "121033.728000",
    "121035.727000",
    "121037.728000",
    "121039.728000",
    "121041.728000",
    "121043.728000",
    "121045.729000",
    "121047.727000",
    "121049.727000",
    "121051.227000",
    "121053.728000",
    "121055.728000",
    "121057.729000",
    "121059.729000",
    "121101.728000",
    "121103.729000",
    "121105.727000",
    "121107.728000",
    "121109.728000",
    "121111.727000",
    "121113.729000",
    "121115.229000",
    "121117.728000",
    "121119.729000",
    "121121.728000",
    "121123.728000",
    "121125.727000",
    "121127.727000",
    "121129.727000",
    "121131.228000",
    "121133.728000",
    "121135.728000",
    "121137.229000",
    "121139.729000",
    "121141.727000",
    "121143.727000",
    "121145.727000",
    "121147.727000",
    "121149.728000",
    "121151.729000",
    "121153.728000",
    "121155.729000",
    "121157.728000",
    "121159.727000",
    "121201.728000",
    "121203.727000",
    "121205.728000",
    "121207.729000",
    "121209.728000",
    "121211.729000",
    "121213.729000",
    "121215.727000",
    "121217.228000",
    "121219.727000",
    "121221.728000",
    "121223.728000",
    "121225.728000",
    "121227.728000",
    "121229.728000",
    "121231.729000",
    "121233.727000",
    "121235.727000",
    "121237.727000",
    "121239.728000",
    "121241.729000",
    "121243.728000",
    "121245.729000",
    "121247.728000",
    "121249.729000",
    "121251.727000",
    "121253.728000",
    "121255.728000",
    "121257.227000",
    "121259.729000",
    "121301.228000",
    "121303.729000",
    "121305.728000",
    "121307.727000",
    "121309.728000",
    "121311.728000",
    "121313.727000",
    "121315.728000",
    "121317.729000",
    "121319.729000",
    "121321.729000",
    "121323.728000",
    "121325.727000",
    "121327.727000",
    "121329.727000",
    "121331.727000",
    "121333.728000",
    "121335.728000",
    "121337.728000",
    "121339.728000",
    "121341.229000",
    "121343.727000",
    "121345.728000",
    "121347.728000",
    "121349.727000",
    "121351.728000",
    "121353.729000",
    "121355.729000",
    "121357.728000",
    "121359.728000",
    "121401.728000",
    "121403.727000",
    "121405.727000",
    "121407.728000",
    "121409.728000",
    "121411.729000",
    "121413.729000",
    "121415.728000",
    "121417.728000",
    "121419.728000",
    "121421.728000",
    "121423.727000",
    "121425.227000",
    "121427.228000",
    "121429.729000",
    "121431.729000",
    "121433.729000",
    "121435.728000",
    "121437.727000",
    "121439.727000",
    "121441.727000",
    "121443.729000",
    "121445.248000"
   ],
   "InstanceNumber": [
    1,
    2,
    3,
    4,
    5,
    6,
    7,
    8,
    9,
    10,
    11,
    12,
    13,
    14,
    15,
    16,
    17,
    18,
    19,
    20,
    21,
    22,
    23,
    24,
    25,
    26,
    27,
    28,
    29,
    30,
    31,
    32,
    33,
    34,
    35,
    36,
    37,
    38,
    39,
    40,
    41,
    42,
    43,
    44,
    45,
    46,
    47,
    48,
    49,
    50,
    51,
    52,
    53,
    54,
    55,
    56,
    57,
    58,
    59,
    60,
    61,
    62,
    63,
    64,
    65,
    66,
    67,
    68,
    69,
    70,
    71,
    72,
    73,
    74,
    75,
    76,
    77,
    78,
    79,
    80,
    81,
    82,
    83,
    84,
    85,
    86,
    87,
    88,
    89,
    90,
    91,
    92,
    93,
    94,
    95,
    96,
    97,
    98,
    99,
    100,
    101,
    102,
    103,
    104,
    105,
    106,
    107,
    108,
    109,
    110,
    111,
    112,
    113,
    114,
    115,
    116,
    117,
    118,
    119,
    120,
    121,
    122,
    123,
    124,
    125,
    126,
    127,
    128,
    129,
    130,
    131,
    132,
    133,
    134,
    135,
    136,
    137,
    138,
    139,
    140,
    141,
    142,
    143,
    144,
    145,
    146,
    147,
    148,
    149,
    150
   ],
   "LargestImagePixelValue": [
    3235,
    3151,
    3165,
    3175,
    3156,
    3048,
    3022,
    3024,
    2982,
    3005,
    3009,
    2989,
    3004,
    3009,
    3005,
    3013,
    2991,
    3033,
    3025,
    3050,
    3071,
    3022,
    3044,
    3035,
    3059,
    3044,
    3083,
    3017,
    3043,
    3029,
    3042,
    3040,
    3024,
    3025,
    3000,
    3018,
    3023,
    3008,
    3016,
    2995,
    3019,
    2973,
    3002,
    2984,
    2992,
    2992,
    2998,
    2979,
    3018,
    2990,
    2996,
    3006,
    2993,
    3014,
    2987,
    3018,
    3007,
    3002,
    3003,
    3002,
    3009,
    3014,
    3012,
    3019,
    3004,
    3002,
    3027,
    3026,
    3009,
    2991,
    2994,
    3053,
    3029,
    3027,
    3007,
    3008,
    3012,
    3007,
    3014,
    3025,
    3035,
    3019,
    3034,
    3003,
    3021,
    3013,
    3006,
    3009,
    3050,
    3044,
    3070,
    3030,
    3042,
    3030,
    3049,
    3045,
    3027,
    3042,
    3058,
    3055,
    3049,
    3055,
    3048,
    3035,
    3059,
    3053,
    3074,
    3064,
    3047,
    3085,
    3062,
    3080,
    3069,
    3092,
    3095,
    3097,
    3058,
    3078,
    3072,
    3052,
    3072,
    3055,
    3036,
    3102,
    3080,
    3099,
    3117,
    3089,
    3060,
    3100,
    3097,
    3119,
    3088,
    3040,
    3082,
    3067,
    3079,
    3017,
    3069,
    3003,
    3057,
    3051,
    3085,
    3072,
    3061,
    3062,
    3081,
    3065,
    3068,
    3049
   ],
   "WindowCenter": [
    751.0,
    750.0,
    749.0,
    751.0,
    751.0,
    750.0,
    750.0,
    750.0,
    750.0,
    751.0,
    751.0,
    750.0,
    750.0,
    750.0,
    750.0,
    751.0,
    751.0,
    751.0,
    751.0,
    752.0,
    753.0,
    751.0,
    751.0,
    750.0,
    751.0,
    752.0,
    752.0,
    751.0,
    750.0,
    750.0,
    749.0,
    750.0,
    749.0,
    750.0,
    751.0,
    751.0,
    750.0,
    751.0,
    751.0,
    750.0,
    750.0,
    750.0,
    751.0,
    751.0,
    751.0,
    751.0,
    750.0,
    751.0,
    751.0,
    751.0,
    750.0,
    750.0,
    750.0,
    751.0,
    751.0,
    752.0,
    751.0,
    750.0,
    750.0,
    750.0,
    752.0,
    752.0,
    751.0,
    751.0,
    750.0,
    750.0,
    750.0,
    750.0,
    750.0,
    750.0,
    750.0,
    749.0,
    748.0,
    748.0,
    749.0,
    750.0,
    750.0,
    751.0,
    751.0,
    751.0,
    750.0,
    751.0,
    752.0,
    750.0,
    749.0,
    748.0,
    749.0,
    749.0,
    750.0,
    750.0,
    751.0,
    752.0,
    751.0,
    750.0,
    749.0,
    750.0,
    751.0,
    752.0,
    751.0,
    750.0,
    749.0,
    750.0,
    751.0,
    751.0,
    751.0,
    750.0,
    751.0,
    751.0,
    752.0,
    753.0,
    752.0,
    751.0,
    751.0,
    750.0,
    751.0,
    751.0,
    751.0,
    751.0,
    752.0,
    755.0,
    754.0,
    752.0,
    750.0,
    750.0,
    750.0,
    752.0,
    753.0,
    752.0,
    751.0,
    751.0,
    751.0,
    752.0,
    751.0,
    751.0,
    751.0,
    751.0,
    750.0,
    749.0,
    751.0,
    751.0,
    751.0,
    751.0,
    751.0,
    750.0,
    750.0,
    751.0,
    751.0,
    750.0,
    750.0,
    750.0
   ],
   "WindowWidth": [
    1631.0,
    1627.0,
    1626.0,
    1629.0,
    1629.0,
    1629.0,
    1628.0,
    1629.0,
    1628.0,
    1629.0,
    1630.0,
    1628.0,
    1629.0,
    1627.0,
    1628.0,
    1632.0,
    1632.0,
    1630.0,
    1631.0,
    1633.0,
    1636.0,
    1631.0,
    1629.0,
    1628.0,
    1630.0,
    1634.0,
    1634.0,
    1631.0,
    1628.0,
    1627.0,
    1626.0,
    1627.0,
    1626.0,
    1629.0,
    1630.0,
    1630.0,
    1628.0,
    1630.0,
    1630.0,
    1629.0,
    1629.0,
    1629.0,
    1631.0,
    1631.0,
    1630.0,
    1629.0,
    1628.0,
    1630.0,
    1631.0,
    1630.0,
    1629.0,
    1627.0,
    1627.0,
    1631.0,
    1631.0,
    1634.0,
    1632.0,
    1629.0,
    1627.0,
    1628.0,
    1633.0,
    1634.0,
    1632.0,
    1631.0,
    1627.0,
    1628.0,
    1627.0,
    1628.0,
    1628.0,
    1628.0,
    1627.0,
    1625.0,
    1622.0,
    1623.0,
    1625.0,
    1628.0,
    1629.0,
    1630.0,
    1631.0,
    1631.0,
    1628.0,
    1630.0,
    1632.0,
    1627.0,
    1625.0,
    1622.0,
    1624.0,
    1626.0,
    1628.0,
    1627.0,
    1630.0,
    1632.0,
    1630.0,
    1628.0,
    1626.0,
    1628.0,
    1631.0,
    1632.0,
    1629.0,
    1627.0,
    1625.0,
    1626.0,
    1629.0,
    1630.0,
    1630.0,
    1626.0,
    1629.0,
    1631.0,
    1633.0,
    1635.0,
    1634.0,
    1631.0,
    1629.0,
    1627.0,
    1629.0,
    1631.0,
    1630.0,
    1629.0,
    1634.0,
    1643.0,
    1639.0,
    1632.0,
    1627.0,
    1627.0,
    1628.0,
    1634.0,
    1636.0,
    1631.0,
    1629.0,
    1629.0,
    1629.0,
    1632.0,
    1631.0,
    1630.0,
    1631.0,
    1629.0,
    1627.0,
    1626.0,
    1630.0,
    1629.0,
    1630.0,
    1630.0,
    1630.0,
    1627.0,
    1626.0,
    1630.0,
    1629.0,
    1628.0,
    1628.0,
    1629.0
   ]
  },
  "slices": {}
 }
}