{
 "AcquisitionMatrixPE": 100,
 "AcquisitionNumber": 1,
 "AcquisitionTime": "12:03:8.215000",
 "BandwidthPerPixelPhaseEncode": 18.519,
 "BaseResolution": 100,
 "BodyPartExamined": "BRAIN",
 "ConsistencyInfo": "N4_VE11C_LATEST_20160120",
 "ConversionSoftware": "dcm2niix",
 "ConversionSoftwareVersion": "v1.0.20180622 GCC4.9.2",
 "DerivedVendorReportedEchoSpacing": 0.000539986,
 "DeviceSerialNumber": "166078",
 "DwellTime": 2.1e-06,
 "EchoTime": 0.034,
 "EchoTrainLength": 100,
 "EffectiveEchoSpacing": 0.000539986,
 "FlipAngle": 90,
 "ImageOrientationPatientDICOM": [
  1,
  -4.59504e-07,
  -1.24617e-05,
  4.6189e-08,
  0.999451,
  -0.0331466
 ],
 "ImageType": [
  "ORIGINAL",
  "PRIMARY",
  "M",
  "ND",
  "MOSAIC"
 ],
 "InPlanePhaseEncodingDirectionDICOM": "COL",
 "InstitutionAddress": "Street_StreetNo_Bei_Jing_District_CN_ZIP",
 "InstitutionName": "BeiJing_Normal_University",
 "InstitutionalDepartmentName": "Department",
 "MRAcquisitionType": "2D",
 "MagneticFieldStrength": 3,
 "Manufacturer": "Siemens",
 "ManufacturersModelName": "Prisma",
 "Modality": "MR",
 "MultibandAccelerationFactor": 3,
 "PartialFourier": 1,
 "PatientPosition": "HFS",
 "PercentPhaseFOV": 100,
 "PhaseEncodingDirection": "j-",
 "PhaseEncodingSteps": 100,
 "PhaseResolution": 1,
 "PixelBandwidth": 2380,
 "ProcedureStepDescription": "BNU_P2018_64CH_Zhen.ZongLei",
 "ProtocolName": "bold_100x100_s3_2x2x2_retino_150",
 "PulseSequenceDetails": "%SiemensSeq%_ep2d_bold",
 "ReceiveCoilActiveElements": "HC1-7;NC1",
 "ReceiveCoilName": "HeadNeck_64",
 "ReconMatrixPE": 100,
 "RepetitionTime": 2,
 "SAR": 0.0808055,
 "ScanOptions": "FS",
 "ScanningSequence": "EP",
 "SequenceName": "_epfid2d1_100",
 "SequenceVariant": "SK",
 "SeriesDescription": "bold_100x100_s3_2x2x2_retino_150",
 "SeriesNumber": 12,
 "ShimSetting": [
  -5467,
  -11522,
  -1299,
  496,
  -16,
  -246,
  -103,
  19
 ],
 "SliceThickness": 2,
 "SliceTiming": [
  1.485,
  0,
  0.99,
  0.0825,
  1.0725,
  0.165,
  1.155,
  0.2475,
  1.2375,
  0.33,
  1.32,
  0.4125,
  1.4025,
  0.5775,
  1.5675,
  0.66,
  1.65,
  0.7425,
  1.7325,
  0.825,
  1.815,
  0.9075,
  1.8975,
  0.495,
  1.485,
  0,
  0.99,
  0.0825,
  1.0725,
  0.165,
  1.155,
  0.2475,
  1.2375,
  0.33,
  1.32,
  0.4125,
  1.4025,
  0.5775,
  1.5675,
  0.66,
  1.65,
  0.7425,
  1.7325,
  0.825,
  1.815,
  0.9075,
  1.8975,
  0.495,
  1.485,
  0,
  0.99,
  0.0825,
  1.0725,
  0.165,
  1.155,
  0.2475,
  1.2375,
  0.33,
  1.32,
  0.4125,
  1.4025,
  0.5775,
  1.5675,
  0.66,
  1.65,
  0.7425,
  1.7325,
  0.825,
  1.815,
  0.9075,
  1.8975,
  0.495
 ],
 "SoftwareVersions": "syngo_MR_E11",
 "SpacingBetweenSlices": 2,
 "StationName": "AWP166078",
 "TaskName": "prf",
 "TotalReadoutTime": 0.0534586,
 "TxRefAmp": 214.219,
 "dcmmeta_affine": [
  [
   -2.0,
   9.237798792582907e-08,
   -2.494008731446229e-05,
   100.09884643554688
  ],
  [
   9.190073910758656e-07,
   1.9989010095596313,
   -0.06629329174757004,
   -95.54011535644531
  ],
  [
   -2.4923319870140404e-05,
   0.06629329174757004,
   1.9989010095596313,
   -63.81886672973633
  ],
  [
   0.0,
   0.0,
   0.0,
   1.0
  ]
 ],
 "dcmmeta_reorient_transform": [
  [
   0.0,
   -1.0,
   0.0,
   99.0
  ],
  [
   1.0,
   0.0,
   0.0,
   0.0
  ],
  [
   0.0,
   0.0,
   1.0,
   0.0
  ],
  [
   0.0,
   0.0,
   0.0,
   1.0
  ]
 ],
 "dcmmeta_shape": [
  100,
  100,
  72,
  150
 ],
 "dcmmeta_slice_dim": 2,
 "dcmmeta_version": 0.6,
 "global": {
  "const": {
   "AcquisitionMatrix": [
    100,
    0,
    0,
    100
   ],
   "AngioFlag": "N",
   "BitsAllocated": 16,
   "BitsStored": 12,
   "BodyPartExamined": "BRAIN",
   "Columns": 900,
   "EchoNumbers": 1,
   "EchoTime": 34.0,
   "EchoTrainLength": 100,
   "FlipAngle": 90.0,
   "HighBit": 11,
   "ImageOrientationPatient": [
    0.99999999992225,
    -4.595037e-07,
    -1.246166e-05,
    4.6188993e-08,
    0.99945049901382,
    -0.0331466441894
   ],
   "ImagePositionPatient": [
    -900.09889233151,
    -901.91111318248,
    -30.728547747005
   ],
   "ImageType": [
    "ORIGINAL",
    "PRIMARY",
    "M",
    "ND",
    "MOSAIC"
   ],
   "ImagedNucleus": "1H",
   "ImagingFrequency": 123.257759,
   "InPlanePhaseEncodingDirection": "COL",
   "MRAcquisitionType": "2D",
   "MagneticFieldStrength": 3.0,
   "Manufacturer": "SIEMENS",
   "ManufacturerModelName": "Prisma",
   "Modality": "MR",
   "NumberOfAverages": 1.0,
   "NumberOfPhaseEncodingSteps": 100,
   "PercentPhaseFieldOfView": 100.0,
   "PercentSampling": 100.0,
   "PerformedProcedureStepStartTime": "110417.131000",
   "PhotometricInterpretation": "MONOCHROME2",
   "PixelBandwidth": 2380.0,
   "PixelRepresentation": 0,
   "PixelSpacing": [
    2.0,
    2.0
   ],
   "ProtocolName": "bold_100x100_s3_2x2x2_retino_150",
   "RepetitionTime": 2000.0,
   "Rows": 900,
   "SAR": 0.08080550004819,
   "SamplesPerPixel": 1,
   "ScanOptions": "FS",
   "ScanningSequence": "EP",
   "SequenceName": "*epfid2d1_100",
   "SequenceVariant": "SK",
   "SeriesDescription": "bold_100x100_s3_2x2x2_retino_150",
   "SeriesNumber": 12,
   "SeriesTime": "120311.004000",
   "SliceLocation": -60.61821340579,
   "SliceThickness": 2.0,
   "SmallestImagePixelValue": 0,
   "SoftwareVersions": "syngo MR E11",
   "SpacingBetweenSlices": 1.9999999932748,
   "SpecificCharacterSet": "ISO_IR 100",
   "StudyID": "1",
   "StudyTime": "110417.034000",
   "TransmitCoilName": "Body",
   "VariableFlipAngleFlag": "N",
   "WindowCenterWidthExplanation": "Algo1",
   "dBdt": 0.0
  },
  "slices": {}
 },
 "time": {
  "samples": {
   "AcquisitionNumber": [
    1,
    2,
    3,
    4,
    5,
    6,
    7,
    8,
    9,
    10,
    11,
    12,
    13,
    14,
    15,
    16,
    17,
    18,
    19,
    20,
    21,
    22,
    23,
    24,
    25,
    26,
    27,
    28,
    29,
    30,
    31,
    32,
    33,
    34,
    35,
    36,
    37,
    38,
    39,
    40,
    41,
    42,
    43,
    44,
    45,
    46,
    47,
    48,
    49,
    50,
    51,
    52,
    53,
    54,
    55,
    56,
    57,
    58,
    59,
    60,
    61,
    62,
    63,
    64,
    65,
    66,
    67,
    68,
    69,
    70,
    71,
    72,
    73,
    74,
    75,
    76,
    77,
    78,
    79,
    80,
    81,
    82,
    83,
    84,
    85,
    86,
    87,
    88,
    89,
    90,
    91,
    92,
    93,
    94,
    95,
    96,
    97,
    98,
    99,
    100,
    101,
    102,
    103,
    104,
    105,
    106,
    107,
    108,
    109,
    110,
    111,
    112,
    113,
    114,
    115,
    116,
    117,
    118,
    119,
    120,
    121,
    122,
    123,
    124,
    125,
    126,
    127,
    128,
    129,
    130,
    131,
    132,
    133,
    134,
    135,
    136,
    137,
    138,
    139,
    140,
    141,
    142,
    143,
    144,
    145,
    146,
    147,
    148,
    149,
    150
   ],
   "AcquisitionTime": [
    "120308.215000",
    "120310.215000",
    "120312.215000",
    "120314.215000",
    "120316.215000",
    "120318.215000",
    "120320.215000",
    "120322.215000",
    "120324.215000",
    "120326.215000",
    "120328.215000",
    "120330.215000",
    "120332.215000",
    "120334.215000",
    "120336.215000",
    "120338.215000",
    "120340.215000",
    "120342.215000",
    "120344.215000",
    "120346.215000",
    "120348.215000",
    "120350.215000",
    "120352.215000",
    "120354.215000",
    "120356.215000",
    "120358.215000",
    "120400.215000",
    "120402.215000",
    "120404.215000",
    "120406.215000",
    "120408.215000",
    "120410.215000",
    "120412.215000",
    "120414.215000",
    "120416.215000",
    "120418.215000",
    "120420.215000",
    "120422.215000",
    "120424.215000",
    "120426.215000",
    "120428.215000",
    "120430.215000",
    "120432.215000",
    "120434.215000",
    "120436.215000",
    "120438.215000",
    "120440.215000",
    "120442.215000",
    "120444.215000",
    "120446.215000",
    "120448.215000",
    "120450.215000",
    "120452.215000",
    "120454.215000",
    "120456.215000",
    "120458.215000",
    "120500.215000",
    "120502.215000",
    "120504.215000",
    "120506.215000",
    "120508.215000",
    "120510.215000",
    "120512.215000",
    "120514.215000",
    "120516.215000",
    "120518.215000",
    "120520.215000",
    "120522.215000",
    "120524.215000",
    "120526.215000",
    "120528.215000",
    "120530.215000",
    "120532.215000",
    "120534.215000",
    "120536.215000",
    "120538.215000",
    "120540.215000",
    "120542.215000",
    "120544.215000",
    "120546.215000",
    "120548.215000",
    "120550.215000",
    "120552.215000",
    "120554.215000",
    "120556.215000",
    "120558.215000",
    "120600.215000",
    "120602.215000",
    "120604.215000",
    "120606.215000",
    "120608.215000",
    "120610.215000",
    "120612.215000",
    "120614.215000",
    "120616.215000",
    "120618.215000",
    "120620.215000",
    "120622.215000",
    "120624.215000",
    "120626.215000",
    "120628.215000",
    "120630.215000",
    "120632.215000",
    "120634.215000",
    "120636.215000",
    "120638.215000",
    "120640.215000",
    "120642.215000",
    "120644.215000",
    "120646.215000",
    "120648.215000",
    "120650.215000",
    "120652.215000",
    "120654.215000",
    "120656.215000",
    "120658.215000",
    "120700.215000",
    "120702.215000",
    "120704.215000",
    "120706.215000",
    "120708.215000",
    "120710.215000",
    "120712.215000",
    "120714.215000",
    "120716.215000",
    "120718.215000",
    "120720.215000",
    "120722.215000",
    "120724.215000",
    "120726.215000",
    "120728.215000",
    "120730.215000",
    "120732.215000",
    "120734.215000",
    "120736.215000",
    "120738.215000",
    "120740.215000",
    "120742.215000",
    "120744.215000",
    "120746.215000",
    "120748.215000",
    "120750.215000",
    "120752.215000",
    "120754.215000",
    "120756.215000",
    "120758.215000",
    "120800.215000",
    "120802.215000",
    "120804.215000",
    "120806.215000"
   ],
   "ContentTime": [
    "120311.008000",
    "120312.503000",
    "120314.503000",
    "120316.503000",
    "120318.502000",
    "120320.502000",
    "120322.504000",
    "120324.503000",
    "120326.504000",
    "120328.504000",
    "120330.504000",
    "120332.504000",
    "120334.503000",
    "120336.503000",
    "120338.503000",
    "120340.504000",
    "120342.503000",
    "120344.503000",
    "120346.504000",
    "120348.503000",
    "120350.503000",
    "120352.504000",
    "120354.503000",
    "120356.503000",
    "120358.504000",
    "120400.503000",
    "120402.504000",
    "120404.503000",
    "120406.503000",
    "120408.503000",
    "120410.503000",
    "120412.502000",
    "120414.504000",
    "120416.504000",
    "120418.503000",
    "120420.504000",
    "120422.504000",
    "120424.504000",
    "120426.504000",
    "120428.503000",
    "120430.503000",
    "120432.503000",
    "120434.503000",
    "120436.503000",
    "120438.503000",
    "120440.503000",
    "120442.503000",
    "120444.504000",
    "120446.503000",
    "120448.503000",
    "120450.504000",
    "120452.504000",
    "120454.503000",
    "120456.503000",
    "120458.503000",
    "120500.504000",
    "120502.503000",
    "120504.502000",
    "120506.504000",
    "120508.504000",
    "120510.504000",
    "120512.503000",
    "120514.503000",
    "120516.503000",
    "120518.503000",
    "120520.503000",
    "120522.502000",
    "120524.504000",
    "120526.504000",
    "120528.504000",
    "120530.504000",
    "120532.504000",
    "120534.503000",
    "120536.503000",
    "120538.502000",
    "120540.503000",
    "120542.504000",
    "120544.503000",
    "120546.504000",
    "120548.503000",
    "120550.504000",
    "120552.504000",
    "120554.504000",
    "120556.503000",
    "120558.503000",
    "120600.504000",
    "120602.504000",
    "120604.503000",
    "120606.503000",
    "120608.504000",
    "120610.503000",
    "120612.504000",
    "120614.503000",
    "120616.504000",
    "120618.503000",
    "120620.503000",
    "120622.504000",
    "120624.503000",
    "120626.503000",
    "120628.504000",
    "120630.502000",
    "120632.503000",
    "120634.503000",
    "120636.503000",
    "120638.504000",
    "120640.503000",
    "120642.503000",
    "120644.503000",
    "120646.504000",
    "120648.502000",
    "120650.503000",
    "120652.503000",
    "120654.504000",
    "120656.504000",
    "120658.503000",
    "120700.503000",
    "120702.504000",
    "120704.504000",
    "120706.503000",
    "120708.503000",
    "120710.504000",
    "120712.504000",
    "120714.503000",
    "120716.503000",
    "120718.503000",
    "120720.503000",
    "120722.503000",
    "120724.503000",
    "120726.504000",
    "120728.503000",
    "120730.504000",
    "120732.503000",
    "120734.503000",
    "120736.504000",
    "120738.503000",
    "120740.503000",
    "120742.502000",
    "120744.503000",
    "120746.504000",
    "120748.504000",
    "120750.503000",
    "120752.504000",
    "120754.503000",
    "120756.504000",
    "120758.502000",
    "120800.503000",
    "120802.503000",
    "120804.504000",
    "120806.503000",
    "120808.155000"
   ],
   "InstanceCreationTime": [
    "120311.008000",
    "120312.503000",
    "120314.503000",
    "120316.503000",
    "120318.502000",
    "120320.502000",
    "120322.504000",
    "120324.503000",
    "120326.504000",
    "120328.504000",
    "120330.504000",
    "120332.504000",
    "120334.503000",
    "120336.503000",
    "120338.503000",
    "120340.504000",
    "120342.503000",
    "120344.503000",
    "120346.504000",
    "120348.503000",
    "120350.503000",
    "120352.504000",
    "120354.503000",
    "120356.503000",
    "120358.504000",
    "120400.503000",
    "120402.504000",
    "120404.503000",
    "120406.503000",
    "120408.503000",
    "120410.503000",
    "120412.502000",
    "120414.504000",
    "120416.504000",
    "120418.503000",
    "120420.504000",
    "120422.504000",
    "120424.504000",
    "120426.504000",
    "120428.503000",
    "120430.503000",
    "120432.503000",
    "120434.503000",
    "120436.503000",
    "120438.503000",
    "120440.503000",
    "120442.503000",
    "120444.504000",
    "120446.503000",
    "120448.503000",
    "120450.504000",
    "120452.504000",
    "120454.503000",
    "120456.503000",
    "120458.503000",
    "120500.504000",
    "120502.503000",
    "120504.502000",
    "120506.504000",
    "120508.504000",
    "120510.504000",
    "120512.503000",
    "120514.503000",
    "120516.503000",
    "120518.503000",
    "120520.503000",
    "120522.502000",
    "120524.504000",
    "120526.504000",
    "120528.504000",
    "120530.504000",
    "120532.504000",
    "120534.503000",
    "120536.503000",
    "120538.502000",
    "120540.503000",
    "120542.504000",
    "120544.503000",
    "120546.504000",
    "120548.503000",
    "120550.504000",
    "120552.504000",
    "120554.504000",
    "120556.503000",
    "120558.503000",
    "120600.504000",
    "120602.504000",
    "120604.503000",
    "120606.503000",
    "120608.504000",
    "120610.503000",
    "120612.504000",
    "120614.503000",
    "120616.504000",
    "120618.503000",
    "120620.503000",
    "120622.504000",
    "120624.503000",
    "120626.503000",
    "120628.504000",
    "120630.502000",
    "120632.503000",
    "120634.503000",
    "120636.503000",
    "120638.504000",
    "120640.503000",
    "120642.503000",
    "120644.503000",
    "120646.504000",
    "120648.502000",
    "120650.503000",
    "120652.503000",
    "120654.504000",
    "120656.504000",
    "120658.503000",
    "120700.503000",
    "120702.504000",
    "120704.504000",
    "120706.503000",
    "120708.503000",
    "120710.504000",
    "120712.504000",
    "120714.503000",
    "120716.503000",
    "120718.503000",
    "120720.503000",
    "120722.503000",
    "120724.503000",
    "120726.504000",
    "120728.503000",
    "120730.504000",
    "120732.503000",
    "120734.503000",
    "120736.504000",
    "120738.503000",
    "120740.503000",
    "120742.502000",
    "120744.503000",
    "120746.504000",
    "120748.504000",
    "120750.503000",
    "120752.504000",
    "120754.503000",
    "120756.504000",
    "120758.502000",
    "120800.503000",
    "120802.503000",
    "120804.504000",
    "120806.503000",
    "120808.155000"
   ],
   "InstanceNumber": [
    1,
    2,
    3,
    4,
    5,
    6,
    7,
    8,
    9,
    10,
    11,
    12,
    13,
    14,
    15,
    16,
    17,
    18,
    19,
    20,
    21,
    22,
    23,
    24,
    25,
    26,
    27,
    28,
    29,
    30,
    31,
    32,
    33,
    34,
    35,
    36,
    37,
    38,
    39,
    40,
    41,
    42,
    43,
    44,
    45,
    46,
    47,
    48,
    49,
    50,
    51,
    52,
    53,
    54,
    55,
    56,
    57,
    58,
    59,
    60,
    61,
    62,
    63,
    64,
    65,
    66,
    67,
    68,
    69,
    70,
    71,
    72,
    73,
    74,
    75,
    76,
    77,
    78,
    79,
    80,
    81,
    82,
    83,
    84,
    85,
    86,
    87,
    88,
    89,
    90,
    91,
    92,
    93,
    94,
    95,
    96,
    97,
    98,
    99,
    100,
    101,
    102,
    103,
    104,
    105,
    106,
    107,
    108,
    109,
    110,
    111,
    112,
    113,
    114,
    115,
    116,
    117,
    118,
    119,
    120,
    121,
    122,
    123,
    124,
    125,
    126,
    127,
    128,
    129,
    130,
    131,
    132,
    133,
    134,
    135,
    136,
    137,
    138,
    139,
    140,
    141,
    142,
    143,
    144,
    145,
    146,
    147,
    148,
    149,
    150
   ],
   "LargestImagePixelValue": [
    3044,
    2903,
    2947,
    2872,
    2888,
    2894,
    2927,
    2872,
    2872,
    2885,
    2922,
    2925,
    2852,
    2870,
    2861,
    2873,
    2877,
    2871,
    2877,
    2847,
    2857,
    2857,
    2864,
    2848,
    2831,
    2847,
    2839,
    2821,
    2832,
    2839,
    2811,
    2832,
    2834,
    2843,
    2828,
    2833,
    2823,
    2828,
    2799,
    2800,
    2801,
    2791,
    2850,
    2810,
    2800,
    2806,
    2801,
    2801,
    2797,
    2818,
    2819,
    2790,
    2815,
    2800,
    2789,
    2814,
    2859,
    2797,
    2800,
    2789,
    2840,
    2833,
    2842,
    2808,
    2823,
    2798,
    2851,
    2782,
    2852,
    2846,
    2838,
    2811,
    2818,
    2830,
    2848,
    2844,
    2841,
    2799,
    2811,
    2824,
    2790,
    2829,
    2811,
    2796,
    2797,
    2805,
    2846,
    2841,
    2806,
    2847,
    2810,
    2843,
    2824,
    2789,
    2835,
    2812,
    2829,
    2814,
    2817,
    2824,
    2833,
    2807,
    2790,
    2804,
    2818,
    2814,
    2826,
    2804,
    2823,
    2831,
    2832,
    2835,
    2823,
    2824,
    2814,
    2847,
    2823,
    2808,
    2848,
    2821,
    2845,
    2845,
    2834,
    2833,
    2854,
    2840,
    2837,
    2846,
    2860,
    2861,
    2848,
    2859,
    2879,
    2853,
    2894,
    2861,
    2885,
    2905,
    2894,
    2913,
    2928,
    2921,
    2911,
    2905,
    2889,
    2903,
    2897,
    2914,
    2863,
    2914
   ],
   "WindowCenter": [
    751.0,
    748.0,
    749.0,
    748.0,
    747.0,
    746.0,
    747.0,
    748.0,
    748.0,
    747.0,
    746.0,
    747.0,
    747.0,
    748.0,
    750.0,
    750.0,
    749.0,
    748.0,
    748.0,
    748.0,
    747.0,
    747.0,
    747.0,
    748.0,
    748.0,
    748.0,
    748.0,
    748.0,
    748.0,
    748.0,
    748.0,
    748.0,
    747.0,
    747.0,
    746.0,
    747.0,
    746.0,
    746.0,
    746.0,
    747.0,
    747.0,
    747.0,
    747.0,
    746.0,
    745.0,
    746.0,
    747.0,
    748.0,
    747.0,
    747.0,
    747.0,
    747.0,
    747.0,
    747.0,
    747.0,
    746.0,
    747.0,
    747.0,
    747.0,
    747.0,
    747.0,
    747.0,
    748.0,
    747.0,
    747.0,
    746.0,
    747.0,
    746.0,
    746.0,
    747.0,
    748.0,
    747.0,
    746.0,
    746.0,
    746.0,
    747.0,
    746.0,
    747.0,
    747.0,
    747.0,
    746.0,
    745.0,
    746.0,
    747.0,
    747.0,
    746.0,
    746.0,
    746.0,
    746.0,
    746.0,
    747.0,
    747.0,
    747.0,
    747.0,
    748.0,
    747.0,
    747.0,
    746.0,
    746.0,
    745.0,
    745.0,
    746.0,
    746.0,
    747.0,
    748.0,
    747.0,
    746.0,
    745.0,
    745.0,
    746.0,
    748.0,
    748.0,
    746.0,
    746.0,
    747.0,
    747.0,
    747.0,
    746.0,
    747.0,
    746.0,
    746.0,
    747.0,
    748.0,
    747.0,
    747.0,
    748.0,
    747.0,
    747.0,
    747.0,
    747.0,
    747.0,
    747.0,
    747.0,
    747.0,
    747.0,
    748.0,
    749.0,
    748.0,
    747.0,
    747.0,
    747.0,
    747.0,
    747.0,
    748.0,
    749.0,
    748.0,
    746.0,
    746.0,
    746.0,
    747.0
   ],
   "WindowWidth": [
    1629.0,
    1621.0,
    1624.0,
    1622.0,
    1619.0,
    1617.0,
    1621.0,
    1623.0,
    1622.0,
    1620.0,
    1617.0,
    1619.0,
    1619.0,
    1623.0,
    1627.0,
    1628.0,
    1624.0,
    1622.0,
    1622.0,
    1623.0,
    1621.0,
    1621.0,
    1621.0,
    1622.0,
    1623.0,
    1623.0,
    1623.0,
    1622.0,
    1622.0,
    1623.0,
    1622.0,
    1622.0,
    1620.0,
    1619.0,
    1618.0,
    1619.0,
    1618.0,
    1617.0,
    1617.0,
    1621.0,
    1620.0,
    1620.0,
    1618.0,
    1617.0,
    1615.0,
    1616.0,
    1621.0,
    1622.0,
    1621.0,
    1619.0,
    1620.0,
    1619.0,
    1620.0,
    1619.0,
    1619.0,
    1618.0,
    1620.0,
    1619.0,
    1620.0,
    1619.0,
    1619.0,
    1620.0,
    1622.0,
    1620.0,
    1619.0,
    1617.0,
    1618.0,
    1616.0,
    1618.0,
    1619.0,
    1622.0,
    1620.0,
    1618.0,
    1616.0,
    1616.0,
    1618.0,
    1618.0,
    1619.0,
    1620.0,
    1619.0,
    1616.0,
    1615.0,
    1616.0,
    1619.0,
    1619.0,
    1617.0,
    1616.0,
    1615.0,
    1616.0,
    1618.0,
    1619.0,
    1620.0,
    1619.0,
    1619.0,
    1621.0,
    1619.0,
    1619.0,
    1618.0,
    1616.0,
    1614.0,
    1615.0,
    1617.0,
    1618.0,
    1619.0,
    1621.0,
    1620.0,
    1616.0,
    1615.0,
    1614.0,
    1617.0,
    1622.0,
    1623.0,
    1617.0,
    1618.0,
    1619.0,
    1620.0,
    1619.0,
    1618.0,
    1618.0,
    1618.0,
    1617.0,
    1619.0,
    1621.0,
    1620.0,
    1619.0,
    1621.0,
    1620.0,
    1618.0,
    1619.0,
    1620.0,
    1619.0,
    1619.0,
    1618.0,
    1619.0,
    1620.0,
    1623.0,
    1625.0,
    1621.0,
    1619.0,
    1619.0,
    1620.0,
    1620.0,
    1620.0,
    1622.0,
    1625.0,
    1621.0,
    1617.0,
    1617.0,
    1615.0,
    1619.0
   ]
  },
  "slices": {}
 }
}