{
  "AcquisitionMatrixPE": 100,
  "AcquisitionNumber": 1,
  "AcquisitionTime": "10:18:42.657500",
  "BandwidthPerPixelPhaseEncode": 18.519,
  "BaseResolution": 100,
  "BodyPartExamined": "BRAIN",
  "ConsistencyInfo": "N4_VE11C_LATEST_20160120",
  "ConversionSoftware": "dcm2niix",
  "ConversionSoftwareVersion": "v1.0.20180622 GCC4.9.2",
  "DerivedVendorReportedEchoSpacing": 0.000539986,
  "DeviceSerialNumber": "166078",
  "DwellTime": 2.1e-06,
  "EchoTime": 0.034,
  "EchoTrainLength": 100,
  "EffectiveEchoSpacing": 0.000539986,
  "FlipAngle": 90,
  "ImageOrientationPatientDICOM": [1, 0, 0, 0, 0.983255, -0.182236],
  "ImageType": [
    "ORIGINAL",
    "PRIMARY",
    "M",
    "ND",
    "MOSAIC"
],
  "InPlanePhaseEncodingDirectionDICOM": "COL",
  "InstitutionAddress": "Street_StreetNo_Bei_Jing_District_CN_ZIP",
  "InstitutionName": "BeiJing_Normal_University",
  "InstitutionalDepartmentName": "Department",
  "MRAcquisitionType": "2D",
  "MagneticFieldStrength": 3,
  "Manufacturer": "Siemens",
  "ManufacturersModelName": "Prisma",
  "Modality": "MR",
  "MultibandAccelerationFactor": 3,
  "PartialFourier": 1,
  "PatientPosition": "HFS",
  "PercentPhaseFOV": 100,
  "PhaseEncodingDirection": "j-",
  "PhaseEncodingSteps": 100,
  "PhaseResolution": 1,
  "PixelBandwidth": 2380,
  "ProcedureStepDescription": "BNU_P2018_64CH_Zhen.ZongLei",
  "ProtocolName": "bold_100x100_s3_2x2x2_static_test_241",
  "PulseSequenceDetails": "%SiemensSeq%_ep2d_bold",
  "ReceiveCoilActiveElements": "HC1-7;NC1",
  "ReceiveCoilName": "HeadNeck_64",
  "ReconMatrixPE": 100,
  "RepetitionTime": 2,
  "SAR": 0.0602094,
  "ScanOptions": "FS",
  "ScanningSequence": "EP",
  "SequenceName": "_epfid2d1_100",
  "SequenceVariant": "SK",
  "SeriesDescription": "bold_100x100_s3_2x2x2_static_test_241",
  "SeriesNumber": 12,
  "ShimSetting": [-5464, -11487, -1276, 377, -26, -110, -132, 54],
  "SliceThickness": 2,
  "SliceTiming": [1.4825, 0, 0.99, 0.0825, 1.0725, 0.165, 1.155, 0.2475, 1.2375, 0.33, 1.32, 0.4125, 1.4, 0.5775, 1.565, 0.66, 1.6475, 0.7425, 1.73, 0.825, 1.8125, 0.9075, 1.895, 0.495, 1.4825, 0, 0.99, 0.0825, 1.0725, 0.165, 1.155, 0.2475, 1.2375, 0.33, 1.32, 0.4125, 1.4, 0.5775, 1.565, 0.66, 1.6475, 0.7425, 1.73, 0.825, 1.8125, 0.9075, 1.895, 0.495, 1.4825, 0, 0.99, 0.0825, 1.0725, 0.165, 1.155, 0.2475, 1.2375, 0.33, 1.32, 0.4125, 1.4, 0.5775, 1.565, 0.66, 1.6475, 0.7425, 1.73, 0.825, 1.8125, 0.9075, 1.895, 0.495],
  "SoftwareVersions": "syngo_MR_E11",
  "SpacingBetweenSlices": 2,
  "StationName": "AWP166078",
  "TaskName": "naturalvision2",
  "TotalReadoutTime": 0.0534586,
  "TxRefAmp": 206.412,
  "dcmmeta_affine": [
    [-2.0, 0.0, 0.0, 100.0],
    [0.0, 1.9665098190307617, -0.36447104811668396, -84.17688751220703],
    [0.0, 0.36447104811668396, 1.9665096998214722, -89.79066467285156],
    [0.0, 0.0, 0.0, 1.0]
],
  "dcmmeta_reorient_transform": [
    [0.0, -1.0, 0.0, 99.0],
    [1.0, 0.0, 0.0, 0.0],
    [0.0, 0.0, 1.0, 0.0],
    [0.0, 0.0, 0.0, 1.0]
],
  "dcmmeta_shape": [100, 100, 72, 241],
  "dcmmeta_slice_dim": 2,
  "dcmmeta_version": 0.6,
  "global": {
    "const": {
      "AcquisitionMatrix": [100, 0, 0, 100],
      "AngioFlag": "N",
      "BitsAllocated": 16,
      "BitsStored": 12,
      "BodyPartExamined": "BRAIN",
      "Columns": 900,
      "EchoNumbers": 1,
      "EchoTime": 34.0,
      "EchoTrainLength": 100,
      "FlipAngle": 90.0,
      "HighBit": 11,
      "ImageOrientationPatient": [1.0, 0.0, 0.0, 0.0, 0.98325490764387, -0.182235525061],
      "ImagePositionPatient": [-900.0, -897.11151240713, 92.080392965011],
      "ImageType": [
        "ORIGINAL",
        "PRIMARY",
        "M",
        "ND",
        "MOSAIC"
],
      "ImagedNucleus": "1H",
      "ImagingFrequency": 123.257772,
      "InPlanePhaseEncodingDirection": "COL",
      "MRAcquisitionType": "2D",
      "MagneticFieldStrength": 3.0,
      "Manufacturer": "SIEMENS",
      "ManufacturerModelName": "Prisma",
      "Modality": "MR",
      "NumberOfAverages": 1.0,
      "NumberOfPhaseEncodingSteps": 100,
      "PercentPhaseFieldOfView": 100.0,
      "PercentSampling": 100.0,
      "PerformedProcedureStepStartTime": "090340.430000",
      "PhotometricInterpretation": "MONOCHROME2",
      "PixelBandwidth": 2380.0,
      "PixelRepresentation": 0,
      "PixelSpacing": [2.0, 2.0],
      "ProtocolName": "bold_100x100_s3_2x2x2_static_test_241",
      "RepetitionTime": 2000.0,
      "Rows": 900,
      "SAR": 0.06020944289607,
      "SamplesPerPixel": 1,
      "ScanOptions": "FS",
      "ScanningSequence": "EP",
      "SequenceName": "*epfid2d1_100",
      "SequenceVariant": "SK",
      "SeriesDescription": "bold_100x100_s3_2x2x2_static_test_241",
      "SeriesNumber": 12,
      "SeriesTime": "101845.341000",
      "SliceLocation": -72.947089221113,
      "SliceThickness": 2.0,
      "SmallestImagePixelValue": 0,
      "SoftwareVersions": "syngo MR E11",
      "SpacingBetweenSlices": 1.9999999368969,
      "SpecificCharacterSet": "ISO_IR 100",
      "StudyID": "1",
      "StudyTime": "090340.321000",
      "TransmitCoilName": "Body",
      "VariableFlipAngleFlag": "N",
      "WindowCenterWidthExplanation": "Algo1",
      "dBdt": 0.0},
    "slices": {}
  },
  "time": {
    "samples": {
      "AcquisitionNumber": [1, 2, 3, 4, 5, 6, 7, 8, 9, 10, 11, 12, 13, 14, 15, 16, 17, 18, 19, 20, 21, 22, 23, 24, 25, 26, 27, 28, 29, 30, 31, 32, 33, 34, 35, 36, 37, 38, 39, 40, 41, 42, 43, 44, 45, 46, 47, 48, 49, 50, 51, 52, 53, 54, 55, 56, 57, 58, 59, 60, 61, 62, 63, 64, 65, 66, 67, 68, 69, 70, 71, 72, 73, 74, 75, 76, 77, 78, 79, 80, 81, 82, 83, 84, 85, 86, 87, 88, 89, 90, 91, 92, 93, 94, 95, 96, 97, 98, 99, 100, 101, 102, 103, 104, 105, 106, 107, 108, 109, 110, 111, 112, 113, 114, 115, 116, 117, 118, 119, 120, 121, 122, 123, 124, 125, 126, 127, 128, 129, 130, 131, 132, 133, 134, 135, 136, 137, 138, 139, 140, 141, 142, 143, 144, 145, 146, 147, 148, 149, 150, 151, 152, 153, 154, 155, 156, 157, 158, 159, 160, 161, 162, 163, 164, 165, 166, 167, 168, 169, 170, 171, 172, 173, 174, 175, 176, 177, 178, 179, 180, 181, 182, 183, 184, 185, 186, 187, 188, 189, 190, 191, 192, 193, 194, 195, 196, 197, 198, 199, 200, 201, 202, 203, 204, 205, 206, 207, 208, 209, 210, 211, 212, 213, 214, 215, 216, 217, 218, 219, 220, 221, 222, 223, 224, 225, 226, 227, 228, 229, 230, 231, 232, 233, 234, 235, 236, 237, 238, 239, 240, 241],
      "AcquisitionTime": ["101842.657500", "101844.657500", "101846.657500", "101848.657500", "101850.657500", "101852.657500", "101854.657500", "101856.657500", "101858.657500", "101900.657500", "101902.657500", "101904.657500", "101906.657500", "101908.657500", "101910.657500", "101912.657500", "101914.657500", "101916.657500", "101918.657500", "101920.657500", "101922.657500", "101924.657500", "101926.657500", "101928.657500", "101930.657500", "101932.657500", "101934.657500", "101936.657500", "101938.657500", "101940.657500", "101942.657500", "101944.657500", "101946.657500", "101948.657500", "101950.657500", "101952.657500", "101954.657500", "101956.657500", "101958.657500", "102000.657500", "102002.657500", "102004.657500", "102006.657500", "102008.657500", "102010.657500", "102012.657500", "102014.657500", "102016.657500", "102018.657500", "102020.657500", "102022.657500", "102024.657500", "102026.657500", "102028.657500", "102030.657500", "102032.657500", "102034.657500", "102036.657500", "102038.657500", "102040.657500", "102042.657500", "102044.657500", "102046.657500", "102048.657500", "102050.657500", "102052.657500", "102054.657500", "102056.657500", "102058.657500", "102100.657500", "102102.657500", "102104.657500", "102106.657500", "102108.657500", "102110.657500", "102112.657500", "102114.657500", "102116.657500", "102118.657500", "102120.657500", "102122.657500", "102124.657500", "102126.657500", "102128.657500", "102130.657500", "102132.657500", "102134.657500", "102136.657500", "102138.657500", "102140.657500", "102142.657500", "102144.657500", "102146.657500", "102148.657500", "102150.657500", "102152.657500", "102154.657500", "102156.657500", "102158.657500", "102200.657500", "102202.657500", "102204.657500", "102206.657500", "102208.657500", "102210.657500", "102212.657500", "102214.657500", "102216.657500", "102218.657500", "102220.657500", "102222.657500", "102224.657500", "102226.657500", "102228.657500", "102230.657500", "102232.657500", "102234.657500", "102236.657500", "102238.657500", "102240.657500", "102242.657500", "102244.657500", "102246.657500", "102248.657500", "102250.657500", "102252.657500", "102254.657500", "102256.657500", "102258.657500", "102300.657500", "102302.657500", "102304.657500", "102306.657500", "102308.657500", "102310.657500", "102312.657500", "102314.657500", "102316.657500", "102318.657500", "102320.657500", "102322.657500", "102324.657500", "102326.657500", "102328.657500", "102330.657500", "102332.657500", "102334.657500", "102336.657500", "102338.657500", "102340.657500", "102342.657500", "102344.657500", "102346.657500", "102348.657500", "102350.657500", "102352.657500", "102354.657500", "102356.657500", "102358.657500", "102400.657500", "102402.657500", "102404.657500", "102406.657500", "102408.657500", "102410.657500", "102412.657500", "102414.657500", "102416.657500", "102418.657500", "102420.657500", "102422.657500", "102424.657500", "102426.657500", "102428.657500", "102430.657500", "102432.657500", "102434.657500", "102436.657500", "102438.657500", "102440.657500", "102442.657500", "102444.657500", "102446.657500", "102448.657500", "102450.657500", "102452.657500", "102454.657500", "102456.657500", "102458.657500", "102500.657500", "102502.657500", "102504.657500", "102506.657500", "102508.657500", "102510.657500", "102512.657500", "102514.657500", "102516.657500", "102518.657500", "102520.657500", "102522.657500", "102524.657500", "102526.657500", "102528.657500", "102530.657500", "102532.657500", "102534.657500", "102536.657500", "102538.657500", "102540.657500", "102542.657500", "102544.657500", "102546.657500", "102548.657500", "102550.657500", "102552.657500", "102554.657500", "102556.657500", "102558.657500", "102600.657500", "102602.657500", "102604.657500", "102606.657500", "102608.657500", "102610.657500", "102612.657500", "102614.657500", "102616.657500", "102618.657500", "102620.657500", "102622.657500", "102624.657500", "102626.657500", "102628.657500", "102630.657500", "102632.657500", "102634.657500", "102636.657500", "102638.657500", "102640.657500", "102642.657500"],
      "ContentTime": ["101845.345000", "101846.841000", "101848.841000", "101850.840000", "101852.841000", "101854.841000", "101856.841000", "101858.841000", "101900.841000", "101902.841000", "101904.840000", "101906.840000", "101908.840000", "101910.840000", "101912.840000", "101914.840000", "101916.841000", "101918.840000", "101920.841000", "101922.840000", "101924.841000", "101926.841000", "101928.840000", "101930.840000", "101932.841000", "101934.842000", "101936.841000", "101938.841000", "101940.840000", "101942.840000", "101944.841000", "101946.840000", "101948.840000", "101950.841000", "101952.842000", "101954.841000", "101956.840000", "101958.840000", "102000.841000", "102002.841000", "102004.841000", "102006.841000", "102008.841000", "102010.841000", "102012.840000", "102014.840000", "102016.840000", "102018.840000", "102020.840000", "102022.841000", "102024.841000", "102026.841000", "102028.841000", "102030.840000", "102032.840000", "102034.841000", "102036.841000", "102038.840000", "102040.840000", "102042.840000", "102044.842000", "102046.841000", "102048.840000", "102050.840000", "102052.840000", "102054.841000", "102056.840000", "102058.840000", "102100.840000", "102102.842000", "102104.841000", "102106.840000", "102108.841000", "102110.840000", "102112.840000", "102114.841000", "102116.840000", "102118.841000", "102120.841000", "102122.841000", "102124.841000", "102126.840000", "102128.841000", "102130.840000", "102132.840000", "102134.841000", "102136.841000", "102138.840000", "102140.840000", "102142.841000", "102144.840000", "102146.840000", "102148.840000", "102150.840000", "102152.840000", "102154.841000", "102156.841000", "102158.840000", "102200.841000", "102202.840000", "102204.841000", "102206.840000", "102208.841000", "102210.840000", "102212.841000", "102214.841000", "102216.841000", "102218.840000", "102220.841000", "102222.841000", "102224.840000", "102226.841000", "102228.841000", "102230.841000", "102232.840000", "102234.840000", "102236.841000", "102238.840000", "102240.840000", "102242.840000", "102244.840000", "102246.842000", "102248.840000", "102250.840000", "102252.840000", "102254.841000", "102256.841000", "102258.841000", "102300.840000", "102302.840000", "102304.841000", "102306.841000", "102308.841000", "102310.841000", "102312.841000", "102314.840000", "102316.840000", "102318.841000", "102320.841000", "102322.842000", "102324.841000", "102326.841000", "102328.841000", "102330.858000", "102332.840000", "102334.840000", "102336.841000", "102338.841000", "102340.841000", "102342.841000", "102344.840000", "102346.841000", "102348.841000", "102350.841000", "102352.840000", "102354.841000", "102356.842000", "102358.840000", "102400.841000", "102402.841000", "102404.840000", "102406.840000", "102408.841000", "102410.840000", "102412.840000", "102414.841000", "102416.841000", "102418.840000", "102420.840000", "102422.840000", "102424.840000", "102426.841000", "102428.841000", "102430.840000", "102432.842000", "102434.841000", "102436.841000", "102438.840000", "102440.841000", "102442.840000", "102444.840000", "102446.840000", "102448.842000", "102450.841000", "102452.841000", "102454.841000", "102456.841000", "102458.841000", "102500.841000", "102502.840000", "102504.840000", "102506.842000", "102508.841000", "102510.841000", "102512.841000", "102514.840000", "102516.841000", "102518.841000", "102520.841000", "102522.840000", "102524.841000", "102526.841000", "102528.841000", "102530.840000", "102532.841000", "102534.840000", "102536.840000", "102538.841000", "102540.841000", "102542.841000", "102544.841000", "102546.841000", "102548.840000", "102550.840000", "102552.841000", "102554.841000", "102556.841000", "102558.842000", "102600.840000", "102602.841000", "102604.840000", "102606.841000", "102608.840000", "102610.840000", "102612.841000", "102614.841000", "102616.841000", "102618.840000", "102620.841000", "102622.840000", "102624.840000", "102626.841000", "102628.841000", "102630.841000", "102632.840000", "102634.842000", "102636.841000", "102638.841000", "102640.840000", "102642.840000", "102644.429000"],
      "InstanceCreationTime": ["101845.345000", "101846.841000", "101848.841000", "101850.840000", "101852.841000", "101854.841000", "101856.841000", "101858.841000", "101900.841000", "101902.841000", "101904.840000", "101906.840000", "101908.840000", "101910.840000", "101912.840000", "101914.840000", "101916.841000", "101918.840000", "101920.841000", "101922.840000", "101924.841000", "101926.841000", "101928.840000", "101930.840000", "101932.841000", "101934.842000", "101936.841000", "101938.841000", "101940.840000", "101942.840000", "101944.841000", "101946.840000", "101948.840000", "101950.841000", "101952.842000", "101954.841000", "101956.840000", "101958.840000", "102000.841000", "102002.841000", "102004.841000", "102006.841000", "102008.841000", "102010.841000", "102012.840000", "102014.840000", "102016.840000", "102018.840000", "102020.840000", "102022.841000", "102024.841000", "102026.841000", "102028.841000", "102030.840000", "102032.840000", "102034.841000", "102036.841000", "102038.840000", "102040.840000", "102042.840000", "102044.842000", "102046.841000", "102048.840000", "102050.840000", "102052.840000", "102054.841000", "102056.840000", "102058.840000", "102100.840000", "102102.842000", "102104.841000", "102106.840000", "102108.841000", "102110.840000", "102112.840000", "102114.841000", "102116.840000", "102118.841000", "102120.841000", "102122.841000", "102124.841000", "102126.840000", "102128.841000", "102130.840000", "102132.840000", "102134.841000", "102136.841000", "102138.840000", "102140.840000", "102142.841000", "102144.840000", "102146.840000", "102148.840000", "102150.840000", "102152.840000", "102154.841000", "102156.841000", "102158.840000", "102200.841000", "102202.840000", "102204.841000", "102206.840000", "102208.841000", "102210.840000", "102212.841000", "102214.841000", "102216.841000", "102218.840000", "102220.841000", "102222.841000", "102224.840000", "102226.841000", "102228.841000", "102230.841000", "102232.840000", "102234.840000", "102236.841000", "102238.840000", "102240.840000", "102242.840000", "102244.840000", "102246.842000", "102248.840000", "102250.840000", "102252.840000", "102254.841000", "102256.841000", "102258.841000", "102300.840000", "102302.840000", "102304.841000", "102306.841000", "102308.841000", "102310.841000", "102312.841000", "102314.840000", "102316.840000", "102318.841000", "102320.841000", "102322.842000", "102324.841000", "102326.841000", "102328.841000", "102330.858000", "102332.840000", "102334.840000", "102336.841000", "102338.841000", "102340.841000", "102342.841000", "102344.840000", "102346.841000", "102348.841000", "102350.841000", "102352.840000", "102354.841000", "102356.842000", "102358.840000", "102400.841000", "102402.841000", "102404.840000", "102406.840000", "102408.841000", "102410.840000", "102412.840000", "102414.841000", "102416.841000", "102418.840000", "102420.840000", "102422.840000", "102424.840000", "102426.841000", "102428.841000", "102430.840000", "102432.842000", "102434.841000", "102436.841000", "102438.840000", "102440.841000", "102442.840000", "102444.840000", "102446.840000", "102448.842000", "102450.841000", "102452.841000", "102454.841000", "102456.841000", "102458.841000", "102500.841000", "102502.840000", "102504.840000", "102506.842000", "102508.841000", "102510.841000", "102512.841000", "102514.840000", "102516.841000", "102518.841000", "102520.841000", "102522.840000", "102524.841000", "102526.841000", "102528.841000", "102530.840000", "102532.841000", "102534.840000", "102536.840000", "102538.841000", "102540.841000", "102542.841000", "102544.841000", "102546.841000", "102548.840000", "102550.840000", "102552.841000", "102554.841000", "102556.841000", "102558.842000", "102600.840000", "102602.841000", "102604.840000", "102606.841000", "102608.840000", "102610.840000", "102612.841000", "102614.841000", "102616.841000", "102618.840000", "102620.841000", "102622.840000", "102624.840000", "102626.841000", "102628.841000", "102630.841000", "102632.840000", "102634.842000", "102636.841000", "102638.841000", "102640.840000", "102642.840000", "102644.429000"],
      "InstanceNumber": [1, 2, 3, 4, 5, 6, 7, 8, 9, 10, 11, 12, 13, 14, 15, 16, 17, 18, 19, 20, 21, 22, 23, 24, 25, 26, 27, 28, 29, 30, 31, 32, 33, 34, 35, 36, 37, 38, 39, 40, 41, 42, 43, 44, 45, 46, 47, 48, 49, 50, 51, 52, 53, 54, 55, 56, 57, 58, 59, 60, 61, 62, 63, 64, 65, 66, 67, 68, 69, 70, 71, 72, 73, 74, 75, 76, 77, 78, 79, 80, 81, 82, 83, 84, 85, 86, 87, 88, 89, 90, 91, 92, 93, 94, 95, 96, 97, 98, 99, 100, 101, 102, 103, 104, 105, 106, 107, 108, 109, 110, 111, 112, 113, 114, 115, 116, 117, 118, 119, 120, 121, 122, 123, 124, 125, 126, 127, 128, 129, 130, 131, 132, 133, 134, 135, 136, 137, 138, 139, 140, 141, 142, 143, 144, 145, 146, 147, 148, 149, 150, 151, 152, 153, 154, 155, 156, 157, 158, 159, 160, 161, 162, 163, 164, 165, 166, 167, 168, 169, 170, 171, 172, 173, 174, 175, 176, 177, 178, 179, 180, 181, 182, 183, 184, 185, 186, 187, 188, 189, 190, 191, 192, 193, 194, 195, 196, 197, 198, 199, 200, 201, 202, 203, 204, 205, 206, 207, 208, 209, 210, 211, 212, 213, 214, 215, 216, 217, 218, 219, 220, 221, 222, 223, 224, 225, 226, 227, 228, 229, 230, 231, 232, 233, 234, 235, 236, 237, 238, 239, 240, 241],
      "LargestImagePixelValue": [3463, 3410, 3428, 3412, 3376, 3377, 3368, 3398, 3415, 3418, 3405, 3410, 3417, 3402, 3430, 3413, 3393, 3349, 3366, 3358, 3387, 3344, 3412, 3384, 3382, 3355, 3328, 3397, 3376, 3377, 3385, 3432, 3392, 3417, 3417, 3418, 3423, 3384, 3433, 3410, 3390, 3395, 3343, 3386, 3334, 3362, 3387, 3396, 3342, 3386, 3338, 3415, 3397, 3375, 3404, 3380, 3379, 3343, 3380, 3386, 3353, 3333, 3374, 3353, 3334, 3340, 3356, 3406, 3375, 3389, 3397, 3377, 3412, 3399, 3433, 3411, 3419, 3423, 3413, 3429, 3429, 3419, 3421, 3373, 3397, 3361, 3425, 3432, 3431, 3415, 3400, 3395, 3423, 3343, 3371, 3416, 3387, 3375, 3400, 3434, 3433, 3418, 3406, 3408, 3359, 3387, 3377, 3423, 3382, 3438, 3382, 3344, 3376, 3400, 3388, 3373, 3346, 3371, 3342, 3378, 3373, 3348, 3353, 3338, 3389, 3353, 3387, 3370, 3376, 3348, 3393, 3361, 3380, 3390, 3415, 3387, 3412, 3375, 3369, 3329, 3423, 3367, 3360, 3330, 3320, 3311, 3343, 3339, 3366, 3339, 3419, 3386, 3335, 3367, 3357, 3375, 3381, 3381, 3370, 3406, 3415, 3380, 3384, 3392, 3382, 3329, 3313, 3281, 3355, 3339, 3307, 3317, 3296, 3341, 3369, 3355, 3306, 3318, 3322, 3371, 3378, 3324, 3329, 3375, 3348, 3426, 3400, 3290, 3299, 3252, 3248, 3247, 3284, 3339, 3260, 3331, 3300, 3368, 3294, 3307, 3361, 3294, 3379, 3339, 3357, 3329, 3321, 3270, 3326, 3266, 3359, 3314, 3326, 3315, 3379, 3324, 3361, 3366, 3340, 3329, 3327, 3318, 3293, 3291, 3257, 3298, 3300, 3330, 3335, 3319, 3349, 3342, 3314, 3278, 3299, 3261, 3265, 3289, 3304, 3350, 3337],
      "WindowCenter": [788.0, 788.0, 788.0, 788.0, 787.0, 787.0, 787.0, 788.0, 790.0, 790.0, 789.0, 789.0, 790.0, 791.0, 791.0, 791.0, 790.0, 790.0, 789.0, 789.0, 791.0, 792.0, 792.0, 791.0, 790.0, 789.0, 788.0, 788.0, 788.0, 788.0, 788.0, 788.0, 788.0, 789.0, 789.0, 790.0, 790.0, 790.0, 790.0, 792.0, 792.0, 792.0, 790.0, 788.0, 787.0, 786.0, 786.0, 786.0, 786.0, 787.0, 787.0, 789.0, 789.0, 789.0, 789.0, 789.0, 790.0, 791.0, 791.0, 792.0, 791.0, 790.0, 790.0, 789.0, 789.0, 790.0, 791.0, 791.0, 790.0, 789.0, 788.0, 787.0, 787.0, 786.0, 787.0, 787.0, 788.0, 788.0, 788.0, 789.0, 790.0, 791.0, 791.0, 791.0, 790.0, 789.0, 789.0, 788.0, 788.0, 788.0, 788.0, 790.0, 791.0, 792.0, 793.0, 793.0, 791.0, 790.0, 789.0, 789.0, 788.0, 787.0, 789.0, 790.0, 791.0, 791.0, 790.0, 790.0, 790.0, 793.0, 793.0, 792.0, 791.0, 790.0, 789.0, 788.0, 788.0, 789.0, 790.0, 791.0, 792.0, 794.0, 793.0, 792.0, 791.0, 790.0, 789.0, 788.0, 788.0, 788.0, 790.0, 790.0, 791.0, 790.0, 790.0, 789.0, 789.0, 789.0, 789.0, 790.0, 794.0, 794.0, 794.0, 792.0, 790.0, 789.0, 788.0, 787.0, 789.0, 790.0, 791.0, 791.0, 791.0, 790.0, 790.0, 790.0, 791.0, 792.0, 793.0, 793.0, 794.0, 793.0, 793.0, 794.0, 794.0, 794.0, 795.0, 795.0, 795.0, 794.0, 793.0, 793.0, 793.0, 793.0, 794.0, 794.0, 794.0, 794.0, 794.0, 795.0, 795.0, 795.0, 795.0, 795.0, 795.0, 795.0, 795.0, 795.0, 794.0, 793.0, 792.0, 791.0, 791.0, 791.0, 789.0, 790.0, 789.0, 789.0, 788.0, 788.0, 789.0, 788.0, 789.0, 789.0, 789.0, 789.0, 790.0, 792.0, 791.0, 790.0, 790.0, 788.0, 788.0, 789.0, 790.0, 790.0, 790.0, 790.0, 790.0, 790.0, 790.0, 791.0, 791.0, 791.0, 791.0, 792.0, 793.0, 794.0, 794.0, 793.0, 793.0, 793.0, 794.0, 794.0, 795.0, 794.0, 794.0, 794.0, 794.0, 795.0, 795.0],
      "WindowWidth": [1703.0, 1702.0, 1702.0, 1700.0, 1700.0, 1700.0, 1698.0, 1702.0, 1706.0, 1706.0, 1705.0, 1705.0, 1706.0, 1710.0, 1710.0, 1709.0, 1708.0, 1706.0, 1704.0, 1704.0, 1709.0, 1712.0, 1713.0, 1711.0, 1708.0, 1704.0, 1701.0, 1703.0, 1701.0, 1702.0, 1701.0, 1701.0, 1701.0, 1703.0, 1705.0, 1707.0, 1708.0, 1706.0, 1708.0, 1711.0, 1714.0, 1713.0, 1707.0, 1703.0, 1699.0, 1697.0, 1697.0, 1697.0, 1695.0, 1698.0, 1699.0, 1703.0, 1705.0, 1705.0, 1705.0, 1705.0, 1708.0, 1709.0, 1711.0, 1712.0, 1710.0, 1708.0, 1707.0, 1703.0, 1703.0, 1706.0, 1710.0, 1710.0, 1708.0, 1704.0, 1701.0, 1697.0, 1698.0, 1697.0, 1698.0, 1699.0, 1700.0, 1701.0, 1702.0, 1704.0, 1707.0, 1710.0, 1711.0, 1710.0, 1708.0, 1705.0, 1704.0, 1702.0, 1701.0, 1701.0, 1702.0, 1706.0, 1710.0, 1712.0, 1716.0, 1716.0, 1711.0, 1707.0, 1703.0, 1703.0, 1701.0, 1700.0, 1703.0, 1707.0, 1709.0, 1708.0, 1706.0, 1707.0, 1707.0, 1714.0, 1714.0, 1711.0, 1710.0, 1707.0, 1704.0, 1702.0, 1702.0, 1705.0, 1706.0, 1710.0, 1713.0, 1716.0, 1716.0, 1714.0, 1710.0, 1706.0, 1703.0, 1700.0, 1700.0, 1701.0, 1706.0, 1706.0, 1708.0, 1708.0, 1706.0, 1704.0, 1705.0, 1704.0, 1704.0, 1708.0, 1717.0, 1718.0, 1717.0, 1712.0, 1706.0, 1703.0, 1700.0, 1699.0, 1703.0, 1707.0, 1710.0, 1710.0, 1708.0, 1707.0, 1706.0, 1707.0, 1709.0, 1712.0, 1715.0, 1715.0, 1717.0, 1715.0, 1715.0, 1717.0, 1719.0, 1718.0, 1719.0, 1719.0, 1720.0, 1718.0, 1716.0, 1715.0, 1714.0, 1716.0, 1717.0, 1718.0, 1718.0, 1718.0, 1719.0, 1721.0, 1722.0, 1721.0, 1721.0, 1721.0, 1720.0, 1722.0, 1721.0, 1721.0, 1719.0, 1715.0, 1711.0, 1710.0, 1709.0, 1708.0, 1704.0, 1705.0, 1704.0, 1704.0, 1702.0, 1701.0, 1702.0, 1700.0, 1704.0, 1704.0, 1704.0, 1705.0, 1708.0, 1710.0, 1709.0, 1706.0, 1706.0, 1702.0, 1702.0, 1704.0, 1708.0, 1707.0, 1707.0, 1706.0, 1706.0, 1706.0, 1707.0, 1709.0, 1709.0, 1710.0, 1709.0, 1713.0, 1715.0, 1717.0, 1717.0, 1716.0, 1715.0, 1715.0, 1717.0, 1719.0, 1720.0, 1718.0, 1717.0, 1717.0, 1716.0, 1720.0, 1721.0]
    },
    "slices": {}
  }
}