{
 "AcquisitionMatrixPE": 100,
 "AcquisitionNumber": 1,
 "AcquisitionTime": "09:09:55.540000",
 "BandwidthPerPixelPhaseEncode": 18.519,
 "BaseResolution": 100,
 "BodyPartExamined": "BRAIN",
 "ConsistencyInfo": "N4_VE11C_LATEST_20160120",
 "ConversionSoftware": "dcm2niix",
 "ConversionSoftwareVersion": "v1.0.20180622 GCC4.9.2",
 "DerivedVendorReportedEchoSpacing": 0.000539986,
 "DeviceSerialNumber": "166078",
 "DwellTime": 2.1e-06,
 "EchoTime": 0.034,
 "EchoTrainLength": 100,
 "EffectiveEchoSpacing": 0.000539986,
 "FlipAngle": 90,
 "ImageOrientationPatientDICOM": [
  1,
  0,
  0,
  0,
  0.983255,
  -0.182236
 ],
 "ImageType": [
  "ORIGINAL",
  "PRIMARY",
  "M",
  "ND",
  "MOSAIC"
 ],
 "InPlanePhaseEncodingDirectionDICOM": "COL",
 "InstitutionAddress": "Street_StreetNo_Bei_Jing_District_CN_ZIP",
 "InstitutionName": "BeiJing_Normal_University",
 "InstitutionalDepartmentName": "Department",
 "MRAcquisitionType": "2D",
 "MagneticFieldStrength": 3,
 "Manufacturer": "Siemens",
 "ManufacturersModelName": "Prisma",
 "Modality": "MR",
 "MultibandAccelerationFactor": 3,
 "PartialFourier": 1,
 "PatientPosition": "HFS",
 "PercentPhaseFOV": 100,
 "PhaseEncodingDirection": "j-",
 "PhaseEncodingSteps": 100,
 "PhaseResolution": 1,
 "PixelBandwidth": 2380,
 "ProcedureStepDescription": "BNU_P2018_64CH_Zhen.ZongLei",
 "ProtocolName": "bold_100x100_s3_2x2x2_static_test_241",
 "PulseSequenceDetails": "%SiemensSeq%_ep2d_bold",
 "ReceiveCoilActiveElements": "HC1-7;NC1",
 "ReceiveCoilName": "HeadNeck_64",
 "ReconMatrixPE": 100,
 "RepetitionTime": 2,
 "SAR": 0.0602094,
 "ScanOptions": "FS",
 "ScanningSequence": "EP",
 "SequenceName": "_epfid2d1_100",
 "SequenceVariant": "SK",
 "SeriesDescription": "bold_100x100_s3_2x2x2_static_test_241",
 "SeriesNumber": 3,
 "ShimSetting": [
  -5464,
  -11487,
  -1276,
  377,
  -26,
  -110,
  -132,
  54
 ],
 "SliceThickness": 2,
 "SliceTiming": [
  1.485,
  0,
  0.99,
  0.0825,
  1.0725,
  0.165,
  1.155,
  0.2475,
  1.2375,
  0.33,
  1.32,
  0.4125,
  1.4025,
  0.5775,
  1.5675,
  0.66,
  1.65,
  0.7425,
  1.7325,
  0.825,
  1.815,
  0.9075,
  1.8975,
  0.495,
  1.485,
  0,
  0.99,
  0.0825,
  1.0725,
  0.165,
  1.155,
  0.2475,
  1.2375,
  0.33,
  1.32,
  0.4125,
  1.4025,
  0.5775,
  1.5675,
  0.66,
  1.65,
  0.7425,
  1.7325,
  0.825,
  1.815,
  0.9075,
  1.8975,
  0.495,
  1.485,
  0,
  0.99,
  0.0825,
  1.0725,
  0.165,
  1.155,
  0.2475,
  1.2375,
  0.33,
  1.32,
  0.4125,
  1.4025,
  0.5775,
  1.5675,
  0.66,
  1.65,
  0.7425,
  1.7325,
  0.825,
  1.815,
  0.9075,
  1.8975,
  0.495
 ],
 "SoftwareVersions": "syngo_MR_E11",
 "SpacingBetweenSlices": 2,
 "StationName": "AWP166078",
 "TaskName": "coco",
 "TotalReadoutTime": 0.0534586,
 "TxRefAmp": 206.412,
 "dcmmeta_affine": [
  [
   -2.0,
   0.0,
   0.0,
   100.0
  ],
  [
   0.0,
   1.9665098190307617,
   -0.36447104811668396,
   -84.17688751220703
  ],
  [
   0.0,
   0.36447104811668396,
   1.9665096998214722,
   -89.79066467285156
  ],
  [
   0.0,
   0.0,
   0.0,
   1.0
  ]
 ],
 "dcmmeta_reorient_transform": [
  [
   0.0,
   -1.0,
   0.0,
   99.0
  ],
  [
   1.0,
   0.0,
   0.0,
   0.0
  ],
  [
   0.0,
   0.0,
   1.0,
   0.0
  ],
  [
   0.0,
   0.0,
   0.0,
   1.0
  ]
 ],
 "dcmmeta_shape": [
  100,
  100,
  72,
  241
 ],
 "dcmmeta_slice_dim": 2,
 "dcmmeta_version": 0.6,
 "global": {
  "const": {
   "AcquisitionMatrix": [
    100,
    0,
    0,
    100
   ],
   "AngioFlag": "N",
   "BitsAllocated": 16,
   "BitsStored": 12,
   "BodyPartExamined": "BRAIN",
   "Columns": 900,
   "EchoNumbers": 1,
   "EchoTime": 34.0,
   "EchoTrainLength": 100,
   "FlipAngle": 90.0,
   "HighBit": 11,
   "ImageOrientationPatient": [
    1.0,
    0.0,
    0.0,
    0.0,
    0.98325490764387,
    -0.182235525061
   ],
   "ImagePositionPatient": [
    -900.0,
    -897.11151240713,
    92.080392965011
   ],
   "ImageType": [
    "ORIGINAL",
    "PRIMARY",
    "M",
    "ND",
    "MOSAIC"
   ],
   "ImagedNucleus": "1H",
   "ImagingFrequency": 123.257758,
   "InPlanePhaseEncodingDirection": "COL",
   "MRAcquisitionType": "2D",
   "MagneticFieldStrength": 3.0,
   "Manufacturer": "SIEMENS",
   "ManufacturerModelName": "Prisma",
   "Modality": "MR",
   "NumberOfAverages": 1.0,
   "NumberOfPhaseEncodingSteps": 100,
   "PercentPhaseFieldOfView": 100.0,
   "PercentSampling": 100.0,
   "PerformedProcedureStepStartTime": "090340.430000",
   "PhotometricInterpretation": "MONOCHROME2",
   "PixelBandwidth": 2380.0,
   "PixelRepresentation": 0,
   "PixelSpacing": [
    2.0,
    2.0
   ],
   "ProtocolName": "bold_100x100_s3_2x2x2_static_test_241",
   "RepetitionTime": 2000.0,
   "Rows": 900,
   "SAR": 0.06020944289607,
   "SamplesPerPixel": 1,
   "ScanOptions": "FS",
   "ScanningSequence": "EP",
   "SequenceName": "*epfid2d1_100",
   "SequenceVariant": "SK",
   "SeriesDescription": "bold_100x100_s3_2x2x2_static_test_241",
   "SeriesNumber": 3,
   "SeriesTime": "090958.413000",
   "SliceLocation": -72.947089221113,
   "SliceThickness": 2.0,
   "SmallestImagePixelValue": 0,
   "SoftwareVersions": "syngo MR E11",
   "SpacingBetweenSlices": 1.9999999368969,
   "SpecificCharacterSet": "ISO_IR 100",
   "StudyID": "1",
   "StudyTime": "090340.321000",
   "TransmitCoilName": "Body",
   "VariableFlipAngleFlag": "N",
   "WindowCenterWidthExplanation": "Algo1",
   "dBdt": 0.0
  },
  "slices": {}
 },
 "time": {
  "samples": {
   "AcquisitionNumber": [
    1,
    2,
    3,
    4,
    5,
    6,
    7,
    8,
    9,
    10,
    11,
    12,
    13,
    14,
    15,
    16,
    17,
    18,
    19,
    20,
    21,
    22,
    23,
    24,
    25,
    26,
    27,
    28,
    29,
    30,
    31,
    32,
    33,
    34,
    35,
    36,
    37,
    38,
    39,
    40,
    41,
    42,
    43,
    44,
    45,
    46,
    47,
    48,
    49,
    50,
    51,
    52,
    53,
    54,
    55,
    56,
    57,
    58,
    59,
    60,
    61,
    62,
    63,
    64,
    65,
    66,
    67,
    68,
    69,
    70,
    71,
    72,
    73,
    74,
    75,
    76,
    77,
    78,
    79,
    80,
    81,
    82,
    83,
    84,
    85,
    86,
    87,
    88,
    89,
    90,
    91,
    92,
    93,
    94,
    95,
    96,
    97,
    98,
    99,
    100,
    101,
    102,
    103,
    104,
    105,
    106,
    107,
    108,
    109,
    110,
    111,
    112,
    113,
    114,
    115,
    116,
    117,
    118,
    119,
    120,
    121,
    122,
    123,
    124,
    125,
    126,
    127,
    128,
    129,
    130,
    131,
    132,
    133,
    134,
    135,
    136,
    137,
    138,
    139,
    140,
    141,
    142,
    143,
    144,
    145,
    146,
    147,
    148,
    149,
    150,
    151,
    152,
    153,
    154,
    155,
    156,
    157,
    158,
    159,
    160,
    161,
    162,
    163,
    164,
    165,
    166,
    167,
    168,
    169,
    170,
    171,
    172,
    173,
    174,
    175,
    176,
    177,
    178,
    179,
    180,
    181,
    182,
    183,
    184,
    185,
    186,
    187,
    188,
    189,
    190,
    191,
    192,
    193,
    194,
    195,
    196,
    197,
    198,
    199,
    200,
    201,
    202,
    203,
    204,
    205,
    206,
    207,
    208,
    209,
    210,
    211,
    212,
    213,
    214,
    215,
    216,
    217,
    218,
    219,
    220,
    221,
    222,
    223,
    224,
    225,
    226,
    227,
    228,
    229,
    230,
    231,
    232,
    233,
    234,
    235,
    236,
    237,
    238,
    239,
    240,
    241
   ],
   "AcquisitionTime": [
    "090955.540000",
    "090957.540000",
    "090959.540000",
    "091001.540000",
    "091003.540000",
    "091005.540000",
    "091007.540000",
    "091009.540000",
    "091011.540000",
    "091013.540000",
    "091015.540000",
    "091017.540000",
    "091019.540000",
    "091021.540000",
    "091023.540000",
    "091025.540000",
    "091027.540000",
    "091029.540000",
    "091031.540000",
    "091033.540000",
    "091035.540000",
    "091037.540000",
    "091039.540000",
    "091041.540000",
    "091043.540000",
    "091045.540000",
    "091047.540000",
    "091049.540000",
    "091051.540000",
    "091053.540000",
    "091055.540000",
    "091057.540000",
    "091059.540000",
    "091101.540000",
    "091103.540000",
    "091105.540000",
    "091107.540000",
    "091109.540000",
    "091111.540000",
    "091113.540000",
    "091115.540000",
    "091117.540000",
    "091119.540000",
    "091121.540000",
    "091123.540000",
    "091125.540000",
    "091127.540000",
    "091129.540000",
    "091131.540000",
    "091133.540000",
    "091135.540000",
    "091137.540000",
    "091139.540000",
    "091141.540000",
    "091143.540000",
    "091145.540000",
    "091147.540000",
    "091149.540000",
    "091151.540000",
    "091153.540000",
    "091155.540000",
    "091157.540000",
    "091159.540000",
    "091201.540000",
    "091203.540000",
    "091205.540000",
    "091207.540000",
    "091209.540000",
    "091211.540000",
    "091213.540000",
    "091215.540000",
    "091217.540000",
    "091219.540000",
    "091221.540000",
    "091223.540000",
    "091225.540000",
    "091227.540000",
    "091229.540000",
    "091231.540000",
    "091233.540000",
    "091235.540000",
    "091237.540000",
    "091239.540000",
    "091241.540000",
    "091243.540000",
    "091245.540000",
    "091247.540000",
    "091249.540000",
    "091251.540000",
    "091253.540000",
    "091255.540000",
    "091257.540000",
    "091259.540000",
    "091301.540000",
    "091303.540000",
    "091305.540000",
    "091307.540000",
    "091309.540000",
    "091311.540000",
    "091313.540000",
    "091315.540000",
    "091317.540000",
    "091319.540000",
    "091321.540000",
    "091323.540000",
    "091325.540000",
    "091327.540000",
    "091329.540000",
    "091331.540000",
    "091333.540000",
    "091335.540000",
    "091337.540000",
    "091339.540000",
    "091341.540000",
    "091343.540000",
    "091345.540000",
    "091347.540000",
    "091349.540000",
    "091351.540000",
    "091353.540000",
    "091355.540000",
    "091357.540000",
    "091359.540000",
    "091401.540000",
    "091403.540000",
    "091405.540000",
    "091407.540000",
    "091409.540000",
    "091411.540000",
    "091413.540000",
    "091415.540000",
    "091417.540000",
    "091419.540000",
    "091421.540000",
    "091423.540000",
    "091425.540000",
    "091427.540000",
    "091429.540000",
    "091431.540000",
    "091433.540000",
    "091435.540000",
    "091437.540000",
    "091439.540000",
    "091441.540000",
    "091443.540000",
    "091445.540000",
    "091447.540000",
    "091449.540000",
    "091451.540000",
    "091453.540000",
    "091455.540000",
    "091457.540000",
    "091459.540000",
    "091501.540000",
    "091503.540000",
    "091505.540000",
    "091507.540000",
    "091509.540000",
    "091511.540000",
    "091513.540000",
    "091515.540000",
    "091517.540000",
    "091519.540000",
    "091521.540000",
    "091523.540000",
    "091525.540000",
    "091527.540000",
    "091529.540000",
    "091531.540000",
    "091533.540000",
    "091535.540000",
    "091537.540000",
    "091539.540000",
    "091541.540000",
    "091543.540000",
    "091545.540000",
    "091547.540000",
    "091549.540000",
    "091551.540000",
    "091553.540000",
    "091555.540000",
    "091557.540000",
    "091559.540000",
    "091601.540000",
    "091603.540000",
    "091605.540000",
    "091607.540000",
    "091609.540000",
    "091611.540000",
    "091613.540000",
    "091615.540000",
    "091617.540000",
    "091619.540000",
    "091621.540000",
    "091623.540000",
    "091625.540000",
    "091627.540000",
    "091629.540000",
    "091631.540000",
    "091633.540000",
    "091635.540000",
    "091637.540000",
    "091639.540000",
    "091641.540000",
    "091643.540000",
    "091645.540000",
    "091647.540000",
    "091649.540000",
    "091651.540000",
    "091653.540000",
    "091655.540000",
    "091657.540000",
    "091659.540000",
    "091701.540000",
    "091703.540000",
    "091705.540000",
    "091707.540000",
    "091709.540000",
    "091711.540000",
    "091713.540000",
    "091715.540000",
    "091717.540000",
    "091719.540000",
    "091721.540000",
    "091723.540000",
    "091725.540000",
    "091727.540000",
    "091729.540000",
    "091731.540000",
    "091733.540000",
    "091735.540000",
    "091737.540000",
    "091739.540000",
    "091741.540000",
    "091743.540000",
    "091745.540000",
    "091747.540000",
    "091749.540000",
    "091751.540000",
    "091753.540000",
    "091755.540000"
   ],
   "ContentTime": [
    "090958.416000",
    "090959.911000",
    "091001.411000",
    "091003.411000",
    "091005.411000",
    "091007.412000",
    "091009.411000",
    "091011.410000",
    "091013.911000",
    "091015.411000",
    "091017.411000",
    "091019.412000",
    "091021.411000",
    "091023.411000",
    "091025.411000",
    "091027.412000",
    "091029.410000",
    "091031.411000",
    "091033.411000",
    "091035.411000",
    "091037.412000",
    "091039.411000",
    "091041.412000",
    "091043.411000",
    "091045.410000",
    "091047.911000",
    "091049.411000",
    "091051.412000",
    "091053.412000",
    "091055.411000",
    "091057.411000",
    "091059.411000",
    "091101.411000",
    "091103.411000",
    "091105.411000",
    "091107.412000",
    "091109.411000",
    "091111.411000",
    "091113.411000",
    "091115.411000",
    "091117.411000",
    "091119.411000",
    "091121.410000",
    "091123.412000",
    "091125.412000",
    "091127.412000",
    "091129.412000",
    "091131.412000",
    "091133.412000",
    "091135.411000",
    "091137.411000",
    "091139.410000",
    "091141.412000",
    "091143.411000",
    "091145.411000",
    "091147.411000",
    "091149.411000",
    "091151.411000",
    "091153.411000",
    "091155.410000",
    "091157.411000",
    "091159.412000",
    "091201.411000",
    "091203.411000",
    "091205.412000",
    "091207.411000",
    "091209.411000",
    "091211.411000",
    "091213.410000",
    "091215.410000",
    "091217.411000",
    "091219.412000",
    "091221.412000",
    "091223.411000",
    "091225.412000",
    "091227.411000",
    "091229.411000",
    "091231.410000",
    "091233.411000",
    "091235.412000",
    "091237.412000",
    "091239.411000",
    "091241.411000",
    "091243.411000",
    "091245.411000",
    "091247.412000",
    "091249.410000",
    "091251.411000",
    "091253.411000",
    "091255.412000",
    "091257.412000",
    "091259.412000",
    "091301.411000",
    "091303.411000",
    "091305.410000",
    "091307.411000",
    "091309.412000",
    "091311.412000",
    "091313.412000",
    "091315.411000",
    "091317.412000",
    "091319.412000",
    "091321.411000",
    "091323.410000",
    "091325.411000",
    "091327.412000",
    "091329.411000",
    "091331.412000",
    "091333.412000",
    "091335.412000",
    "091337.411000",
    "091339.411000",
    "091341.410000",
    "091343.411000",
    "091345.411000",
    "091347.412000",
    "091349.412000",
    "091351.412000",
    "091353.412000",
    "091355.411000",
    "091357.411000",
    "091359.411000",
    "091401.411000",
    "091403.412000",
    "091405.411000",
    "091407.411000",
    "091409.412000",
    "091411.412000",
    "091413.912000",
    "091415.411000",
    "091417.411000",
    "091419.412000",
    "091421.412000",
    "091423.411000",
    "091425.411000",
    "091427.411000",
    "091429.411000",
    "091431.411000",
    "091433.410000",
    "091435.412000",
    "091437.412000",
    "091439.411000",
    "091441.412000",
    "091443.411000",
    "091445.412000",
    "091447.411000",
    "091449.412000",
    "091451.410000",
    "091453.411000",
    "091455.412000",
    "091457.411000",
    "091459.412000",
    "091501.412000",
    "091503.411000",
    "091505.412000",
    "091507.411000",
    "091509.410000",
    "091511.411000",
    "091513.412000",
    "091515.411000",
    "091517.411000",
    "091519.412000",
    "091521.412000",
    "091523.413000",
    "091525.411000",
    "091527.410000",
    "091529.411000",
    "091531.411000",
    "091533.411000",
    "091535.411000",
    "091537.412000",
    "091539.412000",
    "091541.412000",
    "091543.411000",
    "091545.412000",
    "091547.412000",
    "091549.411000",
    "091551.412000",
    "091553.411000",
    "091555.411000",
    "091557.412000",
    "091559.412000",
    "091601.410000",
    "091603.411000",
    "091605.412000",
    "091607.411000",
    "091609.411000",
    "091611.411000",
    "091613.411000",
    "091615.412000",
    "091617.910000",
    "091619.410000",
    "091621.411000",
    "091623.411000",
    "091625.411000",
    "091627.411000",
    "091629.411000",
    "091631.412000",
    "091633.923000",
    "091635.410000",
    "091637.410000",
    "091639.412000",
    "091641.411000",
    "091643.411000",
    "091645.412000",
    "091647.411000",
    "091649.412000",
    "091651.411000",
    "091653.410000",
    "091655.411000",
    "091657.411000",
    "091659.411000",
    "091701.411000",
    "091703.411000",
    "091705.412000",
    "091707.412000",
    "091709.411000",
    "091711.410000",
    "091713.411000",
    "091715.412000",
    "091717.412000",
    "091719.411000",
    "091721.411000",
    "091723.412000",
    "091725.411000",
    "091727.411000",
    "091729.410000",
    "091731.411000",
    "091733.412000",
    "091735.411000",
    "091737.415000",
    "091739.411000",
    "091741.412000",
    "091743.411000",
    "091745.410000",
    "091747.411000",
    "091749.411000",
    "091751.411000",
    "091753.411000",
    "091755.412000",
    "091757.359000"
   ],
   "InstanceCreationTime": [
    "090958.416000",
    "090959.911000",
    "091001.411000",
    "091003.411000",
    "091005.411000",
    "091007.412000",
    "091009.411000",
    "091011.410000",
    "091013.911000",
    "091015.411000",
    "091017.411000",
    "091019.412000",
    "091021.411000",
    "091023.411000",
    "091025.411000",
    "091027.412000",
    "091029.410000",
    "091031.411000",
    "091033.411000",
    "091035.411000",
    "091037.412000",
    "091039.411000",
    "091041.412000",
    "091043.411000",
    "091045.410000",
    "091047.911000",
    "091049.411000",
    "091051.412000",
    "091053.412000",
    "091055.411000",
    "091057.411000",
    "091059.411000",
    "091101.411000",
    "091103.411000",
    "091105.411000",
    "091107.412000",
    "091109.411000",
    "091111.411000",
    "091113.411000",
    "091115.411000",
    "091117.411000",
    "091119.411000",
    "091121.410000",
    "091123.412000",
    "091125.412000",
    "091127.412000",
    "091129.412000",
    "091131.412000",
    "091133.412000",
    "091135.411000",
    "091137.411000",
    "091139.410000",
    "091141.412000",
    "091143.411000",
    "091145.411000",
    "091147.411000",
    "091149.411000",
    "091151.411000",
    "091153.411000",
    "091155.410000",
    "091157.411000",
    "091159.412000",
    "091201.411000",
    "091203.411000",
    "091205.412000",
    "091207.411000",
    "091209.411000",
    "091211.411000",
    "091213.410000",
    "091215.410000",
    "091217.411000",
    "091219.412000",
    "091221.412000",
    "091223.411000",
    "091225.412000",
    "091227.411000",
    "091229.411000",
    "091231.410000",
    "091233.411000",
    "091235.412000",
    "091237.412000",
    "091239.411000",
    "091241.411000",
    "091243.411000",
    "091245.411000",
    "091247.412000",
    "091249.410000",
    "091251.411000",
    "091253.411000",
    "091255.412000",
    "091257.412000",
    "091259.412000",
    "091301.411000",
    "091303.411000",
    "091305.410000",
    "091307.411000",
    "091309.412000",
    "091311.412000",
    "091313.412000",
    "091315.411000",
    "091317.412000",
    "091319.412000",
    "091321.411000",
    "091323.410000",
    "091325.411000",
    "091327.412000",
    "091329.411000",
    "091331.412000",
    "091333.412000",
    "091335.412000",
    "091337.411000",
    "091339.411000",
    "091341.410000",
    "091343.411000",
    "091345.411000",
    "091347.412000",
    "091349.412000",
    "091351.412000",
    "091353.412000",
    "091355.411000",
    "091357.411000",
    "091359.411000",
    "091401.411000",
    "091403.412000",
    "091405.411000",
    "091407.411000",
    "091409.412000",
    "091411.412000",
    "091413.912000",
    "091415.411000",
    "091417.411000",
    "091419.412000",
    "091421.412000",
    "091423.411000",
    "091425.411000",
    "091427.411000",
    "091429.411000",
    "091431.411000",
    "091433.410000",
    "091435.412000",
    "091437.412000",
    "091439.411000",
    "091441.412000",
    "091443.411000",
    "091445.412000",
    "091447.411000",
    "091449.412000",
    "091451.410000",
    "091453.411000",
    "091455.412000",
    "091457.411000",
    "091459.412000",
    "091501.412000",
    "091503.411000",
    "091505.412000",
    "091507.411000",
    "091509.410000",
    "091511.411000",
    "091513.412000",
    "091515.411000",
    "091517.411000",
    "091519.412000",
    "091521.412000",
    "091523.413000",
    "091525.411000",
    "091527.410000",
    "091529.411000",
    "091531.411000",
    "091533.411000",
    "091535.411000",
    "091537.412000",
    "091539.412000",
    "091541.412000",
    "091543.411000",
    "091545.412000",
    "091547.412000",
    "091549.411000",
    "091551.412000",
    "091553.411000",
    "091555.411000",
    "091557.412000",
    "091559.412000",
    "091601.410000",
    "091603.411000",
    "091605.412000",
    "091607.411000",
    "091609.411000",
    "091611.411000",
    "091613.411000",
    "091615.412000",
    "091617.910000",
    "091619.410000",
    "091621.411000",
    "091623.411000",
    "091625.411000",
    "091627.411000",
    "091629.411000",
    "091631.412000",
    "091633.923000",
    "091635.410000",
    "091637.410000",
    "091639.412000",
    "091641.411000",
    "091643.411000",
    "091645.412000",
    "091647.411000",
    "091649.412000",
    "091651.411000",
    "091653.410000",
    "091655.411000",
    "091657.411000",
    "091659.411000",
    "091701.411000",
    "091703.411000",
    "091705.412000",
    "091707.412000",
    "091709.411000",
    "091711.410000",
    "091713.411000",
    "091715.412000",
    "091717.412000",
    "091719.411000",
    "091721.411000",
    "091723.412000",
    "091725.411000",
    "091727.411000",
    "091729.410000",
    "091731.411000",
    "091733.412000",
    "091735.411000",
    "091737.415000",
    "091739.411000",
    "091741.412000",
    "091743.411000",
    "091745.410000",
    "091747.411000",
    "091749.411000",
    "091751.411000",
    "091753.411000",
    "091755.412000",
    "091757.359000"
   ],
   "InstanceNumber": [
    1,
    2,
    3,
    4,
    5,
    6,
    7,
    8,
    9,
    10,
    11,
    12,
    13,
    14,
    15,
    16,
    17,
    18,
    19,
    20,
    21,
    22,
    23,
    24,
    25,
    26,
    27,
    28,
    29,
    30,
    31,
    32,
    33,
    34,
    35,
    36,
    37,
    38,
    39,
    40,
    41,
    42,
    43,
    44,
    45,
    46,
    47,
    48,
    49,
    50,
    51,
    52,
    53,
    54,
    55,
    56,
    57,
    58,
    59,
    60,
    61,
    62,
    63,
    64,
    65,
    66,
    67,
    68,
    69,
    70,
    71,
    72,
    73,
    74,
    75,
    76,
    77,
    78,
    79,
    80,
    81,
    82,
    83,
    84,
    85,
    86,
    87,
    88,
    89,
    90,
    91,
    92,
    93,
    94,
    95,
    96,
    97,
    98,
    99,
    100,
    101,
    102,
    103,
    104,
    105,
    106,
    107,
    108,
    109,
    110,
    111,
    112,
    113,
    114,
    115,
    116,
    117,
    118,
    119,
    120,
    121,
    122,
    123,
    124,
    125,
    126,
    127,
    128,
    129,
    130,
    131,
    132,
    133,
    134,
    135,
    136,
    137,
    138,
    139,
    140,
    141,
    142,
    143,
    144,
    145,
    146,
    147,
    148,
    149,
    150,
    151,
    152,
    153,
    154,
    155,
    156,
    157,
    158,
    159,
    160,
    161,
    162,
    163,
    164,
    165,
    166,
    167,
    168,
    169,
    170,
    171,
    172,
    173,
    174,
    175,
    176,
    177,
    178,
    179,
    180,
    181,
    182,
    183,
    184,
    185,
    186,
    187,
    188,
    189,
    190,
    191,
    192,
    193,
    194,
    195,
    196,
    197,
    198,
    199,
    200,
    201,
    202,
    203,
    204,
    205,
    206,
    207,
    208,
    209,
    210,
    211,
    212,
    213,
    214,
    215,
    216,
    217,
    218,
    219,
    220,
    221,
    222,
    223,
    224,
    225,
    226,
    227,
    228,
    229,
    230,
    231,
    232,
    233,
    234,
    235,
    236,
    237,
    238,
    239,
    240,
    241
   ],
   "LargestImagePixelValue": [
    3523,
    3449,
    3422,
    3492,
    3474,
    3612,
    3509,
    3473,
    3497,
    3478,
    3541,
    3498,
    3629,
    3542,
    3568,
    3602,
    3565,
    3524,
    3516,
    3482,
    3693,
    3585,
    3571,
    3574,
    3582,
    3591,
    3491,
    3475,
    3556,
    3463,
    3579,
    3476,
    3470,
    3554,
    3531,
    3660,
    3508,
    3519,
    3545,
    3539,
    3543,
    3682,
    3609,
    3547,
    3521,
    3487,
    3587,
    3549,
    3717,
    3495,
    3470,
    3517,
    3504,
    3562,
    3577,
    3596,
    3550,
    3501,
    3481,
    3579,
    3644,
    3564,
    3536,
    3465,
    3518,
    3716,
    3618,
    3585,
    3510,
    3538,
    3671,
    3710,
    3485,
    3553,
    3571,
    3542,
    3539,
    3689,
    3551,
    3513,
    3489,
    3550,
    3533,
    3507,
    3718,
    3554,
    3584,
    3517,
    3705,
    3568,
    3521,
    3513,
    3587,
    3568,
    3568,
    3597,
    3517,
    3549,
    3547,
    3562,
    3764,
    3603,
    3511,
    3460,
    3483,
    3674,
    3574,
    3511,
    3479,
    3492,
    3674,
    3632,
    3522,
    3518,
    3543,
    3780,
    3651,
    3577,
    3602,
    3536,
    3546,
    3604,
    3778,
    3530,
    3603,
    3514,
    3536,
    3579,
    3558,
    3700,
    3551,
    3530,
    3566,
    3536,
    3557,
    3572,
    3787,
    3659,
    3468,
    3530,
    3509,
    3522,
    3517,
    3580,
    3802,
    3624,
    3536,
    3490,
    3489,
    3532,
    3541,
    3510,
    3794,
    3716,
    3598,
    3606,
    3560,
    3559,
    3534,
    3885,
    3776,
    3689,
    3667,
    3543,
    3561,
    3532,
    3831,
    3637,
    3572,
    3478,
    3454,
    3572,
    3645,
    3586,
    3513,
    3526,
    3580,
    3730,
    3806,
    3631,
    3623,
    3520,
    3633,
    3783,
    3659,
    3556,
    3524,
    3576,
    3857,
    3775,
    3701,
    3610,
    3685,
    3638,
    3557,
    3570,
    3521,
    3837,
    3674,
    3610,
    3595,
    3547,
    3598,
    3610,
    3756,
    3811,
    3567,
    3642,
    3557,
    3602,
    3606,
    3641,
    3791,
    3623,
    3672,
    3561,
    3578,
    3604,
    3644,
    3885,
    3744,
    3699,
    3640,
    3578,
    3610,
    3607,
    3872,
    3837,
    3669,
    3729,
    3581,
    3565,
    3529,
    3799,
    3642,
    3664,
    3578,
    3557,
    3584,
    3590,
    3705
   ],
   "WindowCenter": [
    792.0,
    791.0,
    792.0,
    794.0,
    795.0,
    796.0,
    795.0,
    796.0,
    797.0,
    798.0,
    799.0,
    799.0,
    800.0,
    800.0,
    800.0,
    801.0,
    801.0,
    800.0,
    799.0,
    799.0,
    800.0,
    799.0,
    800.0,
    800.0,
    801.0,
    801.0,
    800.0,
    799.0,
    799.0,
    798.0,
    799.0,
    799.0,
    799.0,
    798.0,
    798.0,
    799.0,
    799.0,
    799.0,
    798.0,
    799.0,
    798.0,
    799.0,
    799.0,
    799.0,
    799.0,
    799.0,
    799.0,
    799.0,
    800.0,
    798.0,
    799.0,
    798.0,
    798.0,
    798.0,
    798.0,
    799.0,
    799.0,
    799.0,
    800.0,
    799.0,
    800.0,
    799.0,
    799.0,
    800.0,
    800.0,
    801.0,
    799.0,
    799.0,
    799.0,
    799.0,
    800.0,
    800.0,
    798.0,
    798.0,
    798.0,
    798.0,
    799.0,
    801.0,
    801.0,
    800.0,
    799.0,
    799.0,
    799.0,
    799.0,
    800.0,
    799.0,
    799.0,
    799.0,
    802.0,
    801.0,
    800.0,
    799.0,
    798.0,
    798.0,
    797.0,
    797.0,
    797.0,
    797.0,
    798.0,
    799.0,
    800.0,
    800.0,
    799.0,
    799.0,
    799.0,
    801.0,
    800.0,
    800.0,
    800.0,
    800.0,
    801.0,
    801.0,
    801.0,
    801.0,
    800.0,
    801.0,
    800.0,
    799.0,
    799.0,
    799.0,
    799.0,
    800.0,
    801.0,
    801.0,
    801.0,
    801.0,
    800.0,
    799.0,
    798.0,
    799.0,
    799.0,
    799.0,
    800.0,
    800.0,
    800.0,
    798.0,
    800.0,
    799.0,
    799.0,
    799.0,
    798.0,
    798.0,
    799.0,
    800.0,
    801.0,
    801.0,
    799.0,
    798.0,
    798.0,
    798.0,
    799.0,
    800.0,
    802.0,
    802.0,
    802.0,
    802.0,
    801.0,
    801.0,
    800.0,
    802.0,
    802.0,
    802.0,
    802.0,
    801.0,
    800.0,
    800.0,
    802.0,
    801.0,
    801.0,
    800.0,
    800.0,
    800.0,
    800.0,
    801.0,
    800.0,
    800.0,
    800.0,
    801.0,
    802.0,
    801.0,
    802.0,
    801.0,
    802.0,
    804.0,
    804.0,
    803.0,
    802.0,
    801.0,
    802.0,
    800.0,
    800.0,
    800.0,
    800.0,
    801.0,
    800.0,
    801.0,
    800.0,
    803.0,
    803.0,
    802.0,
    802.0,
    801.0,
    801.0,
    801.0,
    801.0,
    802.0,
    801.0,
    801.0,
    801.0,
    802.0,
    801.0,
    801.0,
    802.0,
    802.0,
    802.0,
    802.0,
    802.0,
    801.0,
    801.0,
    802.0,
    802.0,
    802.0,
    802.0,
    801.0,
    800.0,
    800.0,
    801.0,
    801.0,
    800.0,
    801.0,
    800.0,
    801.0,
    801.0,
    803.0,
    802.0,
    802.0,
    801.0,
    801.0,
    802.0,
    802.0,
    802.0
   ],
   "WindowWidth": [
    1719.0,
    1716.0,
    1719.0,
    1727.0,
    1729.0,
