{
 "AcquisitionMatrixPE": 100,
 "AcquisitionNumber": 1,
 "AcquisitionTime": "09:59:48.940000",
 "BandwidthPerPixelPhaseEncode": 18.519,
 "BaseResolution": 100,
 "BodyPartExamined": "BRAIN",
 "ConsistencyInfo": "N4_VE11C_LATEST_20160120",
 "ConversionSoftware": "dcm2niix",
 "ConversionSoftwareVersion": "v1.0.20180622 GCC4.9.2",
 "DerivedVendorReportedEchoSpacing": 0.000539986,
 "DeviceSerialNumber": "166078",
 "DwellTime": 2.1e-06,
 "EchoTime": 0.034,
 "EchoTrainLength": 100,
 "EffectiveEchoSpacing": 0.000539986,
 "FlipAngle": 90,
 "ImageOrientationPatientDICOM": [
  1,
  0,
  0,
  0,
  0.983255,
  -0.182236
 ],
 "ImageType": [
  "ORIGINAL",
  "PRIMARY",
  "M",
  "ND",
  "MOSAIC"
 ],
 "InPlanePhaseEncodingDirectionDICOM": "COL",
 "InstitutionAddress": "Street_StreetNo_Bei_Jing_District_CN_ZIP",
 "InstitutionName": "BeiJing_Normal_University",
 "InstitutionalDepartmentName": "Department",
 "MRAcquisitionType": "2D",
 "MagneticFieldStrength": 3,
 "Manufacturer": "Siemens",
 "ManufacturersModelName": "Prisma",
 "Modality": "MR",
 "MultibandAccelerationFactor": 3,
 "PartialFourier": 1,
 "PatientPosition": "HFS",
 "PercentPhaseFOV": 100,
 "PhaseEncodingDirection": "j-",
 "PhaseEncodingSteps": 100,
 "PhaseResolution": 1,
 "PixelBandwidth": 2380,
 "ProcedureStepDescription": "BNU_P2018_64CH_Zhen.ZongLei",
 "ProtocolName": "bold_100x100_s3_2x2x2_static_test_241",
 "PulseSequenceDetails": "%SiemensSeq%_ep2d_bold",
 "ReceiveCoilActiveElements": "HC1-7;NC1",
 "ReceiveCoilName": "HeadNeck_64",
 "ReconMatrixPE": 100,
 "RepetitionTime": 2,
 "SAR": 0.0602094,
 "ScanOptions": "FS",
 "ScanningSequence": "EP",
 "SequenceName": "_epfid2d1_100",
 "SequenceVariant": "SK",
 "SeriesDescription": "bold_100x100_s3_2x2x2_static_test_241",
 "SeriesNumber": 10,
 "ShimSetting": [
  -5464,
  -11487,
  -1276,
  377,
  -26,
  -110,
  -132,
  54
 ],
 "SliceThickness": 2,
 "SliceTiming": [
  1.485,
  0,
  0.99,
  0.0825,
  1.0725,
  0.165,
  1.155,
  0.2475,
  1.2375,
  0.33,
  1.32,
  0.4125,
  1.4025,
  0.5775,
  1.5675,
  0.66,
  1.65,
  0.7425,
  1.7325,
  0.825,
  1.815,
  0.9075,
  1.8975,
  0.495,
  1.485,
  0,
  0.99,
  0.0825,
  1.0725,
  0.165,
  1.155,
  0.2475,
  1.2375,
  0.33,
  1.32,
  0.4125,
  1.4025,
  0.5775,
  1.5675,
  0.66,
  1.65,
  0.7425,
  1.7325,
  0.825,
  1.815,
  0.9075,
  1.8975,
  0.495,
  1.485,
  0,
  0.99,
  0.0825,
  1.0725,
  0.165,
  1.155,
  0.2475,
  1.2375,
  0.33,
  1.32,
  0.4125,
  1.4025,
  0.5775,
  1.5675,
  0.66,
  1.65,
  0.7425,
  1.7325,
  0.825,
  1.815,
  0.9075,
  1.8975,
  0.495
 ],
 "SoftwareVersions": "syngo_MR_E11",
 "SpacingBetweenSlices": 2,
 "StationName": "AWP166078",
 "TaskName": "coco",
 "TotalReadoutTime": 0.0534586,
 "TxRefAmp": 206.412,
 "dcmmeta_affine": [
  [
   -2.0,
   0.0,
   0.0,
   100.0
  ],
  [
   0.0,
   1.9665098190307617,
   -0.36447104811668396,
   -84.17688751220703
  ],
  [
   0.0,
   0.36447104811668396,
   1.9665096998214722,
   -89.79066467285156
  ],
  [
   0.0,
   0.0,
   0.0,
   1.0
  ]
 ],
 "dcmmeta_reorient_transform": [
  [
   0.0,
   -1.0,
   0.0,
   99.0
  ],
  [
   1.0,
   0.0,
   0.0,
   0.0
  ],
  [
   0.0,
   0.0,
   1.0,
   0.0
  ],
  [
   0.0,
   0.0,
   0.0,
   1.0
  ]
 ],
 "dcmmeta_shape": [
  100,
  100,
  72,
  241
 ],
 "dcmmeta_slice_dim": 2,
 "dcmmeta_version": 0.6,
 "global": {
  "const": {
   "AcquisitionMatrix": [
    100,
    0,
    0,
    100
   ],
   "AngioFlag": "N",
   "BitsAllocated": 16,
   "BitsStored": 12,
   "BodyPartExamined": "BRAIN",
   "Columns": 900,
   "EchoNumbers": 1,
   "EchoTime": 34.0,
   "EchoTrainLength": 100,
   "FlipAngle": 90.0,
   "HighBit": 11,
   "ImageOrientationPatient": [
    1.0,
    0.0,
    0.0,
    0.0,
    0.98325490764387,
    -0.182235525061
   ],
   "ImagePositionPatient": [
    -900.0,
    -897.11151240713,
    92.080392965011
   ],
   "ImageType": [
    "ORIGINAL",
    "PRIMARY",
    "M",
    "ND",
    "MOSAIC"
   ],
   "ImagedNucleus": "1H",
   "ImagingFrequency": 123.257766,
   "InPlanePhaseEncodingDirection": "COL",
   "MRAcquisitionType": "2D",
   "MagneticFieldStrength": 3.0,
   "Manufacturer": "SIEMENS",
   "ManufacturerModelName": "Prisma",
   "Modality": "MR",
   "NumberOfAverages": 1.0,
   "NumberOfPhaseEncodingSteps": 100,
   "PercentPhaseFieldOfView": 100.0,
   "PercentSampling": 100.0,
   "PerformedProcedureStepStartTime": "090340.430000",
   "PhotometricInterpretation": "MONOCHROME2",
   "PixelBandwidth": 2380.0,
   "PixelRepresentation": 0,
   "PixelSpacing": [
    2.0,
    2.0
   ],
   "ProtocolName": "bold_100x100_s3_2x2x2_static_test_241",
   "RepetitionTime": 2000.0,
   "Rows": 900,
   "SAR": 0.06020944289607,
   "SamplesPerPixel": 1,
   "ScanOptions": "FS",
   "ScanningSequence": "EP",
   "SequenceName": "*epfid2d1_100",
   "SequenceVariant": "SK",
   "SeriesDescription": "bold_100x100_s3_2x2x2_static_test_241",
   "SeriesNumber": 10,
   "SeriesTime": "095951.154000",
   "SliceLocation": -72.947089221113,
   "SliceThickness": 2.0,
   "SmallestImagePixelValue": 0,
   "SoftwareVersions": "syngo MR E11",
   "SpacingBetweenSlices": 1.9999999368969,
   "SpecificCharacterSet": "ISO_IR 100",
   "StudyID": "1",
   "StudyTime": "090340.321000",
   "TransmitCoilName": "Body",
   "VariableFlipAngleFlag": "N",
   "WindowCenterWidthExplanation": "Algo1",
   "dBdt": 0.0
  },
  "slices": {}
 },
 "time": {
  "samples": {
   "AcquisitionNumber": [
    1,
    2,
    3,
    4,
    5,
    6,
    7,
    8,
    9,
    10,
    11,
    12,
    13,
    14,
    15,
    16,
    17,
    18,
    19,
    20,
    21,
    22,
    23,
    24,
    25,
    26,
    27,
    28,
    29,
    30,
    31,
    32,
    33,
    34,
    35,
    36,
    37,
    38,
    39,
    40,
    41,
    42,
    43,
    44,
    45,
    46,
    47,
    48,
    49,
    50,
    51,
    52,
    53,
    54,
    55,
    56,
    57,
    58,
    59,
    60,
    61,
    62,
    63,
    64,
    65,
    66,
    67,
    68,
    69,
    70,
    71,
    72,
    73,
    74,
    75,
    76,
    77,
    78,
    79,
    80,
    81,
    82,
    83,
    84,
    85,
    86,
    87,
    88,
    89,
    90,
    91,
    92,
    93,
    94,
    95,
    96,
    97,
    98,
    99,
    100,
    101,
    102,
    103,
    104,
    105,
    106,
    107,
    108,
    109,
    110,
    111,
    112,
    113,
    114,
    115,
    116,
    117,
    118,
    119,
    120,
    121,
    122,
    123,
    124,
    125,
    126,
    127,
    128,
    129,
    130,
    131,
    132,
    133,
    134,
    135,
    136,
    137,
    138,
    139,
    140,
    141,
    142,
    143,
    144,
    145,
    146,
    147,
    148,
    149,
    150,
    151,
    152,
    153,
    154,
    155,
    156,
    157,
    158,
    159,
    160,
    161,
    162,
    163,
    164,
    165,
    166,
    167,
    168,
    169,
    170,
    171,
    172,
    173,
    174,
    175,
    176,
    177,
    178,
    179,
    180,
    181,
    182,
    183,
    184,
    185,
    186,
    187,
    188,
    189,
    190,
    191,
    192,
    193,
    194,
    195,
    196,
    197,
    198,
    199,
    200,
    201,
    202,
    203,
    204,
    205,
    206,
    207,
    208,
    209,
    210,
    211,
    212,
    213,
    214,
    215,
    216,
    217,
    218,
    219,
    220,
    221,
    222,
    223,
    224,
    225,
    226,
    227,
    228,
    229,
    230,
    231,
    232,
    233,
    234,
    235,
    236,
    237,
    238,
    239,
    240,
    241
   ],
   "AcquisitionTime": [
    "095948.940000",
    "095950.940000",
    "095952.940000",
    "095954.940000",
    "095956.940000",
    "095958.940000",
    "100000.940000",
    "100002.940000",
    "100004.940000",
    "100006.940000",
    "100008.940000",
    "100010.940000",
    "100012.940000",
    "100014.940000",
    "100016.940000",
    "100018.940000",
    "100020.940000",
    "100022.940000",
    "100024.940000",
    "100026.940000",
    "100028.940000",
    "100030.940000",
    "100032.940000",
    "100034.940000",
    "100036.940000",
    "100038.940000",
    "100040.940000",
    "100042.940000",
    "100044.940000",
    "100046.940000",
    "100048.940000",
    "100050.940000",
    "100052.940000",
    "100054.940000",
    "100056.940000",
    "100058.940000",
    "100100.940000",
    "100102.940000",
    "100104.940000",
    "100106.940000",
    "100108.940000",
    "100110.940000",
    "100112.940000",
    "100114.940000",
    "100116.940000",
    "100118.940000",
    "100120.940000",
    "100122.940000",
    "100124.940000",
    "100126.940000",
    "100128.940000",
    "100130.940000",
    "100132.940000",
    "100134.940000",
    "100136.940000",
    "100138.940000",
    "100140.940000",
    "100142.940000",
    "100144.940000",
    "100146.940000",
    "100148.940000",
    "100150.940000",
    "100152.940000",
    "100154.940000",
    "100156.940000",
    "100158.940000",
    "100200.940000",
    "100202.940000",
    "100204.940000",
    "100206.940000",
    "100208.940000",
    "100210.940000",
    "100212.940000",
    "100214.940000",
    "100216.940000",
    "100218.940000",
    "100220.940000",
    "100222.940000",
    "100224.940000",
    "100226.940000",
    "100228.940000",
    "100230.940000",
    "100232.940000",
    "100234.940000",
    "100236.940000",
    "100238.940000",
    "100240.940000",
    "100242.940000",
    "100244.940000",
    "100246.940000",
    "100248.940000",
    "100250.940000",
    "100252.940000",
    "100254.940000",
    "100256.940000",
    "100258.940000",
    "100300.940000",
    "100302.940000",
    "100304.940000",
    "100306.940000",
    "100308.940000",
    "100310.940000",
    "100312.940000",
    "100314.940000",
    "100316.940000",
    "100318.940000",
    "100320.940000",
    "100322.940000",
    "100324.940000",
    "100326.940000",
    "100328.940000",
    "100330.940000",
    "100332.940000",
    "100334.940000",
    "100336.940000",
    "100338.940000",
    "100340.940000",
    "100342.940000",
    "100344.940000",
    "100346.940000",
    "100348.940000",
    "100350.940000",
    "100352.940000",
    "100354.940000",
    "100356.940000",
    "100358.940000",
    "100400.940000",
    "100402.940000",
    "100404.940000",
    "100406.940000",
    "100408.940000",
    "100410.940000",
    "100412.940000",
    "100414.940000",
    "100416.940000",
    "100418.940000",
    "100420.940000",
    "100422.940000",
    "100424.940000",
    "100426.940000",
    "100428.940000",
    "100430.940000",
    "100432.940000",
    "100434.940000",
    "100436.940000",
    "100438.940000",
    "100440.940000",
    "100442.940000",
    "100444.940000",
    "100446.940000",
    "100448.940000",
    "100450.940000",
    "100452.940000",
    "100454.940000",
    "100456.940000",
    "100458.940000",
    "100500.940000",
    "100502.940000",
    "100504.940000",
    "100506.940000",
    "100508.940000",
    "100510.940000",
    "100512.940000",
    "100514.940000",
    "100516.940000",
    "100518.940000",
    "100520.940000",
    "100522.940000",
    "100524.940000",
    "100526.940000",
    "100528.940000",
    "100530.940000",
    "100532.940000",
    "100534.940000",
    "100536.940000",
    "100538.940000",
    "100540.940000",
    "100542.940000",
    "100544.940000",
    "100546.940000",
    "100548.940000",
    "100550.940000",
    "100552.940000",
    "100554.940000",
    "100556.940000",
    "100558.940000",
    "100600.940000",
    "100602.940000",
    "100604.940000",
    "100606.940000",
    "100608.940000",
    "100610.940000",
    "100612.940000",
    "100614.940000",
    "100616.940000",
    "100618.940000",
    "100620.940000",
    "100622.940000",
    "100624.940000",
    "100626.940000",
    "100628.940000",
    "100630.940000",
    "100632.940000",
    "100634.940000",
    "100636.940000",
    "100638.940000",
    "100640.940000",
    "100642.940000",
    "100644.940000",
    "100646.940000",
    "100648.940000",
    "100650.940000",
    "100652.940000",
    "100654.940000",
    "100656.940000",
    "100658.940000",
    "100700.940000",
    "100702.940000",
    "100704.940000",
    "100706.940000",
    "100708.940000",
    "100710.940000",
    "100712.940000",
    "100714.940000",
    "100716.940000",
    "100718.940000",
    "100720.940000",
    "100722.940000",
    "100724.940000",
    "100726.940000",
    "100728.940000",
    "100730.940000",
    "100732.940000",
    "100734.940000",
    "100736.940000",
    "100738.940000",
    "100740.940000",
    "100742.940000",
    "100744.940000",
    "100746.940000",
    "100748.940000"
   ],
   "ContentTime": [
    "095951.157000",
    "095952.651000",
    "095954.652000",
    "095957.151000",
    "095958.651000",
    "100000.652000",
    "100002.652000",
    "100004.652000",
    "100006.653000",
    "100008.653000",
    "100011.151000",
    "100012.651000",
    "100014.652000",
    "100016.651000",
    "100018.651000",
    "100020.652000",
    "100022.653000",
    "100024.653000",
    "100026.652000",
    "100028.652000",
    "100030.652000",
    "100032.651000",
    "100034.652000",
    "100036.652000",
    "100038.653000",
    "100040.652000",
    "100042.652000",
    "100044.652000",
    "100046.652000",
    "100048.651000",
    "100050.651000",
    "100052.652000",
    "100054.651000",
    "100056.653000",
    "100058.652000",
    "100100.653000",
    "100102.651000",
    "100104.652000",
    "100106.651000",
    "100108.652000",
    "100110.652000",
    "100113.153000",
    "100114.652000",
    "100116.652000",
    "100118.652000",
    "100120.652000",
    "100122.651000",
    "100124.651000",
    "100126.651000",
    "100128.652000",
    "100130.652000",
    "100132.653000",
    "100134.653000",
    "100136.652000",
    "100138.651000",
    "100140.652000",
    "100142.651000",
    "100144.651000",
    "100146.651000",
    "100148.652000",
    "100151.152000",
    "100152.652000",
    "100154.652000",
    "100156.651000",
    "100158.652000",
    "100200.651000",
    "100202.651000",
    "100204.651000",
    "100206.652000",
    "100208.652000",
    "100210.652000",
    "100212.651000",
    "100214.651000",
    "100216.652000",
    "100218.652000",
    "100220.652000",
    "100222.653000",
    "100224.653000",
    "100226.653000",
    "100228.653000",
    "100230.651000",
    "100232.651000",
    "100234.652000",
    "100236.652000",
    "100238.652000",
    "100240.653000",
    "100242.653000",
    "100244.653000",
    "100246.653000",
    "100248.651000",
    "100250.652000",
    "100252.651000",
    "100254.651000",
    "100256.652000",
    "100258.653000",
    "100300.653000",
    "100302.652000",
    "100304.652000",
    "100306.651000",
    "100308.652000",
    "100310.651000",
    "100312.652000",
    "100314.652000",
    "100316.653000",
    "100318.652000",
    "100320.652000",
    "100322.651000",
    "100324.651000",
    "100326.651000",
    "100328.652000",
    "100330.651000",
    "100332.652000",
    "100334.653000",
    "100336.652000",
    "100338.653000",
    "100340.651000",
    "100343.151000",
    "100344.651000",
    "100346.651000",
    "100348.652000",
    "100350.652000",
    "100352.653000",
    "100354.653000",
    "100356.653000",
    "100358.652000",
    "100400.652000",
    "100402.651000",
    "100404.652000",
    "100406.652000",
    "100408.653000",
    "100410.653000",
    "100412.652000",
    "100414.653000",
    "100416.652000",
    "100418.651000",
    "100420.652000",
    "100422.652000",
    "100424.652000",
    "100426.653000",
    "100428.653000",
    "100430.653000",
    "100432.652000",
    "100434.651000",
    "100436.651000",
    "100438.652000",
    "100440.651000",
    "100442.653000",
    "100444.652000",
    "100446.653000",
    "100448.653000",
    "100450.651000",
    "100452.651000",
    "100454.651000",
    "100456.652000",
    "100458.652000",
    "100500.653000",
    "100502.653000",
    "100504.653000",
    "100506.653000",
    "100508.651000",
    "100510.652000",
    "100512.651000",
    "100514.651000",
    "100516.651000",
    "100518.653000",
    "100520.652000",
    "100522.653000",
    "100524.653000",
    "100526.651000",
    "100528.652000",
    "100530.651000",
    "100532.651000",
    "100534.651000",
    "100536.652000",
    "100538.652000",
    "100540.652000",
    "100542.652000",
    "100544.652000",
    "100546.652000",
    "100548.651000",
    "100550.651000",
    "100552.653000",
    "100554.653000",
    "100556.653000",
    "100558.652000",
    "100600.652000",
    "100602.651000",
    "100604.652000",
    "100606.652000",
    "100608.652000",
    "100610.653000",
    "100612.653000",
    "100614.653000",
    "100616.652000",
    "100618.652000",
    "100620.651000",
    "100622.651000",
    "100624.652000",
    "100626.652000",
    "100628.653000",
    "100630.652000",
    "100632.652000",
    "100634.653000",
    "100636.652000",
    "100639.152000",
    "100640.652000",
    "100642.651000",
    "100644.652000",
    "100646.653000",
    "100648.653000",
    "100650.652000",
    "100652.652000",
    "100654.651000",
    "100656.651000",
    "100658.652000",
    "100700.652000",
    "100702.653000",
    "100704.653000",
    "100706.653000",
    "100708.652000",
    "100710.651000",
    "100712.652000",
    "100714.651000",
    "100716.651000",
    "100718.651000",
    "100720.653000",
    "100722.653000",
    "100724.653000",
    "100726.653000",
    "100728.651000",
    "100730.652000",
    "100732.651000",
    "100735.152000",
    "100736.652000",
    "100738.653000",
    "100740.652000",
    "100742.652000",
    "100744.653000",
    "100746.652000",
    "100748.653000",
    "100750.594000"
   ],
   "InstanceCreationTime": [
    "095951.157000",
    "095952.651000",
    "095954.652000",
    "095957.151000",
    "095958.651000",
    "100000.652000",
    "100002.652000",
    "100004.652000",
    "100006.653000",
    "100008.653000",
    "100011.151000",
    "100012.651000",
    "100014.652000",
    "100016.651000",
    "100018.651000",
    "100020.652000",
    "100022.653000",
    "100024.653000",
    "100026.652000",
    "100028.652000",
    "100030.652000",
    "100032.651000",
    "100034.652000",
    "100036.652000",
    "100038.653000",
    "100040.652000",
    "100042.652000",
    "100044.652000",
    "100046.652000",
    "100048.651000",
    "100050.651000",
    "100052.652000",
    "100054.651000",
    "100056.653000",
    "100058.652000",
    "100100.653000",
    "100102.651000",
    "100104.652000",
    "100106.651000",
    "100108.652000",
    "100110.652000",
    "100113.153000",
    "100114.652000",
    "100116.652000",
    "100118.652000",
    "100120.652000",
    "100122.651000",
    "100124.651000",
    "100126.651000",
    "100128.652000",
    "100130.652000",
    "100132.653000",
    "100134.653000",
    "100136.652000",
    "100138.651000",
    "100140.652000",
    "100142.651000",
    "100144.651000",
    "100146.651000",
    "100148.652000",
    "100151.152000",
    "100152.652000",
    "100154.652000",
    "100156.651000",
    "100158.652000",
    "100200.651000",
    "100202.651000",
    "100204.651000",
    "100206.652000",
    "100208.652000",
    "100210.652000",
    "100212.651000",
    "100214.651000",
    "100216.652000",
    "100218.652000",
    "100220.652000",
    "100222.653000",
    "100224.653000",
    "100226.653000",
    "100228.653000",
    "100230.651000",
    "100232.651000",
    "100234.652000",
    "100236.652000",
    "100238.652000",
    "100240.653000",
    "100242.653000",
    "100244.653000",
    "100246.653000",
    "100248.651000",
    "100250.652000",
    "100252.651000",
    "100254.651000",
    "100256.652000",
    "100258.653000",
    "100300.653000",
    "100302.652000",
    "100304.652000",
    "100306.651000",
    "100308.652000",
    "100310.651000",
    "100312.652000",
    "100314.652000",
    "100316.653000",
    "100318.652000",
    "100320.652000",
    "100322.651000",
    "100324.651000",
    "100326.651000",
    "100328.652000",
    "100330.651000",
    "100332.652000",
    "100334.653000",
    "100336.652000",
    "100338.653000",
    "100340.651000",
    "100343.151000",
    "100344.651000",
    "100346.651000",
    "100348.652000",
    "100350.652000",
    "100352.653000",
    "100354.653000",
    "100356.653000",
    "100358.652000",
    "100400.652000",
    "100402.651000",
    "100404.652000",
    "100406.652000",
    "100408.653000",
    "100410.653000",
    "100412.652000",
    "100414.653000",
    "100416.652000",
    "100418.651000",
    "100420.652000",
    "100422.652000",
    "100424.652000",
    "100426.653000",
    "100428.653000",
    "100430.653000",
    "100432.652000",
    "100434.651000",
    "100436.651000",
    "100438.652000",
    "100440.651000",
    "100442.653000",
    "100444.652000",
    "100446.653000",
    "100448.653000",
    "100450.651000",
    "100452.651000",
    "100454.651000",
    "100456.652000",
    "100458.652000",
    "100500.653000",
    "100502.653000",
    "100504.653000",
    "100506.653000",
    "100508.651000",
    "100510.652000",
    "100512.651000",
    "100514.651000",
    "100516.651000",
    "100518.653000",
    "100520.652000",
    "100522.653000",
    "100524.653000",
    "100526.651000",
    "100528.652000",
    "100530.651000",
    "100532.651000",
    "100534.651000",
    "100536.652000",
    "100538.652000",
    "100540.652000",
    "100542.652000",
    "100544.652000",
    "100546.652000",
    "100548.651000",
    "100550.651000",
    "100552.653000",
    "100554.653000",
    "100556.653000",
    "100558.652000",
    "100600.652000",
    "100602.651000",
    "100604.652000",
    "100606.652000",
    "100608.652000",
    "100610.653000",
    "100612.653000",
    "100614.653000",
    "100616.652000",
    "100618.652000",
    "100620.651000",
    "100622.651000",
    "100624.652000",
    "100626.652000",
    "100628.653000",
    "100630.652000",
    "100632.652000",
    "100634.653000",
    "100636.652000",
    "100639.152000",
    "100640.652000",
    "100642.651000",
    "100644.652000",
    "100646.653000",
    "100648.653000",
    "100650.652000",
    "100652.652000",
    "100654.651000",
    "100656.651000",
    "100658.652000",
    "100700.652000",
    "100702.653000",
    "100704.653000",
    "100706.653000",
    "100708.652000",
    "100710.651000",
    "100712.652000",
    "100714.651000",
    "100716.651000",
    "100718.651000",
    "100720.653000",
    "100722.653000",
    "100724.653000",
    "100726.653000",
    "100728.651000",
    "100730.652000",
    "100732.651000",
    "100735.152000",
    "100736.652000",
    "100738.653000",
    "100740.652000",
    "100742.652000",
    "100744.653000",
    "100746.652000",
    "100748.653000",
    "100750.594000"
   ],
   "InstanceNumber": [
    1,
    2,
    3,
    4,
    5,
    6,
    7,
    8,
    9,
    10,
    11,
    12,
    13,
    14,
    15,
    16,
    17,
    18,
    19,
    20,
    21,
    22,
    23,
    24,
    25,
    26,
    27,
    28,
    29,
    30,
    31,
    32,
    33,
    34,
    35,
    36,
    37,
    38,
    39,
    40,
    41,
    42,
    43,
    44,
    45,
    46,
    47,
    48,
    49,
    50,
    51,
    52,
    53,
    54,
    55,
    56,
    57,
    58,
    59,
    60,
    61,
    62,
    63,
    64,
    65,
    66,
    67,
    68,
    69,
    70,
    71,
    72,
    73,
    74,
    75,
    76,
    77,
    78,
    79,
    80,
    81,
    82,
    83,
    84,
    85,
    86,
    87,
    88,
    89,
    90,
    91,
    92,
    93,
    94,
    95,
    96,
    97,
    98,
    99,
    100,
    101,
    102,
    103,
    104,
    105,
    106,
    107,
    108,
    109,
    110,
    111,
    112,
    113,
    114,
    115,
    116,
    117,
    118,
    119,
    120,
    121,
    122,
    123,
    124,
    125,
    126,
    127,
    128,
    129,
    130,
    131,
    132,
    133,
    134,
    135,
    136,
    137,
    138,
    139,
    140,
    141,
    142,
    143,
    144,
    145,
    146,
    147,
    148,
    149,
    150,
    151,
    152,
    153,
    154,
    155,
    156,
    157,
    158,
    159,
    160,
    161,
    162,
    163,
    164,
    165,
    166,
    167,
    168,
    169,
    170,
    171,
    172,
    173,
    174,
    175,
    176,
    177,
    178,
    179,
    180,
    181,
    182,
    183,
    184,
    185,
    186,
    187,
    188,
    189,
    190,
    191,
    192,
    193,
    194,
    195,
    196,
    197,
    198,
    199,
    200,
    201,
    202,
    203,
    204,
    205,
    206,
    207,
    208,
    209,
    210,
    211,
    212,
    213,
    214,
    215,
    216,
    217,
    218,
    219,
    220,
    221,
    222,
    223,
    224,
    225,
    226,
    227,
    228,
    229,
    230,
    231,
    232,
    233,
    234,
    235,
    236,
    237,
    238,
    239,
    240,
    241
   ],
   "LargestImagePixelValue": [
    3575,
    3435,
    3570,
    3627,
    3512,
    3528,
    3601,
    3504,
    3493,
    3510,
    3556,
    3510,
    3539,
    3509,
    3499,
    3486,
    3679,
    3505,
    3545,
    3513,
    3539,
    3532,
    3477,
    3501,
    3488,
    3523,
    3509,
    3569,
    3498,
    3536,
    3509,
    3547,
    3578,
    3550,
    3511,
    3524,
    3542,
    3537,
    3526,
    3539,
    3527,
    3523,
    3524,
    3559,
    3546,
    3663,
    3605,
    3493,
    3500,
    3498,
    3495,
    3527,
    3510,
    3468,
    3505,
    3486,
    3493,
    3458,
    3489,
    3543,
    3558,
    3535,
    3534,
    3582,
    3506,
    3551,
    3524,
    3498,
    3498,
    3483,
    3513,
    3436,
    3519,
    3475,
    3503,
    3480,
    3523,
    3505,
    3490,
    3480,
    3506,
    3500,
    3539,
    3506,
    3521,
    3503,
    3469,
    3481,
    3452,
    3515,
    3470,
    3549,
    3573,
    3503,
    3516,
    3499,
    3501,
    3482,
    3496,
    3567,
    3537,
    3446,
    3515,
    3481,
    3493,
    3466,
    3538,
    3552,
    3495,
    3475,
    3480,
    3486,
    3491,
    3439,
    3456,
    3455,
    3505,
    3476,
    3524,
    3498,
    3528,
    3486,
    3537,
    3540,
    3484,
    3482,
    3545,
    3456,
    3501,
    3505,
    3487,
    3488,
    3508,
    3475,
    3530,
    3573,
    3505,
    3494,
    3506,
    3479,
    3512,
    3528,
    3578,
    3539,
    3487,
    3483,
    3456,
    3529,
    3498,
    3548,
    3529,
    3542,
    3483,
    3503,
    3550,
    3480,
    3504,
    3495,
    3451,
    3512,
    3488,
    3465,
    3548,
    3550,
    3505,
    3546,
    3488,
    3548,
    3487,
    3571,
    3545,
    3533,
    3617,
    3597,
    3561,
    3545,
    3600,
    3535,
    3502,
    3535,
    3479,
    3486,
    3534,
    3487,
    3498,
    3553,
    3489,
    3501,
    3562,
    3476,
    3491,
    3525,
    3541,
    3559,
    3518,
    3529,
    3512,
    3566,
    3546,
    3537,
    3525,
    3528,
    3571,
    3544,
    3559,
    3466,
    3462,
    3548,
    3542,
    3516,
    3520,
    3476,
    3485,
    3504,
    3479,
    3514,
    3522,
    3469,
    3489,
    3518,
    3517,
    3501,
    3494,
    3485,
    3477,
    3502,
    3454,
    3449,
    3488,
    3512,
    3521,
    3506,
    3525,
    3546,
    3512,
    3525,
    3513,
    3548,
    3529,
    3530,
    3485
   ],
   "WindowCenter": [
    799.0,
    796.0,
    798.0,
    799.0,
    800.0,
    800.0,
    802.0,
    801.0,
    801.0,
    801.0,
    801.0,
    801.0,
    801.0,
    800.0,
    801.0,
    802.0,
    804.0,
    804.0,
    804.0,
    804.0,
    803.0,
    803.0,
    803.0,
    803.0,
    802.0,
    802.0,
    801.0,
    801.0,
    801.0,
    801.0,
    802.0,
    802.0,
    802.0,
    801.0,
    801.0,
    802.0,
    802.0,
    802.0,
    802.0,
    801.0,
    801.0,
    802.0,
    802.0,
    801.0,
    801.0,
    802.0,
    802.0,
    802.0,
    803.0,
    805.0,
    805.0,
    804.0,
    804.0,
    802.0,
    801.0,
    801.0,
    801.0,
    801.0,
    802.0,
    802.0,
    803.0,
    802.0,
    803.0,
    805.0,
    806.0,
    805.0,
    803.0,
    802.0,
    800.0,
    799.0,
    799.0,
    798.0,
    799.0,
    800.0,
    802.0,
    802.0,
    803.0,
    802.0,
    802.0,
    802.0,
    801.0,
    803.0,
    804.0,
    803.0,
    802.0,
    801.0,
    800.0,
    800.0,
    799.0,
    800.0,
    801.0,
    804.0,
    806.0,
    805.0,
    804.0,
    802.0,
    801.0,
    800.0,
    800.0,
    800.0,
    799.0,
    798.0,
    800.0,
    801.0,
    804.0,
    804.0,
    804.0,
    804.0,
    803.0,
    802.0,
    802.0,
    801.0,
    801.0,
    801.0,
    801.0,
    802.0,
    803.0,
    804.0,
    805.0,
    805.0,
    805.0,
    805.0,
    806.0,
    807.0,
    806.0,
    804.0,
    803.0,
    801.0,
    800.0,
    799.0,
    800.0,
    800.0,
    800.0,
    800.0,
    802.0,
    801.0,
    801.0,
    801.0,
    800.0,
    799.0,
    800.0,
    802.0,
    803.0,
    803.0,
    802.0,
    801.0,
    800.0,
    799.0,
    798.0,
    798.0,
    799.0,
    803.0,
    804.0,
    804.0,
    803.0,
    802.0,
    801.0,
    800.0,
    799.0,
    799.0,
    800.0,
    801.0,
    802.0,
    804.0,
    804.0,
    805.0,
    803.0,
    802.0,
    800.0,
    800.0,
    801.0,
    802.0,
    803.0,
    803.0,
    803.0,
    802.0,
    801.0,
    801.0,
    800.0,
    800.0,
    799.0,
    798.0,
    798.0,
    799.0,
    803.0,
    806.0,
    804.0,
    803.0,
    802.0,
    801.0,
    800.0,
    801.0,
    802.0,
    802.0,
    802.0,
    801.0,
    802.0,
    804.0,
    805.0,
    805.0,
    803.0,
    801.0,
    800.0,
    800.0,
    801.0,
    801.0,
    800.0,
    800.0,
    801.0,
    803.0,
    803.0,
    802.0,
    801.0,
    800.0,
    800.0,
    800.0,
    800.0,
    801.0,
    801.0,
    802.0,
    804.0,
    806.0,
    807.0,
    805.0,
    803.0,
    801.0,
    801.0,
    799.0,
    798.0,
    798.0,
    798.0,
    799.0,
    802.0,
    804.0,
    804.0,
    803.0,
    801.0,
    801.0,
    800.0,
    800.0,
    800.0
   ],
   "WindowWidth": [
    1733.0,
    1726.0,
    1730.0,
    1733.0,
    1736.0,
