{
  "AcquisitionMatrixPE": 100,
  "AcquisitionNumber": 1,
  "AcquisitionTime": "12:11:40.017500",
  "BandwidthPerPixelPhaseEncode": 18.519,
  "BaseResolution": 100,
  "BodyPartExamined": "BRAIN",
  "ConsistencyInfo": "N4_VE11C_LATEST_20160120",
  "ConversionSoftware": "dcm2niix",
  "ConversionSoftwareVersion": "v1.0.20180622 GCC4.9.2",
  "DerivedVendorReportedEchoSpacing": 0.000539986,
  "DeviceSerialNumber": "166078",
  "DwellTime": 2.1e-06,
  "EchoTime": 0.034,
  "EchoTrainLength": 100,
  "EffectiveEchoSpacing": 0.000539986,
  "FlipAngle": 90,
  "ImageOrientationPatientDICOM": [1, 0, 0, 0, 1, 0],
  "ImageType": [
    "ORIGINAL",
    "PRIMARY",
    "M",
    "ND",
    "MOSAIC"
],
  "InPlanePhaseEncodingDirectionDICOM": "COL",
  "InstitutionAddress": "Street_StreetNo_Bei_Jing_District_CN_ZIP",
  "InstitutionName": "BeiJing_Normal_University",
  "InstitutionalDepartmentName": "Department",
  "MRAcquisitionType": "2D",
  "MagneticFieldStrength": 3,
  "Manufacturer": "Siemens",
  "ManufacturersModelName": "Prisma",
  "Modality": "MR",
  "MultibandAccelerationFactor": 3,
  "PartialFourier": 1,
  "PatientPosition": "HFS",
  "PercentPhaseFOV": 100,
  "PhaseEncodingDirection": "j-",
  "PhaseEncodingSteps": 100,
  "PhaseResolution": 1,
  "PixelBandwidth": 2380,
  "ProcedureStepDescription": "BNU_P2018_64CH_Zhen.ZongLei",
  "ProtocolName": "bold_100x100_s3_2x2x2_static_256",
  "PulseSequenceDetails": "%SiemensSeq%_ep2d_bold",
  "ReceiveCoilActiveElements": "HC1-7;NC1",
  "ReceiveCoilName": "HeadNeck_64",
  "ReconMatrixPE": 100,
  "RepetitionTime": 2,
  "SAR": 0.0736281,
  "ScanOptions": "FS",
  "ScanningSequence": "EP",
  "SequenceName": "_epfid2d1_100",
  "SequenceVariant": "SK",
  "SeriesDescription": "bold_100x100_s3_2x2x2_static_256",
  "SeriesNumber": 14,
  "ShimSetting": [-5457, -11494, -1267, 325, 25, -233, -185, 28],
  "SliceThickness": 2,
  "SliceTiming": [1.485, 0, 0.99, 0.0825, 1.0725, 0.165, 1.155, 0.2475, 1.2375, 0.33, 1.32, 0.4125, 1.4025, 0.5775, 1.5675, 0.66, 1.65, 0.7425, 1.7325, 0.825, 1.815, 0.9075, 1.8975, 0.495, 1.485, 0, 0.99, 0.0825, 1.0725, 0.165, 1.155, 0.2475, 1.2375, 0.33, 1.32, 0.4125, 1.4025, 0.5775, 1.5675, 0.66, 1.65, 0.7425, 1.7325, 0.825, 1.815, 0.9075, 1.8975, 0.495, 1.485, 0, 0.99, 0.0825, 1.0725, 0.165, 1.155, 0.2475, 1.2375, 0.33, 1.32, 0.4125, 1.4025, 0.5775, 1.5675, 0.66, 1.65, 0.7425, 1.7325, 0.825, 1.815, 0.9075, 1.8975, 0.495],
  "SoftwareVersions": "syngo_MR_E11",
  "SpacingBetweenSlices": 2,
  "StationName": "AWP166078",
  "TaskName": "naturalvision",
  "TotalReadoutTime": 0.0534586,
  "TxRefAmp": 213.228,
  "dcmmeta_affine": [
    [-2.0, 0.0, 0.0, 99.93217468261719],
    [0.0, 2.0, 0.0, -92.02891540527344],
    [0.0, 0.0, 2.0, -69.12970733642578],
    [0.0, 0.0, 0.0, 1.0]
],
  "dcmmeta_reorient_transform": [
    [0.0, -1.0, 0.0, 99.0],
    [1.0, 0.0, 0.0, 0.0],
    [0.0, 0.0, 1.0, 0.0],
    [0.0, 0.0, 0.0, 1.0]
],
  "dcmmeta_shape": [100, 100, 72, 256],
  "dcmmeta_slice_dim": 2,
  "dcmmeta_version": 0.6,
  "global": {
    "const": {
      "AcquisitionMatrix": [100, 0, 0, 100],
      "AngioFlag": "N",
      "BitsAllocated": 16,
      "BitsStored": 12,
      "BodyPartExamined": "BRAIN",
      "Columns": 900,
      "EchoNumbers": 1,
      "EchoTime": 34.0,
      "EchoTrainLength": 100,
      "FlipAngle": 90.0,
      "HighBit": 11,
      "ImageOrientationPatient": [1.0, 0.0, 0.0, 0.0, 1.0, 0.0],
      "ImagePositionPatient": [-899.93217359483, -905.97108411789, -69.129707336426],
      "ImageType": [
        "ORIGINAL",
        "PRIMARY",
        "M",
        "ND",
        "MOSAIC"
],
      "ImagedNucleus": "1H",
      "ImagingFrequency": 123.257784,
      "InPlanePhaseEncodingDirection": "COL",
      "MRAcquisitionType": "2D",
      "MagneticFieldStrength": 3.0,
      "Manufacturer": "SIEMENS",
      "ManufacturerModelName": "Prisma",
      "Modality": "MR",
      "NumberOfAverages": 1.0,
      "NumberOfPhaseEncodingSteps": 100,
      "PercentPhaseFieldOfView": 100.0,
      "PercentSampling": 100.0,
      "PerformedProcedureStepStartTime": "105944.298000",
      "PhotometricInterpretation": "MONOCHROME2",
      "PixelBandwidth": 2380.0,
      "PixelRepresentation": 0,
      "PixelSpacing": [2.0, 2.0],
      "ProtocolName": "bold_100x100_s3_2x2x2_static_256",
      "RepetitionTime": 2000.0,
      "Rows": 900,
      "SAR": 0.07362806246403,
      "SamplesPerPixel": 1,
      "ScanOptions": "FS",
      "ScanningSequence": "EP",
      "SequenceName": "*epfid2d1_100",
      "SequenceVariant": "SK",
      "SeriesDescription": "bold_100x100_s3_2x2x2_static_256",
      "SeriesNumber": 14,
      "SeriesTime": "121142.592000",
      "SliceLocation": -69.129707336426,
      "SliceThickness": 2.0,
      "SmallestImagePixelValue": 0,
      "SoftwareVersions": "syngo MR E11",
      "SpacingBetweenSlices": 2.0,
      "SpecificCharacterSet": "ISO_IR 100",
      "StudyID": "1",
      "StudyTime": "105944.233000",
      "TransmitCoilName": "Body",
      "VariableFlipAngleFlag": "N",
      "WindowCenterWidthExplanation": "Algo1",
      "dBdt": 0.0},
    "slices": {}
  },
  "time": {
    "samples": {
      "AcquisitionNumber": [1, 2, 3, 4, 5, 6, 7, 8, 9, 10, 11, 12, 13, 14, 15, 16, 17, 18, 19, 20, 21, 22, 23, 24, 25, 26, 27, 28, 29, 30, 31, 32, 33, 34, 35, 36, 37, 38, 39, 40, 41, 42, 43, 44, 45, 46, 47, 48, 49, 50, 51, 52, 53, 54, 55, 56, 57, 58, 59, 60, 61, 62, 63, 64, 65, 66, 67, 68, 69, 70, 71, 72, 73, 74, 75, 76, 77, 78, 79, 80, 81, 82, 83, 84, 85, 86, 87, 88, 89, 90, 91, 92, 93, 94, 95, 96, 97, 98, 99, 100, 101, 102, 103, 104, 105, 106, 107, 108, 109, 110, 111, 112, 113, 114, 115, 116, 117, 118, 119, 120, 121, 122, 123, 124, 125, 126, 127, 128, 129, 130, 131, 132, 133, 134, 135, 136, 137, 138, 139, 140, 141, 142, 143, 144, 145, 146, 147, 148, 149, 150, 151, 152, 153, 154, 155, 156, 157, 158, 159, 160, 161, 162, 163, 164, 165, 166, 167, 168, 169, 170, 171, 172, 173, 174, 175, 176, 177, 178, 179, 180, 181, 182, 183, 184, 185, 186, 187, 188, 189, 190, 191, 192, 193, 194, 195, 196, 197, 198, 199, 200, 201, 202, 203, 204, 205, 206, 207, 208, 209, 210, 211, 212, 213, 214, 215, 216, 217, 218, 219, 220, 221, 222, 223, 224, 225, 226, 227, 228, 229, 230, 231, 232, 233, 234, 235, 236, 237, 238, 239, 240, 241, 242, 243, 244, 245, 246, 247, 248, 249, 250, 251, 252, 253, 254, 255, 256],
      "AcquisitionTime": ["121140.017500", "121142.017500", "121144.017500", "121146.017500", "121148.017500", "121150.017500", "121152.017500", "121154.017500", "121156.017500", "121158.017500", "121200.017500", "121202.017500", "121204.017500", "121206.017500", "121208.017500", "121210.017500", "121212.017500", "121214.017500", "121216.017500", "121218.017500", "121220.017500", "121222.017500", "121224.017500", "121226.017500", "121228.017500", "121230.017500", "121232.017500", "121234.017500", "121236.017500", "121238.017500", "121240.017500", "121242.017500", "121244.017500", "121246.017500", "121248.017500", "121250.017500", "121252.017500", "121254.017500", "121256.017500", "121258.017500", "121300.017500", "121302.017500", "121304.017500", "121306.017500", "121308.017500", "121310.017500", "121312.017500", "121314.017500", "121316.017500", "121318.017500", "121320.017500", "121322.017500", "121324.017500", "121326.017500", "121328.017500", "121330.017500", "121332.017500", "121334.017500", "121336.017500", "121338.017500", "121340.017500", "121342.017500", "121344.017500", "121346.017500", "121348.017500", "121350.017500", "121352.017500", "121354.017500", "121356.017500", "121358.017500", "121400.017500", "121402.017500", "121404.017500", "121406.017500", "121408.017500", "121410.017500", "121412.017500", "121414.017500", "121416.017500", "121418.017500", "121420.017500", "121422.017500", "121424.017500", "121426.017500", "121428.017500", "121430.017500", "121432.017500", "121434.017500", "121436.017500", "121438.017500", "121440.017500", "121442.017500", "121444.017500", "121446.017500", "121448.017500", "121450.017500", "121452.017500", "121454.017500", "121456.017500", "121458.017500", "121500.017500", "121502.017500", "121504.017500", "121506.017500", "121508.017500", "121510.017500", "121512.017500", "121514.017500", "121516.017500", "121518.017500", "121520.017500", "121522.017500", "121524.017500", "121526.017500", "121528.017500", "121530.017500", "121532.017500", "121534.017500", "121536.017500", "121538.017500", "121540.017500", "121542.017500", "121544.017500", "121546.017500", "121548.017500", "121550.017500", "121552.017500", "121554.017500", "121556.017500", "121558.017500", "121600.017500", "121602.017500", "121604.017500", "121606.017500", "121608.017500", "121610.017500", "121612.017500", "121614.017500", "121616.017500", "121618.017500", "121620.017500", "121622.017500", "121624.017500", "121626.017500", "121628.017500", "121630.017500", "121632.017500", "121634.017500", "121636.017500", "121638.017500", "121640.017500", "121642.017500", "121644.017500", "121646.017500", "121648.017500", "121650.017500", "121652.017500", "121654.017500", "121656.017500", "121658.017500", "121700.017500", "121702.017500", "121704.017500", "121706.017500", "121708.017500", "121710.017500", "121712.017500", "121714.017500", "121716.017500", "121718.017500", "121720.017500", "121722.017500", "121724.017500", "121726.017500", "121728.017500", "121730.017500", "121732.017500", "121734.017500", "121736.017500", "121738.017500", "121740.017500", "121742.017500", "121744.017500", "121746.017500", "121748.017500", "121750.017500", "121752.017500", "121754.017500", "121756.017500", "121758.017500", "121800.017500", "121802.017500", "121804.017500", "121806.017500", "121808.017500", "121810.017500", "121812.017500", "121814.017500", "121816.017500", "121818.017500", "121820.017500", "121822.017500", "121824.017500", "121826.017500", "121828.017500", "121830.017500", "121832.017500", "121834.017500", "121836.017500", "121838.017500", "121840.017500", "121842.017500", "121844.017500", "121846.017500", "121848.017500", "121850.017500", "121852.017500", "121854.017500", "121856.017500", "121858.017500", "121900.017500", "121902.017500", "121904.017500", "121906.017500", "121908.017500", "121910.017500", "121912.017500", "121914.017500", "121916.017500", "121918.017500", "121920.017500", "121922.017500", "121924.017500", "121926.017500", "121928.017500", "121930.017500", "121932.017500", "121934.017500", "121936.017500", "121938.017500", "121940.017500", "121942.017500", "121944.017500", "121946.017500", "121948.017500", "121950.017500", "121952.017500", "121954.017500", "121956.017500", "121958.017500", "122000.017500", "122002.017500", "122004.017500", "122006.017500", "122008.017500", "122010.017500"],
      "ContentTime": ["121142.596000", "121144.091000", "121146.091000", "121148.092000", "121150.091000", "121152.092000", "121154.091000", "121156.093000", "121158.092000", "121159.593000", "121202.091000", "121204.091000", "121206.091000", "121208.092000", "121210.091000", "121212.091000", "121214.092000", "121216.093000", "121218.091000", "121220.091000", "121222.091000", "121224.091000", "121226.092000", "121228.091000", "121230.093000", "121232.093000", "121234.092000", "121236.092000", "121238.092000", "121240.092000", "121242.091000", "121244.092000", "121246.091000", "121248.092000", "121250.093000", "121252.092000", "121254.091000", "121256.092000", "121258.091000", "121300.092000", "121302.091000", "121304.091000", "121306.092000", "121308.093000", "121310.092000", "121312.091000", "121314.092000", "121316.092000", "121318.092000", "121320.092000", "121322.092000", "121323.592000", "121326.093000", "121328.091000", "121330.092000", "121332.092000", "121334.092000", "121336.091000", "121338.091000", "121340.092000", "121341.592000", "121344.092000", "121346.092000", "121348.091000", "121350.092000", "121352.091000", "121354.091000", "121356.092000", "121358.093000", "121400.092000", "121402.092000", "121404.092000", "121406.092000", "121408.091000", "121410.091000", "121412.092000", "121414.092000", "121416.092000", "121418.092000", "121420.092000", "121422.091000", "121423.591000", "121426.092000", "121428.091000", "121430.092000", "121432.092000", "121434.093000", "121436.092000", "121438.092000", "121440.092000", "121442.091000", "121444.092000", "121446.092000", "121448.092000", "121450.093000", "121452.092000", "121454.093000", "121456.092000", "121458.091000", "121459.591000", "121502.091000", "121504.091000", "121506.091000", "121508.093000", "121510.093000", "121512.093000", "121514.092000", "121516.091000", "121518.091000", "121520.092000", "121522.091000", "121524.092000", "121526.092000", "121528.093000", "121530.091000", "121532.092000", "121534.091000", "121536.091000", "121538.091000", "121540.091000", "121542.092000", "121544.093000", "121546.092000", "121548.092000", "121550.092000", "121552.091000", "121554.091000", "121556.091000", "121558.092000", "121600.093000", "121602.092000", "121604.092000", "121606.092000", "121608.092000", "121610.091000", "121611.591000", "121614.091000", "121616.091000", "121618.092000", "121620.093000", "121622.092000", "121624.091000", "121625.591000", "121628.092000", "121630.091000", "121632.092000", "121634.091000", "121636.092000", "121638.092000", "121640.091000", "121642.092000", "121644.092000", "121646.092000", "121648.092000", "121650.102000", "121652.091000", "121654.092000", "121656.093000", "121658.092000", "121700.092000", "121702.092000", "121704.091000", "121706.092000", "121708.091000", "121710.093000", "121712.092000", "121714.093000", "121716.092000", "121718.091000", "121720.092000", "121722.091000", "121724.092000", "121726.092000", "121728.092000", "121730.093000", "121732.092000", "121734.092000", "121736.092000", "121738.092000", "121740.092000", "121742.091000", "121744.092000", "121746.092000", "121748.093000", "121750.091000", "121752.091000", "121754.092000", "121756.092000", "121758.091000", "121800.091000", "121802.091000", "121804.093000", "121806.092000", "121808.091000", "121810.091000", "121812.091000", "121814.091000", "121815.591000", "121818.092000", "121820.093000", "121822.093000", "121824.093000", "121826.091000", "121828.092000", "121830.091000", "121832.092000", "121834.092000", "121836.092000", "121838.093000", "121839.592000", "121842.092000", "121844.092000", "121846.092000", "121848.092000", "121850.092000", "121852.092000", "121854.092000", "121855.592000", "121858.093000", "121900.092000", "121902.092000", "121904.092000", "121906.092000", "121907.591000", "121910.092000", "121912.092000", "121914.093000", "121916.093000", "121918.092000", "121920.092000", "121922.092000", "121924.092000", "121926.092000", "121928.092000", "121930.093000", "121932.092000", "121934.092000", "121936.091000", "121938.092000", "121940.092000", "121942.091000", "121944.092000", "121945.591000", "121948.093000", "121950.093000", "121952.092000", "121954.091000", "121955.591000", "121958.092000", "122000.092000", "122002.091000", "122004.092000", "122006.092000", "122008.093000", "122010.092000", "122011.633000"],
      "InstanceCreationTime": ["121142.596000", "121144.091000", "121146.091000", "121148.092000", "121150.091000", "121152.092000", "121154.091000", "121156.093000", "121158.092000", "121159.593000", "121202.091000", "121204.091000", "121206.091000", "121208.092000", "121210.091000", "121212.091000", "121214.092000", "121216.093000", "121218.091000", "121220.091000", "121222.091000", "121224.091000", "121226.092000", "121228.091000", "121230.093000", "121232.093000", "121234.092000", "121236.092000", "121238.092000", "121240.092000", "121242.091000", "121244.092000", "121246.091000", "121248.092000", "121250.093000", "121252.092000", "121254.091000", "121256.092000", "121258.091000", "121300.092000", "121302.091000", "121304.091000", "121306.092000", "121308.093000", "121310.092000", "121312.091000", "121314.092000", "121316.092000", "121318.092000", "121320.092000", "121322.092000", "121323.592000", "121326.093000", "121328.091000", "121330.092000", "121332.092000", "121334.092000", "121336.091000", "121338.091000", "121340.092000", "121341.592000", "121344.092000", "121346.092000", "121348.091000", "121350.092000", "121352.091000", "121354.091000", "121356.092000", "121358.093000", "121400.092000", "121402.092000", "121404.092000", "121406.092000", "121408.091000", "121410.091000", "121412.092000", "121414.092000", "121416.092000", "121418.092000", "121420.092000", "121422.091000", "121423.591000", "121426.092000", "121428.091000", "121430.092000", "121432.092000", "121434.093000", "121436.092000", "121438.092000", "121440.092000", "121442.091000", "121444.092000", "121446.092000", "121448.092000", "121450.093000", "121452.092000", "121454.093000", "121456.092000", "121458.091000", "121459.591000", "121502.091000", "121504.091000", "121506.091000", "121508.093000", "121510.093000", "121512.093000", "121514.092000", "121516.091000", "121518.091000", "121520.092000", "121522.091000", "121524.092000", "121526.092000", "121528.093000", "121530.091000", "121532.092000", "121534.091000", "121536.091000", "121538.091000", "121540.091000", "121542.092000", "121544.093000", "121546.092000", "121548.092000", "121550.092000", "121552.091000", "121554.091000", "121556.091000", "121558.092000", "121600.093000", "121602.092000", "121604.092000", "121606.092000", "121608.092000", "121610.091000", "121611.591000", "121614.091000", "121616.091000", "121618.092000", "121620.093000", "121622.092000", "121624.091000", "121625.591000", "121628.092000", "121630.091000", "121632.092000", "121634.091000", "121636.092000", "121638.092000", "121640.091000", "121642.092000", "121644.092000", "121646.092000", "121648.092000", "121650.102000", "121652.091000", "121654.092000", "121656.093000", "121658.092000", "121700.092000", "121702.092000", "121704.091000", "121706.092000", "121708.091000", "121710.093000", "121712.092000", "121714.093000", "121716.092000", "121718.091000", "121720.092000", "121722.091000", "121724.092000", "121726.092000", "121728.092000", "121730.093000", "121732.092000", "121734.092000", "121736.092000", "121738.092000", "121740.092000", "121742.091000", "121744.092000", "121746.092000", "121748.093000", "121750.091000", "121752.091000", "121754.092000", "121756.092000", "121758.091000", "121800.091000", "121802.091000", "121804.093000", "121806.092000", "121808.091000", "121810.091000", "121812.091000", "121814.091000", "121815.591000", "121818.092000", "121820.093000", "121822.093000", "121824.093000", "121826.091000", "121828.092000", "121830.091000", "121832.092000", "121834.092000", "121836.092000", "121838.093000", "121839.592000", "121842.092000", "121844.092000", "121846.092000", "121848.092000", "121850.092000", "121852.092000", "121854.092000", "121855.592000", "121858.093000", "121900.092000", "121902.092000", "121904.092000", "121906.092000", "121907.591000", "121910.092000", "121912.092000", "121914.093000", "121916.093000", "121918.092000", "121920.092000", "121922.092000", "121924.092000", "121926.092000", "121928.092000", "121930.093000", "121932.092000", "121934.092000", "121936.091000", "121938.092000", "121940.092000", "121942.091000", "121944.092000", "121945.591000", "121948.093000", "121950.093000", "121952.092000", "121954.091000", "121955.591000", "121958.092000", "122000.092000", "122002.091000", "122004.092000", "122006.092000", "122008.093000", "122010.092000", "122011.633000"],
      "InstanceNumber": [1, 2, 3, 4, 5, 6, 7, 8, 9, 10, 11, 12, 13, 14, 15, 16, 17, 18, 19, 20, 21, 22, 23, 24, 25, 26, 27, 28, 29, 30, 31, 32, 33, 34, 35, 36, 37, 38, 39, 40, 41, 42, 43, 44, 45, 46, 47, 48, 49, 50, 51, 52, 53, 54, 55, 56, 57, 58, 59, 60, 61, 62, 63, 64, 65, 66, 67, 68, 69, 70, 71, 72, 73, 74, 75, 76, 77, 78, 79, 80, 81, 82, 83, 84, 85, 86, 87, 88, 89, 90, 91, 92, 93, 94, 95, 96, 97, 98, 99, 100, 101, 102, 103, 104, 105, 106, 107, 108, 109, 110, 111, 112, 113, 114, 115, 116, 117, 118, 119, 120, 121, 122, 123, 124, 125, 126, 127, 128, 129, 130, 131, 132, 133, 134, 135, 136, 137, 138, 139, 140, 141, 142, 143, 144, 145, 146, 147, 148, 149, 150, 151, 152, 153, 154, 155, 156, 157, 158, 159, 160, 161, 162, 163, 164, 165, 166, 167, 168, 169, 170, 171, 172, 173, 174, 175, 176, 177, 178, 179, 180, 181, 182, 183, 184, 185, 186, 187, 188, 189, 190, 191, 192, 193, 194, 195, 196, 197, 198, 199, 200, 201, 202, 203, 204, 205, 206, 207, 208, 209, 210, 211, 212, 213, 214, 215, 216, 217, 218, 219, 220, 221, 222, 223, 224, 225, 226, 227, 228, 229, 230, 231, 232, 233, 234, 235, 236, 237, 238, 239, 240, 241, 242, 243, 244, 245, 246, 247, 248, 249, 250, 251, 252, 253, 254, 255, 256],
      "LargestImagePixelValue": [3173, 3125, 3170, 3133, 3088, 3114, 3153, 3117, 3115, 3132, 3143, 3113, 3100, 3095, 3087, 3086, 3132, 3125, 3123, 3094, 3098, 3102, 3093, 3111, 3114, 3070, 3103, 3126, 3108, 3092, 3094, 3085, 3141, 3063, 3085, 3091, 3086, 3075, 3108, 3131, 3109, 3082, 3122, 3146, 3155, 3096, 3098, 3066, 3107, 3103, 3106, 3120, 3115, 3116, 3102, 3104, 3086, 3097, 3071, 3147, 3111, 3121, 3080, 3084, 3098, 3095, 3057, 3127, 3096, 3159, 3134, 3114, 3122, 3105, 3068, 3093, 3094, 3114, 3106, 3091, 3142, 3114, 3143, 3102, 3090, 3107, 3113, 3107, 3130, 3098, 3060, 3101, 3130, 3129, 3134, 3079, 3121, 3127, 3189, 3138, 3111, 3126, 3086, 3134, 3114, 3138, 3178, 3188, 3086, 3087, 3083, 3075, 3090, 3043, 3096, 3098, 3101, 3101, 3116, 3139, 3137, 3085, 3089, 3078, 3096, 3071, 3056, 3130, 3122, 3115, 3138, 3101, 3126, 3113, 3171, 3114, 3072, 3077, 3083, 3096, 3125, 3103, 3101, 3100, 3158, 3138, 3110, 3082, 3112, 3112, 3147, 3115, 3154, 3184, 3111, 3113, 3102, 3118, 3133, 3195, 3081, 3115, 3152, 3106, 3121, 3096, 3124, 3082, 3121, 3173, 3190, 3240, 3252, 3168, 3127, 3187, 3162, 3216, 3130, 3157, 3121, 3166, 3164, 3172, 3128, 3091, 3111, 3106, 3147, 3157, 3121, 3185, 3196, 3232, 3201, 3098, 3122, 3149, 3179, 3137, 3185, 3132, 3147, 3194, 3163, 3224, 3214, 3189, 3148, 3180, 3162, 3140, 3158, 3202, 3164, 3175, 3137, 3143, 3081, 3119, 3148, 3190, 3181, 3163, 3177, 3202, 3155, 3159, 3184, 3170, 3184, 3147, 3254, 3158, 3123, 3185, 3190, 3203, 3208, 3199, 3150, 3180, 3196, 3252, 3162, 3169, 3139, 3175, 3197, 3156, 3150, 3210, 3192, 3144, 3140, 3181],
      "WindowCenter": [772.0, 769.0, 769.0, 768.0, 768.0, 770.0, 769.0, 768.0, 767.0, 767.0, 768.0, 769.0, 769.0, 768.0, 767.0, 767.0, 769.0, 769.0, 769.0, 768.0, 767.0, 767.0, 768.0, 770.0, 769.0, 769.0, 770.0, 771.0, 770.0, 768.0, 767.0, 766.0, 766.0, 765.0, 767.0, 767.0, 766.0, 766.0, 767.0, 768.0, 768.0, 767.0, 768.0, 770.0, 771.0, 769.0, 767.0, 765.0, 765.0, 765.0, 766.0, 767.0, 768.0, 769.0, 768.0, 766.0, 765.0, 767.0, 768.0, 769.0, 768.0, 768.0, 767.0, 768.0, 769.0, 769.0, 768.0, 768.0, 768.0, 770.0, 771.0, 771.0, 769.0, 767.0, 765.0, 765.0, 765.0, 765.0, 767.0, 767.0, 767.0, 767.0, 767.0, 766.0, 766.0, 767.0, 768.0, 769.0, 770.0, 768.0, 766.0, 766.0, 767.0, 769.0, 768.0, 768.0, 769.0, 772.0, 772.0, 770.0, 768.0, 768.0, 766.0, 767.0, 767.0, 768.0, 770.0, 771.0, 770.0, 768.0, 764.0, 764.0, 764.0, 764.0, 765.0, 766.0, 767.0, 769.0, 772.0, 774.0, 772.0, 767.0, 766.0, 766.0, 766.0, 766.0, 767.0, 768.0, 768.0, 769.0, 768.0, 766.0, 766.0, 767.0, 769.0, 769.0, 768.0, 767.0, 767.0, 767.0, 767.0, 768.0, 769.0, 769.0, 770.0, 770.0, 769.0, 767.0, 767.0, 768.0, 768.0, 769.0, 769.0, 770.0, 768.0, 768.0, 769.0, 771.0, 772.0, 771.0, 767.0, 766.0, 767.0, 766.0, 767.0, 769.0, 770.0, 768.0, 768.0, 768.0, 770.0, 771.0, 771.0, 769.0, 768.0, 767.0, 767.0, 768.0, 769.0, 769.0, 769.0, 769.0, 769.0, 768.0, 767.0, 767.0, 768.0, 767.0, 767.0, 768.0, 768.0, 770.0, 770.0, 769.0, 767.0, 767.0, 769.0, 771.0, 771.0, 769.0, 768.0, 768.0, 768.0, 769.0, 770.0, 771.0, 770.0, 769.0, 770.0, 770.0, 770.0, 769.0, 771.0, 771.0, 770.0, 768.0, 766.0, 765.0, 765.0, 766.0, 766.0, 767.0, 768.0, 770.0, 770.0, 768.0, 767.0, 766.0, 767.0, 767.0, 768.0, 768.0, 769.0, 768.0, 768.0, 769.0, 768.0, 769.0, 769.0, 770.0, 770.0, 770.0, 770.0, 771.0, 769.0, 769.0, 770.0, 770.0, 770.0, 770.0, 771.0, 771.0, 770.0, 769.0, 770.0, 770.0],
      "WindowWidth": [1667.0, 1660.0, 1660.0, 1659.0, 1659.0, 1662.0, 1661.0, 1658.0, 1655.0, 1655.0, 1658.0, 1661.0, 1662.0, 1659.0, 1657.0, 1657.0, 1660.0, 1661.0, 1661.0, 1659.0, 1655.0, 1656.0, 1659.0, 1663.0, 1662.0, 1660.0, 1663.0, 1665.0, 1662.0, 1658.0, 1655.0, 1654.0, 1653.0, 1650.0, 1655.0, 1656.0, 1654.0, 1654.0, 1657.0, 1660.0, 1658.0, 1656.0, 1660.0, 1664.0, 1667.0, 1660.0, 1655.0, 1651.0, 1650.0, 1652.0, 1653.0, 1656.0, 1658.0, 1662.0, 1659.0, 1654.0, 1651.0, 1654.0, 1659.0, 1661.0, 1659.0, 1657.0, 1656.0, 1659.0, 1662.0, 1661.0, 1658.0, 1658.0, 1658.0, 1663.0, 1666.0, 1667.0, 1661.0, 1655.0, 1652.0, 1650.0, 1649.0, 1651.0, 1656.0, 1657.0, 1655.0, 1654.0, 1656.0, 1653.0, 1653.0, 1655.0, 1659.0, 1662.0, 1664.0, 1658.0, 1653.0, 1653.0, 1656.0, 1660.0, 1657.0, 1658.0, 1661.0, 1670.0, 1670.0, 1663.0, 1660.0, 1657.0, 1654.0, 1656.0, 1656.0, 1657.0, 1663.0, 1667.0, 1665.0, 1657.0, 1649.0, 1646.0, 1647.0, 1648.0, 1651.0, 1653.0, 1654.0, 1662.0, 1669.0, 1674.0, 1668.0, 1656.0, 1653.0, 1652.0, 1654.0, 1653.0, 1655.0, 1657.0, 1659.0, 1661.0, 1659.0, 1653.0, 1653.0, 1655.0, 1661.0, 1661.0, 1659.0, 1656.0, 1656.0, 1655.0, 1655.0, 1657.0, 1660.0, 1662.0, 1664.0, 1664.0, 1661.0, 1656.0, 1655.0, 1657.0, 1659.0, 1661.0, 1662.0, 1662.0, 1658.0, 1658.0, 1662.0, 1666.0, 1669.0, 1667.0, 1656.0, 1652.0, 1654.0, 1654.0, 1655.0, 1661.0, 1663.0, 1659.0, 1657.0, 1659.0, 1664.0, 1667.0, 1667.0, 1660.0, 1658.0, 1656.0, 1655.0, 1659.0, 1661.0, 1662.0, 1661.0, 1661.0, 1660.0, 1659.0, 1656.0, 1655.0, 1659.0, 1656.0, 1656.0, 1657.0, 1659.0, 1663.0, 1664.0, 1661.0, 1656.0, 1655.0, 1660.0, 1666.0, 1665.0, 1661.0, 1657.0, 1657.0, 1659.0, 1662.0, 1665.0, 1667.0, 1663.0, 1662.0, 1664.0, 1665.0, 1663.0, 1662.0, 1665.0, 1667.0, 1664.0, 1659.0, 1653.0, 1650.0, 1650.0, 1652.0, 1653.0, 1655.0, 1658.0, 1664.0, 1664.0, 1659.0, 1656.0, 1654.0, 1654.0, 1655.0, 1658.0, 1658.0, 1662.0, 1659.0, 1658.0, 1660.0, 1659.0, 1662.0, 1660.0, 1663.0, 1665.0, 1663.0, 1663.0, 1666.0, 1661.0, 1662.0, 1665.0, 1665.0, 1664.0, 1663.0, 1666.0, 1667.0, 1662.0, 1660.0, 1663.0, 1662.0]
    },
    "slices": {}
  }
}