{
 "AcquisitionMatrixPE": 100,
 "AcquisitionNumber": 1,
 "AcquisitionTime": "12:40:26.740000",
 "BandwidthPerPixelPhaseEncode": 18.519,
 "BaseResolution": 100,
 "BodyPartExamined": "BRAIN",
 "ConsistencyInfo": "N4_VE11C_LATEST_20160120",
 "ConversionSoftware": "dcm2niix",
 "ConversionSoftwareVersion": "v1.0.20180622 GCC4.9.2",
 "DerivedVendorReportedEchoSpacing": 0.000539986,
 "DeviceSerialNumber": "166078",
 "DwellTime": 2.1e-06,
 "EchoTime": 0.034,
 "EchoTrainLength": 100,
 "EffectiveEchoSpacing": 0.000539986,
 "FlipAngle": 90,
 "ImageOrientationPatientDICOM": [
  1,
  0,
  0,
  0,
  1,
  0
 ],
 "ImageType": [
  "ORIGINAL",
  "PRIMARY",
  "M",
  "ND",
  "MOSAIC"
 ],
 "InPlanePhaseEncodingDirectionDICOM": "COL",
 "InstitutionAddress": "Street_StreetNo_Bei_Jing_District_CN_ZIP",
 "InstitutionName": "BeiJing_Normal_University",
 "InstitutionalDepartmentName": "Department",
 "MRAcquisitionType": "2D",
 "MagneticFieldStrength": 3,
 "Manufacturer": "Siemens",
 "ManufacturersModelName": "Prisma",
 "Modality": "MR",
 "MultibandAccelerationFactor": 3,
 "PartialFourier": 1,
 "PatientPosition": "HFS",
 "PercentPhaseFOV": 100,
 "PhaseEncodingDirection": "j-",
 "PhaseEncodingSteps": 100,
 "PhaseResolution": 1,
 "PixelBandwidth": 2380,
 "ProcedureStepDescription": "BNU_P2018_64CH_Zhen.ZongLei",
 "ProtocolName": "bold_100x100_s3_2x2x2_static_256",
 "PulseSequenceDetails": "%SiemensSeq%_ep2d_bold",
 "ReceiveCoilActiveElements": "HC1-7;NC1",
 "ReceiveCoilName": "HeadNeck_64",
 "ReconMatrixPE": 100,
 "RepetitionTime": 2,
 "SAR": 0.0736281,
 "ScanOptions": "FS",
 "ScanningSequence": "EP",
 "SequenceName": "_epfid2d1_100",
 "SequenceVariant": "SK",
 "SeriesDescription": "bold_100x100_s3_2x2x2_static_256",
 "SeriesNumber": 17,
 "ShimSetting": [
  -5457,
  -11494,
  -1267,
  325,
  25,
  -233,
  -185,
  28
 ],
 "SliceThickness": 2,
 "SliceTiming": [
  1.485,
  0,
  0.99,
  0.0825,
  1.0725,
  0.165,
  1.155,
  0.2475,
  1.2375,
  0.33,
  1.32,
  0.4125,
  1.4025,
  0.5775,
  1.5675,
  0.66,
  1.65,
  0.7425,
  1.7325,
  0.825,
  1.815,
  0.9075,
  1.8975,
  0.495,
  1.485,
  0,
  0.99,
  0.0825,
  1.0725,
  0.165,
  1.155,
  0.2475,
  1.2375,
  0.33,
  1.32,
  0.4125,
  1.4025,
  0.5775,
  1.5675,
  0.66,
  1.65,
  0.7425,
  1.7325,
  0.825,
  1.815,
  0.9075,
  1.8975,
  0.495,
  1.485,
  0,
  0.99,
  0.0825,
  1.0725,
  0.165,
  1.155,
  0.2475,
  1.2375,
  0.33,
  1.32,
  0.4125,
  1.4025,
  0.5775,
  1.5675,
  0.66,
  1.65,
  0.7425,
  1.7325,
  0.825,
  1.815,
  0.9075,
  1.8975,
  0.495
 ],
 "SoftwareVersions": "syngo_MR_E11",
 "SpacingBetweenSlices": 2,
 "StationName": "AWP166078",
 "TaskName": "imagenet",
 "TotalReadoutTime": 0.0534586,
 "TxRefAmp": 213.228,
 "dcmmeta_affine": [
  [
   -2.0,
   0.0,
   0.0,
   99.93217468261719
  ],
  [
   0.0,
   2.0,
   0.0,
   -92.02891540527344
  ],
  [
   0.0,
   0.0,
   2.0,
   -69.12970733642578
  ],
  [
   0.0,
   0.0,
   0.0,
   1.0
  ]
 ],
 "dcmmeta_reorient_transform": [
  [
   0.0,
   -1.0,
   0.0,
   99.0
  ],
  [
   1.0,
   0.0,
   0.0,
   0.0
  ],
  [
   0.0,
   0.0,
   1.0,
   0.0
  ],
  [
   0.0,
   0.0,
   0.0,
   1.0
  ]
 ],
 "dcmmeta_shape": [
  100,
  100,
  72,
  256
 ],
 "dcmmeta_slice_dim": 2,
 "dcmmeta_version": 0.6,
 "global": {
  "const": {
   "AcquisitionMatrix": [
    100,
    0,
    0,
    100
   ],
   "AngioFlag": "N",
   "BitsAllocated": 16,
   "BitsStored": 12,
   "BodyPartExamined": "BRAIN",
   "Columns": 900,
   "EchoNumbers": 1,
   "EchoTime": 34.0,
   "EchoTrainLength": 100,
   "FlipAngle": 90.0,
   "HighBit": 11,
   "ImageOrientationPatient": [
    1.0,
    0.0,
    0.0,
    0.0,
    1.0,
    0.0
   ],
   "ImagePositionPatient": [
    -899.93217359483,
    -905.97108411789,
    -69.129707336426
   ],
   "ImageType": [
    "ORIGINAL",
    "PRIMARY",
    "M",
    "ND",
    "MOSAIC"
   ],
   "ImagedNucleus": "1H",
   "ImagingFrequency": 123.257788,
   "InPlanePhaseEncodingDirection": "COL",
   "MRAcquisitionType": "2D",
   "MagneticFieldStrength": 3.0,
   "Manufacturer": "SIEMENS",
   "ManufacturerModelName": "Prisma",
   "Modality": "MR",
   "NumberOfAverages": 1.0,
   "NumberOfPhaseEncodingSteps": 100,
   "PercentPhaseFieldOfView": 100.0,
   "PercentSampling": 100.0,
   "PerformedProcedureStepStartTime": "105944.298000",
   "PhotometricInterpretation": "MONOCHROME2",
   "PixelBandwidth": 2380.0,
   "PixelRepresentation": 0,
   "PixelSpacing": [
    2.0,
    2.0
   ],
   "ProtocolName": "bold_100x100_s3_2x2x2_static_256",
   "RepetitionTime": 2000.0,
   "Rows": 900,
   "SAR": 0.07362806246403,
   "SamplesPerPixel": 1,
   "ScanOptions": "FS",
   "ScanningSequence": "EP",
   "SequenceName": "*epfid2d1_100",
   "SequenceVariant": "SK",
   "SeriesDescription": "bold_100x100_s3_2x2x2_static_256",
   "SeriesNumber": 17,
   "SeriesTime": "124029.333000",
   "SliceLocation": -69.129707336426,
   "SliceThickness": 2.0,
   "SmallestImagePixelValue": 0,
   "SoftwareVersions": "syngo MR E11",
   "SpacingBetweenSlices": 2.0,
   "SpecificCharacterSet": "ISO_IR 100",
   "StudyID": "1",
   "StudyTime": "105944.233000",
   "TransmitCoilName": "Body",
   "VariableFlipAngleFlag": "N",
   "WindowCenterWidthExplanation": "Algo1",
   "dBdt": 0.0
  },
  "slices": {}
 },
 "time": {
  "samples": {
   "AcquisitionNumber": [
    1,
    2,
    3,
    4,
    5,
    6,
    7,
    8,
    9,
    10,
    11,
    12,
    13,
    14,
    15,
    16,
    17,
    18,
    19,
    20,
    21,
    22,
    23,
    24,
    25,
    26,
    27,
    28,
    29,
    30,
    31,
    32,
    33,
    34,
    35,
    36,
    37,
    38,
    39,
    40,
    41,
    42,
    43,
    44,
    45,
    46,
    47,
    48,
    49,
    50,
    51,
    52,
    53,
    54,
    55,
    56,
    57,
    58,
    59,
    60,
    61,
    62,
    63,
    64,
    65,
    66,
    67,
    68,
    69,
    70,
    71,
    72,
    73,
    74,
    75,
    76,
    77,
    78,
    79,
    80,
    81,
    82,
    83,
    84,
    85,
    86,
    87,
    88,
    89,
    90,
    91,
    92,
    93,
    94,
    95,
    96,
    97,
    98,
    99,
    100,
    101,
    102,
    103,
    104,
    105,
    106,
    107,
    108,
    109,
    110,
    111,
    112,
    113,
    114,
    115,
    116,
    117,
    118,
    119,
    120,
    121,
    122,
    123,
    124,
    125,
    126,
    127,
    128,
    129,
    130,
    131,
    132,
    133,
    134,
    135,
    136,
    137,
    138,
    139,
    140,
    141,
    142,
    143,
    144,
    145,
    146,
    147,
    148,
    149,
    150,
    151,
    152,
    153,
    154,
    155,
    156,
    157,
    158,
    159,
    160,
    161,
    162,
    163,
    164,
    165,
    166,
    167,
    168,
    169,
    170,
    171,
    172,
    173,
    174,
    175,
    176,
    177,
    178,
    179,
    180,
    181,
    182,
    183,
    184,
    185,
    186,
    187,
    188,
    189,
    190,
    191,
    192,
    193,
    194,
    195,
    196,
    197,
    198,
    199,
    200,
    201,
    202,
    203,
    204,
    205,
    206,
    207,
    208,
    209,
    210,
    211,
    212,
    213,
    214,
    215,
    216,
    217,
    218,
    219,
    220,
    221,
    222,
    223,
    224,
    225,
    226,
    227,
    228,
    229,
    230,
    231,
    232,
    233,
    234,
    235,
    236,
    237,
    238,
    239,
    240,
    241,
    242,
    243,
    244,
    245,
    246,
    247,
    248,
    249,
    250,
    251,
    252,
    253,
    254,
    255,
    256
   ],
   "AcquisitionTime": [
    "124026.740000",
    "124028.740000",
    "124030.740000",
    "124032.740000",
    "124034.740000",
    "124036.740000",
    "124038.740000",
    "124040.740000",
    "124042.740000",
    "124044.740000",
    "124046.740000",
    "124048.740000",
    "124050.740000",
    "124052.740000",
    "124054.740000",
    "124056.740000",
    "124058.740000",
    "124100.740000",
    "124102.740000",
    "124104.740000",
    "124106.740000",
    "124108.740000",
    "124110.740000",
    "124112.740000",
    "124114.740000",
    "124116.740000",
    "124118.740000",
    "124120.740000",
    "124122.740000",
    "124124.740000",
    "124126.740000",
    "124128.740000",
    "124130.740000",
    "124132.740000",
    "124134.740000",
    "124136.740000",
    "124138.740000",
    "124140.740000",
    "124142.740000",
    "124144.740000",
    "124146.740000",
    "124148.740000",
    "124150.740000",
    "124152.740000",
    "124154.740000",
    "124156.740000",
    "124158.740000",
    "124200.740000",
    "124202.740000",
    "124204.740000",
    "124206.740000",
    "124208.740000",
    "124210.740000",
    "124212.740000",
    "124214.740000",
    "124216.740000",
    "124218.740000",
    "124220.740000",
    "124222.740000",
    "124224.740000",
    "124226.740000",
    "124228.740000",
    "124230.740000",
    "124232.740000",
    "124234.740000",
    "124236.740000",
    "124238.740000",
    "124240.740000",
    "124242.740000",
    "124244.740000",
    "124246.740000",
    "124248.740000",
    "124250.740000",
    "124252.740000",
    "124254.740000",
    "124256.740000",
    "124258.740000",
    "124300.740000",
    "124302.740000",
    "124304.740000",
    "124306.740000",
    "124308.740000",
    "124310.740000",
    "124312.740000",
    "124314.740000",
    "124316.740000",
    "124318.740000",
    "124320.740000",
    "124322.740000",
    "124324.740000",
    "124326.740000",
    "124328.740000",
    "124330.740000",
    "124332.740000",
    "124334.740000",
    "124336.740000",
    "124338.740000",
    "124340.740000",
    "124342.740000",
    "124344.740000",
    "124346.740000",
    "124348.740000",
    "124350.740000",
    "124352.740000",
    "124354.740000",
    "124356.740000",
    "124358.740000",
    "124400.740000",
    "124402.740000",
    "124404.740000",
    "124406.740000",
    "124408.740000",
    "124410.740000",
    "124412.740000",
    "124414.740000",
    "124416.740000",
    "124418.740000",
    "124420.740000",
    "124422.740000",
    "124424.740000",
    "124426.740000",
    "124428.740000",
    "124430.740000",
    "124432.740000",
    "124434.740000",
    "124436.740000",
    "124438.740000",
    "124440.740000",
    "124442.740000",
    "124444.740000",
    "124446.740000",
    "124448.740000",
    "124450.740000",
    "124452.740000",
    "124454.740000",
    "124456.740000",
    "124458.740000",
    "124500.740000",
    "124502.740000",
    "124504.740000",
    "124506.740000",
    "124508.740000",
    "124510.740000",
    "124512.740000",
    "124514.740000",
    "124516.740000",
    "124518.740000",
    "124520.740000",
    "124522.740000",
    "124524.740000",
    "124526.740000",
    "124528.740000",
    "124530.740000",
    "124532.740000",
    "124534.740000",
    "124536.740000",
    "124538.740000",
    "124540.740000",
    "124542.740000",
    "124544.740000",
    "124546.740000",
    "124548.740000",
    "124550.740000",
    "124552.740000",
    "124554.740000",
    "124556.740000",
    "124558.740000",
    "124600.740000",
    "124602.740000",
    "124604.740000",
    "124606.740000",
    "124608.740000",
    "124610.740000",
    "124612.740000",
    "124614.740000",
    "124616.740000",
    "124618.740000",
    "124620.740000",
    "124622.740000",
    "124624.740000",
    "124626.740000",
    "124628.740000",
    "124630.740000",
    "124632.740000",
    "124634.740000",
    "124636.740000",
    "124638.740000",
    "124640.740000",
    "124642.740000",
    "124644.740000",
    "124646.740000",
    "124648.740000",
    "124650.740000",
    "124652.740000",
    "124654.740000",
    "124656.740000",
    "124658.740000",
    "124700.740000",
    "124702.740000",
    "124704.740000",
    "124706.740000",
    "124708.740000",
    "124710.740000",
    "124712.740000",
    "124714.740000",
    "124716.740000",
    "124718.740000",
    "124720.740000",
    "124722.740000",
    "124724.740000",
    "124726.740000",
    "124728.740000",
    "124730.740000",
    "124732.740000",
    "124734.740000",
    "124736.740000",
    "124738.740000",
    "124740.740000",
    "124742.740000",
    "124744.740000",
    "124746.740000",
    "124748.740000",
    "124750.740000",
    "124752.740000",
    "124754.740000",
    "124756.740000",
    "124758.740000",
    "124800.740000",
    "124802.740000",
    "124804.740000",
    "124806.740000",
    "124808.740000",
    "124810.740000",
    "124812.740000",
    "124814.740000",
    "124816.740000",
    "124818.740000",
    "124820.740000",
    "124822.740000",
    "124824.740000",
    "124826.740000",
    "124828.740000",
    "124830.740000",
    "124832.740000",
    "124834.740000",
    "124836.740000",
    "124838.740000",
    "124840.740000",
    "124842.740000",
    "124844.740000",
    "124846.740000",
    "124848.740000",
    "124850.740000",
    "124852.740000",
    "124854.740000",
    "124856.740000"
   ],
   "ContentTime": [
    "124029.337000",
    "124030.833000",
    "124032.832000",
    "124034.833000",
    "124036.832000",
    "124038.832000",
    "124040.831000",
    "124042.831000",
    "124044.832000",
    "124046.832000",
    "124048.832000",
    "124050.832000",
    "124052.833000",
    "124054.832000",
    "124056.832000",
    "124058.832000",
    "124100.831000",
    "124102.831000",
    "124104.832000",
    "124106.832000",
    "124108.833000",
    "124110.833000",
    "124112.833000",
    "124114.832000",
    "124116.832000",
    "124118.832000",
    "124120.831000",
    "124122.833000",
    "124124.832000",
    "124126.832000",
    "124128.832000",
    "124130.832000",
    "124132.833000",
    "124134.832000",
    "124136.832000",
    "124138.833000",
    "124140.833000",
    "124142.833000",
    "124144.833000",
    "124146.832000",
    "124148.833000",
    "124150.831000",
    "124152.832000",
    "124154.831000",
    "124156.833000",
    "124158.832000",
    "124200.833000",
    "124202.833000",
    "124204.832000",
    "124206.832000",
    "124208.831000",
    "124210.832000",
    "124212.832000",
    "124214.833000",
    "124216.832000",
    "124218.832000",
    "124220.833000",
    "124222.832000",
    "124224.833000",
    "124226.831000",
    "124228.832000",
    "124230.831000",
    "124232.833000",
    "124234.832000",
    "124236.833000",
    "124238.832000",
    "124240.833000",
    "124242.833000",
    "124244.832000",
    "124246.831000",
    "124248.832000",
    "124250.833000",
    "124252.832000",
    "124254.833000",
    "124256.833000",
    "124258.832000",
    "124300.831000",
    "124302.832000",
    "124304.832000",
    "124306.833000",
    "124308.833000",
    "124310.832000",
    "124312.832000",
    "124314.833000",
    "124316.832000",
    "124318.831000",
    "124320.831000",
    "124322.831000",
    "124324.833000",
    "124326.832000",
    "124328.832000",
    "124330.833000",
    "124332.832000",
    "124334.833000",
    "124336.831000",
    "124338.832000",
    "124340.833000",
    "124342.833000",
    "124344.832000",
    "124346.832000",
    "124348.833000",
    "124350.832000",
    "124352.832000",
    "124354.831000",
    "124356.831000",
    "124358.833000",
    "124400.833000",
    "124402.832000",
    "124404.832000",
    "124406.832000",
    "124408.832000",
    "124410.831000",
    "124412.831000",
    "124414.831000",
    "124416.832000",
    "124418.833000",
    "124420.832000",
    "124422.833000",
    "124424.832000",
    "124426.832000",
    "124428.832000",
    "124430.832000",
    "124432.831000",
    "124434.833000",
    "124436.832000",
    "124438.833000",
    "124440.833000",
    "124442.832000",
    "124444.832000",
    "124446.831000",
    "124448.832000",
    "124450.832000",
    "124452.833000",
    "124454.832000",
    "124456.833000",
    "124458.832000",
    "124500.832000",
    "124502.833000",
    "124504.831000",
    "124506.832000",
    "124508.832000",
    "124510.833000",
    "124512.832000",
    "124514.833000",
    "124516.833000",
    "124518.832000",
    "124520.831000",
    "124522.832000",
    "124524.832000",
    "124526.833000",
    "124528.833000",
    "124530.833000",
    "124532.833000",
    "124534.833000",
    "124536.832000",
    "124538.832000",
    "124540.832000",
    "124542.832000",
    "124544.833000",
    "124546.832000",
    "124548.832000",
    "124550.832000",
    "124552.832000",
    "124554.832000",
    "124556.831000",
    "124558.832000",
    "124600.832000",
    "124602.833000",
    "124604.832000",
    "124606.833000",
    "124608.832000",
    "124610.833000",
    "124612.832000",
    "124614.831000",
    "124616.831000",
    "124618.832000",
    "124620.833000",
    "124622.832000",
    "124624.833000",
    "124626.833000",
    "124628.832000",
    "124630.831000",
    "124632.831000",
    "124634.831000",
    "124636.833000",
    "124638.833000",
    "124640.832000",
    "124642.832000",
    "124644.833000",
    "124646.833000",
    "124648.832000",
    "124650.831000",
    "124652.832000",
    "124654.832000",
    "124656.832000",
    "124658.832000",
    "124700.833000",
    "124702.833000",
    "124704.844000",
    "124706.831000",
    "124708.831000",
    "124710.833000",
    "124712.832000",
    "124714.832000",
    "124716.833000",
    "124718.833000",
    "124720.833000",
    "124722.833000",
    "124724.832000",
    "124726.832000",
    "124728.832000",
    "124730.833000",
    "124732.833000",
    "124734.833000",
    "124736.832000",
    "124738.833000",
    "124740.831000",
    "124742.832000",
    "124744.831000",
    "124746.832000",
    "124748.833000",
    "124750.833000",
    "124752.832000",
    "124754.832000",
    "124756.833000",
    "124758.831000",
    "124800.831000",
    "124802.831000",
    "124804.833000",
    "124806.833000",
    "124808.833000",
    "124810.833000",
    "124812.832000",
    "124814.833000",
    "124816.832000",
    "124818.832000",
    "124820.833000",
    "124822.833000",
    "124824.833000",
    "124826.832000",
    "124828.833000",
    "124830.833000",
    "124832.832000",
    "124834.832000",
    "124836.832000",
    "124838.833000",
    "124840.832000",
    "124842.832000",
    "124844.833000",
    "124846.833000",
    "124848.832000",
    "124850.832000",
    "124852.832000",
    "124854.831000",
    "124856.833000",
    "124858.561000"
   ],
   "InstanceCreationTime": [
    "124029.337000",
    "124030.833000",
    "124032.832000",
    "124034.833000",
    "124036.832000",
    "124038.832000",
    "124040.831000",
    "124042.831000",
    "124044.832000",
    "124046.832000",
    "124048.832000",
    "124050.832000",
    "124052.833000",
    "124054.832000",
    "124056.832000",
    "124058.832000",
    "124100.831000",
    "124102.831000",
    "124104.832000",
    "124106.832000",
    "124108.833000",
    "124110.833000",
    "124112.833000",
    "124114.832000",
    "124116.832000",
    "124118.832000",
    "124120.831000",
    "124122.833000",
    "124124.832000",
    "124126.832000",
    "124128.832000",
    "124130.832000",
    "124132.833000",
    "124134.832000",
    "124136.832000",
    "124138.833000",
    "124140.833000",
    "124142.833000",
    "124144.833000",
    "124146.832000",
    "124148.833000",
    "124150.831000",
    "124152.832000",
    "124154.831000",
    "124156.833000",
    "124158.832000",
    "124200.833000",
    "124202.833000",
    "124204.832000",
    "124206.832000",
    "124208.831000",
    "124210.832000",
    "124212.832000",
    "124214.833000",
    "124216.832000",
    "124218.832000",
    "124220.833000",
    "124222.832000",
    "124224.833000",
    "124226.831000",
    "124228.832000",
    "124230.831000",
    "124232.833000",
    "124234.832000",
    "124236.833000",
    "124238.832000",
    "124240.833000",
    "124242.833000",
    "124244.832000",
    "124246.831000",
    "124248.832000",
    "124250.833000",
    "124252.832000",
    "124254.833000",
    "124256.833000",
    "124258.832000",
    "124300.831000",
    "124302.832000",
    "124304.832000",
    "124306.833000",
    "124308.833000",
    "124310.832000",
    "124312.832000",
    "124314.833000",
    "124316.832000",
    "124318.831000",
    "124320.831000",
    "124322.831000",
    "124324.833000",
    "124326.832000",
    "124328.832000",
    "124330.833000",
    "124332.832000",
    "124334.833000",
    "124336.831000",
    "124338.832000",
    "124340.833000",
    "124342.833000",
    "124344.832000",
    "124346.832000",
    "124348.833000",
    "124350.832000",
    "124352.832000",
    "124354.831000",
    "124356.831000",
    "124358.833000",
    "124400.833000",
    "124402.832000",
    "124404.832000",
    "124406.832000",
    "124408.832000",
    "124410.831000",
    "124412.831000",
    "124414.831000",
    "124416.832000",
    "124418.833000",
    "124420.832000",
    "124422.833000",
    "124424.832000",
    "124426.832000",
    "124428.832000",
    "124430.832000",
    "124432.831000",
    "124434.833000",
    "124436.832000",
    "124438.833000",
    "124440.833000",
    "124442.832000",
    "124444.832000",
    "124446.831000",
    "124448.832000",
    "124450.832000",
    "124452.833000",
    "124454.832000",
    "124456.833000",
    "124458.832000",
    "124500.832000",
    "124502.833000",
    "124504.831000",
    "124506.832000",
    "124508.832000",
    "124510.833000",
    "124512.832000",
    "124514.833000",
    "124516.833000",
    "124518.832000",
    "124520.831000",
    "124522.832000",
    "124524.832000",
    "124526.833000",
    "124528.833000",
    "124530.833000",
    "124532.833000",
    "124534.833000",
    "124536.832000",
    "124538.832000",
    "124540.832000",
    "124542.832000",
    "124544.833000",
    "124546.832000",
    "124548.832000",
    "124550.832000",
    "124552.832000",
    "124554.832000",
    "124556.831000",
    "124558.832000",
    "124600.832000",
    "124602.833000",
    "124604.832000",
    "124606.833000",
    "124608.832000",
    "124610.833000",
    "124612.832000",
    "124614.831000",
    "124616.831000",
    "124618.832000",
    "124620.833000",
    "124622.832000",
    "124624.833000",
    "124626.833000",
    "124628.832000",
    "124630.831000",
    "124632.831000",
    "124634.831000",
    "124636.833000",
    "124638.833000",
    "124640.832000",
    "124642.832000",
    "124644.833000",
    "124646.833000",
    "124648.832000",
    "124650.831000",
    "124652.832000",
    "124654.832000",
    "124656.832000",
    "124658.832000",
    "124700.833000",
    "124702.833000",
    "124704.844000",
    "124706.831000",
    "124708.831000",
    "124710.833000",
    "124712.832000",
    "124714.832000",
    "124716.833000",
    "124718.833000",
    "124720.833000",
    "124722.833000",
    "124724.832000",
    "124726.832000",
    "124728.832000",
    "124730.833000",
    "124732.833000",
    "124734.833000",
    "124736.832000",
    "124738.833000",
    "124740.831000",
    "124742.832000",
    "124744.831000",
    "124746.832000",
    "124748.833000",
    "124750.833000",
    "124752.832000",
    "124754.832000",
    "124756.833000",
    "124758.831000",
    "124800.831000",
    "124802.831000",
    "124804.833000",
    "124806.833000",
    "124808.833000",
    "124810.833000",
    "124812.832000",
    "124814.833000",
    "124816.832000",
    "124818.832000",
    "124820.833000",
    "124822.833000",
    "124824.833000",
    "124826.832000",
    "124828.833000",
    "124830.833000",
    "124832.832000",
    "124834.832000",
    "124836.832000",
    "124838.833000",
    "124840.832000",
    "124842.832000",
    "124844.833000",
    "124846.833000",
    "124848.832000",
    "124850.832000",
    "124852.832000",
    "124854.831000",
    "124856.833000",
    "124858.561000"
   ],
   "InstanceNumber": [
    1,
    2,
    3,
    4,
    5,
    6,
    7,
    8,
    9,
    10,
    11,
    12,
    13,
    14,
    15,
    16,
    17,
    18,
    19,
    20,
    21,
    22,
    23,
    24,
    25,
    26,
    27,
    28,
    29,
    30,
    31,
    32,
    33,
    34,
    35,
    36,
    37,
    38,
    39,
    40,
    41,
    42,
    43,
    44,
    45,
    46,
    47,
    48,
    49,
    50,
    51,
    52,
    53,
    54,
    55,
    56,
    57,
    58,
    59,
    60,
    61,
    62,
    63,
    64,
    65,
    66,
    67,
    68,
    69,
    70,
    71,
    72,
    73,
    74,
    75,
    76,
    77,
    78,
    79,
    80,
    81,
    82,
    83,
    84,
    85,
    86,
    87,
    88,
    89,
    90,
    91,
    92,
    93,
    94,
    95,
    96,
    97,
    98,
    99,
    100,
    101,
    102,
    103,
    104,
    105,
    106,
    107,
    108,
    109,
    110,
    111,
    112,
    113,
    114,
    115,
    116,
    117,
    118,
    119,
    120,
    121,
    122,
    123,
    124,
    125,
    126,
    127,
    128,
    129,
    130,
    131,
    132,
    133,
    134,
    135,
    136,
    137,
    138,
    139,
    140,
    141,
    142,
    143,
    144,
    145,
    146,
    147,
    148,
    149,
    150,
    151,
    152,
    153,
    154,
    155,
    156,
    157,
    158,
    159,
    160,
    161,
    162,
    163,
    164,
    165,
    166,
    167,
    168,
    169,
    170,
    171,
    172,
    173,
    174,
    175,
    176,
    177,
    178,
    179,
    180,
    181,
    182,
    183,
    184,
    185,
    186,
    187,
    188,
    189,
    190,
    191,
    192,
    193,
    194,
    195,
    196,
    197,
    198,
    199,
    200,
    201,
    202,
    203,
    204,
    205,
    206,
    207,
    208,
    209,
    210,
    211,
    212,
    213,
    214,
    215,
    216,
    217,
    218,
    219,
    220,
    221,
    222,
    223,
    224,
    225,
    226,
    227,
    228,
    229,
    230,
    231,
    232,
    233,
    234,
    235,
    236,
    237,
    238,
    239,
    240,
    241,
    242,
    243,
    244,
    245,
    246,
    247,
    248,
    249,
    250,
    251,
    252,
    253,
    254,
    255,
    256
   ],
   "LargestImagePixelValue": [
    3135,
    3122,
    3069,
    3082,
    3093,
    3151,
    3096,
    3098,
    3138,
    3156,
    3106,
    3146,
    3142,
    3134,
    3126,
    3110,
    3111,
    3150,
    3111,
    3142,
    3171,
    3127,
    3197,
    3160,
    3157,
    3144,
    3238,
    3156,
    3208,
    3104,
    3126,
    3167,
    3171,
    3123,
    3137,
    3157,
    3125,
    3115,
    3109,
    3154,
    3159,
    3167,
    3189,
    3170,
    3132,
    3140,
    3123,
    3155,
    3171,
    3177,
    3130,
    3145,
    3126,
    3096,
    3118,
    3119,
    3126,
    3122,
    3125,
    3122,
    3129,
    3076,
    3152,
    3167,
    3155,
    3153,
    3101,
    3127,
    3115,
    3117,
    3127,
    3143,
    3101,
    3111,
    3088,
    3132,
    3156,
    3123,
    3171,
    3150,
    3154,
    3185,
    3124,
    3162,
    3132,
    3212,
    3224,
    3170,
    3122,
    3155,
    3152,
    3217,
    3149,
    3187,
    3173,
    3171,
    3271,
    3208,
    3172,
    3244,
    3170,
    3265,
    3119,
    3245,
    3183,
    3160,
    3096,
    3151,
    3216,
    3141,
    3177,
    3267,
    3314,
    3190,
    3322,
    3188,
    3204,
    3248,
    3138,
    3123,
    3191,
    3224,
    3131,
    3172,
    3132,
    3138,
    3137,
    3227,
    3188,
    3230,
    3217,
    3255,
    3191,
    3251,
    3279,
    3119,
    3201,
    3233,
    3291,
    3252,
    3325,
    3327,
    3155,
    3219,
    3251,
    3126,
    3180,
    3280,
    3129,
    3231,
    3280,
    3296,
    3274,
    3208,
    3271,
    3172,
    3276,
    3102,
    3319,
    3280,
    3329,
    3321,
    3181,
    3271,
    3214,
    3345,
    3294,
    3213,
    3342,
    3286,
    3242,
    3286,
    3260,
    3354,
    3278,
    3362,
    3384,
    3282,
    3353,
    3379,
    3338,
    3385,
    3330,
    3272,
    3316,
    3202,
    3293,
    3191,
    3302,
    3332,
    3293,
    3204,
    3347,
    3241,
    3226,
    3319,
    3279,
    3312,
    3304,
    3359,
    3245,
    3288,
    3269,
    3196,
    3332,
    3271,
    3335,
    3303,
    3311,
    3342,
    3249,
    3240,
    3361,
    3280,
    3235,
    3216,
    3214,
    3296,
    3284,
    3242,
    3203,
    3250,
    3180,
    3264,
    3250,
    3267,
    3244,
    3238,
    3254,
    3288,
    3241,
    3259,
    3177,
    3121,
    3190,
    3154,
    3194,
    3218,
    3181,
    3173,
    3307,
    3136,
    3197,
    3192,
    3246,
    3175,
    3208,
    3207,
    3102,
    3169,
    3215,
    3133,
    3267,
    3298,
    3319,
    3178
   ],
   "WindowCenter": [
    770.0,
    767.0,
    765.0,
    765.0,
    765.0,
    766.0,
    765.0,
    766.0,
    767.0,
    768.0,
    769.0,
    771.0,
    770.0,
    766.0,
    764.0,
    763.0,
    764.0,
    766.0,
    767.0,
    766.0,
    766.0,
    768.0,
    769.0,
    768.0,
    767.0,
    768.0,
    768.0,
    766.0,
    766.0,
    766.0,
    766.0,
    766.0,
    765.0,
    765.0,
    767.0,
    767.0,
    767.0,
    766.0,
    767.0,
    769.0,
    771.0,
    772.0,
    769.0,
    766.0,
    764.0,
    764.0,
    764.0,
    766.0,
    767.0,
    768.0,
    767.0,
    767.0,
    767.0,
    766.0,
    767.0,
    767.0,
    767.0,
    768.0,
    770.0,
    770.0,
    767.0,
    766.0,
    767.0,
    768.0,
    768.0,
    767.0,
    767.0,
    769.0,
    767.0,
    766.0,
    766.0,
    768.0,
    768.0,
    767.0,
    766.0,
    765.0,
    767.0,
    768.0,
    770.0,
    771.0,
    770.0,
    768.0,
    767.0,
    767.0,
    768.0,
    771.0,
    771.0,
    768.0,
    765.0,
    766.0,
    767.0,
    767.0,
    766.0,
    767.0,
    769.0,
    770.0,
    769.0,
    766.0,
    765.0,
    766.0,
    768.0,
    770.0,
    769.0,
    769.0,
    767.0,
    766.0,
    766.0,
    767.0,
    769.0,
    769.0,
    770.0,
    769.0,
    769.0,
    768.0,
    771.0,
    773.0,
    771.0,
    768.0,
    766.0,
    765.0,
    766.0,
    768.0,
    767.0,
    767.0,
    766.0,
    766.0,
    768.0,
    770.0,
    768.0,
    767.0,
    766.0,
    767.0,
    767.0,
    769.0,
    769.0,
