{
  "AcquisitionMatrixPE": 100,
  "AcquisitionNumber": 1,
  "AcquisitionTime": "13:51:37.207500",
  "BandwidthPerPixelPhaseEncode": 18.519,
  "BaseResolution": 100,
  "BodyPartExamined": "BRAIN",
  "ConsistencyInfo": "N4_VE11C_LATEST_20160120",
  "ConversionSoftware": "dcm2niix",
  "ConversionSoftwareVersion": "v1.0.20180622 GCC4.9.2",
  "DerivedVendorReportedEchoSpacing": 0.000539986,
  "DeviceSerialNumber": "166078",
  "DwellTime": 2.1e-06,
  "EchoTime": 0.034,
  "EchoTrainLength": 100,
  "EffectiveEchoSpacing": 0.000539986,
  "FlipAngle": 90,
  "ImageOrientationPatientDICOM": [0.999848, 0.0172696, -0.00251936, -0.0174524, 0.989375, -0.144334],
  "ImageType": [
    "ORIGINAL",
    "PRIMARY",
    "M",
    "ND",
    "MOSAIC"
],
  "InPlanePhaseEncodingDirectionDICOM": "COL",
  "InstitutionAddress": "Street_StreetNo_Bei_Jing_District_CN_ZIP",
  "InstitutionName": "BeiJing_Normal_University",
  "InstitutionalDepartmentName": "Department",
  "MRAcquisitionType": "2D",
  "MagneticFieldStrength": 3,
  "Manufacturer": "Siemens",
  "ManufacturersModelName": "Prisma",
  "Modality": "MR",
  "MultibandAccelerationFactor": 3,
  "PartialFourier": 1,
  "PatientPosition": "HFS",
  "PercentPhaseFOV": 100,
  "PhaseEncodingDirection": "j-",
  "PhaseEncodingSteps": 100,
  "PhaseResolution": 1,
  "PixelBandwidth": 2380,
  "ProcedureStepDescription": "BNU_P2018_64CH_Zhen.ZongLei",
  "ProtocolName": "bold_100x100_s3_2x2x2_static_256",
  "PulseSequenceDetails": "%SiemensSeq%_ep2d_bold",
  "ReceiveCoilActiveElements": "HC1-7;NC1",
  "ReceiveCoilName": "HeadNeck_64",
  "ReconMatrixPE": 100,
  "RepetitionTime": 2,
  "SAR": 0.0845056,
  "ScanOptions": "FS",
  "ScanningSequence": "EP",
  "SequenceName": "_epfid2d1_100",
  "SequenceVariant": "SK",
  "SeriesDescription": "bold_100x100_s3_2x2x2_static_256",
  "SeriesNumber": 6,
  "ShimSetting": [-5466, -11519, -1239, 264, -34, -100, -141, 97],
  "SliceThickness": 2,
  "SliceTiming": [1.485, 0, 0.99, 0.0825, 1.0725, 0.165, 1.155, 0.2475, 1.2375, 0.33, 1.32, 0.4125, 1.4025, 0.5775, 1.5675, 0.66, 1.65, 0.7425, 1.7325, 0.825, 1.815, 0.9075, 1.8975, 0.495, 1.485, 0, 0.99, 0.0825, 1.0725, 0.165, 1.155, 0.2475, 1.2375, 0.33, 1.32, 0.4125, 1.4025, 0.5775, 1.5675, 0.66, 1.65, 0.7425, 1.7325, 0.825, 1.815, 0.9075, 1.8975, 0.495, 1.485, 0, 0.99, 0.0825, 1.0725, 0.165, 1.155, 0.2475, 1.2375, 0.33, 1.32, 0.4125, 1.4025, 0.5775, 1.5675, 0.66, 1.65, 0.7425, 1.7325, 0.825, 1.815, 0.9075, 1.8975, 0.495],
  "SoftwareVersions": "syngo_MR_E11",
  "SpacingBetweenSlices": 2,
  "StationName": "AWP166078",
  "TaskName": "naturalvision",
  "TotalReadoutTime": 0.0534586,
  "TxRefAmp": 245.542,
  "dcmmeta_affine": [
    [-1.9996954202651978, -0.0349048413336277, 2.516546082631521e-09, 101.69510650634766],
    [-0.03453924134373665, 1.9787501096725464, -0.28871241211891174, -80.0909423828125],
    [-0.005038728006184101, 0.2886684238910675, 1.9790515899658203, -82.9732437133789],
    [0.0, 0.0, 0.0, 1.0]
],
  "dcmmeta_reorient_transform": [
    [0.0, -1.0, 0.0, 99.0],
    [1.0, 0.0, 0.0, 0.0],
    [0.0, 0.0, 1.0, 0.0],
    [0.0, 0.0, 0.0, 1.0]
],
  "dcmmeta_shape": [100, 100, 72, 256],
  "dcmmeta_slice_dim": 2,
  "dcmmeta_version": 0.6,
  "global": {
    "const": {
      "AcquisitionMatrix": [100, 0, 0, 100],
      "AngioFlag": "N",
      "BitsAllocated": 16,
      "BitsStored": 12,
      "BodyPartExamined": "BRAIN",
      "Columns": 900,
      "EchoNumbers": 1,
      "EchoTime": 34.0,
      "EchoTrainLength": 100,
      "FlipAngle": 90.0,
      "HighBit": 11,
      "ImageOrientationPatient": [0.99984769491393, 0.01726962016802, -0.0025193639194, -0.017452420328, 0.98937507869136, -0.1443342187049],
      "ImagePositionPatient": [-884.15574712732, -921.1210857163, 63.087795284719],
      "ImageType": [
        "ORIGINAL",
        "PRIMARY",
        "M",
        "ND",
        "MOSAIC"
],
      "ImagedNucleus": "1H",
      "ImagingFrequency": 123.25776,
      "InPlanePhaseEncodingDirection": "COL",
      "MRAcquisitionType": "2D",
      "MagneticFieldStrength": 3.0,
      "Manufacturer": "SIEMENS",
      "ManufacturerModelName": "Prisma",
      "Modality": "MR",
      "NumberOfAverages": 1.0,
      "NumberOfPhaseEncodingSteps": 100,
      "PercentPhaseFieldOfView": 100.0,
      "PercentSampling": 100.0,
      "PerformedProcedureStepStartTime": "131910.311000",
      "PhotometricInterpretation": "MONOCHROME2",
      "PixelBandwidth": 2380.0,
      "PixelRepresentation": 0,
      "PixelSpacing": [2.0, 2.0],
      "ProtocolName": "bold_100x100_s3_2x2x2_static_256",
      "RepetitionTime": 2000.0,
      "Rows": 900,
      "SAR": 0.08450555289292,
      "SamplesPerPixel": 1,
      "ScanOptions": "FS",
      "ScanningSequence": "EP",
      "SequenceName": "*epfid2d1_100",
      "SequenceVariant": "SK",
      "SeriesDescription": "bold_100x100_s3_2x2x2_static_256",
      "SeriesNumber": 6,
      "SeriesTime": "135139.709000",
      "SliceLocation": -70.542542670664,
      "SliceThickness": 2.0,
      "SmallestImagePixelValue": 0,
      "SoftwareVersions": "syngo MR E11",
      "SpacingBetweenSlices": 2.0000000390806,
      "SpecificCharacterSet": "ISO_IR 100",
      "StudyID": "1",
      "StudyTime": "131910.219000",
      "TransmitCoilName": "Body",
      "VariableFlipAngleFlag": "N",
      "WindowCenterWidthExplanation": "Algo1",
      "dBdt": 0.0},
    "slices": {}
  },
  "time": {
    "samples": {
      "AcquisitionNumber": [1, 2, 3, 4, 5, 6, 7, 8, 9, 10, 11, 12, 13, 14, 15, 16, 17, 18, 19, 20, 21, 22, 23, 24, 25, 26, 27, 28, 29, 30, 31, 32, 33, 34, 35, 36, 37, 38, 39, 40, 41, 42, 43, 44, 45, 46, 47, 48, 49, 50, 51, 52, 53, 54, 55, 56, 57, 58, 59, 60, 61, 62, 63, 64, 65, 66, 67, 68, 69, 70, 71, 72, 73, 74, 75, 76, 77, 78, 79, 80, 81, 82, 83, 84, 85, 86, 87, 88, 89, 90, 91, 92, 93, 94, 95, 96, 97, 98, 99, 100, 101, 102, 103, 104, 105, 106, 107, 108, 109, 110, 111, 112, 113, 114, 115, 116, 117, 118, 119, 120, 121, 122, 123, 124, 125, 126, 127, 128, 129, 130, 131, 132, 133, 134, 135, 136, 137, 138, 139, 140, 141, 142, 143, 144, 145, 146, 147, 148, 149, 150, 151, 152, 153, 154, 155, 156, 157, 158, 159, 160, 161, 162, 163, 164, 165, 166, 167, 168, 169, 170, 171, 172, 173, 174, 175, 176, 177, 178, 179, 180, 181, 182, 183, 184, 185, 186, 187, 188, 189, 190, 191, 192, 193, 194, 195, 196, 197, 198, 199, 200, 201, 202, 203, 204, 205, 206, 207, 208, 209, 210, 211, 212, 213, 214, 215, 216, 217, 218, 219, 220, 221, 222, 223, 224, 225, 226, 227, 228, 229, 230, 231, 232, 233, 234, 235, 236, 237, 238, 239, 240, 241, 242, 243, 244, 245, 246, 247, 248, 249, 250, 251, 252, 253, 254, 255, 256],
      "AcquisitionTime": ["135137.207500", "135139.207500", "135141.207500", "135143.207500", "135145.207500", "135147.207500", "135149.207500", "135151.207500", "135153.207500", "135155.207500", "135157.207500", "135159.207500", "135201.207500", "135203.207500", "135205.207500", "135207.207500", "135209.207500", "135211.207500", "135213.207500", "135215.207500", "135217.207500", "135219.207500", "135221.207500", "135223.207500", "135225.207500", "135227.207500", "135229.207500", "135231.207500", "135233.207500", "135235.207500", "135237.207500", "135239.207500", "135241.207500", "135243.207500", "135245.207500", "135247.207500", "135249.207500", "135251.207500", "135253.207500", "135255.207500", "135257.207500", "135259.207500", "135301.207500", "135303.207500", "135305.207500", "135307.207500", "135309.207500", "135311.207500", "135313.207500", "135315.207500", "135317.207500", "135319.207500", "135321.207500", "135323.207500", "135325.207500", "135327.207500", "135329.207500", "135331.207500", "135333.207500", "135335.207500", "135337.207500", "135339.207500", "135341.207500", "135343.207500", "135345.207500", "135347.207500", "135349.207500", "135351.207500", "135353.207500", "135355.207500", "135357.207500", "135359.207500", "135401.207500", "135403.207500", "135405.207500", "135407.207500", "135409.207500", "135411.207500", "135413.207500", "135415.207500", "135417.207500", "135419.207500", "135421.207500", "135423.207500", "135425.207500", "135427.207500", "135429.207500", "135431.207500", "135433.207500", "135435.207500", "135437.207500", "135439.207500", "135441.207500", "135443.207500", "135445.207500", "135447.207500", "135449.207500", "135451.207500", "135453.207500", "135455.207500", "135457.207500", "135459.207500", "135501.207500", "135503.207500", "135505.207500", "135507.207500", "135509.207500", "135511.207500", "135513.207500", "135515.207500", "135517.207500", "135519.207500", "135521.207500", "135523.207500", "135525.207500", "135527.207500", "135529.207500", "135531.207500", "135533.207500", "135535.207500", "135537.207500", "135539.207500", "135541.207500", "135543.207500", "135545.207500", "135547.207500", "135549.207500", "135551.207500", "135553.207500", "135555.207500", "135557.207500", "135559.207500", "135601.207500", "135603.207500", "135605.207500", "135607.207500", "135609.207500", "135611.207500", "135613.207500", "135615.207500", "135617.207500", "135619.207500", "135621.207500", "135623.207500", "135625.207500", "135627.207500", "135629.207500", "135631.207500", "135633.207500", "135635.207500", "135637.207500", "135639.207500", "135641.207500", "135643.207500", "135645.207500", "135647.207500", "135649.207500", "135651.207500", "135653.207500", "135655.207500", "135657.207500", "135659.207500", "135701.207500", "135703.207500", "135705.207500", "135707.207500", "135709.207500", "135711.207500", "135713.207500", "135715.207500", "135717.207500", "135719.207500", "135721.207500", "135723.207500", "135725.207500", "135727.207500", "135729.207500", "135731.207500", "135733.207500", "135735.207500", "135737.207500", "135739.207500", "135741.207500", "135743.207500", "135745.207500", "135747.207500", "135749.207500", "135751.207500", "135753.207500", "135755.207500", "135757.207500", "135759.207500", "135801.207500", "135803.207500", "135805.207500", "135807.207500", "135809.207500", "135811.207500", "135813.207500", "135815.207500", "135817.207500", "135819.207500", "135821.207500", "135823.207500", "135825.207500", "135827.207500", "135829.207500", "135831.207500", "135833.207500", "135835.207500", "135837.207500", "135839.207500", "135841.207500", "135843.207500", "135845.207500", "135847.207500", "135849.207500", "135851.207500", "135853.207500", "135855.207500", "135857.207500", "135859.207500", "135901.207500", "135903.207500", "135905.207500", "135907.207500", "135909.207500", "135911.207500", "135913.207500", "135915.207500", "135917.207500", "135919.207500", "135921.207500", "135923.207500", "135925.207500", "135927.207500", "135929.207500", "135931.207500", "135933.207500", "135935.207500", "135937.207500", "135939.207500", "135941.207500", "135943.207500", "135945.207500", "135947.207500", "135949.207500", "135951.207500", "135953.207500", "135955.207500", "135957.207500", "135959.207500", "140001.207500", "140003.207500", "140005.207500", "140007.207500"],
      "ContentTime": ["135139.713000", "135141.208000", "135143.209000", "135145.210000", "135147.210000", "135149.209000", "135151.208000", "135153.208000", "135155.208000", "135157.208000", "135159.209000", "135201.210000", "135203.210000", "135205.208000", "135207.208000", "135209.208000", "135211.209000", "135213.209000", "135215.209000", "135217.210000", "135219.209000", "135221.210000", "135223.208000", "135225.209000", "135227.208000", "135229.209000", "135231.209000", "135233.209000", "135235.209000", "135237.209000", "135239.210000", "135241.209000", "135243.209000", "135245.208000", "135247.208000", "135249.209000", "135251.209000", "135253.210000", "135255.209000", "135257.210000", "135259.209000", "135301.208000", "135303.208000", "135305.209000", "135307.209000", "135309.210000", "135311.210000", "135313.210000", "135315.208000", "135317.209000", "135319.208000", "135321.209000", "135323.209000", "135325.209000", "135327.210000", "135329.210000", "135331.210000", "135333.208000", "135335.209000", "135337.209000", "135339.209000", "135341.208000", "135343.209000", "135345.210000", "135347.209000", "135349.209000", "135351.209000", "135353.208000", "135355.209000", "135357.209000", "135359.208000", "135401.209000", "135403.209000", "135405.210000", "135407.209000", "135409.208000", "135411.208000", "135413.208000", "135415.209000", "135417.208000", "135419.210000", "135421.210000", "135423.209000", "135425.208000", "135427.208000", "135429.209000", "135431.208000", "135433.209000", "135435.209000", "135437.210000", "135439.209000", "135441.209000", "135443.208000", "135445.209000", "135447.208000", "135449.209000", "135451.208000", "135453.209000", "135455.209000", "135457.210000", "135459.210000", "135501.209000", "135503.208000", "135505.209000", "135507.209000", "135509.209000", "135511.209000", "135513.209000", "135515.210000", "135517.210000", "135519.208000", "135521.208000", "135523.209000", "135525.209000", "135527.209000", "135529.209000", "135531.210000", "135533.209000", "135535.208000", "135537.209000", "135539.209000", "135541.208000", "135543.209000", "135545.209000", "135547.210000", "135549.210000", "135551.209000", "135553.209000", "135555.208000", "135557.209000", "135559.209000", "135601.209000", "135603.209000", "135605.209000", "135607.210000", "135609.209000", "135611.209000", "135613.208000", "135615.209000", "135617.209000", "135619.208000", "135621.209000", "135623.209000", "135625.209000", "135627.209000", "135629.209000", "135631.208000", "135633.209000", "135635.209000", "135637.208000", "135639.210000", "135641.209000", "135643.209000", "135645.209000", "135647.208000", "135649.208000", "135651.208000", "135653.209000", "135655.209000", "135657.209000", "135659.210000", "135701.210000", "135703.208000", "135705.209000", "135707.208000", "135709.208000", "135711.208000", "135713.208000", "135715.209000", "135717.209000", "135719.209000", "135721.208000", "135723.208000", "135725.208000", "135727.208000", "135729.209000", "135731.210000", "135733.209000", "135735.209000", "135737.209000", "135739.208000", "135741.208000", "135743.209000", "135745.209000", "135747.209000", "135749.210000", "135751.210000", "135753.210000", "135755.208000", "135757.208000", "135759.228000", "135801.229000", "135803.209000", "135805.208000", "135807.209000", "135809.210000", "135811.209000", "135813.209000", "135815.209000", "135817.208000", "135819.209000", "135821.209000", "135823.209000", "135825.210000", "135827.210000", "135829.210000", "135831.208000", "135833.208000", "135835.209000", "135837.208000", "135839.208000", "135841.210000", "135843.209000", "135845.210000", "135847.209000", "135849.208000", "135851.209000", "135853.208000", "135855.208000", "135857.209000", "135859.209000", "135901.210000", "135903.209000", "135905.209000", "135907.209000", "135909.209000", "135911.209000", "135913.209000", "135915.209000", "135917.210000", "135919.209000", "135921.210000", "135923.209000", "135925.209000", "135927.209000", "135929.209000", "135931.209000", "135933.208000", "135935.210000", "135937.210000", "135939.209000", "135941.209000", "135943.209000", "135945.209000", "135947.209000", "135949.209000", "135951.210000", "135953.210000", "135955.210000", "135957.209000", "135959.209000", "140001.209000", "140003.208000", "140005.221000", "140007.209000", "140008.867000"],
      "InstanceCreationTime": ["135139.713000", "135141.208000", "135143.209000", "135145.210000", "135147.210000", "135149.209000", "135151.208000", "135153.208000", "135155.208000", "135157.208000", "135159.209000", "135201.210000", "135203.210000", "135205.208000", "135207.208000", "135209.208000", "135211.209000", "135213.209000", "135215.209000", "135217.210000", "135219.209000", "135221.210000", "135223.208000", "135225.209000", "135227.208000", "135229.209000", "135231.209000", "135233.209000", "135235.209000", "135237.209000", "135239.210000", "135241.209000", "135243.209000", "135245.208000", "135247.208000", "135249.209000", "135251.209000", "135253.210000", "135255.209000", "135257.210000", "135259.209000", "135301.208000", "135303.208000", "135305.209000", "135307.209000", "135309.210000", "135311.210000", "135313.210000", "135315.208000", "135317.209000", "135319.208000", "135321.209000", "135323.209000", "135325.209000", "135327.210000", "135329.210000", "135331.210000", "135333.208000", "135335.209000", "135337.209000", "135339.209000", "135341.208000", "135343.209000", "135345.210000", "135347.209000", "135349.209000", "135351.209000", "135353.208000", "135355.209000", "135357.209000", "135359.208000", "135401.209000", "135403.209000", "135405.210000", "135407.209000", "135409.208000", "135411.208000", "135413.208000", "135415.209000", "135417.208000", "135419.210000", "135421.210000", "135423.209000", "135425.208000", "135427.208000", "135429.209000", "135431.208000", "135433.209000", "135435.209000", "135437.210000", "135439.209000", "135441.209000", "135443.208000", "135445.209000", "135447.208000", "135449.209000", "135451.208000", "135453.209000", "135455.209000", "135457.210000", "135459.210000", "135501.209000", "135503.208000", "135505.209000", "135507.209000", "135509.209000", "135511.209000", "135513.209000", "135515.210000", "135517.210000", "135519.208000", "135521.208000", "135523.209000", "135525.209000", "135527.209000", "135529.209000", "135531.210000", "135533.209000", "135535.208000", "135537.209000", "135539.209000", "135541.208000", "135543.209000", "135545.209000", "135547.210000", "135549.210000", "135551.209000", "135553.209000", "135555.208000", "135557.209000", "135559.209000", "135601.209000", "135603.209000", "135605.209000", "135607.210000", "135609.209000", "135611.209000", "135613.208000", "135615.209000", "135617.209000", "135619.208000", "135621.209000", "135623.209000", "135625.209000", "135627.209000", "135629.209000", "135631.208000", "135633.209000", "135635.209000", "135637.208000", "135639.210000", "135641.209000", "135643.209000", "135645.209000", "135647.208000", "135649.208000", "135651.208000", "135653.209000", "135655.209000", "135657.209000", "135659.210000", "135701.210000", "135703.208000", "135705.209000", "135707.208000", "135709.208000", "135711.208000", "135713.208000", "135715.209000", "135717.209000", "135719.209000", "135721.208000", "135723.208000", "135725.208000", "135727.208000", "135729.209000", "135731.210000", "135733.209000", "135735.209000", "135737.209000", "135739.208000", "135741.208000", "135743.209000", "135745.209000", "135747.209000", "135749.210000", "135751.210000", "135753.210000", "135755.208000", "135757.208000", "135759.228000", "135801.229000", "135803.209000", "135805.208000", "135807.209000", "135809.210000", "135811.209000", "135813.209000", "135815.209000", "135817.208000", "135819.209000", "135821.209000", "135823.209000", "135825.210000", "135827.210000", "135829.210000", "135831.208000", "135833.208000", "135835.209000", "135837.208000", "135839.208000", "135841.210000", "135843.209000", "135845.210000", "135847.209000", "135849.208000", "135851.209000", "135853.208000", "135855.208000", "135857.209000", "135859.209000", "135901.210000", "135903.209000", "135905.209000", "135907.209000", "135909.209000", "135911.209000", "135913.209000", "135915.209000", "135917.210000", "135919.209000", "135921.210000", "135923.209000", "135925.209000", "135927.209000", "135929.209000", "135931.209000", "135933.208000", "135935.210000", "135937.210000", "135939.209000", "135941.209000", "135943.209000", "135945.209000", "135947.209000", "135949.209000", "135951.210000", "135953.210000", "135955.210000", "135957.209000", "135959.209000", "140001.209000", "140003.208000", "140005.221000", "140007.209000", "140008.867000"],
      "InstanceNumber": [1, 2, 3, 4, 5, 6, 7, 8, 9, 10, 11, 12, 13, 14, 15, 16, 17, 18, 19, 20, 21, 22, 23, 24, 25, 26, 27, 28, 29, 30, 31, 32, 33, 34, 35, 36, 37, 38, 39, 40, 41, 42, 43, 44, 45, 46, 47, 48, 49, 50, 51, 52, 53, 54, 55, 56, 57, 58, 59, 60, 61, 62, 63, 64, 65, 66, 67, 68, 69, 70, 71, 72, 73, 74, 75, 76, 77, 78, 79, 80, 81, 82, 83, 84, 85, 86, 87, 88, 89, 90, 91, 92, 93, 94, 95, 96, 97, 98, 99, 100, 101, 102, 103, 104, 105, 106, 107, 108, 109, 110, 111, 112, 113, 114, 115, 116, 117, 118, 119, 120, 121, 122, 123, 124, 125, 126, 127, 128, 129, 130, 131, 132, 133, 134, 135, 136, 137, 138, 139, 140, 141, 142, 143, 144, 145, 146, 147, 148, 149, 150, 151, 152, 153, 154, 155, 156, 157, 158, 159, 160, 161, 162, 163, 164, 165, 166, 167, 168, 169, 170, 171, 172, 173, 174, 175, 176, 177, 178, 179, 180, 181, 182, 183, 184, 185, 186, 187, 188, 189, 190, 191, 192, 193, 194, 195, 196, 197, 198, 199, 200, 201, 202, 203, 204, 205, 206, 207, 208, 209, 210, 211, 212, 213, 214, 215, 216, 217, 218, 219, 220, 221, 222, 223, 224, 225, 226, 227, 228, 229, 230, 231, 232, 233, 234, 235, 236, 237, 238, 239, 240, 241, 242, 243, 244, 245, 246, 247, 248, 249, 250, 251, 252, 253, 254, 255, 256],
      "LargestImagePixelValue": [3229, 3190, 3232, 3135, 3145, 3109, 3153, 3140, 3151, 3135, 3219, 3209, 3202, 3209, 3205, 3139, 3135, 3169, 3191, 3174, 3207, 3172, 3175, 3126, 3124, 3128, 3146, 3149, 3155, 3152, 3142, 3181, 3222, 3148, 3129, 3155, 3151, 3203, 3210, 3270, 3212, 3115, 3132, 3159, 3212, 3195, 3176, 3220, 3174, 3195, 3178, 3175, 3191, 3208, 3212, 3138, 3103, 3128, 3123, 3184, 3169, 3244, 3265, 3204, 3177, 3175, 3189, 3147, 3140, 3161, 3192, 3237, 3260, 3217, 3210, 3198, 3215, 3198, 3145, 3158, 3116, 3126, 3135, 3159, 3196, 3158, 3160, 3196, 3182, 3180, 3183, 3194, 3178, 3176, 3187, 3150, 3195, 3137, 3132, 3157, 3272, 3305, 3189, 3175, 3141, 3178, 3244, 3186, 3137, 3140, 3112, 3122, 3167, 3133, 3166, 3162, 3151, 3195, 3235, 3270, 3243, 3197, 3158, 3121, 3156, 3113, 3106, 3113, 3109, 3112, 3125, 3118, 3152, 3115, 3109, 3274, 3128, 3208, 3199, 3166, 3187, 3174, 3177, 3137, 3120, 3147, 3140, 3122, 3150, 3239, 3222, 3182, 3172, 3154, 3183, 3204, 3186, 3185, 3151, 3175, 3183, 3175, 3238, 3182, 3137, 3162, 3132, 3145, 3161, 3156, 3099, 3134, 3142, 3138, 3157, 3144, 3237, 3232, 3233, 3224, 3161, 3139, 3121, 3130, 3199, 3231, 3186, 3191, 3151, 3137, 3168, 3239, 3221, 3271, 3287, 3148, 3106, 3122, 3135, 3108, 3093, 3101, 3162, 3197, 3147, 3190, 3296, 3268, 3248, 3185, 3214, 3235, 3236, 3228, 3178, 3198, 3110, 3275, 3185, 3154, 3136, 3222, 3255, 3210, 3122, 3133, 3117, 3138, 3100, 3114, 3086, 3128, 3110, 3127, 3108, 3183, 3205, 3267, 3278, 3261, 3163, 3194, 3228, 3292, 3252, 3178, 3203, 3295, 3306, 3248, 3134, 3108, 3115, 3130, 3131, 3132],
      "WindowCenter": [835.0, 833.0, 832.0, 830.0, 830.0, 830.0, 831.0, 831.0, 831.0, 831.0, 834.0, 833.0, 832.0, 832.0, 832.0, 831.0, 832.0, 833.0, 834.0, 834.0, 833.0, 833.0, 833.0, 831.0, 831.0, 831.0, 832.0, 832.0, 833.0, 833.0, 833.0, 835.0, 835.0, 833.0, 833.0, 834.0, 833.0, 833.0, 833.0, 832.0, 831.0, 830.0, 832.0, 832.0, 833.0, 832.0, 833.0, 833.0, 832.0, 832.0, 834.0, 834.0, 833.0, 834.0, 835.0, 834.0, 834.0, 834.0, 835.0, 835.0, 837.0, 837.0, 836.0, 834.0, 834.0, 835.0, 835.0, 834.0, 834.0, 834.0, 833.0, 835.0, 834.0, 833.0, 832.0, 833.0, 833.0, 833.0, 833.0, 832.0, 830.0, 830.0, 832.0, 833.0, 832.0, 831.0, 832.0, 833.0, 833.0, 832.0, 832.0, 832.0, 833.0, 833.0, 834.0, 835.0, 836.0, 835.0, 834.0, 837.0, 839.0, 838.0, 837.0, 836.0, 836.0, 838.0, 837.0, 835.0, 832.0, 831.0, 831.0, 830.0, 831.0, 832.0, 831.0, 831.0, 831.0, 832.0, 834.0, 835.0, 835.0, 834.0, 833.0, 833.0, 833.0, 833.0, 832.0, 832.0, 831.0, 832.0, 833.0, 833.0, 833.0, 834.0, 833.0, 834.0, 836.0, 838.0, 836.0, 834.0, 832.0, 832.0, 832.0, 832.0, 832.0, 832.0, 832.0, 832.0, 833.0, 834.0, 834.0, 833.0, 834.0, 834.0, 834.0, 834.0, 834.0, 833.0, 833.0, 835.0, 835.0, 835.0, 836.0, 835.0, 834.0, 832.0, 832.0, 832.0, 832.0, 831.0, 832.0, 833.0, 833.0, 832.0, 832.0, 833.0, 837.0, 836.0, 837.0, 837.0, 836.0, 834.0, 833.0, 834.0, 836.0, 836.0, 834.0, 833.0, 832.0, 832.0, 833.0, 835.0, 835.0, 838.0, 837.0, 836.0, 833.0, 833.0, 834.0, 833.0, 832.0, 833.0, 836.0, 835.0, 834.0, 836.0, 836.0, 834.0, 833.0, 833.0, 833.0, 833.0, 832.0, 832.0, 832.0, 832.0, 833.0, 836.0, 834.0, 834.0, 834.0, 838.0, 838.0, 836.0, 833.0, 832.0, 831.0, 831.0, 831.0, 831.0, 831.0, 832.0, 832.0, 832.0, 833.0, 834.0, 834.0, 837.0, 838.0, 836.0, 833.0, 834.0, 835.0, 835.0, 834.0, 834.0, 836.0, 839.0, 837.0, 834.0, 831.0, 830.0, 830.0, 831.0, 832.0, 833.0],
      "WindowWidth": [1768.0, 1762.0, 1759.0, 1756.0, 1756.0, 1757.0, 1758.0, 1759.0, 1759.0, 1759.0, 1765.0, 1764.0, 1761.0, 1760.0, 1760.0, 1759.0, 1761.0, 1763.0, 1766.0, 1766.0, 1764.0, 1765.0, 1765.0, 1759.0, 1759.0, 1759.0, 1759.0, 1760.0, 1764.0, 1763.0, 1763.0, 1768.0, 1768.0, 1764.0, 1762.0, 1764.0, 1764.0, 1764.0, 1763.0, 1761.0, 1759.0, 1755.0, 1760.0, 1761.0, 1762.0, 1761.0, 1764.0, 1764.0, 1761.0, 1761.0, 1766.0, 1766.0, 1764.0, 1766.0, 1768.0, 1766.0, 1764.0, 1766.0, 1767.0, 1769.0, 1773.0, 1774.0, 1769.0, 1764.0, 1764.0, 1767.0, 1768.0, 1765.0, 1764.0, 1765.0, 1764.0, 1768.0, 1767.0, 1764.0, 1762.0, 1763.0, 1762.0, 1762.0, 1761.0, 1761.0, 1756.0, 1756.0, 1760.0, 1762.0, 1761.0, 1758.0, 1760.0, 1762.0, 1762.0, 1759.0, 1759.0, 1761.0, 1762.0, 1763.0, 1764.0, 1769.0, 1770.0, 1766.0, 1765.0, 1772.0, 1778.0, 1776.0, 1772.0, 1770.0, 1771.0, 1775.0, 1773.0, 1767.0, 1761.0, 1758.0, 1756.0, 1755.0, 1758.0, 1759.0, 1758.0, 1758.0, 1757.0, 1760.0, 1765.0, 1768.0, 1767.0, 1764.0, 1763.0, 1761.0, 1763.0, 1762.0, 1760.0, 1759.0, 1758.0, 1759.0, 1762.0, 1762.0, 1763.0, 1764.0, 1761.0, 1766.0, 1769.0, 1775.0, 1771.0, 1765.0, 1761.0, 1759.0, 1760.0, 1760.0, 1759.0, 1759.0, 1760.0, 1760.0, 1763.0, 1766.0, 1765.0, 1763.0, 1765.0, 1766.0, 1766.0, 1766.0, 1764.0, 1763.0, 1763.0, 1767.0, 1768.0, 1768.0, 1769.0, 1767.0, 1764.0, 1761.0, 1759.0, 1760.0, 1759.0, 1757.0, 1759.0, 1763.0, 1762.0, 1759.0, 1759.0, 1763.0, 1772.0, 1771.0, 1773.0, 1772.0, 1769.0, 1765.0, 1763.0, 1764.0, 1769.0, 1770.0, 1765.0, 1763.0, 1760.0, 1759.0, 1762.0, 1767.0, 1769.0, 1774.0, 1773.0, 1768.0, 1763.0, 1762.0, 1763.0, 1761.0, 1758.0, 1761.0, 1769.0, 1768.0, 1766.0, 1770.0, 1770.0, 1766.0, 1764.0, 1762.0, 1763.0, 1762.0, 1761.0, 1759.0, 1759.0, 1760.0, 1763.0, 1769.0, 1766.0, 1763.0, 1765.0, 1774.0, 1776.0, 1770.0, 1762.0, 1759.0, 1757.0, 1757.0, 1757.0, 1758.0, 1757.0, 1761.0, 1760.0, 1760.0, 1762.0, 1763.0, 1766.0, 1773.0, 1774.0, 1768.0, 1762.0, 1766.0, 1768.0, 1768.0, 1766.0, 1764.0, 1771.0, 1778.0, 1773.0, 1765.0, 1757.0, 1755.0, 1754.0, 1757.0, 1759.0, 1761.0]
    },
    "slices": {}
  }
}