{
  "AcquisitionMatrixPE": 100,
  "AcquisitionNumber": 1,
  "AcquisitionTime": "14:42:2.997500",
  "BandwidthPerPixelPhaseEncode": 18.519,
  "BaseResolution": 100,
  "BodyPartExamined": "BRAIN",
  "ConsistencyInfo": "N4_VE11C_LATEST_20160120",
  "ConversionSoftware": "dcm2niix",
  "ConversionSoftwareVersion": "v1.0.20180622 GCC4.9.2",
  "DerivedVendorReportedEchoSpacing": 0.000539986,
  "DeviceSerialNumber": "166078",
  "DwellTime": 2.1e-06,
  "EchoTime": 0.034,
  "EchoTrainLength": 100,
  "EffectiveEchoSpacing": 0.000539986,
  "FlipAngle": 90,
  "ImageOrientationPatientDICOM": [0.999848, 0.0172696, -0.00251936, -0.0174524, 0.989375, -0.144334],
  "ImageType": [
    "ORIGINAL",
    "PRIMARY",
    "M",
    "ND",
    "MOSAIC"
],
  "InPlanePhaseEncodingDirectionDICOM": "COL",
  "InstitutionAddress": "Street_StreetNo_Bei_Jing_District_CN_ZIP",
  "InstitutionName": "BeiJing_Normal_University",
  "InstitutionalDepartmentName": "Department",
  "MRAcquisitionType": "2D",
  "MagneticFieldStrength": 3,
  "Manufacturer": "Siemens",
  "ManufacturersModelName": "Prisma",
  "Modality": "MR",
  "MultibandAccelerationFactor": 3,
  "PartialFourier": 1,
  "PatientPosition": "HFS",
  "PercentPhaseFOV": 100,
  "PhaseEncodingDirection": "j-",
  "PhaseEncodingSteps": 100,
  "PhaseResolution": 1,
  "PixelBandwidth": 2380,
  "ProcedureStepDescription": "BNU_P2018_64CH_Zhen.ZongLei",
  "ProtocolName": "bold_100x100_s3_2x2x2_static_256",
  "PulseSequenceDetails": "%SiemensSeq%_ep2d_bold",
  "ReceiveCoilActiveElements": "HC1-7;NC1",
  "ReceiveCoilName": "HeadNeck_64",
  "ReconMatrixPE": 100,
  "RepetitionTime": 2,
  "SAR": 0.0845056,
  "ScanOptions": "FS",
  "ScanningSequence": "EP",
  "SequenceName": "_epfid2d1_100",
  "SequenceVariant": "SK",
  "SeriesDescription": "bold_100x100_s3_2x2x2_static_256",
  "SeriesNumber": 13,
  "ShimSetting": [-5466, -11519, -1239, 264, -34, -100, -141, 97],
  "SliceThickness": 2,
  "SliceTiming": [1.4825, 0, 0.9875, 0.0825, 1.07, 0.165, 1.1525, 0.2475, 1.235, 0.33, 1.3175, 0.4125, 1.4, 0.5775, 1.565, 0.66, 1.6475, 0.7425, 1.73, 0.825, 1.8125, 0.905, 1.895, 0.495, 1.4825, 0, 0.9875, 0.0825, 1.07, 0.165, 1.1525, 0.2475, 1.235, 0.33, 1.3175, 0.4125, 1.4, 0.5775, 1.565, 0.66, 1.6475, 0.7425, 1.73, 0.825, 1.8125, 0.905, 1.895, 0.495, 1.4825, 0, 0.9875, 0.0825, 1.07, 0.165, 1.1525, 0.2475, 1.235, 0.33, 1.3175, 0.4125, 1.4, 0.5775, 1.565, 0.66, 1.6475, 0.7425, 1.73, 0.825, 1.8125, 0.905, 1.895, 0.495],
  "SoftwareVersions": "syngo_MR_E11",
  "SpacingBetweenSlices": 2,
  "StationName": "AWP166078",
  "TaskName": "naturalvision",
  "TotalReadoutTime": 0.0534586,
  "TxRefAmp": 245.542,
  "dcmmeta_affine": [
    [-1.9996954202651978, -0.0349048413336277, 2.516546082631521e-09, 101.69510650634766],
    [-0.03453924134373665, 1.9787501096725464, -0.28871241211891174, -80.0909423828125],
    [-0.005038728006184101, 0.2886684238910675, 1.9790515899658203, -82.9732437133789],
    [0.0, 0.0, 0.0, 1.0]
],
  "dcmmeta_reorient_transform": [
    [0.0, -1.0, 0.0, 99.0],
    [1.0, 0.0, 0.0, 0.0],
    [0.0, 0.0, 1.0, 0.0],
    [0.0, 0.0, 0.0, 1.0]
],
  "dcmmeta_shape": [100, 100, 72, 256],
  "dcmmeta_slice_dim": 2,
  "dcmmeta_version": 0.6,
  "global": {
    "const": {
      "AcquisitionMatrix": [100, 0, 0, 100],
      "AngioFlag": "N",
      "BitsAllocated": 16,
      "BitsStored": 12,
      "BodyPartExamined": "BRAIN",
      "Columns": 900,
      "EchoNumbers": 1,
      "EchoTime": 34.0,
      "EchoTrainLength": 100,
      "FlipAngle": 90.0,
      "HighBit": 11,
      "ImageOrientationPatient": [0.99984769491393, 0.01726962016802, -0.0025193639194, -0.017452420328, 0.98937507869136, -0.1443342187049],
      "ImagePositionPatient": [-884.15574712732, -921.1210857163, 63.087795284719],
      "ImageType": [
        "ORIGINAL",
        "PRIMARY",
        "M",
        "ND",
        "MOSAIC"
],
      "ImagedNucleus": "1H",
      "ImagingFrequency": 123.257767,
      "InPlanePhaseEncodingDirection": "COL",
      "MRAcquisitionType": "2D",
      "MagneticFieldStrength": 3.0,
      "Manufacturer": "SIEMENS",
      "ManufacturerModelName": "Prisma",
      "Modality": "MR",
      "NumberOfAverages": 1.0,
      "NumberOfPhaseEncodingSteps": 100,
      "PercentPhaseFieldOfView": 100.0,
      "PercentSampling": 100.0,
      "PerformedProcedureStepStartTime": "131910.311000",
      "PhotometricInterpretation": "MONOCHROME2",
      "PixelBandwidth": 2380.0,
      "PixelRepresentation": 0,
      "PixelSpacing": [2.0, 2.0],
      "ProtocolName": "bold_100x100_s3_2x2x2_static_256",
      "RepetitionTime": 2000.0,
      "Rows": 900,
      "SAR": 0.08450555289292,
      "SamplesPerPixel": 1,
      "ScanOptions": "FS",
      "ScanningSequence": "EP",
      "SequenceName": "*epfid2d1_100",
      "SequenceVariant": "SK",
      "SeriesDescription": "bold_100x100_s3_2x2x2_static_256",
      "SeriesNumber": 13,
      "SeriesTime": "144205.480000",
      "SliceLocation": -70.542542670664,
      "SliceThickness": 2.0,
      "SmallestImagePixelValue": 0,
      "SoftwareVersions": "syngo MR E11",
      "SpacingBetweenSlices": 2.0000000390806,
      "SpecificCharacterSet": "ISO_IR 100",
      "StudyID": "1",
      "StudyTime": "131910.219000",
      "TransmitCoilName": "Body",
      "VariableFlipAngleFlag": "N",
      "WindowCenterWidthExplanation": "Algo1",
      "dBdt": 0.0},
    "slices": {}
  },
  "time": {
    "samples": {
      "AcquisitionNumber": [1, 2, 3, 4, 5, 6, 7, 8, 9, 10, 11, 12, 13, 14, 15, 16, 17, 18, 19, 20, 21, 22, 23, 24, 25, 26, 27, 28, 29, 30, 31, 32, 33, 34, 35, 36, 37, 38, 39, 40, 41, 42, 43, 44, 45, 46, 47, 48, 49, 50, 51, 52, 53, 54, 55, 56, 57, 58, 59, 60, 61, 62, 63, 64, 65, 66, 67, 68, 69, 70, 71, 72, 73, 74, 75, 76, 77, 78, 79, 80, 81, 82, 83, 84, 85, 86, 87, 88, 89, 90, 91, 92, 93, 94, 95, 96, 97, 98, 99, 100, 101, 102, 103, 104, 105, 106, 107, 108, 109, 110, 111, 112, 113, 114, 115, 116, 117, 118, 119, 120, 121, 122, 123, 124, 125, 126, 127, 128, 129, 130, 131, 132, 133, 134, 135, 136, 137, 138, 139, 140, 141, 142, 143, 144, 145, 146, 147, 148, 149, 150, 151, 152, 153, 154, 155, 156, 157, 158, 159, 160, 161, 162, 163, 164, 165, 166, 167, 168, 169, 170, 171, 172, 173, 174, 175, 176, 177, 178, 179, 180, 181, 182, 183, 184, 185, 186, 187, 188, 189, 190, 191, 192, 193, 194, 195, 196, 197, 198, 199, 200, 201, 202, 203, 204, 205, 206, 207, 208, 209, 210, 211, 212, 213, 214, 215, 216, 217, 218, 219, 220, 221, 222, 223, 224, 225, 226, 227, 228, 229, 230, 231, 232, 233, 234, 235, 236, 237, 238, 239, 240, 241, 242, 243, 244, 245, 246, 247, 248, 249, 250, 251, 252, 253, 254, 255, 256],
      "AcquisitionTime": ["144202.997500", "144204.997500", "144206.997500", "144208.997500", "144210.997500", "144212.997500", "144214.997500", "144216.997500", "144218.997500", "144220.997500", "144222.997500", "144224.997500", "144226.997500", "144228.997500", "144230.997500", "144232.997500", "144234.997500", "144236.997500", "144238.997500", "144240.997500", "144242.997500", "144244.997500", "144246.997500", "144248.997500", "144250.997500", "144252.997500", "144254.997500", "144256.997500", "144258.997500", "144300.997500", "144302.997500", "144304.997500", "144306.997500", "144308.997500", "144310.997500", "144312.997500", "144314.997500", "144316.997500", "144318.997500", "144320.997500", "144322.997500", "144324.997500", "144326.997500", "144328.997500", "144330.997500", "144332.997500", "144334.997500", "144336.997500", "144338.997500", "144340.997500", "144342.997500", "144344.997500", "144346.997500", "144348.997500", "144350.997500", "144352.997500", "144354.997500", "144356.997500", "144358.997500", "144400.997500", "144402.997500", "144404.997500", "144406.997500", "144408.997500", "144410.997500", "144412.997500", "144414.997500", "144416.997500", "144418.997500", "144420.997500", "144422.997500", "144424.997500", "144426.997500", "144428.997500", "144430.997500", "144432.997500", "144434.997500", "144436.997500", "144438.997500", "144440.997500", "144442.997500", "144444.997500", "144446.997500", "144448.997500", "144450.997500", "144452.997500", "144454.997500", "144456.997500", "144458.997500", "144500.997500", "144502.997500", "144504.997500", "144506.997500", "144508.997500", "144510.997500", "144512.997500", "144514.997500", "144516.997500", "144518.997500", "144520.997500", "144522.997500", "144524.997500", "144526.997500", "144528.997500", "144530.997500", "144532.997500", "144534.997500", "144536.997500", "144538.997500", "144540.997500", "144542.997500", "144544.997500", "144546.997500", "144548.997500", "144550.997500", "144552.997500", "144554.997500", "144556.997500", "144558.997500", "144600.997500", "144602.997500", "144604.997500", "144606.997500", "144608.997500", "144610.997500", "144612.997500", "144614.997500", "144616.997500", "144618.997500", "144620.997500", "144622.997500", "144624.997500", "144626.997500", "144628.997500", "144630.997500", "144632.997500", "144634.997500", "144636.997500", "144638.997500", "144640.997500", "144642.997500", "144644.997500", "144646.997500", "144648.997500", "144650.997500", "144652.997500", "144654.997500", "144656.997500", "144658.997500", "144700.997500", "144702.997500", "144704.997500", "144706.997500", "144708.997500", "144710.997500", "144712.997500", "144714.997500", "144716.997500", "144718.997500", "144720.997500", "144722.997500", "144724.997500", "144726.997500", "144728.997500", "144730.997500", "144732.997500", "144734.997500", "144736.997500", "144738.997500", "144740.997500", "144742.997500", "144744.997500", "144746.997500", "144748.997500", "144750.997500", "144752.997500", "144754.997500", "144756.997500", "144758.997500", "144800.997500", "144802.997500", "144804.997500", "144806.997500", "144808.997500", "144810.997500", "144812.997500", "144814.997500", "144816.997500", "144818.997500", "144820.997500", "144822.997500", "144824.997500", "144826.997500", "144828.997500", "144830.997500", "144832.997500", "144834.997500", "144836.997500", "144838.997500", "144840.997500", "144842.997500", "144844.997500", "144846.997500", "144848.997500", "144850.997500", "144852.997500", "144854.997500", "144856.997500", "144858.997500", "144900.997500", "144902.997500", "144904.997500", "144906.997500", "144908.997500", "144910.997500", "144912.997500", "144914.997500", "144916.997500", "144918.997500", "144920.997500", "144922.997500", "144924.997500", "144926.997500", "144928.997500", "144930.997500", "144932.997500", "144934.997500", "144936.997500", "144938.997500", "144940.997500", "144942.997500", "144944.997500", "144946.997500", "144948.997500", "144950.997500", "144952.997500", "144954.997500", "144956.997500", "144958.997500", "145000.997500", "145002.997500", "145004.997500", "145006.997500", "145008.997500", "145010.997500", "145012.997500", "145014.997500", "145016.997500", "145018.997500", "145020.997500", "145022.997500", "145024.997500", "145026.997500", "145028.997500", "145030.997500", "145032.997500"],
      "ContentTime": ["144205.484000", "144207.480000", "144208.981000", "144210.980000", "144213.480000", "144214.980000", "144216.980000", "144219.479000", "144221.480000", "144223.479000", "144224.980000", "144227.480000", "144229.480000", "144230.980000", "144232.980000", "144234.980000", "144236.979000", "144238.979000", "144240.979000", "144242.980000", "144244.980000", "144247.480000", "144248.980000", "144250.981000", "144252.980000", "144254.979000", "144256.980000", "144258.981000", "144301.481000", "144302.981000", "144304.981000", "144306.981000", "144308.980000", "144311.480000", "144312.979000", "144314.979000", "144317.481000", "144318.981000", "144320.980000", "144322.980000", "144325.481000", "144326.981000", "144329.480000", "144330.979000", "144333.481000", "144334.981000", "144337.481000", "144338.980000", "144340.981000", "144342.981000", "144344.981000", "144346.980000", "144348.979000", "144350.981000", "144352.981000", "144354.981000", "144356.980000", "144359.480000", "144401.481000", "144403.480000", "144405.479000", "144406.980000", "144408.980000", "144410.980000", "144413.481000", "144415.481000", "144417.481000", "144418.981000", "144420.980000", "144422.979000", "144424.979000", "144427.481000", "144428.980000", "144430.980000", "144432.980000", "144434.980000", "144436.981000", "144439.479000", "144440.980000", "144443.481000", "144444.980000", "144446.980000", "144448.980000", "144450.980000", "144452.981000", "144455.480000", "144457.480000", "144458.980000", "144500.980000", "144502.980000", "144504.981000", "144506.981000", "144509.481000", "144510.981000", "144513.480000", "144514.979000", "144517.479000", "144518.980000", "144520.980000", "144523.481000", "144524.980000", "144526.981000", "144529.480000", "144531.479000", "144532.979000", "144534.979000", "144536.980000", "144538.981000", "144541.481000", "144543.481000", "144544.981000", "144547.481000", "144549.480000", "144550.979000", "144553.481000", "144555.481000", "144556.981000", "144559.481000", "144600.980000", "144602.981000", "144604.980000", "144607.480000", "144608.979000", "144611.481000", "144613.481000", "144615.481000", "144616.981000", "144618.981000", "144620.980000", "144622.980000", "144624.980000", "144626.980000", "144628.980000", "144631.481000", "144632.981000", "144634.980000", "144637.481000", "144638.981000", "144641.480000", "144643.479000", "144644.980000", "144646.981000", "144648.980000", "144650.981000", "144653.481000", "144655.481000", "144657.481000", "144658.979000", "144700.979000", "144702.980000", "144704.980000", "144706.981000", "144709.480000", "144710.980000", "144712.981000", "144714.981000", "144717.480000", "144718.980000", "144720.981000", "144722.980000", "144724.980000", "144727.481000", "144729.480000", "144730.981000", "144733.480000", "144735.480000", "144736.979000", "144738.981000", "144741.481000", "144742.981000", "144745.480000", "144746.981000", "144748.980000", "144751.479000", "144752.980000", "144754.980000", "144757.481000", "144758.980000", "144800.981000", "144802.980000", "144804.981000", "144806.981000", "144808.980000", "144810.979000", "144813.481000", "144815.481000", "144817.480000", "144818.981000", "144821.481000", "144822.981000", "144824.981000", "144826.979000", "144828.979000", "144831.480000", "144833.481000", "144834.981000", "144836.980000", "144839.481000", "144840.991000", "144843.480000", "144844.979000", "144846.979000", "144849.480000", "144850.980000", "144853.481000", "144854.980000", "144857.481000", "144858.981000", "144900.979000", "144903.480000", "144905.480000", "144906.980000", "144908.980000", "144910.981000", "144912.980000", "144914.981000", "144916.981000", "144918.979000", "144920.979000", "144923.481000", "144924.981000", "144926.980000", "144928.981000", "144930.980000", "144932.981000", "144934.981000", "144936.979000", "144938.980000", "144940.980000", "144942.981000", "144944.981000", "144946.981000", "144948.980000", "144950.981000", "144952.980000", "144955.479000", "144956.979000", "144958.980000", "145000.981000", "145002.981000", "145005.480000", "145006.981000", "145009.481000", "145011.480000", "145012.979000", "145015.479000", "145016.980000", "145018.980000", "145020.981000", "145022.980000", "145024.981000", "145027.481000", "145029.480000", "145030.980000", "145032.979000", "145034.953000"],
      "InstanceCreationTime": ["144205.484000", "144207.480000", "144208.981000", "144210.980000", "144213.480000", "144214.980000", "144216.980000", "144219.479000", "144221.480000", "144223.479000", "144224.980000", "144227.480000", "144229.480000", "144230.980000", "144232.980000", "144234.980000", "144236.979000", "144238.979000", "144240.979000", "144242.980000", "144244.980000", "144247.480000", "144248.980000", "144250.981000", "144252.980000", "144254.979000", "144256.980000", "144258.981000", "144301.481000", "144302.981000", "144304.981000", "144306.981000", "144308.980000", "144311.480000", "144312.979000", "144314.979000", "144317.481000", "144318.981000", "144320.980000", "144322.980000", "144325.481000", "144326.981000", "144329.480000", "144330.979000", "144333.481000", "144334.981000", "144337.481000", "144338.980000", "144340.981000", "144342.981000", "144344.981000", "144346.980000", "144348.979000", "144350.981000", "144352.981000", "144354.981000", "144356.980000", "144359.480000", "144401.481000", "144403.480000", "144405.479000", "144406.980000", "144408.980000", "144410.980000", "144413.481000", "144415.481000", "144417.481000", "144418.981000", "144420.980000", "144422.979000", "144424.979000", "144427.481000", "144428.980000", "144430.980000", "144432.980000", "144434.980000", "144436.981000", "144439.479000", "144440.980000", "144443.481000", "144444.980000", "144446.980000", "144448.980000", "144450.980000", "144452.981000", "144455.480000", "144457.480000", "144458.980000", "144500.980000", "144502.980000", "144504.981000", "144506.981000", "144509.481000", "144510.981000", "144513.480000", "144514.979000", "144517.479000", "144518.980000", "144520.980000", "144523.481000", "144524.980000", "144526.981000", "144529.480000", "144531.479000", "144532.979000", "144534.979000", "144536.980000", "144538.981000", "144541.481000", "144543.481000", "144544.981000", "144547.481000", "144549.480000", "144550.979000", "144553.481000", "144555.481000", "144556.981000", "144559.481000", "144600.980000", "144602.981000", "144604.980000", "144607.480000", "144608.979000", "144611.481000", "144613.481000", "144615.481000", "144616.981000", "144618.981000", "144620.980000", "144622.980000", "144624.980000", "144626.980000", "144628.980000", "144631.481000", "144632.981000", "144634.980000", "144637.481000", "144638.981000", "144641.480000", "144643.479000", "144644.980000", "144646.981000", "144648.980000", "144650.981000", "144653.481000", "144655.481000", "144657.481000", "144658.979000", "144700.979000", "144702.980000", "144704.980000", "144706.981000", "144709.480000", "144710.980000", "144712.981000", "144714.981000", "144717.480000", "144718.980000", "144720.981000", "144722.980000", "144724.980000", "144727.481000", "144729.480000", "144730.981000", "144733.480000", "144735.480000", "144736.979000", "144738.981000", "144741.481000", "144742.981000", "144745.480000", "144746.981000", "144748.980000", "144751.479000", "144752.980000", "144754.980000", "144757.481000", "144758.980000", "144800.981000", "144802.980000", "144804.981000", "144806.981000", "144808.980000", "144810.979000", "144813.481000", "144815.481000", "144817.480000", "144818.981000", "144821.481000", "144822.981000", "144824.981000", "144826.979000", "144828.979000", "144831.480000", "144833.481000", "144834.981000", "144836.980000", "144839.481000", "144840.991000", "144843.480000", "144844.979000", "144846.979000", "144849.480000", "144850.980000", "144853.481000", "144854.980000", "144857.481000", "144858.981000", "144900.979000", "144903.480000", "144905.480000", "144906.980000", "144908.980000", "144910.981000", "144912.980000", "144914.981000", "144916.981000", "144918.979000", "144920.979000", "144923.481000", "144924.981000", "144926.980000", "144928.981000", "144930.980000", "144932.981000", "144934.981000", "144936.979000", "144938.980000", "144940.980000", "144942.981000", "144944.981000", "144946.981000", "144948.980000", "144950.981000", "144952.980000", "144955.479000", "144956.979000", "144958.980000", "145000.981000", "145002.981000", "145005.480000", "145006.981000", "145009.481000", "145011.480000", "145012.979000", "145015.479000", "145016.980000", "145018.980000", "145020.981000", "145022.980000", "145024.981000", "145027.481000", "145029.480000", "145030.980000", "145032.979000", "145034.953000"],
      "InstanceNumber": [1, 2, 3, 4, 5, 6, 7, 8, 9, 10, 11, 12, 13, 14, 15, 16, 17, 18, 19, 20, 21, 22, 23, 24, 25, 26, 27, 28, 29, 30, 31, 32, 33, 34, 35, 36, 37, 38, 39, 40, 41, 42, 43, 44, 45, 46, 47, 48, 49, 50, 51, 52, 53, 54, 55, 56, 57, 58, 59, 60, 61, 62, 63, 64, 65, 66, 67, 68, 69, 70, 71, 72, 73, 74, 75, 76, 77, 78, 79, 80, 81, 82, 83, 84, 85, 86, 87, 88, 89, 90, 91, 92, 93, 94, 95, 96, 97, 98, 99, 100, 101, 102, 103, 104, 105, 106, 107, 108, 109, 110, 111, 112, 113, 114, 115, 116, 117, 118, 119, 120, 121, 122, 123, 124, 125, 126, 127, 128, 129, 130, 131, 132, 133, 134, 135, 136, 137, 138, 139, 140, 141, 142, 143, 144, 145, 146, 147, 148, 149, 150, 151, 152, 153, 154, 155, 156, 157, 158, 159, 160, 161, 162, 163, 164, 165, 166, 167, 168, 169, 170, 171, 172, 173, 174, 175, 176, 177, 178, 179, 180, 181, 182, 183, 184, 185, 186, 187, 188, 189, 190, 191, 192, 193, 194, 195, 196, 197, 198, 199, 200, 201, 202, 203, 204, 205, 206, 207, 208, 209, 210, 211, 212, 213, 214, 215, 216, 217, 218, 219, 220, 221, 222, 223, 224, 225, 226, 227, 228, 229, 230, 231, 232, 233, 234, 235, 236, 237, 238, 239, 240, 241, 242, 243, 244, 245, 246, 247, 248, 249, 250, 251, 252, 253, 254, 255, 256],
      "LargestImagePixelValue": [3428, 3358, 3352, 3335, 3343, 3331, 3347, 3311, 3324, 3292, 3345, 3342, 3313, 3327, 3319, 3306, 3352, 3320, 3351, 3369, 3329, 3330, 3331, 3349, 3339, 3340, 3352, 3316, 3332, 3323, 3329, 3335, 3342, 3332, 3363, 3344, 3342, 3344, 3371, 3362, 3372, 3351, 3379, 3346, 3378, 3352, 3349, 3331, 3373, 3343, 3338, 3354, 3376, 3362, 3342, 3334, 3326, 3317, 3354, 3355, 3362, 3346, 3344, 3362, 3344, 3361, 3363, 3317, 3329, 3352, 3321, 3310, 3348, 3360, 3357, 3358, 3382, 3378, 3314, 3329, 3315, 3323, 3324, 3325, 3313, 3395, 3313, 3358, 3345, 3326, 3328, 3318, 3322, 3315, 3327, 3353, 3354, 3361, 3429, 3317, 3332, 3334, 3328, 3354, 3348, 3364, 3354, 3351, 3361, 3324, 3302, 3318, 3325, 3322, 3353, 3350, 3348, 3363, 3342, 3348, 3332, 3357, 3339, 3326, 3325, 3368, 3340, 3333, 3311, 3311, 3345, 3312, 3313, 3314, 3284, 3309, 3351, 3317, 3312, 3339, 3326, 3335, 3324, 3332, 3319, 3315, 3300, 3328, 3291, 3292, 3296, 3300, 3318, 3283, 3303, 3427, 3289, 3313, 3289, 3314, 3307, 3302, 3315, 3344, 3327, 3320, 3346, 3345, 3322, 3305, 3320, 3323, 3350, 3322, 3291, 3312, 3283, 3314, 3323, 3330, 3317, 3346, 3299, 3305, 3249, 3262, 3288, 3294, 3310, 3268, 3263, 3286, 3297, 3258, 3262, 3254, 3270, 3281, 3242, 3290, 3273, 3574, 3331, 3289, 3320, 3308, 3321, 3248, 3256, 3281, 3264, 3233, 3631, 3274, 3272, 3270, 3287, 3304, 3270, 3288, 3287, 3292, 3267, 3284, 3267, 3248, 3249, 3242, 3260, 3263, 3263, 3299, 3296, 3334, 3327, 3296, 3319, 3337, 3366, 3258, 3263, 3240, 3285, 3262, 3317, 3260, 3270, 3286, 3271, 3307, 3331, 3353, 3289, 3299, 3327, 3289],
      "WindowCenter": [840.0, 836.0, 836.0, 836.0, 836.0, 836.0, 835.0, 835.0, 836.0, 836.0, 836.0, 837.0, 837.0, 835.0, 835.0, 835.0, 836.0, 836.0, 837.0, 835.0, 833.0, 834.0, 835.0, 834.0, 834.0, 835.0, 836.0, 835.0, 836.0, 836.0, 836.0, 836.0, 836.0, 836.0, 836.0, 836.0, 836.0, 835.0, 835.0, 835.0, 836.0, 836.0, 835.0, 834.0, 834.0, 835.0, 837.0, 836.0, 836.0, 835.0, 837.0, 836.0, 836.0, 836.0, 835.0, 835.0, 835.0, 834.0, 834.0, 833.0, 834.0, 835.0, 836.0, 837.0, 837.0, 836.0, 835.0, 835.0, 834.0, 835.0, 835.0, 836.0, 835.0, 835.0, 835.0, 836.0, 837.0, 838.0, 837.0, 836.0, 834.0, 833.0, 833.0, 834.0, 834.0, 835.0, 835.0, 836.0, 835.0, 834.0, 833.0, 834.0, 834.0, 834.0, 836.0, 836.0, 835.0, 836.0, 838.0, 837.0, 836.0, 836.0, 836.0, 836.0, 835.0, 834.0, 835.0, 835.0, 835.0, 835.0, 835.0, 835.0, 835.0, 836.0, 836.0, 836.0, 834.0, 834.0, 836.0, 836.0, 836.0, 836.0, 835.0, 834.0, 834.0, 834.0, 835.0, 836.0, 835.0, 834.0, 834.0, 835.0, 835.0, 834.0, 834.0, 834.0, 835.0, 834.0, 836.0, 837.0, 836.0, 836.0, 836.0, 835.0, 836.0, 835.0, 835.0, 836.0, 836.0, 835.0, 835.0, 835.0, 835.0, 834.0, 836.0, 837.0, 835.0, 835.0, 837.0, 836.0, 836.0, 835.0, 835.0, 835.0, 835.0, 835.0, 835.0, 836.0, 836.0, 836.0, 835.0, 834.0, 834.0, 833.0, 834.0, 836.0, 836.0, 836.0, 836.0, 836.0, 835.0, 834.0, 836.0, 836.0, 834.0, 833.0, 835.0, 835.0, 833.0, 833.0, 835.0, 834.0, 834.0, 835.0, 835.0, 834.0, 835.0, 835.0, 835.0, 836.0, 836.0, 837.0, 837.0, 837.0, 836.0, 835.0, 836.0, 836.0, 837.0, 836.0, 835.0, 834.0, 837.0, 835.0, 836.0, 835.0, 835.0, 835.0, 835.0, 836.0, 837.0, 836.0, 835.0, 834.0, 834.0, 835.0, 836.0, 836.0, 837.0, 837.0, 836.0, 835.0, 834.0, 835.0, 836.0, 836.0, 836.0, 836.0, 837.0, 837.0, 837.0, 834.0, 834.0, 834.0, 835.0, 834.0, 834.0, 835.0, 836.0, 837.0, 837.0, 837.0, 836.0, 836.0, 835.0, 835.0],
      "WindowWidth": [1779.0, 1770.0, 1770.0, 1770.0, 1771.0, 1770.0, 1767.0, 1768.0, 1771.0, 1769.0, 1771.0, 1773.0, 1772.0, 1769.0, 1768.0, 1768.0, 1771.0, 1771.0, 1771.0, 1768.0, 1763.0, 1766.0, 1766.0, 1765.0, 1764.0, 1766.0, 1769.0, 1768.0, 1770.0, 1770.0, 1770.0, 1769.0, 1769.0, 1770.0, 1770.0, 1770.0, 1769.0, 1767.0, 1768.0, 1768.0, 1770.0, 1770.0, 1768.0, 1765.0, 1764.0, 1768.0, 1773.0, 1771.0, 1769.0, 1768.0, 1771.0, 1771.0, 1769.0, 1768.0, 1768.0, 1768.0, 1766.0, 1764.0, 1764.0, 1763.0, 1766.0, 1768.0, 1771.0, 1774.0, 1772.0, 1769.0, 1767.0, 1767.0, 1765.0, 1768.0, 1768.0, 1769.0, 1768.0, 1769.0, 1768.0, 1770.0, 1772.0, 1775.0, 1772.0, 1769.0, 1765.0, 1762.0, 1763.0, 1764.0, 1766.0, 1767.0, 1766.0, 1769.0, 1766.0, 1764.0, 1763.0, 1764.0, 1764.0, 1765.0, 1770.0, 1769.0, 1768.0, 1769.0, 1775.0, 1773.0, 1771.0, 1770.0, 1770.0, 1769.0, 1766.0, 1766.0, 1766.0, 1767.0, 1768.0, 1767.0, 1766.0, 1766.0, 1767.0, 1768.0, 1770.0, 1769.0, 1766.0, 1766.0, 1769.0, 1770.0, 1770.0, 1770.0, 1767.0, 1765.0, 1765.0, 1764.0, 1766.0, 1770.0, 1767.0, 1765.0, 1765.0, 1766.0, 1766.0, 1764.0, 1764.0, 1765.0, 1767.0, 1766.0, 1768.0, 1772.0, 1771.0, 1769.0, 1769.0, 1766.0, 1768.0, 1767.0, 1768.0, 1769.0, 1769.0, 1766.0, 1767.0, 1768.0, 1767.0, 1764.0, 1768.0, 1772.0, 1767.0, 1768.0, 1771.0, 1770.0, 1769.0, 1766.0, 1766.0, 1767.0, 1768.0, 1767.0, 1768.0, 1770.0, 1770.0, 1769.0, 1768.0, 1764.0, 1764.0, 1761.0, 1763.0, 1769.0, 1770.0, 1768.0, 1768.0, 1770.0, 1766.0, 1766.0, 1769.0, 1769.0, 1762.0, 1762.0, 1766.0, 1766.0, 1762.0, 1761.0, 1765.0, 1765.0, 1765.0, 1767.0, 1766.0, 1764.0, 1766.0, 1767.0, 1768.0, 1769.0, 1769.0, 1773.0, 1771.0, 1771.0, 1769.0, 1768.0, 1770.0, 1770.0, 1770.0, 1768.0, 1766.0, 1764.0, 1772.0, 1767.0, 1768.0, 1767.0, 1766.0, 1766.0, 1765.0, 1769.0, 1771.0, 1769.0, 1767.0, 1764.0, 1764.0, 1767.0, 1768.0, 1769.0, 1772.0, 1771.0, 1768.0, 1766.0, 1764.0, 1766.0, 1768.0, 1768.0, 1769.0, 1769.0, 1772.0, 1772.0, 1771.0, 1765.0, 1763.0, 1762.0, 1766.0, 1764.0, 1765.0, 1767.0, 1769.0, 1770.0, 1771.0, 1772.0, 1770.0, 1770.0, 1767.0, 1767.0]
    },
    "slices": {}
  }
}