{
 "AcquisitionMatrixPE": 100,
 "AcquisitionNumber": 1,
 "AcquisitionTime": "13:25:2.902500",
 "BandwidthPerPixelPhaseEncode": 18.519,
 "BaseResolution": 100,
 "BodyPartExamined": "BRAIN",
 "ConsistencyInfo": "N4_VE11C_LATEST_20160120",
 "ConversionSoftware": "dcm2niix",
 "ConversionSoftwareVersion": "v1.0.20180622 GCC4.9.2",
 "DerivedVendorReportedEchoSpacing": 0.000539986,
 "DeviceSerialNumber": "166078",
 "DwellTime": 2.1e-06,
 "EchoTime": 0.034,
 "EchoTrainLength": 100,
 "EffectiveEchoSpacing": 0.000539986,
 "FlipAngle": 90,
 "ImageOrientationPatientDICOM": [
  1,
  0,
  0,
  0,
  0.995396,
  -0.0958458
 ],
 "ImageType": [
  "ORIGINAL",
  "PRIMARY",
  "M",
  "ND",
  "MOSAIC"
 ],
 "InPlanePhaseEncodingDirectionDICOM": "COL",
 "InstitutionAddress": "Street_StreetNo_Bei_Jing_District_CN_ZIP",
 "InstitutionName": "BeiJing_Normal_University",
 "InstitutionalDepartmentName": "Department",
 "MRAcquisitionType": "2D",
 "MagneticFieldStrength": 3,
 "Manufacturer": "Siemens",
 "ManufacturersModelName": "Prisma",
 "Modality": "MR",
 "MultibandAccelerationFactor": 3,
 "PartialFourier": 1,
 "PatientPosition": "HFS",
 "PercentPhaseFOV": 100,
 "PhaseEncodingDirection": "j-",
 "PhaseEncodingSteps": 100,
 "PhaseResolution": 1,
 "PixelBandwidth": 2380,
 "ProcedureStepDescription": "BNU_P2018_64CH_Zhen.ZongLei",
 "ProtocolName": "bold_100x100_s3_2x2x2_static_256",
 "PulseSequenceDetails": "%SiemensSeq%_ep2d_bold",
 "ReceiveCoilActiveElements": "HC1-7;NC1",
 "ReceiveCoilName": "HeadNeck_64",
 "ReconMatrixPE": 100,
 "RepetitionTime": 2,
 "SAR": 0.0858799,
 "ScanOptions": "FS",
 "ScanningSequence": "EP",
 "SequenceName": "_epfid2d1_100",
 "SequenceVariant": "SK",
 "SeriesDescription": "bold_100x100_s3_2x2x2_static_256",
 "SeriesNumber": 5,
 "ShimSetting": [
  -5470,
  -11521,
  -1286,
  464,
  46,
  -149,
  -121,
  -16
 ],
 "SliceThickness": 2,
 "SliceTiming": [
  1.485,
  0,
  0.99,
  0.0825,
  1.0725,
  0.165,
  1.155,
  0.2475,
  1.2375,
  0.33,
  1.32,
  0.4125,
  1.4025,
  0.5775,
  1.5675,
  0.66,
  1.65,
  0.7425,
  1.7325,
  0.825,
  1.815,
  0.9075,
  1.8975,
  0.495,
  1.485,
  0,
  0.99,
  0.0825,
  1.0725,
  0.165,
  1.155,
  0.2475,
  1.2375,
  0.33,
  1.32,
  0.4125,
  1.4025,
  0.5775,
  1.5675,
  0.66,
  1.65,
  0.7425,
  1.7325,
  0.825,
  1.815,
  0.9075,
  1.8975,
  0.495,
  1.485,
  0,
  0.99,
  0.0825,
  1.0725,
  0.165,
  1.155,
  0.2475,
  1.2375,
  0.33,
  1.32,
  0.4125,
  1.4025,
  0.5775,
  1.5675,
  0.66,
  1.65,
  0.7425,
  1.7325,
  0.825,
  1.815,
  0.9075,
  1.8975,
  0.495
 ],
 "SoftwareVersions": "syngo_MR_E11",
 "SpacingBetweenSlices": 2,
 "StationName": "AWP166078",
 "TaskName": "imagenet",
 "TotalReadoutTime": 0.0534586,
 "TxRefAmp": 216.502,
 "dcmmeta_affine": [
  [
   -2.0,
   0.0,
   0.0,
   100.67469787597656
  ],
  [
   0.0,
   1.9907923936843872,
   -0.19169150292873383,
   -96.91727447509766
  ],
  [
   0.0,
   0.19169150292873383,
   1.9907923936843872,
   -64.9527587890625
  ],
  [
   0.0,
   0.0,
   0.0,
   1.0
  ]
 ],
 "dcmmeta_reorient_transform": [
  [
   0.0,
   -1.0,
   0.0,
   99.0
  ],
  [
   1.0,
   0.0,
   0.0,
   0.0
  ],
  [
   0.0,
   0.0,
   1.0,
   0.0
  ],
  [
   0.0,
   0.0,
   0.0,
   1.0
  ]
 ],
 "dcmmeta_shape": [
  100,
  100,
  72,
  256
 ],
 "dcmmeta_slice_dim": 2,
 "dcmmeta_version": 0.6,
 "global": {
  "const": {
   "AcquisitionMatrix": [
    100,
    0,
    0,
    100
   ],
   "AngioFlag": "N",
   "BitsAllocated": 16,
   "BitsStored": 12,
   "BodyPartExamined": "BRAIN",
   "Columns": 900,
   "EchoNumbers": 1,
   "EchoTime": 34.0,
   "EchoTrainLength": 100,
   "FlipAngle": 90.0,
   "HighBit": 11,
   "ImageOrientationPatient": [
    1.0,
    0.0,
    0.0,
    0.0,
    0.99539619816501,
    -0.0958457546198
   ],
   "ImagePositionPatient": [
    -900.67469877005,
    -896.48813277327,
    30.701303669543
   ],
   "ImageType": [
    "ORIGINAL",
    "PRIMARY",
    "M",
    "ND",
    "MOSAIC"
   ],
   "ImagedNucleus": "1H",
   "ImagingFrequency": 123.257764,
   "InPlanePhaseEncodingDirection": "COL",
   "MRAcquisitionType": "2D",
   "MagneticFieldStrength": 3.0,
   "Manufacturer": "SIEMENS",
   "ManufacturerModelName": "Prisma",
   "Modality": "MR",
   "NumberOfAverages": 1.0,
   "NumberOfPhaseEncodingSteps": 100,
   "PercentPhaseFieldOfView": 100.0,
   "PercentSampling": 100.0,
   "PerformedProcedureStepStartTime": "130253.939000",
   "PhotometricInterpretation": "MONOCHROME2",
   "PixelBandwidth": 2380.0,
   "PixelRepresentation": 0,
   "PixelSpacing": [
    2.0,
    2.0
   ],
   "ProtocolName": "bold_100x100_s3_2x2x2_static_256",
   "RepetitionTime": 2000.0,
   "Rows": 900,
   "SAR": 0.08587993635702,
   "SamplesPerPixel": 1,
   "ScanOptions": "FS",
   "ScanningSequence": "EP",
   "SequenceName": "*epfid2d1_100",
   "SequenceVariant": "SK",
   "SeriesDescription": "bold_100x100_s3_2x2x2_static_256",
   "SeriesNumber": 5,
   "SeriesTime": "132505.613000",
   "SliceLocation": -55.364620641981,
   "SliceThickness": 2.0,
   "SmallestImagePixelValue": 0,
   "SoftwareVersions": "syngo MR E11",
   "SpacingBetweenSlices": 1.9999999984933,
   "SpecificCharacterSet": "ISO_IR 100",
   "StudyID": "1",
   "StudyTime": "130253.827000",
   "TransmitCoilName": "Body",
   "VariableFlipAngleFlag": "N",
   "WindowCenterWidthExplanation": "Algo1",
   "dBdt": 0.0
  },
  "slices": {}
 },
 "time": {
  "samples": {
   "AcquisitionNumber": [
    1,
    2,
    3,
    4,
    5,
    6,
    7,
    8,
    9,
    10,
    11,
    12,
    13,
    14,
    15,
    16,
    17,
    18,
    19,
    20,
    21,
    22,
    23,
    24,
    25,
    26,
    27,
    28,
    29,
    30,
    31,
    32,
    33,
    34,
    35,
    36,
    37,
    38,
    39,
    40,
    41,
    42,
    43,
    44,
    45,
    46,
    47,
    48,
    49,
    50,
    51,
    52,
    53,
    54,
    55,
    56,
    57,
    58,
    59,
    60,
    61,
    62,
    63,
    64,
    65,
    66,
    67,
    68,
    69,
    70,
    71,
    72,
    73,
    74,
    75,
    76,
    77,
    78,
    79,
    80,
    81,
    82,
    83,
    84,
    85,
    86,
    87,
    88,
    89,
    90,
    91,
    92,
    93,
    94,
    95,
    96,
    97,
    98,
    99,
    100,
    101,
    102,
    103,
    104,
    105,
    106,
    107,
    108,
    109,
    110,
    111,
    112,
    113,
    114,
    115,
    116,
    117,
    118,
    119,
    120,
    121,
    122,
    123,
    124,
    125,
    126,
    127,
    128,
    129,
    130,
    131,
    132,
    133,
    134,
    135,
    136,
    137,
    138,
    139,
    140,
    141,
    142,
    143,
    144,
    145,
    146,
    147,
    148,
    149,
    150,
    151,
    152,
    153,
    154,
    155,
    156,
    157,
    158,
    159,
    160,
    161,
    162,
    163,
    164,
    165,
    166,
    167,
    168,
    169,
    170,
    171,
    172,
    173,
    174,
    175,
    176,
    177,
    178,
    179,
    180,
    181,
    182,
    183,
    184,
    185,
    186,
    187,
    188,
    189,
    190,
    191,
    192,
    193,
    194,
    195,
    196,
    197,
    198,
    199,
    200,
    201,
    202,
    203,
    204,
    205,
    206,
    207,
    208,
    209,
    210,
    211,
    212,
    213,
    214,
    215,
    216,
    217,
    218,
    219,
    220,
    221,
    222,
    223,
    224,
    225,
    226,
    227,
    228,
    229,
    230,
    231,
    232,
    233,
    234,
    235,
    236,
    237,
    238,
    239,
    240,
    241,
    242,
    243,
    244,
    245,
    246,
    247,
    248,
    249,
    250,
    251,
    252,
    253,
    254,
    255,
    256
   ],
   "AcquisitionTime": [
    "132502.902500",
    "132504.902500",
    "132506.902500",
    "132508.902500",
    "132510.902500",
    "132512.902500",
    "132514.902500",
    "132516.902500",
    "132518.902500",
    "132520.902500",
    "132522.902500",
    "132524.902500",
    "132526.902500",
    "132528.902500",
    "132530.902500",
    "132532.902500",
    "132534.902500",
    "132536.902500",
    "132538.902500",
    "132540.902500",
    "132542.902500",
    "132544.902500",
    "132546.902500",
    "132548.902500",
    "132550.902500",
    "132552.902500",
    "132554.902500",
    "132556.902500",
    "132558.902500",
    "132600.902500",
    "132602.902500",
    "132604.902500",
    "132606.902500",
    "132608.902500",
    "132610.902500",
    "132612.902500",
    "132614.902500",
    "132616.902500",
    "132618.902500",
    "132620.902500",
    "132622.902500",
    "132624.902500",
    "132626.902500",
    "132628.902500",
    "132630.902500",
    "132632.902500",
    "132634.902500",
    "132636.902500",
    "132638.902500",
    "132640.902500",
    "132642.902500",
    "132644.902500",
    "132646.902500",
    "132648.902500",
    "132650.902500",
    "132652.902500",
    "132654.902500",
    "132656.902500",
    "132658.902500",
    "132700.902500",
    "132702.902500",
    "132704.902500",
    "132706.902500",
    "132708.902500",
    "132710.902500",
    "132712.902500",
    "132714.902500",
    "132716.902500",
    "132718.902500",
    "132720.902500",
    "132722.902500",
    "132724.902500",
    "132726.902500",
    "132728.902500",
    "132730.902500",
    "132732.902500",
    "132734.902500",
    "132736.902500",
    "132738.902500",
    "132740.902500",
    "132742.902500",
    "132744.902500",
    "132746.902500",
    "132748.902500",
    "132750.902500",
    "132752.902500",
    "132754.902500",
    "132756.902500",
    "132758.902500",
    "132800.902500",
    "132802.902500",
    "132804.902500",
    "132806.902500",
    "132808.902500",
    "132810.902500",
    "132812.902500",
    "132814.902500",
    "132816.902500",
    "132818.902500",
    "132820.902500",
    "132822.902500",
    "132824.902500",
    "132826.902500",
    "132828.902500",
    "132830.902500",
    "132832.902500",
    "132834.902500",
    "132836.902500",
    "132838.902500",
    "132840.902500",
    "132842.902500",
    "132844.902500",
    "132846.902500",
    "132848.902500",
    "132850.902500",
    "132852.902500",
    "132854.902500",
    "132856.902500",
    "132858.902500",
    "132900.902500",
    "132902.902500",
    "132904.902500",
    "132906.902500",
    "132908.902500",
    "132910.902500",
    "132912.902500",
    "132914.902500",
    "132916.902500",
    "132918.902500",
    "132920.902500",
    "132922.902500",
    "132924.902500",
    "132926.902500",
    "132928.902500",
    "132930.902500",
    "132932.902500",
    "132934.902500",
    "132936.902500",
    "132938.902500",
    "132940.902500",
    "132942.902500",
    "132944.902500",
    "132946.902500",
    "132948.902500",
    "132950.902500",
    "132952.902500",
    "132954.902500",
    "132956.902500",
    "132958.902500",
    "133000.902500",
    "133002.902500",
    "133004.902500",
    "133006.902500",
    "133008.902500",
    "133010.902500",
    "133012.902500",
    "133014.902500",
    "133016.902500",
    "133018.902500",
    "133020.902500",
    "133022.902500",
    "133024.902500",
    "133026.902500",
    "133028.902500",
    "133030.902500",
    "133032.902500",
    "133034.902500",
    "133036.902500",
    "133038.902500",
    "133040.902500",
    "133042.902500",
    "133044.902500",
    "133046.902500",
    "133048.902500",
    "133050.902500",
    "133052.902500",
    "133054.902500",
    "133056.902500",
    "133058.902500",
    "133100.902500",
    "133102.902500",
    "133104.902500",
    "133106.902500",
    "133108.902500",
    "133110.902500",
    "133112.902500",
    "133114.902500",
    "133116.902500",
    "133118.902500",
    "133120.902500",
    "133122.902500",
    "133124.902500",
    "133126.902500",
    "133128.902500",
    "133130.902500",
    "133132.902500",
    "133134.902500",
    "133136.902500",
    "133138.902500",
    "133140.902500",
    "133142.902500",
    "133144.902500",
    "133146.902500",
    "133148.902500",
    "133150.902500",
    "133152.902500",
    "133154.902500",
    "133156.902500",
    "133158.902500",
    "133200.902500",
    "133202.902500",
    "133204.902500",
    "133206.902500",
    "133208.902500",
    "133210.902500",
    "133212.902500",
    "133214.902500",
    "133216.902500",
    "133218.902500",
    "133220.902500",
    "133222.902500",
    "133224.902500",
    "133226.902500",
    "133228.902500",
    "133230.902500",
    "133232.902500",
    "133234.902500",
    "133236.902500",
    "133238.902500",
    "133240.902500",
    "133242.902500",
    "133244.902500",
    "133246.902500",
    "133248.902500",
    "133250.902500",
    "133252.902500",
    "133254.902500",
    "133256.902500",
    "133258.902500",
    "133300.902500",
    "133302.902500",
    "133304.902500",
    "133306.902500",
    "133308.902500",
    "133310.902500",
    "133312.902500",
    "133314.902500",
    "133316.902500",
    "133318.902500",
    "133320.902500",
    "133322.902500",
    "133324.902500",
    "133326.902500",
    "133328.902500",
    "133330.902500",
    "133332.902500"
   ],
   "ContentTime": [
    "132505.616000",
    "132507.111000",
    "132509.111000",
    "132511.111000",
    "132513.111000",
    "132515.111000",
    "132517.112000",
    "132519.111000",
    "132521.110000",
    "132523.112000",
    "132525.112000",
    "132527.112000",
    "132529.112000",
    "132531.112000",
    "132533.111000",
    "132535.112000",
    "132537.111000",
    "132539.110000",
    "132541.111000",
    "132543.111000",
    "132545.112000",
    "132547.111000",
    "132549.111000",
    "132551.112000",
    "132553.111000",
    "132555.111000",
    "132557.111000",
    "132559.111000",
    "132601.111000",
    "132603.111000",
    "132605.112000",
    "132607.111000",
    "132609.112000",
    "132611.112000",
    "132613.110000",
    "132615.112000",
    "132617.111000",
    "132619.112000",
    "132621.111000",
    "132623.112000",
    "132625.111000",
    "132627.112000",
    "132629.112000",
    "132631.111000",
    "132633.111000",
    "132635.111000",
    "132637.112000",
    "132639.112000",
    "132641.111000",
    "132643.111000",
    "132645.112000",
    "132647.111000",
    "132649.110000",
    "132651.111000",
    "132653.112000",
    "132655.112000",
    "132657.111000",
    "132659.112000",
    "132701.111000",
    "132703.111000",
    "132705.112000",
    "132707.611000",
    "132709.111000",
    "132711.111000",
    "132713.112000",
    "132715.111000",
    "132717.112000",
    "132719.112000",
    "132721.112000",
    "132723.110000",
    "132725.111000",
    "132727.112000",
    "132729.112000",
    "132731.112000",
    "132733.112000",
    "132735.111000",
    "132737.111000",
    "132739.112000",
    "132741.110000",
    "132743.112000",
    "132745.111000",
    "132747.112000",
    "132749.112000",
    "132751.112000",
    "132753.111000",
    "132755.112000",
    "132757.111000",
    "132759.111000",
    "132801.112000",
    "132803.111000",
    "132805.111000",
    "132807.112000",
    "132809.111000",
    "132811.111000",
    "132813.112000",
    "132815.111000",
    "132817.112000",
    "132819.112000",
    "132821.112000",
    "132823.112000",
    "132825.111000",
    "132827.111000",
    "132829.111000",
    "132831.111000",
    "132833.111000",
    "132835.112000",
    "132837.112000",
    "132839.111000",
    "132841.111000",
    "132843.111000",
    "132845.111000",
    "132847.112000",
    "132849.111000",
    "132851.110000",
    "132853.112000",
    "132855.112000",
    "132857.112000",
    "132859.111000",
    "132901.111000",
    "132903.112000",
    "132905.111000",
    "132907.112000",
    "132909.110000",
    "132911.112000",
    "132913.111000",
    "132915.112000",
    "132917.112000",
    "132919.112000",
    "132921.112000",
    "132923.112000",
    "132925.111000",
    "132927.112000",
    "132929.112000",
    "132931.111000",
    "132933.111000",
    "132935.112000",
    "132937.112000",
    "132939.111000",
    "132941.112000",
    "132943.111000",
    "132945.112000",
    "132947.111000",
    "132949.112000",
    "132951.112000",
    "132953.112000",
    "132955.111000",
    "132957.111000",
    "132959.111000",
    "133001.111000",
    "133003.112000",
    "133005.112000",
    "133007.111000",
    "133009.112000",
    "133011.111000",
    "133013.126000",
    "133015.111000",
    "133017.112000",
    "133019.111000",
    "133021.112000",
    "133023.112000",
    "133025.112000",
    "133027.111000",
    "133029.111000",
    "133031.112000",
    "133033.111000",
    "133035.111000",
    "133037.112000",
    "133039.111000",
    "133041.111000",
    "133043.111000",
    "133045.112000",
    "133047.111000",
    "133049.111000",
    "133051.111000",
    "133053.111000",
    "133055.111000",
    "133057.112000",
    "133059.111000",
    "133101.112000",
    "133103.112000",
    "133105.111000",
    "133107.111000",
    "133109.111000",
    "133111.110000",
    "133113.112000",
    "133115.111000",
    "133117.111000",
    "133119.112000",
    "133121.112000",
    "133123.112000",
    "133125.112000",
    "133127.111000",
    "133129.111000",
    "133131.111000",
    "133133.111000",
    "133135.111000",
    "133137.111000",
    "133139.112000",
    "133141.112000",
    "133143.111000",
    "133145.111000",
    "133147.111000",
    "133149.112000",
    "133151.112000",
    "133153.112000",
    "133155.111000",
    "133157.111000",
    "133159.112000",
    "133201.111000",
    "133203.111000",
    "133205.112000",
    "133207.111000",
    "133209.111000",
    "133211.111000",
    "133213.112000",
    "133215.112000",
    "133217.111000",
    "133219.112000",
    "133221.111000",
    "133223.111000",
    "133225.112000",
    "133227.111000",
    "133229.112000",
    "133231.112000",
    "133233.112000",
    "133235.112000",
    "133237.112000",
    "133239.112000",
    "133241.111000",
    "133243.112000",
    "133245.111000",
    "133247.112000",
    "133249.112000",
    "133251.112000",
    "133253.612000",
    "133255.111000",
    "133257.112000",
    "133259.112000",
    "133301.111000",
    "133303.112000",
    "133305.112000",
    "133307.112000",
    "133309.111000",
    "133311.111000",
    "133313.110000",
    "133315.112000",
    "133317.111000",
    "133319.111000",
    "133321.112000",
    "133323.111000",
    "133325.111000",
    "133327.112000",
    "133329.112000",
    "133331.611000",
    "133333.111000",
    "133334.997000"
   ],
   "InstanceCreationTime": [
    "132505.616000",
    "132507.111000",
    "132509.111000",
    "132511.111000",
    "132513.111000",
    "132515.111000",
    "132517.112000",
    "132519.111000",
    "132521.110000",
    "132523.112000",
    "132525.112000",
    "132527.112000",
    "132529.112000",
    "132531.112000",
    "132533.111000",
    "132535.112000",
    "132537.111000",
    "132539.110000",
    "132541.111000",
    "132543.111000",
    "132545.112000",
    "132547.111000",
    "132549.111000",
    "132551.112000",
    "132553.111000",
    "132555.111000",
    "132557.111000",
    "132559.111000",
    "132601.111000",
    "132603.111000",
    "132605.112000",
    "132607.111000",
    "132609.112000",
    "132611.112000",
    "132613.110000",
    "132615.112000",
    "132617.111000",
    "132619.112000",
    "132621.111000",
    "132623.112000",
    "132625.111000",
    "132627.112000",
    "132629.112000",
    "132631.111000",
    "132633.111000",
    "132635.111000",
    "132637.112000",
    "132639.112000",
    "132641.111000",
    "132643.111000",
    "132645.112000",
    "132647.111000",
    "132649.110000",
    "132651.111000",
    "132653.112000",
    "132655.112000",
    "132657.111000",
    "132659.112000",
    "132701.111000",
    "132703.111000",
    "132705.112000",
    "132707.611000",
    "132709.111000",
    "132711.111000",
    "132713.112000",
    "132715.111000",
    "132717.112000",
    "132719.112000",
    "132721.112000",
    "132723.110000",
    "132725.111000",
    "132727.112000",
    "132729.112000",
    "132731.112000",
    "132733.112000",
    "132735.111000",
    "132737.111000",
    "132739.112000",
    "132741.110000",
    "132743.112000",
    "132745.111000",
    "132747.112000",
    "132749.112000",
    "132751.112000",
    "132753.111000",
    "132755.112000",
    "132757.111000",
    "132759.111000",
    "132801.112000",
    "132803.111000",
    "132805.111000",
    "132807.112000",
    "132809.111000",
    "132811.111000",
    "132813.112000",
    "132815.111000",
    "132817.112000",
    "132819.112000",
    "132821.112000",
    "132823.112000",
    "132825.111000",
    "132827.111000",
    "132829.111000",
    "132831.111000",
    "132833.111000",
    "132835.112000",
    "132837.112000",
    "132839.111000",
    "132841.111000",
    "132843.111000",
    "132845.111000",
    "132847.112000",
    "132849.111000",
    "132851.110000",
    "132853.112000",
    "132855.112000",
    "132857.112000",
    "132859.111000",
    "132901.111000",
    "132903.112000",
    "132905.111000",
    "132907.112000",
    "132909.110000",
    "132911.112000",
    "132913.111000",
    "132915.112000",
    "132917.112000",
    "132919.112000",
    "132921.112000",
    "132923.112000",
    "132925.111000",
    "132927.112000",
    "132929.112000",
    "132931.111000",
    "132933.111000",
    "132935.112000",
    "132937.112000",
    "132939.111000",
    "132941.112000",
    "132943.111000",
    "132945.112000",
    "132947.111000",
    "132949.112000",
    "132951.112000",
    "132953.112000",
    "132955.111000",
    "132957.111000",
    "132959.111000",
    "133001.111000",
    "133003.112000",
    "133005.112000",
    "133007.111000",
    "133009.112000",
    "133011.111000",
    "133013.126000",
    "133015.111000",
    "133017.112000",
    "133019.111000",
    "133021.112000",
    "133023.112000",
    "133025.112000",
    "133027.111000",
    "133029.111000",
    "133031.112000",
    "133033.111000",
    "133035.111000",
    "133037.112000",
    "133039.111000",
    "133041.111000",
    "133043.111000",
    "133045.112000",
    "133047.111000",
    "133049.111000",
    "133051.111000",
    "133053.111000",
    "133055.111000",
    "133057.112000",
    "133059.111000",
    "133101.112000",
    "133103.112000",
    "133105.111000",
    "133107.111000",
    "133109.111000",
    "133111.110000",
    "133113.112000",
    "133115.111000",
    "133117.111000",
    "133119.112000",
    "133121.112000",
    "133123.112000",
    "133125.112000",
    "133127.111000",
    "133129.111000",
    "133131.111000",
    "133133.111000",
    "133135.111000",
    "133137.111000",
    "133139.112000",
    "133141.112000",
    "133143.111000",
    "133145.111000",
    "133147.111000",
    "133149.112000",
    "133151.112000",
    "133153.112000",
    "133155.111000",
    "133157.111000",
    "133159.112000",
    "133201.111000",
    "133203.111000",
    "133205.112000",
    "133207.111000",
    "133209.111000",
    "133211.111000",
    "133213.112000",
    "133215.112000",
    "133217.111000",
    "133219.112000",
    "133221.111000",
    "133223.111000",
    "133225.112000",
    "133227.111000",
    "133229.112000",
    "133231.112000",
    "133233.112000",
    "133235.112000",
    "133237.112000",
    "133239.112000",
    "133241.111000",
    "133243.112000",
    "133245.111000",
    "133247.112000",
    "133249.112000",
    "133251.112000",
    "133253.612000",
    "133255.111000",
    "133257.112000",
    "133259.112000",
    "133301.111000",
    "133303.112000",
    "133305.112000",
    "133307.112000",
    "133309.111000",
    "133311.111000",
    "133313.110000",
    "133315.112000",
    "133317.111000",
    "133319.111000",
    "133321.112000",
    "133323.111000",
    "133325.111000",
    "133327.112000",
    "133329.112000",
    "133331.611000",
    "133333.111000",
    "133334.997000"
   ],
   "InstanceNumber": [
    1,
    2,
    3,
    4,
    5,
    6,
    7,
    8,
    9,
    10,
    11,
    12,
    13,
    14,
    15,
    16,
    17,
    18,
    19,
    20,
    21,
    22,
    23,
    24,
    25,
    26,
    27,
    28,
    29,
    30,
    31,
    32,
    33,
    34,
    35,
    36,
    37,
    38,
    39,
    40,
    41,
    42,
    43,
    44,
    45,
    46,
    47,
    48,
    49,
    50,
    51,
    52,
    53,
    54,
    55,
    56,
    57,
    58,
    59,
    60,
    61,
    62,
    63,
    64,
    65,
    66,
    67,
    68,
    69,
    70,
    71,
    72,
    73,
    74,
    75,
    76,
    77,
    78,
    79,
    80,
    81,
    82,
    83,
    84,
    85,
    86,
    87,
    88,
    89,
    90,
    91,
    92,
    93,
    94,
    95,
    96,
    97,
    98,
    99,
    100,
    101,
    102,
    103,
    104,
    105,
    106,
    107,
    108,
    109,
    110,
    111,
    112,
    113,
    114,
    115,
    116,
    117,
    118,
    119,
    120,
    121,
    122,
    123,
    124,
    125,
    126,
    127,
    128,
    129,
    130,
    131,
    132,
    133,
    134,
    135,
    136,
    137,
    138,
    139,
    140,
    141,
    142,
    143,
    144,
    145,
    146,
    147,
    148,
    149,
    150,
    151,
    152,
    153,
    154,
    155,
    156,
    157,
    158,
    159,
    160,
    161,
    162,
    163,
    164,
    165,
    166,
    167,
    168,
    169,
    170,
    171,
    172,
    173,
    174,
    175,
    176,
    177,
    178,
    179,
    180,
    181,
    182,
    183,
    184,
    185,
    186,
    187,
    188,
    189,
    190,
    191,
    192,
    193,
    194,
    195,
    196,
    197,
    198,
    199,
    200,
    201,
    202,
    203,
    204,
    205,
    206,
    207,
    208,
    209,
    210,
    211,
    212,
    213,
    214,
    215,
    216,
    217,
    218,
    219,
    220,
    221,
    222,
    223,
    224,
    225,
    226,
    227,
    228,
    229,
    230,
    231,
    232,
    233,
    234,
    235,
    236,
    237,
    238,
    239,
    240,
    241,
    242,
    243,
    244,
    245,
    246,
    247,
    248,
    249,
    250,
    251,
    252,
    253,
    254,
    255,
    256
   ],
   "LargestImagePixelValue": [
    3128,
    3102,
    3087,
    3062,
    3091,
    3074,
    3085,
    3055,
    3061,
    3069,
    3077,
    3079,
    3104,
    3108,
    3081,
    3056,
    3100,
    3035,
    3107,
    3042,
    3023,
    3025,
    3037,
    3037,
    3089,
    3104,
    3094,
    3111,
    3063,
    3026,
    3035,
    3081,
    3081,
    3035,
    3068,
    3022,
    3054,
    3053,
    3069,
    3069,
    3057,
    3043,
    3039,
    3013,
    3034,
    3037,
    3049,
    3056,
    3038,
    3063,
    3060,
    3056,
    3065,
    3029,
    3063,
    3026,
    3063,
    3058,
    3068,
    3064,
    3079,
    3053,
    3041,
    3042,
    3059,
    3067,
    3052,
    3072,
    3042,
    3052,
    3044,
    3063,
    3070,
    3068,
    3134,
    3077,
    3049,
    3012,
    3049,
    3059,
    3046,
    3075,
    3046,
    3059,
    3079,
    3079,
    3085,
    3047,
    3080,
    3067,
    3091,
    3089,
    3088,
    3084,
    3117,
    3054,
    3057,
    3068,
    3059,
    3063,
    3091,
    3117,
    3124,
    3096,
    3094,
    3088,
    3084,
    3044,
    3080,
    3091,
    3114,
    3046,
    3076,
    3099,
    3097,
    3092,
    3096,
    3059,
    3094,
    3056,
    3073,
    3053,
    3084,
    3079,
    3095,
    3094,
    3066,
    3056,
    3074,
    3100,
    3058,
    3070,
    3067,
    3038,
    3048,
    3066,
    3083,
    3041,
    3074,
    3085,
    3107,
    3134,
    3098,
    3040,
    3064,
    3039,
    3044,
    3076,
    3068,
    3090,
    3069,
    3064,
    3050,
    3081,
    3067,
    3091,
    3060,
    3095,
    3054,
    3096,
    3065,
    3042,
    3073,
    3072,
    3099,
    3091,
    3069,
    3055,
    3066,
    3053,
    3084,
    3054,
    3077,
    3062,
    3081,
    3059,
    3097,
    3106,
    3104,
    3080,
    3050,
    3066,
    3106,
    3095,
    3082,
    3090,
    3076,
    3087,
    3038,
    3037,
    3035,
    3067,
    3063,
    3084,
    3059,
    3076,
    3044,
    3049,
    3037,
    3053,
    3032,
    3088,
    3086,
    3089,
    3082,
    3042,
    3077,
    3049,
    3036,
    3043,
    3058,
    3072,
    3048,
    3060,
    3065,
    3049,
    3034,
    3056,
    3070,
    3052,
    3056,
    3038,
    3078,
    3042,
    3068,
    3049,
    3079,
    3033,
    3060,
    3098,
    3058,
    3048,
    3106,
    3130,
    3107,
    3127,
    3109,
    3069,
    3059,
    3054,
    3057,
    3047,
    3084,
    3037,
    3055,
    3065,
    3061,
    3030,
    3060,
    3067,
    3086,
    3048,
    3031,
    3038,
    3048,
    3085
   ],
   "WindowCenter": [
    746.0,
    744.0,
    744.0,
    743.0,
    743.0,
    743.0,
    743.0,
    742.0,
    743.0,
    742.0,
    744.0,
    744.0,
    744.0,
    743.0,
    743.0,
    742.0,
    743.0,
    743.0,
    744.0,
    743.0,
    742.0,
    742.0,
    742.0,
    742.0,
    743.0,
    743.0,
    744.0,
    745.0,
    743.0,
    742.0,
    741.0,
    741.0,
    741.0,
    742.0,
    743.0,
    742.0,
    743.0,
    742.0,
    742.0,
    741.0,
    742.0,
    742.0,
    743.0,
    742.0,
    741.0,
    742.0,
    742.0,
    742.0,
    742.0,
    742.0,
    742.0,
    741.0,
    742.0,
    742.0,
    743.0,
    741.0,
    743.0,
    742.0,
    742.0,
    740.0,
    741.0,
    742.0,
    742.0,
    741.0,
    742.0,
    742.0,
    742.0,
    742.0,
    740.0,
    741.0,
    743.0,
    742.0,
    743.0,
    743.0,
    745.0,
    742.0,
    742.0,
    741.0,
    743.0,
    743.0,
    741.0,
    742.0,
    742.0,
    743.0,
    742.0,
    743.0,
    743.0,
    740.0,
    741.0,
    744.0,
    744.0,
    744.0,
    743.0,
    741.0,
    743.0,
    742.0,
    742.0,
    743.0,
    743.0,
    742.0,
    744.0,
    744.0,
    745.0,
    743.0,
    743.0,
    742.0,
    743.0,
    742.0,
    743.0,
    746.0,
    746.0,
    742.0,
    743.0,
    742.0,
    742.0,
    743.0,
    744.0,
    743.0,
    744.0,
    742.0,
    743.0,
    742.0,
    743.0,
    743.0,
