{
 "AcquisitionMatrixPE": 100,
 "AcquisitionNumber": 1,
 "AcquisitionTime": "13:44:45.417500",
 "BandwidthPerPixelPhaseEncode": 18.519,
 "BaseResolution": 100,
 "BodyPartExamined": "BRAIN",
 "ConsistencyInfo": "N4_VE11C_LATEST_20160120",
 "ConversionSoftware": "dcm2niix",
 "ConversionSoftwareVersion": "v1.0.20180622 GCC4.9.2",
 "DerivedVendorReportedEchoSpacing": 0.000539986,
 "DeviceSerialNumber": "166078",
 "DwellTime": 2.1e-06,
 "EchoTime": 0.034,
 "EchoTrainLength": 100,
 "EffectiveEchoSpacing": 0.000539986,
 "FlipAngle": 90,
 "ImageOrientationPatientDICOM": [
  1,
  0,
  0,
  0,
  0.995396,
  -0.0958458
 ],
 "ImageType": [
  "ORIGINAL",
  "PRIMARY",
  "M",
  "ND",
  "MOSAIC"
 ],
 "InPlanePhaseEncodingDirectionDICOM": "COL",
 "InstitutionAddress": "Street_StreetNo_Bei_Jing_District_CN_ZIP",
 "InstitutionName": "BeiJing_Normal_University",
 "InstitutionalDepartmentName": "Department",
 "MRAcquisitionType": "2D",
 "MagneticFieldStrength": 3,
 "Manufacturer": "Siemens",
 "ManufacturersModelName": "Prisma",
 "Modality": "MR",
 "MultibandAccelerationFactor": 3,
 "PartialFourier": 1,
 "PatientPosition": "HFS",
 "PercentPhaseFOV": 100,
 "PhaseEncodingDirection": "j-",
 "PhaseEncodingSteps": 100,
 "PhaseResolution": 1,
 "PixelBandwidth": 2380,
 "ProcedureStepDescription": "BNU_P2018_64CH_Zhen.ZongLei",
 "ProtocolName": "bold_100x100_s3_2x2x2_static_256",
 "PulseSequenceDetails": "%SiemensSeq%_ep2d_bold",
 "ReceiveCoilActiveElements": "HC1-7;NC1",
 "ReceiveCoilName": "HeadNeck_64",
 "ReconMatrixPE": 100,
 "RepetitionTime": 2,
 "SAR": 0.0858799,
 "ScanOptions": "FS",
 "ScanningSequence": "EP",
 "SequenceName": "_epfid2d1_100",
 "SequenceVariant": "SK",
 "SeriesDescription": "bold_100x100_s3_2x2x2_static_256",
 "SeriesNumber": 7,
 "ShimSetting": [
  -5470,
  -11521,
  -1286,
  464,
  46,
  -149,
  -121,
  -16
 ],
 "SliceThickness": 2,
 "SliceTiming": [
  1.485,
  0,
  0.99,
  0.0825,
  1.0725,
  0.165,
  1.155,
  0.2475,
  1.2375,
  0.33,
  1.32,
  0.4125,
  1.4025,
  0.5775,
  1.5675,
  0.66,
  1.65,
  0.7425,
  1.7325,
  0.825,
  1.815,
  0.9075,
  1.8975,
  0.495,
  1.485,
  0,
  0.99,
  0.0825,
  1.0725,
  0.165,
  1.155,
  0.2475,
  1.2375,
  0.33,
  1.32,
  0.4125,
  1.4025,
  0.5775,
  1.5675,
  0.66,
  1.65,
  0.7425,
  1.7325,
  0.825,
  1.815,
  0.9075,
  1.8975,
  0.495,
  1.485,
  0,
  0.99,
  0.0825,
  1.0725,
  0.165,
  1.155,
  0.2475,
  1.2375,
  0.33,
  1.32,
  0.4125,
  1.4025,
  0.5775,
  1.5675,
  0.66,
  1.65,
  0.7425,
  1.7325,
  0.825,
  1.815,
  0.9075,
  1.8975,
  0.495
 ],
 "SoftwareVersions": "syngo_MR_E11",
 "SpacingBetweenSlices": 2,
 "StationName": "AWP166078",
 "TaskName": "imagenet",
 "TotalReadoutTime": 0.0534586,
 "TxRefAmp": 216.502,
 "dcmmeta_affine": [
  [
   -2.0,
   0.0,
   0.0,
   100.67469787597656
  ],
  [
   0.0,
   1.9907923936843872,
   -0.19169150292873383,
   -96.91727447509766
  ],
  [
   0.0,
   0.19169150292873383,
   1.9907923936843872,
   -64.9527587890625
  ],
  [
   0.0,
   0.0,
   0.0,
   1.0
  ]
 ],
 "dcmmeta_reorient_transform": [
  [
   0.0,
   -1.0,
   0.0,
   99.0
  ],
  [
   1.0,
   0.0,
   0.0,
   0.0
  ],
  [
   0.0,
   0.0,
   1.0,
   0.0
  ],
  [
   0.0,
   0.0,
   0.0,
   1.0
  ]
 ],
 "dcmmeta_shape": [
  100,
  100,
  72,
  256
 ],
 "dcmmeta_slice_dim": 2,
 "dcmmeta_version": 0.6,
 "global": {
  "const": {
   "AcquisitionMatrix": [
    100,
    0,
    0,
    100
   ],
   "AngioFlag": "N",
   "BitsAllocated": 16,
   "BitsStored": 12,
   "BodyPartExamined": "BRAIN",
   "Columns": 900,
   "EchoNumbers": 1,
   "EchoTime": 34.0,
   "EchoTrainLength": 100,
   "FlipAngle": 90.0,
   "HighBit": 11,
   "ImageOrientationPatient": [
    1.0,
    0.0,
    0.0,
    0.0,
    0.99539619816501,
    -0.0958457546198
   ],
   "ImagePositionPatient": [
    -900.67469877005,
    -896.48813277327,
    30.701303669543
   ],
   "ImageType": [
    "ORIGINAL",
    "PRIMARY",
    "M",
    "ND",
    "MOSAIC"
   ],
   "ImagedNucleus": "1H",
   "ImagingFrequency": 123.257765,
   "InPlanePhaseEncodingDirection": "COL",
   "MRAcquisitionType": "2D",
   "MagneticFieldStrength": 3.0,
   "Manufacturer": "SIEMENS",
   "ManufacturerModelName": "Prisma",
   "Modality": "MR",
   "NumberOfAverages": 1.0,
   "NumberOfPhaseEncodingSteps": 100,
   "PercentPhaseFieldOfView": 100.0,
   "PercentSampling": 100.0,
   "PerformedProcedureStepStartTime": "130253.939000",
   "PhotometricInterpretation": "MONOCHROME2",
   "PixelBandwidth": 2380.0,
   "PixelRepresentation": 0,
   "PixelSpacing": [
    2.0,
    2.0
   ],
   "ProtocolName": "bold_100x100_s3_2x2x2_static_256",
   "RepetitionTime": 2000.0,
   "Rows": 900,
   "SAR": 0.08587993635702,
   "SamplesPerPixel": 1,
   "ScanOptions": "FS",
   "ScanningSequence": "EP",
   "SequenceName": "*epfid2d1_100",
   "SequenceVariant": "SK",
   "SeriesDescription": "bold_100x100_s3_2x2x2_static_256",
   "SeriesNumber": 7,
   "SeriesTime": "134447.630000",
   "SliceLocation": -55.364620641981,
   "SliceThickness": 2.0,
   "SmallestImagePixelValue": 0,
   "SoftwareVersions": "syngo MR E11",
   "SpacingBetweenSlices": 1.9999999984933,
   "SpecificCharacterSet": "ISO_IR 100",
   "StudyID": "1",
   "StudyTime": "130253.827000",
   "TransmitCoilName": "Body",
   "VariableFlipAngleFlag": "N",
   "WindowCenterWidthExplanation": "Algo1",
   "dBdt": 0.0
  },
  "slices": {}
 },
 "time": {
  "samples": {
   "AcquisitionNumber": [
    1,
    2,
    3,
    4,
    5,
    6,
    7,
    8,
    9,
    10,
    11,
    12,
    13,
    14,
    15,
    16,
    17,
    18,
    19,
    20,
    21,
    22,
    23,
    24,
    25,
    26,
    27,
    28,
    29,
    30,
    31,
    32,
    33,
    34,
    35,
    36,
    37,
    38,
    39,
    40,
    41,
    42,
    43,
    44,
    45,
    46,
    47,
    48,
    49,
    50,
    51,
    52,
    53,
    54,
    55,
    56,
    57,
    58,
    59,
    60,
    61,
    62,
    63,
    64,
    65,
    66,
    67,
    68,
    69,
    70,
    71,
    72,
    73,
    74,
    75,
    76,
    77,
    78,
    79,
    80,
    81,
    82,
    83,
    84,
    85,
    86,
    87,
    88,
    89,
    90,
    91,
    92,
    93,
    94,
    95,
    96,
    97,
    98,
    99,
    100,
    101,
    102,
    103,
    104,
    105,
    106,
    107,
    108,
    109,
    110,
    111,
    112,
    113,
    114,
    115,
    116,
    117,
    118,
    119,
    120,
    121,
    122,
    123,
    124,
    125,
    126,
    127,
    128,
    129,
    130,
    131,
    132,
    133,
    134,
    135,
    136,
    137,
    138,
    139,
    140,
    141,
    142,
    143,
    144,
    145,
    146,
    147,
    148,
    149,
    150,
    151,
    152,
    153,
    154,
    155,
    156,
    157,
    158,
    159,
    160,
    161,
    162,
    163,
    164,
    165,
    166,
    167,
    168,
    169,
    170,
    171,
    172,
    173,
    174,
    175,
    176,
    177,
    178,
    179,
    180,
    181,
    182,
    183,
    184,
    185,
    186,
    187,
    188,
    189,
    190,
    191,
    192,
    193,
    194,
    195,
    196,
    197,
    198,
    199,
    200,
    201,
    202,
    203,
    204,
    205,
    206,
    207,
    208,
    209,
    210,
    211,
    212,
    213,
    214,
    215,
    216,
    217,
    218,
    219,
    220,
    221,
    222,
    223,
    224,
    225,
    226,
    227,
    228,
    229,
    230,
    231,
    232,
    233,
    234,
    235,
    236,
    237,
    238,
    239,
    240,
    241,
    242,
    243,
    244,
    245,
    246,
    247,
    248,
    249,
    250,
    251,
    252,
    253,
    254,
    255,
    256
   ],
   "AcquisitionTime": [
    "134445.417500",
    "134447.417500",
    "134449.417500",
    "134451.417500",
    "134453.417500",
    "134455.417500",
    "134457.417500",
    "134459.417500",
    "134501.417500",
    "134503.417500",
    "134505.417500",
    "134507.417500",
    "134509.417500",
    "134511.417500",
    "134513.417500",
    "134515.417500",
    "134517.417500",
    "134519.417500",
    "134521.417500",
    "134523.417500",
    "134525.417500",
    "134527.417500",
    "134529.417500",
    "134531.417500",
    "134533.417500",
    "134535.417500",
    "134537.417500",
    "134539.417500",
    "134541.417500",
    "134543.417500",
    "134545.417500",
    "134547.417500",
    "134549.417500",
    "134551.417500",
    "134553.417500",
    "134555.417500",
    "134557.417500",
    "134559.417500",
    "134601.417500",
    "134603.417500",
    "134605.417500",
    "134607.417500",
    "134609.417500",
    "134611.417500",
    "134613.417500",
    "134615.417500",
    "134617.417500",
    "134619.417500",
    "134621.417500",
    "134623.417500",
    "134625.417500",
    "134627.417500",
    "134629.417500",
    "134631.417500",
    "134633.417500",
    "134635.417500",
    "134637.417500",
    "134639.417500",
    "134641.417500",
    "134643.417500",
    "134645.417500",
    "134647.417500",
    "134649.417500",
    "134651.417500",
    "134653.417500",
    "134655.417500",
    "134657.417500",
    "134659.417500",
    "134701.417500",
    "134703.417500",
    "134705.417500",
    "134707.417500",
    "134709.417500",
    "134711.417500",
    "134713.417500",
    "134715.417500",
    "134717.417500",
    "134719.417500",
    "134721.417500",
    "134723.417500",
    "134725.417500",
    "134727.417500",
    "134729.417500",
    "134731.417500",
    "134733.417500",
    "134735.417500",
    "134737.417500",
    "134739.417500",
    "134741.417500",
    "134743.417500",
    "134745.417500",
    "134747.417500",
    "134749.417500",
    "134751.417500",
    "134753.417500",
    "134755.417500",
    "134757.417500",
    "134759.417500",
    "134801.417500",
    "134803.417500",
    "134805.417500",
    "134807.417500",
    "134809.417500",
    "134811.417500",
    "134813.417500",
    "134815.417500",
    "134817.417500",
    "134819.417500",
    "134821.417500",
    "134823.417500",
    "134825.417500",
    "134827.417500",
    "134829.417500",
    "134831.417500",
    "134833.417500",
    "134835.417500",
    "134837.417500",
    "134839.417500",
    "134841.417500",
    "134843.417500",
    "134845.417500",
    "134847.417500",
    "134849.417500",
    "134851.417500",
    "134853.417500",
    "134855.417500",
    "134857.417500",
    "134859.417500",
    "134901.417500",
    "134903.417500",
    "134905.417500",
    "134907.417500",
    "134909.417500",
    "134911.417500",
    "134913.417500",
    "134915.417500",
    "134917.417500",
    "134919.417500",
    "134921.417500",
    "134923.417500",
    "134925.417500",
    "134927.417500",
    "134929.417500",
    "134931.417500",
    "134933.417500",
    "134935.417500",
    "134937.417500",
    "134939.417500",
    "134941.417500",
    "134943.417500",
    "134945.417500",
    "134947.417500",
    "134949.417500",
    "134951.417500",
    "134953.417500",
    "134955.417500",
    "134957.417500",
    "134959.417500",
    "135001.417500",
    "135003.417500",
    "135005.417500",
    "135007.417500",
    "135009.417500",
    "135011.417500",
    "135013.417500",
    "135015.417500",
    "135017.417500",
    "135019.417500",
    "135021.417500",
    "135023.417500",
    "135025.417500",
    "135027.417500",
    "135029.417500",
    "135031.417500",
    "135033.417500",
    "135035.417500",
    "135037.417500",
    "135039.417500",
    "135041.417500",
    "135043.417500",
    "135045.417500",
    "135047.417500",
    "135049.417500",
    "135051.417500",
    "135053.417500",
    "135055.417500",
    "135057.417500",
    "135059.417500",
    "135101.417500",
    "135103.417500",
    "135105.417500",
    "135107.417500",
    "135109.417500",
    "135111.417500",
    "135113.417500",
    "135115.417500",
    "135117.417500",
    "135119.417500",
    "135121.417500",
    "135123.417500",
    "135125.417500",
    "135127.417500",
    "135129.417500",
    "135131.417500",
    "135133.417500",
    "135135.417500",
    "135137.417500",
    "135139.417500",
    "135141.417500",
    "135143.417500",
    "135145.417500",
    "135147.417500",
    "135149.417500",
    "135151.417500",
    "135153.417500",
    "135155.417500",
    "135157.417500",
    "135159.417500",
    "135201.417500",
    "135203.417500",
    "135205.417500",
    "135207.417500",
    "135209.417500",
    "135211.417500",
    "135213.417500",
    "135215.417500",
    "135217.417500",
    "135219.417500",
    "135221.417500",
    "135223.417500",
    "135225.417500",
    "135227.417500",
    "135229.417500",
    "135231.417500",
    "135233.417500",
    "135235.417500",
    "135237.417500",
    "135239.417500",
    "135241.417500",
    "135243.417500",
    "135245.417500",
    "135247.417500",
    "135249.417500",
    "135251.417500",
    "135253.417500",
    "135255.417500",
    "135257.417500",
    "135259.417500",
    "135301.417500",
    "135303.417500",
    "135305.417500",
    "135307.417500",
    "135309.417500",
    "135311.417500",
    "135313.417500",
    "135315.417500"
   ],
   "ContentTime": [
    "134447.634000",
    "134449.128000",
    "134451.129000",
    "134453.129000",
    "134455.130000",
    "134457.129000",
    "134459.129000",
    "134501.130000",
    "134503.129000",
    "134505.130000",
    "134507.129000",
    "134509.130000",
    "134511.130000",
    "134513.130000",
    "134515.131000",
    "134517.129000",
    "134519.129000",
    "134521.130000",
    "134523.129000",
    "134525.128000",
    "134527.128000",
    "134529.129000",
    "134531.130000",
    "134533.129000",
    "134535.129000",
    "134537.130000",
    "134539.130000",
    "134541.128000",
    "134543.128000",
    "134545.128000",
    "134547.130000",
    "134549.129000",
    "134551.130000",
    "134553.130000",
    "134555.129000",
    "134557.130000",
    "134559.129000",
    "134601.128000",
    "134603.128000",
    "134605.130000",
    "134607.129000",
    "134609.130000",
    "134611.129000",
    "134613.130000",
    "134615.129000",
    "134617.129000",
    "134619.129000",
    "134621.130000",
    "134623.129000",
    "134625.130000",
    "134627.129000",
    "134629.130000",
    "134631.130000",
    "134633.129000",
    "134635.128000",
    "134637.129000",
    "134639.129000",
    "134641.129000",
    "134643.130000",
    "134645.130000",
    "134647.129000",
    "134649.129000",
    "134651.129000",
    "134653.129000",
    "134655.129000",
    "134657.130000",
    "134659.129000",
    "134701.129000",
    "134703.130000",
    "134705.130000",
    "134707.630000",
    "134709.628000",
    "134711.129000",
    "134713.129000",
    "134715.129000",
    "134717.129000",
    "134719.130000",
    "134721.130000",
    "134723.130000",
    "134725.129000",
    "134727.129000",
    "134729.128000",
    "134731.129000",
    "134733.129000",
    "134735.129000",
    "134737.129000",
    "134739.130000",
    "134741.129000",
    "134743.129000",
    "134745.128000",
    "134747.129000",
    "134749.129000",
    "134751.130000",
    "134753.130000",
    "134755.130000",
    "134757.130000",
    "134759.130000",
    "134801.128000",
    "134803.128000",
    "134805.128000",
    "134807.129000",
    "134809.130000",
    "134811.129000",
    "134813.130000",
    "134815.130000",
    "134817.130000",
    "134819.129000",
    "134821.129000",
    "134823.130000",
    "134825.129000",
    "134827.130000",
    "134829.129000",
    "134831.130000",
    "134833.129000",
    "134835.130000",
    "134837.129000",
    "134839.128000",
    "134841.130000",
    "134843.129000",
    "134845.129000",
    "134847.129000",
    "134849.130000",
    "134851.129000",
    "134853.128000",
    "134855.128000",
    "134857.128000",
    "134859.129000",
    "134901.130000",
    "134903.129000",
    "134905.129000",
    "134907.130000",
    "134909.130000",
    "134911.129000",
    "134913.128000",
    "134915.128000",
    "134917.130000",
    "134919.130000",
    "134921.129000",
    "134923.129000",
    "134925.129000",
    "134927.130000",
    "134929.128000",
    "134931.128000",
    "134933.130000",
    "134935.129000",
    "134937.129000",
    "134939.130000",
    "134941.130000",
    "134943.130000",
    "134945.129000",
    "134947.128000",
    "134949.129000",
    "134951.129000",
    "134953.129000",
    "134955.130000",
    "134957.130000",
    "134959.129000",
    "135001.129000",
    "135003.128000",
    "135005.129000",
    "135007.129000",
    "135009.129000",
    "135011.130000",
    "135013.130000",
    "135015.130000",
    "135017.130000",
    "135019.130000",
    "135021.129000",
    "135023.129000",
    "135025.128000",
    "135027.130000",
    "135029.129000",
    "135031.129000",
    "135033.130000",
    "135035.130000",
    "135037.129000",
    "135039.128000",
    "135041.129000",
    "135043.129000",
    "135045.129000",
    "135047.130000",
    "135049.130000",
    "135051.129000",
    "135053.130000",
    "135055.130000",
    "135057.128000",
    "135059.129000",
    "135101.146000",
    "135103.130000",
    "135105.129000",
    "135107.129000",
    "135109.130000",
    "135111.130000",
    "135113.128000",
    "135115.128000",
    "135117.128000",
    "135119.130000",
    "135121.130000",
    "135123.130000",
    "135125.130000",
    "135127.129000",
    "135129.130000",
    "135131.128000",
    "135133.129000",
    "135135.128000",
    "135137.130000",
    "135139.130000",
    "135141.130000",
    "135143.130000",
    "135145.130000",
    "135147.129000",
    "135149.129000",
    "135151.128000",
    "135153.130000",
    "135155.129000",
    "135157.129000",
    "135159.129000",
    "135201.130000",
    "135203.130000",
    "135205.128000",
    "135207.129000",
    "135209.128000",
    "135211.129000",
    "135213.130000",
    "135215.130000",
    "135217.130000",
    "135219.129000",
    "135221.129000",
    "135223.129000",
    "135225.129000",
    "135227.128000",
    "135229.130000",
    "135231.130000",
    "135233.130000",
    "135235.129000",
    "135237.130000",
    "135239.129000",
    "135241.129000",
    "135243.128000",
    "135245.129000",
    "135247.129000",
    "135249.129000",
    "135251.130000",
    "135253.130000",
    "135255.129000",
    "135257.130000",
    "135259.128000",
    "135301.128000",
    "135303.130000",
    "135305.130000",
    "135307.130000",
    "135309.130000",
    "135311.130000",
    "135313.130000",
    "135315.128000",
    "135317.004000"
   ],
   "InstanceCreationTime": [
    "134447.634000",
    "134449.128000",
    "134451.129000",
    "134453.129000",
    "134455.130000",
    "134457.129000",
    "134459.129000",
    "134501.130000",
    "134503.129000",
    "134505.130000",
    "134507.129000",
    "134509.130000",
    "134511.130000",
    "134513.130000",
    "134515.131000",
    "134517.129000",
    "134519.129000",
    "134521.130000",
    "134523.129000",
    "134525.128000",
    "134527.128000",
    "134529.129000",
    "134531.130000",
    "134533.129000",
    "134535.129000",
    "134537.130000",
    "134539.130000",
    "134541.128000",
    "134543.128000",
    "134545.128000",
    "134547.130000",
    "134549.129000",
    "134551.130000",
    "134553.130000",
    "134555.129000",
    "134557.130000",
    "134559.129000",
    "134601.128000",
    "134603.128000",
    "134605.130000",
    "134607.129000",
    "134609.130000",
    "134611.129000",
    "134613.130000",
    "134615.129000",
    "134617.129000",
    "134619.129000",
    "134621.130000",
    "134623.129000",
    "134625.130000",
    "134627.129000",
    "134629.130000",
    "134631.130000",
    "134633.129000",
    "134635.128000",
    "134637.129000",
    "134639.129000",
    "134641.129000",
    "134643.130000",
    "134645.130000",
    "134647.129000",
    "134649.129000",
    "134651.129000",
    "134653.129000",
    "134655.129000",
    "134657.130000",
    "134659.129000",
    "134701.129000",
    "134703.130000",
    "134705.130000",
    "134707.630000",
    "134709.628000",
    "134711.129000",
    "134713.129000",
    "134715.129000",
    "134717.129000",
    "134719.130000",
    "134721.130000",
    "134723.130000",
    "134725.129000",
    "134727.129000",
    "134729.128000",
    "134731.129000",
    "134733.129000",
    "134735.129000",
    "134737.129000",
    "134739.130000",
    "134741.129000",
    "134743.129000",
    "134745.128000",
    "134747.129000",
    "134749.129000",
    "134751.130000",
    "134753.130000",
    "134755.130000",
    "134757.130000",
    "134759.130000",
    "134801.128000",
    "134803.128000",
    "134805.128000",
    "134807.129000",
    "134809.130000",
    "134811.129000",
    "134813.130000",
    "134815.130000",
    "134817.130000",
    "134819.129000",
    "134821.129000",
    "134823.130000",
    "134825.129000",
    "134827.130000",
    "134829.129000",
    "134831.130000",
    "134833.129000",
    "134835.130000",
    "134837.129000",
    "134839.128000",
    "134841.130000",
    "134843.129000",
    "134845.129000",
    "134847.129000",
    "134849.130000",
    "134851.129000",
    "134853.128000",
    "134855.128000",
    "134857.128000",
    "134859.129000",
    "134901.130000",
    "134903.129000",
    "134905.129000",
    "134907.130000",
    "134909.130000",
    "134911.129000",
    "134913.128000",
    "134915.128000",
    "134917.130000",
    "134919.130000",
    "134921.129000",
    "134923.129000",
    "134925.129000",
    "134927.130000",
    "134929.128000",
    "134931.128000",
    "134933.130000",
    "134935.129000",
    "134937.129000",
    "134939.130000",
    "134941.130000",
    "134943.130000",
    "134945.129000",
    "134947.128000",
    "134949.129000",
    "134951.129000",
    "134953.129000",
    "134955.130000",
    "134957.130000",
    "134959.129000",
    "135001.129000",
    "135003.128000",
    "135005.129000",
    "135007.129000",
    "135009.129000",
    "135011.130000",
    "135013.130000",
    "135015.130000",
    "135017.130000",
    "135019.130000",
    "135021.129000",
    "135023.129000",
    "135025.128000",
    "135027.130000",
    "135029.129000",
    "135031.129000",
    "135033.130000",
    "135035.130000",
    "135037.129000",
    "135039.128000",
    "135041.129000",
    "135043.129000",
    "135045.129000",
    "135047.130000",
    "135049.130000",
    "135051.129000",
    "135053.130000",
    "135055.130000",
    "135057.128000",
    "135059.129000",
    "135101.146000",
    "135103.130000",
    "135105.129000",
    "135107.129000",
    "135109.130000",
    "135111.130000",
    "135113.128000",
    "135115.128000",
    "135117.128000",
    "135119.130000",
    "135121.130000",
    "135123.130000",
    "135125.130000",
    "135127.129000",
    "135129.130000",
    "135131.128000",
    "135133.129000",
    "135135.128000",
    "135137.130000",
    "135139.130000",
    "135141.130000",
    "135143.130000",
    "135145.130000",
    "135147.129000",
    "135149.129000",
    "135151.128000",
    "135153.130000",
    "135155.129000",
    "135157.129000",
    "135159.129000",
    "135201.130000",
    "135203.130000",
    "135205.128000",
    "135207.129000",
    "135209.128000",
    "135211.129000",
    "135213.130000",
    "135215.130000",
    "135217.130000",
    "135219.129000",
    "135221.129000",
    "135223.129000",
    "135225.129000",
    "135227.128000",
    "135229.130000",
    "135231.130000",
    "135233.130000",
    "135235.129000",
    "135237.130000",
    "135239.129000",
    "135241.129000",
    "135243.128000",
    "135245.129000",
    "135247.129000",
    "135249.129000",
    "135251.130000",
    "135253.130000",
    "135255.129000",
    "135257.130000",
    "135259.128000",
    "135301.128000",
    "135303.130000",
    "135305.130000",
    "135307.130000",
    "135309.130000",
    "135311.130000",
    "135313.130000",
    "135315.128000",
    "135317.004000"
   ],
   "InstanceNumber": [
    1,
    2,
    3,
    4,
    5,
    6,
    7,
    8,
    9,
    10,
    11,
    12,
    13,
    14,
    15,
    16,
    17,
    18,
    19,
    20,
    21,
    22,
    23,
    24,
    25,
    26,
    27,
    28,
    29,
    30,
    31,
    32,
    33,
    34,
    35,
    36,
    37,
    38,
    39,
    40,
    41,
    42,
    43,
    44,
    45,
    46,
    47,
    48,
    49,
    50,
    51,
    52,
    53,
    54,
    55,
    56,
    57,
    58,
    59,
    60,
    61,
    62,
    63,
    64,
    65,
    66,
    67,
    68,
    69,
    70,
    71,
    72,
    73,
    74,
    75,
    76,
    77,
    78,
    79,
    80,
    81,
    82,
    83,
    84,
    85,
    86,
    87,
    88,
    89,
    90,
    91,
    92,
    93,
    94,
    95,
    96,
    97,
    98,
    99,
    100,
    101,
    102,
    103,
    104,
    105,
    106,
    107,
    108,
    109,
    110,
    111,
    112,
    113,
    114,
    115,
    116,
    117,
    118,
    119,
    120,
    121,
    122,
    123,
    124,
    125,
    126,
    127,
    128,
    129,
    130,
    131,
    132,
    133,
    134,
    135,
    136,
    137,
    138,
    139,
    140,
    141,
    142,
    143,
    144,
    145,
    146,
    147,
    148,
    149,
    150,
    151,
    152,
    153,
    154,
    155,
    156,
    157,
    158,
    159,
    160,
    161,
    162,
    163,
    164,
    165,
    166,
    167,
    168,
    169,
    170,
    171,
    172,
    173,
    174,
    175,
    176,
    177,
    178,
    179,
    180,
    181,
    182,
    183,
    184,
    185,
    186,
    187,
    188,
    189,
    190,
    191,
    192,
    193,
    194,
    195,
    196,
    197,
    198,
    199,
    200,
    201,
    202,
    203,
    204,
    205,
    206,
    207,
    208,
    209,
    210,
    211,
    212,
    213,
    214,
    215,
    216,
    217,
    218,
    219,
    220,
    221,
    222,
    223,
    224,
    225,
    226,
    227,
    228,
    229,
    230,
    231,
    232,
    233,
    234,
    235,
    236,
    237,
    238,
    239,
    240,
    241,
    242,
    243,
    244,
    245,
    246,
    247,
    248,
    249,
    250,
    251,
    252,
    253,
    254,
    255,
    256
   ],
   "LargestImagePixelValue": [
    3107,
    3090,
    3015,
    3033,
    3044,
    3041,
    2981,
    3008,
    2972,
    3026,
    2973,
    3010,
    3030,
    2989,
    2997,
    3047,
    3016,
    2997,
    2996,
    3007,
    2989,
    3012,
    3036,
    3028,
    3022,
    3043,
    3037,
    3051,
    3008,
    3001,
    3090,
    3043,
    3095,
    3059,
    3044,
    3003,
    3041,
    3019,
    3044,
    3038,
    3035,
    3020,
    3030,
    3038,
    3063,
    3022,
    3042,
    3006,
    3032,
    3052,
    3073,
    2988,
    3033,
    3056,
    3115,
    3070,
    3008,
    3075,
    3084,
    3078,
    3088,
    3073,
    3038,
    3041,
    3012,
    3035,
    3049,
    3039,
    3036,
    3048,
    3052,
    3035,
    3061,
    3108,
    3090,
    3071,
    3068,
    3113,
    3061,
    3071,
    3063,
    3049,
    3014,
    2973,
    3060,
    3062,
    3067,
    3060,
    3031,
    3050,
    3063,
    3044,
    3046,
    3074,
    3051,
    3020,
    3077,
    3064,
    3065,
    3080,
    3077,
    3070,
    3066,
    3113,
    3171,
    3180,
    3062,
    2994,
    3012,
    3011,
    3006,
    2987,
    3008,
    2932,
    3007,
    3016,
    3059,
    3037,
    3036,
    3074,
    3017,
    3056,
    3038,
    3054,
    3014,
    3019,
    2991,
    3043,
    3044,
    2969,
    2998,
    3015,
    3000,
    2991,
    2961,
    3000,
    3021,
    2965,
    2973,
    2977,
    2974,
    2978,
    2956,
    2960,
    2992,
    2977,
    2990,
    3024,
    3005,
    3011,
    3008,
    3008,
    2995,
    2989,
    2978,
    2986,
    2960,
    2995,
    2998,
    2980,
    3021,
    2972,
    2959,
    2978,
    2974,
    2983,
    2996,
    3056,
    3034,
    3017,
    3021,
    2995,
    2994,
    2976,
    3037,
    3018,
    2998,
    2983,
    2955,
    2954,
    2941,
    2983,
    3014,
    2960,
    2967,
    2985,
    2958,
    2987,
    2976,
    2990,
    2948,
    2955,
    2952,
    2949,
    2956,
    2959,
    2919,
    2949,
    2899,
    2913,
    2946,
    2958,
    2916,
    2892,
    2906,
    2881,
    2939,
    2880,
    2920,
    2907,
    2952,
    2908,
    2952,
    2917,
    2884,
    2992,
    2897,
    2916,
    2894,
    2904,
    2925,
    2976,
    2913,
    2935,
    2939,
    2962,
    2920,
    2929,
    2956,
    2890,
    2929,
    2899,
    2890,
    2865,
    2879,
    2901,
    2936,
    2897,
    2935,
    2843,
    2938,
    2857,
    2913,
    2909,
    2891,
    2907,
    2916,
    2875,
    2912,
    2910,
    2920,
    2874,
    3005,
    2891,
    2934,
    2897
   ],
   "WindowCenter": [
    742.0,
    741.0,
    740.0,
    741.0,
    741.0,
    741.0,
    740.0,
    742.0,
    742.0,
    742.0,
    743.0,
    742.0,
    742.0,
    741.0,
    742.0,
    742.0,
    742.0,
    741.0,
    742.0,
    741.0,
    741.0,
    742.0,
    741.0,
    741.0,
    741.0,
    742.0,
    742.0,
    743.0,
    742.0,
    742.0,
    742.0,
    741.0,
    743.0,
    742.0,
    740.0,
    739.0,
    740.0,
    740.0,
    741.0,
    741.0,
    742.0,
    741.0,
    740.0,
    740.0,
    741.0,
    741.0,
    741.0,
    742.0,
    743.0,
    743.0,
    744.0,
    742.0,
    743.0,
    743.0,
    745.0,
    743.0,
    742.0,
    743.0,
    744.0,
    744.0,
    744.0,
    743.0,
    743.0,
    743.0,
    742.0,
    743.0,
    743.0,
    742.0,
    741.0,
    741.0,
    743.0,
    743.0,
    742.0,
    743.0,
    742.0,
    741.0,
    744.0,
    744.0,
    741.0,
    740.0,
    740.0,
    741.0,
    743.0,
    742.0,
    741.0,
    740.0,
    741.0,
    741.0,
    741.0,
    742.0,
    742.0,
    741.0,
    740.0,
    740.0,
    742.0,
    741.0,
    743.0,
    742.0,
    743.0,
    742.0,
    742.0,
    740.0,
    742.0,
    746.0,
    747.0,
    745.0,
    743.0,
    741.0,
    741.0,
    741.0,
    741.0,
    741.0,
    742.0,
    743.0,
    743.0,
    742.0,
    742.0,
    743.0,
    743.0,
    743.0,
    740.0,
    740.0,
    741.0,
    742.0,
