{
 "AcquisitionMatrixPE": 100,
 "AcquisitionNumber": 1,
 "AcquisitionTime": "09:38:13.192500",
 "BandwidthPerPixelPhaseEncode": 18.519,
 "BaseResolution": 100,
 "BodyPartExamined": "BRAIN",
 "ConsistencyInfo": "N4_VE11C_LATEST_20160120",
 "ConversionSoftware": "dcm2niix",
 "ConversionSoftwareVersion": "v1.0.20180622 GCC4.9.2",
 "DerivedVendorReportedEchoSpacing": 0.000539986,
 "DeviceSerialNumber": "166078",
 "DwellTime": 2.1e-06,
 "EchoTime": 0.034,
 "EchoTrainLength": 100,
 "EffectiveEchoSpacing": 0.000539986,
 "FlipAngle": 90,
 "ImageOrientationPatientDICOM": [
  1,
  0,
  0,
  0,
  0.995396,
  -0.0958458
 ],
 "ImageType": [
  "ORIGINAL",
  "PRIMARY",
  "M",
  "ND",
  "MOSAIC"
 ],
 "InPlanePhaseEncodingDirectionDICOM": "COL",
 "InstitutionAddress": "Street_StreetNo_Bei_Jing_District_CN_ZIP",
 "InstitutionName": "BeiJing_Normal_University",
 "InstitutionalDepartmentName": "Department",
 "MRAcquisitionType": "2D",
 "MagneticFieldStrength": 3,
 "Manufacturer": "Siemens",
 "ManufacturersModelName": "Prisma",
 "Modality": "MR",
 "MultibandAccelerationFactor": 3,
 "PartialFourier": 1,
 "PatientPosition": "HFS",
 "PercentPhaseFOV": 100,
 "PhaseEncodingDirection": "j-",
 "PhaseEncodingSteps": 100,
 "PhaseResolution": 1,
 "PixelBandwidth": 2380,
 "ProcedureStepDescription": "BNU_P2018_64CH_Zhen.ZongLei",
 "ProtocolName": "bold_100x100_s3_2x2x2_static_256",
 "PulseSequenceDetails": "%SiemensSeq%_ep2d_bold",
 "ReceiveCoilActiveElements": "HC1-7;NC1",
 "ReceiveCoilName": "HeadNeck_64",
 "ReconMatrixPE": 100,
 "RepetitionTime": 2,
 "SAR": 0.0785448,
 "ScanOptions": "FS",
 "ScanningSequence": "EP",
 "SequenceName": "_epfid2d1_100",
 "SequenceVariant": "SK",
 "SeriesDescription": "bold_100x100_s3_2x2x2_static_256",
 "SeriesNumber": 6,
 "ShimSetting": [
  -5454,
  -11495,
  -1248,
  141,
  -61,
  -307,
  -206,
  57
 ],
 "SliceThickness": 2,
 "SliceTiming": [
  1.485,
  0,
  0.99,
  0.0825,
  1.0725,
  0.165,
  1.155,
  0.2475,
  1.2375,
  0.33,
  1.32,
  0.4125,
  1.4025,
  0.5775,
  1.5675,
  0.66,
  1.65,
  0.7425,
  1.7325,
  0.825,
  1.815,
  0.9075,
  1.8975,
  0.495,
  1.485,
  0,
  0.99,
  0.0825,
  1.0725,
  0.165,
  1.155,
  0.2475,
  1.2375,
  0.33,
  1.32,
  0.4125,
  1.4025,
  0.5775,
  1.5675,
  0.66,
  1.65,
  0.7425,
  1.7325,
  0.825,
  1.815,
  0.9075,
  1.8975,
  0.495,
  1.485,
  0,
  0.99,
  0.0825,
  1.0725,
  0.165,
  1.155,
  0.2475,
  1.2375,
  0.33,
  1.32,
  0.4125,
  1.4025,
  0.5775,
  1.5675,
  0.66,
  1.65,
  0.7425,
  1.7325,
  0.825,
  1.815,
  0.9075,
  1.8975,
  0.495
 ],
 "SoftwareVersions": "syngo_MR_E11",
 "SpacingBetweenSlices": 2,
 "StationName": "AWP166078",
 "TaskName": "imagenet",
 "TotalReadoutTime": 0.0534586,
 "TxRefAmp": 245.379,
 "dcmmeta_affine": [
  [
   -2.0,
   0.0,
   0.0,
   102.02409362792969
  ],
  [
   0.0,
   1.9907923936843872,
   -0.19169150292873383,
   -88.43534851074219
  ],
  [
   0.0,
   0.19169150292873383,
   1.9907923936843872,
   -78.96721649169922
  ],
  [
   0.0,
   0.0,
   0.0,
   1.0
  ]
 ],
 "dcmmeta_reorient_transform": [
  [
   0.0,
   -1.0,
   0.0,
   99.0
  ],
  [
   1.0,
   0.0,
   0.0,
   0.0
  ],
  [
   0.0,
   0.0,
   1.0,
   0.0
  ],
  [
   0.0,
   0.0,
   0.0,
   1.0
  ]
 ],
 "dcmmeta_shape": [
  100,
  100,
  72,
  256
 ],
 "dcmmeta_slice_dim": 2,
 "dcmmeta_version": 0.6,
 "global": {
  "const": {
   "AcquisitionMatrix": [
    100,
    0,
    0,
    100
   ],
   "AngioFlag": "N",
   "BitsAllocated": 16,
   "BitsStored": 12,
   "BodyPartExamined": "BRAIN",
   "Columns": 900,
   "EchoNumbers": 1,
   "EchoTime": 34.0,
   "EchoTrainLength": 100,
   "FlipAngle": 90.0,
   "HighBit": 11,
   "ImageOrientationPatient": [
    1.0,
    0.0,
    0.0,
    0.0,
    0.99539619816501,
    -0.0958457546198
   ],
   "ImagePositionPatient": [
    -902.02409648895,
    -904.97006082379,
    16.686845966907
   ],
   "ImageType": [
    "ORIGINAL",
    "PRIMARY",
    "M",
    "ND",
    "MOSAIC"
   ],
   "ImagedNucleus": "1H",
   "ImagingFrequency": 123.25776,
   "InPlanePhaseEncodingDirection": "COL",
   "MRAcquisitionType": "2D",
   "MagneticFieldStrength": 3.0,
   "Manufacturer": "SIEMENS",
   "ManufacturerModelName": "Prisma",
   "Modality": "MR",
   "NumberOfAverages": 1.0,
   "NumberOfPhaseEncodingSteps": 100,
   "PercentPhaseFieldOfView": 100.0,
   "PercentSampling": 100.0,
   "PerformedProcedureStepStartTime": "085838.769000",
   "PhotometricInterpretation": "MONOCHROME2",
   "PixelBandwidth": 2380.0,
   "PixelRepresentation": 0,
   "PixelSpacing": [
    2.0,
    2.0
   ],
   "ProtocolName": "bold_100x100_s3_2x2x2_static_256",
   "RepetitionTime": 2000.0,
   "Rows": 900,
   "SAR": 0.07854475701914,
   "SamplesPerPixel": 1,
   "ScanOptions": "FS",
   "ScanningSequence": "EP",
   "SequenceName": "*epfid2d1_100",
   "SequenceVariant": "SK",
   "SeriesDescription": "bold_100x100_s3_2x2x2_static_256",
   "SeriesNumber": 6,
   "SeriesTime": "093815.851000",
   "SliceLocation": -70.127515353163,
   "SliceThickness": 2.0,
   "SmallestImagePixelValue": 0,
   "SoftwareVersions": "syngo MR E11",
   "SpacingBetweenSlices": 1.9999999987347,
   "SpecificCharacterSet": "ISO_IR 100",
   "StudyID": "1",
   "StudyTime": "085838.642000",
   "TransmitCoilName": "Body",
   "VariableFlipAngleFlag": "N",
   "WindowCenterWidthExplanation": "Algo1",
   "dBdt": 0.0
  },
  "slices": {}
 },
 "time": {
  "samples": {
   "AcquisitionNumber": [
    1,
    2,
    3,
    4,
    5,
    6,
    7,
    8,
    9,
    10,
    11,
    12,
    13,
    14,
    15,
    16,
    17,
    18,
    19,
    20,
    21,
    22,
    23,
    24,
    25,
    26,
    27,
    28,
    29,
    30,
    31,
    32,
    33,
    34,
    35,
    36,
    37,
    38,
    39,
    40,
    41,
    42,
    43,
    44,
    45,
    46,
    47,
    48,
    49,
    50,
    51,
    52,
    53,
    54,
    55,
    56,
    57,
    58,
    59,
    60,
    61,
    62,
    63,
    64,
    65,
    66,
    67,
    68,
    69,
    70,
    71,
    72,
    73,
    74,
    75,
    76,
    77,
    78,
    79,
    80,
    81,
    82,
    83,
    84,
    85,
    86,
    87,
    88,
    89,
    90,
    91,
    92,
    93,
    94,
    95,
    96,
    97,
    98,
    99,
    100,
    101,
    102,
    103,
    104,
    105,
    106,
    107,
    108,
    109,
    110,
    111,
    112,
    113,
    114,
    115,
    116,
    117,
    118,
    119,
    120,
    121,
    122,
    123,
    124,
    125,
    126,
    127,
    128,
    129,
    130,
    131,
    132,
    133,
    134,
    135,
    136,
    137,
    138,
    139,
    140,
    141,
    142,
    143,
    144,
    145,
    146,
    147,
    148,
    149,
    150,
    151,
    152,
    153,
    154,
    155,
    156,
    157,
    158,
    159,
    160,
    161,
    162,
    163,
    164,
    165,
    166,
    167,
    168,
    169,
    170,
    171,
    172,
    173,
    174,
    175,
    176,
    177,
    178,
    179,
    180,
    181,
    182,
    183,
    184,
    185,
    186,
    187,
    188,
    189,
    190,
    191,
    192,
    193,
    194,
    195,
    196,
    197,
    198,
    199,
    200,
    201,
    202,
    203,
    204,
    205,
    206,
    207,
    208,
    209,
    210,
    211,
    212,
    213,
    214,
    215,
    216,
    217,
    218,
    219,
    220,
    221,
    222,
    223,
    224,
    225,
    226,
    227,
    228,
    229,
    230,
    231,
    232,
    233,
    234,
    235,
    236,
    237,
    238,
    239,
    240,
    241,
    242,
    243,
    244,
    245,
    246,
    247,
    248,
    249,
    250,
    251,
    252,
    253,
    254,
    255,
    256
   ],
   "AcquisitionTime": [
    "093813.192500",
    "093815.192500",
    "093817.192500",
    "093819.192500",
    "093821.192500",
    "093823.192500",
    "093825.192500",
    "093827.192500",
    "093829.192500",
    "093831.192500",
    "093833.192500",
    "093835.192500",
    "093837.192500",
    "093839.192500",
    "093841.192500",
    "093843.192500",
    "093845.192500",
    "093847.192500",
    "093849.192500",
    "093851.192500",
    "093853.192500",
    "093855.192500",
    "093857.192500",
    "093859.192500",
    "093901.192500",
    "093903.192500",
    "093905.192500",
    "093907.192500",
    "093909.192500",
    "093911.192500",
    "093913.192500",
    "093915.192500",
    "093917.192500",
    "093919.192500",
    "093921.192500",
    "093923.192500",
    "093925.192500",
    "093927.192500",
    "093929.192500",
    "093931.192500",
    "093933.192500",
    "093935.192500",
    "093937.192500",
    "093939.192500",
    "093941.192500",
    "093943.192500",
    "093945.192500",
    "093947.192500",
    "093949.192500",
    "093951.192500",
    "093953.192500",
    "093955.192500",
    "093957.192500",
    "093959.192500",
    "094001.192500",
    "094003.192500",
    "094005.192500",
    "094007.192500",
    "094009.192500",
    "094011.192500",
    "094013.192500",
    "094015.192500",
    "094017.192500",
    "094019.192500",
    "094021.192500",
    "094023.192500",
    "094025.192500",
    "094027.192500",
    "094029.192500",
    "094031.192500",
    "094033.192500",
    "094035.192500",
    "094037.192500",
    "094039.192500",
    "094041.192500",
    "094043.192500",
    "094045.192500",
    "094047.192500",
    "094049.192500",
    "094051.192500",
    "094053.192500",
    "094055.192500",
    "094057.192500",
    "094059.192500",
    "094101.192500",
    "094103.192500",
    "094105.192500",
    "094107.192500",
    "094109.192500",
    "094111.192500",
    "094113.192500",
    "094115.192500",
    "094117.192500",
    "094119.192500",
    "094121.192500",
    "094123.192500",
    "094125.192500",
    "094127.192500",
    "094129.192500",
    "094131.192500",
    "094133.192500",
    "094135.192500",
    "094137.192500",
    "094139.192500",
    "094141.192500",
    "094143.192500",
    "094145.192500",
    "094147.192500",
    "094149.192500",
    "094151.192500",
    "094153.192500",
    "094155.192500",
    "094157.192500",
    "094159.192500",
    "094201.192500",
    "094203.192500",
    "094205.192500",
    "094207.192500",
    "094209.192500",
    "094211.192500",
    "094213.192500",
    "094215.192500",
    "094217.192500",
    "094219.192500",
    "094221.192500",
    "094223.192500",
    "094225.192500",
    "094227.192500",
    "094229.192500",
    "094231.192500",
    "094233.192500",
    "094235.192500",
    "094237.192500",
    "094239.192500",
    "094241.192500",
    "094243.192500",
    "094245.192500",
    "094247.192500",
    "094249.192500",
    "094251.192500",
    "094253.192500",
    "094255.192500",
    "094257.192500",
    "094259.192500",
    "094301.192500",
    "094303.192500",
    "094305.192500",
    "094307.192500",
    "094309.192500",
    "094311.192500",
    "094313.192500",
    "094315.192500",
    "094317.192500",
    "094319.192500",
    "094321.192500",
    "094323.192500",
    "094325.192500",
    "094327.192500",
    "094329.192500",
    "094331.192500",
    "094333.192500",
    "094335.192500",
    "094337.192500",
    "094339.192500",
    "094341.192500",
    "094343.192500",
    "094345.192500",
    "094347.192500",
    "094349.192500",
    "094351.192500",
    "094353.192500",
    "094355.192500",
    "094357.192500",
    "094359.192500",
    "094401.192500",
    "094403.192500",
    "094405.192500",
    "094407.192500",
    "094409.192500",
    "094411.192500",
    "094413.192500",
    "094415.192500",
    "094417.192500",
    "094419.192500",
    "094421.192500",
    "094423.192500",
    "094425.192500",
    "094427.192500",
    "094429.192500",
    "094431.192500",
    "094433.192500",
    "094435.192500",
    "094437.192500",
    "094439.192500",
    "094441.192500",
    "094443.192500",
    "094445.192500",
    "094447.192500",
    "094449.192500",
    "094451.192500",
    "094453.192500",
    "094455.192500",
    "094457.192500",
    "094459.192500",
    "094501.192500",
    "094503.192500",
    "094505.192500",
    "094507.192500",
    "094509.192500",
    "094511.192500",
    "094513.192500",
    "094515.192500",
    "094517.192500",
    "094519.192500",
    "094521.192500",
    "094523.192500",
    "094525.192500",
    "094527.192500",
    "094529.192500",
    "094531.192500",
    "094533.192500",
    "094535.192500",
    "094537.192500",
    "094539.192500",
    "094541.192500",
    "094543.192500",
    "094545.192500",
    "094547.192500",
    "094549.192500",
    "094551.192500",
    "094553.192500",
    "094555.192500",
    "094557.192500",
    "094559.192500",
    "094601.192500",
    "094603.192500",
    "094605.192500",
    "094607.192500",
    "094609.192500",
    "094611.192500",
    "094613.192500",
    "094615.192500",
    "094617.192500",
    "094619.192500",
    "094621.192500",
    "094623.192500",
    "094625.192500",
    "094627.192500",
    "094629.192500",
    "094631.192500",
    "094633.192500",
    "094635.192500",
    "094637.192500",
    "094639.192500",
    "094641.192500",
    "094643.192500"
   ],
   "ContentTime": [
    "093815.855000",
    "093817.350000",
    "093819.351000",
    "093821.350000",
    "093823.351000",
    "093825.350000",
    "093827.351000",
    "093829.350000",
    "093831.350000",
    "093833.350000",
    "093835.351000",
    "093837.351000",
    "093839.350000",
    "093841.350000",
    "093843.351000",
    "093845.351000",
    "093847.349000",
    "093849.349000",
    "093851.351000",
    "093853.350000",
    "093855.350000",
    "093857.350000",
    "093859.351000",
    "093901.350000",
    "093903.351000",
    "093905.350000",
    "093907.351000",
    "093909.351000",
    "093911.351000",
    "093913.350000",
    "093915.351000",
    "093917.350000",
    "093919.351000",
    "093921.351000",
    "093923.349000",
    "093925.350000",
    "093927.351000",
    "093929.350000",
    "093931.351000",
    "093933.350000",
    "093935.351000",
    "093937.351000",
    "093939.350000",
    "093941.350000",
    "093943.351000",
    "093945.351000",
    "093947.351000",
    "093949.350000",
    "093951.350000",
    "093953.350000",
    "093955.351000",
    "093957.349000",
    "093959.350000",
    "094001.351000",
    "094003.351000",
    "094005.350000",
    "094007.350000",
    "094009.350000",
    "094011.351000",
    "094013.351000",
    "094015.350000",
    "094017.350000",
    "094019.351000",
    "094021.351000",
    "094023.351000",
    "094025.350000",
    "094027.350000",
    "094029.350000",
    "094031.350000",
    "094033.350000",
    "094035.351000",
    "094037.351000",
    "094039.351000",
    "094041.350000",
    "094043.350000",
    "094045.351000",
    "094047.351000",
    "094049.350000",
    "094051.350000",
    "094053.350000",
    "094055.351000",
    "094057.351000",
    "094059.351000",
    "094101.352000",
    "094103.352000",
    "094105.351000",
    "094107.349000",
    "094109.351000",
    "094111.350000",
    "094113.351000",
    "094115.350000",
    "094117.351000",
    "094119.351000",
    "094121.351000",
    "094123.350000",
    "094125.350000",
    "094127.351000",
    "094129.350000",
    "094131.351000",
    "094133.350000",
    "094135.350000",
    "094137.351000",
    "094139.350000",
    "094141.350000",
    "094143.349000",
    "094145.350000",
    "094147.351000",
    "094149.350000",
    "094151.350000",
    "094153.350000",
    "094155.351000",
    "094157.350000",
    "094159.350000",
    "094201.350000",
    "094203.350000",
    "094205.350000",
    "094207.351000",
    "094209.350000",
    "094211.351000",
    "094213.351000",
    "094215.350000",
    "094217.349000",
    "094219.351000",
    "094221.351000",
    "094223.351000",
    "094225.350000",
    "094227.351000",
    "094229.351000",
    "094231.351000",
    "094233.351000",
    "094235.349000",
    "094237.351000",
    "094239.351000",
    "094241.351000",
    "094243.351000",
    "094245.350000",
    "094247.351000",
    "094249.351000",
    "094251.351000",
    "094253.350000",
    "094255.351000",
    "094257.351000",
    "094259.350000",
    "094301.351000",
    "094303.350000",
    "094305.350000",
    "094307.351000",
    "094309.350000",
    "094311.349000",
    "094313.351000",
    "094315.351000",
    "094317.351000",
    "094319.351000",
    "094321.351000",
    "094323.351000",
    "094325.350000",
    "094327.350000",
    "094329.351000",
    "094331.351000",
    "094333.351000",
    "094335.351000",
    "094337.350000",
    "094339.350000",
    "094341.351000",
    "094343.350000",
    "094345.349000",
    "094347.351000",
    "094349.351000",
    "094351.351000",
    "094353.351000",
    "094355.351000",
    "094357.351000",
    "094359.350000",
    "094401.350000",
    "094403.350000",
    "094405.351000",
    "094407.351000",
    "094409.351000",
    "094411.351000",
    "094413.351000",
    "094415.351000",
    "094417.350000",
    "094419.350000",
    "094421.349000",
    "094423.351000",
    "094425.350000",
    "094427.350000",
    "094429.351000",
    "094431.351000",
    "094433.351000",
    "094435.350000",
    "094437.350000",
    "094439.350000",
    "094441.351000",
    "094443.350000",
    "094445.351000",
    "094447.351000",
    "094449.351000",
    "094451.351000",
    "094453.350000",
    "094455.350000",
    "094457.351000",
    "094459.351000",
    "094501.350000",
    "094503.350000",
    "094505.350000",
    "094507.351000",
    "094509.350000",
    "094511.350000",
    "094513.365000",
    "094515.351000",
    "094517.350000",
    "094519.351000",
    "094521.351000",
    "094523.351000",
    "094525.350000",
    "094527.351000",
    "094529.349000",
    "094531.349000",
    "094533.350000",
    "094535.351000",
    "094537.350000",
    "094539.351000",
    "094541.350000",
    "094543.350000",
    "094545.351000",
    "094547.349000",
    "094549.351000",
    "094551.350000",
    "094553.351000",
    "094555.351000",
    "094557.351000",
    "094559.350000",
    "094601.350000",
    "094603.350000",
    "094605.350000",
    "094607.350000",
    "094609.351000",
    "094611.350000",
    "094613.351000",
    "094615.351000",
    "094617.351000",
    "094619.351000",
    "094621.351000",
    "094623.349000",
    "094625.351000",
    "094627.351000",
    "094629.351000",
    "094631.351000",
    "094633.351000",
    "094635.351000",
    "094637.351000",
    "094639.350000",
    "094641.349000",
    "094643.351000",
    "094645.049000"
   ],
   "InstanceCreationTime": [
    "093815.855000",
    "093817.350000",
    "093819.351000",
    "093821.350000",
    "093823.351000",
    "093825.350000",
    "093827.351000",
    "093829.350000",
    "093831.350000",
    "093833.350000",
    "093835.351000",
    "093837.351000",
    "093839.350000",
    "093841.350000",
    "093843.351000",
    "093845.351000",
    "093847.349000",
    "093849.349000",
    "093851.351000",
    "093853.350000",
    "093855.350000",
    "093857.350000",
    "093859.351000",
    "093901.350000",
    "093903.351000",
    "093905.350000",
    "093907.351000",
    "093909.351000",
    "093911.351000",
    "093913.350000",
    "093915.351000",
    "093917.350000",
    "093919.351000",
    "093921.351000",
    "093923.349000",
    "093925.350000",
    "093927.351000",
    "093929.350000",
    "093931.351000",
    "093933.350000",
    "093935.351000",
    "093937.351000",
    "093939.350000",
    "093941.350000",
    "093943.351000",
    "093945.351000",
    "093947.351000",
    "093949.350000",
    "093951.350000",
    "093953.350000",
    "093955.351000",
    "093957.349000",
    "093959.350000",
    "094001.351000",
    "094003.351000",
    "094005.350000",
    "094007.350000",
    "094009.350000",
    "094011.351000",
    "094013.351000",
    "094015.350000",
    "094017.350000",
    "094019.351000",
    "094021.351000",
    "094023.351000",
    "094025.350000",
    "094027.350000",
    "094029.350000",
    "094031.350000",
    "094033.350000",
    "094035.351000",
    "094037.351000",
    "094039.351000",
    "094041.350000",
    "094043.350000",
    "094045.351000",
    "094047.351000",
    "094049.350000",
    "094051.350000",
    "094053.350000",
    "094055.351000",
    "094057.351000",
    "094059.351000",
    "094101.352000",
    "094103.352000",
    "094105.351000",
    "094107.349000",
    "094109.351000",
    "094111.350000",
    "094113.351000",
    "094115.350000",
    "094117.351000",
    "094119.351000",
    "094121.351000",
    "094123.350000",
    "094125.350000",
    "094127.351000",
    "094129.350000",
    "094131.351000",
    "094133.350000",
    "094135.350000",
    "094137.351000",
    "094139.350000",
    "094141.350000",
    "094143.349000",
    "094145.350000",
    "094147.351000",
    "094149.350000",
    "094151.350000",
    "094153.350000",
    "094155.351000",
    "094157.350000",
    "094159.350000",
    "094201.350000",
    "094203.350000",
    "094205.350000",
    "094207.351000",
    "094209.350000",
    "094211.351000",
    "094213.351000",
    "094215.350000",
    "094217.349000",
    "094219.351000",
    "094221.351000",
    "094223.351000",
    "094225.350000",
    "094227.351000",
    "094229.351000",
    "094231.351000",
    "094233.351000",
    "094235.349000",
    "094237.351000",
    "094239.351000",
    "094241.351000",
    "094243.351000",
    "094245.350000",
    "094247.351000",
    "094249.351000",
    "094251.351000",
    "094253.350000",
    "094255.351000",
    "094257.351000",
    "094259.350000",
    "094301.351000",
    "094303.350000",
    "094305.350000",
    "094307.351000",
    "094309.350000",
    "094311.349000",
    "094313.351000",
    "094315.351000",
    "094317.351000",
    "094319.351000",
    "094321.351000",
    "094323.351000",
    "094325.350000",
    "094327.350000",
    "094329.351000",
    "094331.351000",
    "094333.351000",
    "094335.351000",
    "094337.350000",
    "094339.350000",
    "094341.351000",
    "094343.350000",
    "094345.349000",
    "094347.351000",
    "094349.351000",
    "094351.351000",
    "094353.351000",
    "094355.351000",
    "094357.351000",
    "094359.350000",
    "094401.350000",
    "094403.350000",
    "094405.351000",
    "094407.351000",
    "094409.351000",
    "094411.351000",
    "094413.351000",
    "094415.351000",
    "094417.350000",
    "094419.350000",
    "094421.349000",
    "094423.351000",
    "094425.350000",
    "094427.350000",
    "094429.351000",
    "094431.351000",
    "094433.351000",
    "094435.350000",
    "094437.350000",
    "094439.350000",
    "094441.351000",
    "094443.350000",
    "094445.351000",
    "094447.351000",
    "094449.351000",
    "094451.351000",
    "094453.350000",
    "094455.350000",
    "094457.351000",
    "094459.351000",
    "094501.350000",
    "094503.350000",
    "094505.350000",
    "094507.351000",
    "094509.350000",
    "094511.350000",
    "094513.365000",
    "094515.351000",
    "094517.350000",
    "094519.351000",
    "094521.351000",
    "094523.351000",
    "094525.350000",
    "094527.351000",
    "094529.349000",
    "094531.349000",
    "094533.350000",
    "094535.351000",
    "094537.350000",
    "094539.351000",
    "094541.350000",
    "094543.350000",
    "094545.351000",
    "094547.349000",
    "094549.351000",
    "094551.350000",
    "094553.351000",
    "094555.351000",
    "094557.351000",
    "094559.350000",
    "094601.350000",
    "094603.350000",
    "094605.350000",
    "094607.350000",
    "094609.351000",
    "094611.350000",
    "094613.351000",
    "094615.351000",
    "094617.351000",
    "094619.351000",
    "094621.351000",
    "094623.349000",
    "094625.351000",
    "094627.351000",
    "094629.351000",
    "094631.351000",
    "094633.351000",
    "094635.351000",
    "094637.351000",
    "094639.350000",
    "094641.349000",
    "094643.351000",
    "094645.049000"
   ],
   "InstanceNumber": [
    1,
    2,
    3,
    4,
    5,
    6,
    7,
    8,
    9,
    10,
    11,
    12,
    13,
    14,
    15,
    16,
    17,
    18,
    19,
    20,
    21,
    22,
    23,
    24,
    25,
    26,
    27,
    28,
    29,
    30,
    31,
    32,
    33,
    34,
    35,
    36,
    37,
    38,
    39,
    40,
    41,
    42,
    43,
    44,
    45,
    46,
    47,
    48,
    49,
    50,
    51,
    52,
    53,
    54,
    55,
    56,
    57,
    58,
    59,
    60,
    61,
    62,
    63,
    64,
    65,
    66,
    67,
    68,
    69,
    70,
    71,
    72,
    73,
    74,
    75,
    76,
    77,
    78,
    79,
    80,
    81,
    82,
    83,
    84,
    85,
    86,
    87,
    88,
    89,
    90,
    91,
    92,
    93,
    94,
    95,
    96,
    97,
    98,
    99,
    100,
    101,
    102,
    103,
    104,
    105,
    106,
    107,
    108,
    109,
    110,
    111,
    112,
    113,
    114,
    115,
    116,
    117,
    118,
    119,
    120,
    121,
    122,
    123,
    124,
    125,
    126,
    127,
    128,
    129,
    130,
    131,
    132,
    133,
    134,
    135,
    136,
    137,
    138,
    139,
    140,
    141,
    142,
    143,
    144,
    145,
    146,
    147,
    148,
    149,
    150,
    151,
    152,
    153,
    154,
    155,
    156,
    157,
    158,
    159,
    160,
    161,
    162,
    163,
    164,
    165,
    166,
    167,
    168,
    169,
    170,
    171,
    172,
    173,
    174,
    175,
    176,
    177,
    178,
    179,
    180,
    181,
    182,
    183,
    184,
    185,
    186,
    187,
    188,
    189,
    190,
    191,
    192,
    193,
    194,
    195,
    196,
    197,
    198,
    199,
    200,
    201,
    202,
    203,
    204,
    205,
    206,
    207,
    208,
    209,
    210,
    211,
    212,
    213,
    214,
    215,
    216,
    217,
    218,
    219,
    220,
    221,
    222,
    223,
    224,
    225,
    226,
    227,
    228,
    229,
    230,
    231,
    232,
    233,
    234,
    235,
    236,
    237,
    238,
    239,
    240,
    241,
    242,
    243,
    244,
    245,
    246,
    247,
    248,
    249,
    250,
    251,
    252,
    253,
    254,
    255,
    256
   ],
   "LargestImagePixelValue": [
    3540,
    3532,
    3505,
    3474,
    3480,
    3597,
    3449,
    3473,
    3514,
    3476,
    3462,
    3507,
    3489,
    3445,
    3496,
    3479,
    3472,
    3521,
    3485,
    3450,
    3480,
    3496,
    3499,
    3496,
    3476,
    3486,
    3548,
    3487,
    3495,
    3499,
    3469,
    3488,
    3496,
    3513,
    3477,
    3669,
    3496,
    3488,
    3476,
    3485,
    3500,
    3468,
    3492,
    3482,
    3537,
    3479,
    3494,
    3488,
    3561,
    3580,
    3540,
    3490,
    3570,
    3503,
    3620,
    3475,
    3496,
    3507,
    3481,
    3518,
    3520,
    3591,
    3533,
    3607,
    3508,
    3520,
    3541,
    3525,
    3606,
    3524,
    3487,
    3579,
    3483,
    3504,
    3491,
    3502,
    3507,
    3509,
    3527,
    3538,
    3622,
    3530,
    3559,
    3506,
    3498,
    3519,
    3506,
    3586,
    3527,
    3620,
    3515,
    3527,
    3519,
    3541,
    3618,
    3521,
    3522,
    3529,
    3520,
    3573,
    3499,
    3516,
    3515,
    3525,
    3533,
    3510,
    3512,
    3523,
    3514,
    3550,
    3536,
    3540,
    3539,
    3490,
    3550,
    3545,
    3564,
    3565,
    3515,
    3547,
    3498,
    3546,
    3547,
    3529,
    3551,
    3604,
    3562,
    3590,
    3540,
    3518,
    3515,
    3488,
    3519,
    3555,
    3522,
    3531,
    3526,
    3534,
    3508,
    3550,
    3519,
    3509,
    3523,
    3536,
    3520,
    3557,
    3580,
    3503,
    3553,
    3519,
    3547,
    3546,
    3539,
    3520,
    3555,
    3566,
    3587,
    3551,
    3585,
    3546,
    3534,
    3545,
    3543,
    3593,
    3567,
    3603,
    3567,
    3565,
    3545,
    3549,
    3558,
    3544,
    3566,
    3592,
    3593,
    3575,
    3550,
    3605,
    3575,
    3552,
    3597,
    3576,
    3591,
    3560,
    3535,
    3567,
    3571,
    3529,
    3587,
    3558,
    3562,
    3525,
    3558,
    3569,
    3579,
    3558,
    3569,
    3577,
    3586,
    3593,
    3575,
    3564,
    3584,
    3544,
    3580,
    3539,
    3523,
    3582,
    3555,
    3587,
    3559,
    3584,
    3583,
    3597,
    3567,
    3587,
    3560,
    3574,
    3561,
    3577,
    3562,
    3536,
    3565,
    3523,
    3548,
    3540,
    3562,
    3512,
    3576,
    3568,
    3566,
    3583,
    3535,
    3626,
    3594,
    3577,
    3603,
    3546,
    3584,
    3547,
    3568,
    3566,
    3585,
    3582,
    3570,
    3587,
    3613,
    3607,
    3567,
    3571,
    3589,
    3589,
    3557,
    3594,
    3563,
    3587
   ],
   "WindowCenter": [
    860.0,
    857.0,
    857.0,
    858.0,
    857.0,
    858.0,
    856.0,
    856.0,
    857.0,
    857.0,
    857.0,
    858.0,
    857.0,
    857.0,
    857.0,
    857.0,
    858.0,
    859.0,
    858.0,
    857.0,
    856.0,
    857.0,
    857.0,
    857.0,
    857.0,
    857.0,
    857.0,
    856.0,
    856.0,
    856.0,
    855.0,
    855.0,
    856.0,
    857.0,
    856.0,
    857.0,
    856.0,
    857.0,
    858.0,
    857.0,
    856.0,
    855.0,
    856.0,
    857.0,
    857.0,
    856.0,
    856.0,
    856.0,
    857.0,
    858.0,
    857.0,
    856.0,
    856.0,
    855.0,
    855.0,
    854.0,
    855.0,
    855.0,
    856.0,
    857.0,
    857.0,
    858.0,
    857.0,
    858.0,
    857.0,
    858.0,
    859.0,
    859.0,
    857.0,
    857.0,
    856.0,
    856.0,
    855.0,
    856.0,
    856.0,
    856.0,
    856.0,
    856.0,
    856.0,
    856.0,
    857.0,
    856.0,
    857.0,
    857.0,
    857.0,
    857.0,
    857.0,
    857.0,
    856.0,
    857.0,
    856.0,
    856.0,
    856.0,
    856.0,
    856.0,
    856.0,
    856.0,
    856.0,
    856.0,
    856.0,
    855.0,
    856.0,
    855.0,
    856.0,
    856.0,
    856.0,
    855.0,
    856.0,
    856.0,
    858.0,
    857.0,
    856.0,
    857.0,
    859.0,
    859.0,
    858.0,
    856.0,
    855.0,
    855.0,
    854.0,
    855.0,
    855.0,
    855.0,
    855.0,
