{
 "AcquisitionMatrixPE": 100,
 "AcquisitionNumber": 1,
 "AcquisitionTime": "10:10:29.775000",
 "BandwidthPerPixelPhaseEncode": 18.519,
 "BaseResolution": 100,
 "BodyPartExamined": "BRAIN",
 "ConsistencyInfo": "N4_VE11C_LATEST_20160120",
 "ConversionSoftware": "dcm2niix",
 "ConversionSoftwareVersion": "v1.0.20180622 GCC4.9.2",
 "DerivedVendorReportedEchoSpacing": 0.000539986,
 "DeviceSerialNumber": "166078",
 "DwellTime": 2.1e-06,
 "EchoTime": 0.034,
 "EchoTrainLength": 100,
 "EffectiveEchoSpacing": 0.000539986,
 "FlipAngle": 90,
 "ImageOrientationPatientDICOM": [
  1,
  0,
  0,
  0,
  0.995396,
  -0.0958458
 ],
 "ImageType": [
  "ORIGINAL",
  "PRIMARY",
  "M",
  "ND",
  "MOSAIC"
 ],
 "InPlanePhaseEncodingDirectionDICOM": "COL",
 "InstitutionAddress": "Street_StreetNo_Bei_Jing_District_CN_ZIP",
 "InstitutionName": "BeiJing_Normal_University",
 "InstitutionalDepartmentName": "Department",
 "MRAcquisitionType": "2D",
 "MagneticFieldStrength": 3,
 "Manufacturer": "Siemens",
 "ManufacturersModelName": "Prisma",
 "Modality": "MR",
 "MultibandAccelerationFactor": 3,
 "PartialFourier": 1,
 "PatientPosition": "HFS",
 "PercentPhaseFOV": 100,
 "PhaseEncodingDirection": "j-",
 "PhaseEncodingSteps": 100,
 "PhaseResolution": 1,
 "PixelBandwidth": 2380,
 "ProcedureStepDescription": "BNU_P2018_64CH_Zhen.ZongLei",
 "ProtocolName": "bold_100x100_s3_2x2x2_static_256",
 "PulseSequenceDetails": "%SiemensSeq%_ep2d_bold",
 "ReceiveCoilActiveElements": "HC1-7;NC1",
 "ReceiveCoilName": "HeadNeck_64",
 "ReconMatrixPE": 100,
 "RepetitionTime": 2,
 "SAR": 0.0785448,
 "ScanOptions": "FS",
 "ScanningSequence": "EP",
 "SequenceName": "_epfid2d1_100",
 "SequenceVariant": "SK",
 "SeriesDescription": "bold_100x100_s3_2x2x2_static_256",
 "SeriesNumber": 11,
 "ShimSetting": [
  -5454,
  -11495,
  -1248,
  141,
  -61,
  -307,
  -206,
  57
 ],
 "SliceThickness": 2,
 "SliceTiming": [
  1.4825,
  0,
  0.9875,
  0.0825,
  1.07,
  0.165,
  1.1525,
  0.2475,
  1.235,
  0.33,
  1.3175,
  0.4125,
  1.4,
  0.5775,
  1.565,
  0.66,
  1.6475,
  0.7425,
  1.73,
  0.825,
  1.8125,
  0.905,
  1.895,
  0.495,
  1.4825,
  0,
  0.9875,
  0.0825,
  1.07,
  0.165,
  1.1525,
  0.2475,
  1.235,
  0.33,
  1.3175,
  0.4125,
  1.4,
  0.5775,
  1.565,
  0.66,
  1.6475,
  0.7425,
  1.73,
  0.825,
  1.8125,
  0.905,
  1.895,
  0.495,
  1.4825,
  0,
  0.9875,
  0.0825,
  1.07,
  0.165,
  1.1525,
  0.2475,
  1.235,
  0.33,
  1.3175,
  0.4125,
  1.4,
  0.5775,
  1.565,
  0.66,
  1.6475,
  0.7425,
  1.73,
  0.825,
  1.8125,
  0.905,
  1.895,
  0.495
 ],
 "SoftwareVersions": "syngo_MR_E11",
 "SpacingBetweenSlices": 2,
 "StationName": "AWP166078",
 "TaskName": "imagenet",
 "TotalReadoutTime": 0.0534586,
 "TxRefAmp": 245.379,
 "dcmmeta_affine": [
  [
   -2.0,
   0.0,
   0.0,
   102.02409362792969
  ],
  [
   0.0,
   1.9907923936843872,
   -0.19169150292873383,
   -88.43534851074219
  ],
  [
   0.0,
   0.19169150292873383,
   1.9907923936843872,
   -78.96721649169922
  ],
  [
   0.0,
   0.0,
   0.0,
   1.0
  ]
 ],
 "dcmmeta_reorient_transform": [
  [
   0.0,
   -1.0,
   0.0,
   99.0
  ],
  [
   1.0,
   0.0,
   0.0,
   0.0
  ],
  [
   0.0,
   0.0,
   1.0,
   0.0
  ],
  [
   0.0,
   0.0,
   0.0,
   1.0
  ]
 ],
 "dcmmeta_shape": [
  100,
  100,
  72,
  256
 ],
 "dcmmeta_slice_dim": 2,
 "dcmmeta_version": 0.6,
 "global": {
  "const": {
   "AcquisitionMatrix": [
    100,
    0,
    0,
    100
   ],
   "AngioFlag": "N",
   "BitsAllocated": 16,
   "BitsStored": 12,
   "BodyPartExamined": "BRAIN",
   "Columns": 900,
   "EchoNumbers": 1,
   "EchoTime": 34.0,
   "EchoTrainLength": 100,
   "FlipAngle": 90.0,
   "HighBit": 11,
   "ImageOrientationPatient": [
    1.0,
    0.0,
    0.0,
    0.0,
    0.99539619816501,
    -0.0958457546198
   ],
   "ImagePositionPatient": [
    -902.02409648895,
    -904.97006082379,
    16.686845966907
   ],
   "ImageType": [
    "ORIGINAL",
    "PRIMARY",
    "M",
    "ND",
    "MOSAIC"
   ],
   "ImagedNucleus": "1H",
   "ImagingFrequency": 123.257768,
   "InPlanePhaseEncodingDirection": "COL",
   "MRAcquisitionType": "2D",
   "MagneticFieldStrength": 3.0,
   "Manufacturer": "SIEMENS",
   "ManufacturerModelName": "Prisma",
   "Modality": "MR",
   "NumberOfAverages": 1.0,
   "NumberOfPhaseEncodingSteps": 100,
   "PercentPhaseFieldOfView": 100.0,
   "PercentSampling": 100.0,
   "PerformedProcedureStepStartTime": "085838.769000",
   "PhotometricInterpretation": "MONOCHROME2",
   "PixelBandwidth": 2380.0,
   "PixelRepresentation": 0,
   "PixelSpacing": [
    2.0,
    2.0
   ],
   "ProtocolName": "bold_100x100_s3_2x2x2_static_256",
   "RepetitionTime": 2000.0,
   "Rows": 900,
   "SAR": 0.07854475701914,
   "SamplesPerPixel": 1,
   "ScanOptions": "FS",
   "ScanningSequence": "EP",
   "SequenceName": "*epfid2d1_100",
   "SequenceVariant": "SK",
   "SeriesDescription": "bold_100x100_s3_2x2x2_static_256",
   "SeriesNumber": 11,
   "SeriesTime": "101032.771000",
   "SliceLocation": -70.127515353163,
   "SliceThickness": 2.0,
   "SmallestImagePixelValue": 0,
   "SoftwareVersions": "syngo MR E11",
   "SpacingBetweenSlices": 1.9999999987347,
   "SpecificCharacterSet": "ISO_IR 100",
   "StudyID": "1",
   "StudyTime": "085838.642000",
   "TransmitCoilName": "Body",
   "VariableFlipAngleFlag": "N",
   "WindowCenterWidthExplanation": "Algo1",
   "dBdt": 0.0
  },
  "slices": {}
 },
 "time": {
  "samples": {
   "AcquisitionNumber": [
    1,
    2,
    3,
    4,
    5,
    6,
    7,
    8,
    9,
    10,
    11,
    12,
    13,
    14,
    15,
    16,
    17,
    18,
    19,
    20,
    21,
    22,
    23,
    24,
    25,
    26,
    27,
    28,
    29,
    30,
    31,
    32,
    33,
    34,
    35,
    36,
    37,
    38,
    39,
    40,
    41,
    42,
    43,
    44,
    45,
    46,
    47,
    48,
    49,
    50,
    51,
    52,
    53,
    54,
    55,
    56,
    57,
    58,
    59,
    60,
    61,
    62,
    63,
    64,
    65,
    66,
    67,
    68,
    69,
    70,
    71,
    72,
    73,
    74,
    75,
    76,
    77,
    78,
    79,
    80,
    81,
    82,
    83,
    84,
    85,
    86,
    87,
    88,
    89,
    90,
    91,
    92,
    93,
    94,
    95,
    96,
    97,
    98,
    99,
    100,
    101,
    102,
    103,
    104,
    105,
    106,
    107,
    108,
    109,
    110,
    111,
    112,
    113,
    114,
    115,
    116,
    117,
    118,
    119,
    120,
    121,
    122,
    123,
    124,
    125,
    126,
    127,
    128,
    129,
    130,
    131,
    132,
    133,
    134,
    135,
    136,
    137,
    138,
    139,
    140,
    141,
    142,
    143,
    144,
    145,
    146,
    147,
    148,
    149,
    150,
    151,
    152,
    153,
    154,
    155,
    156,
    157,
    158,
    159,
    160,
    161,
    162,
    163,
    164,
    165,
    166,
    167,
    168,
    169,
    170,
    171,
    172,
    173,
    174,
    175,
    176,
    177,
    178,
    179,
    180,
    181,
    182,
    183,
    184,
    185,
    186,
    187,
    188,
    189,
    190,
    191,
    192,
    193,
    194,
    195,
    196,
    197,
    198,
    199,
    200,
    201,
    202,
    203,
    204,
    205,
    206,
    207,
    208,
    209,
    210,
    211,
    212,
    213,
    214,
    215,
    216,
    217,
    218,
    219,
    220,
    221,
    222,
    223,
    224,
    225,
    226,
    227,
    228,
    229,
    230,
    231,
    232,
    233,
    234,
    235,
    236,
    237,
    238,
    239,
    240,
    241,
    242,
    243,
    244,
    245,
    246,
    247,
    248,
    249,
    250,
    251,
    252,
    253,
    254,
    255,
    256
   ],
   "AcquisitionTime": [
    "101029.775000",
    "101031.775000",
    "101033.775000",
    "101035.775000",
    "101037.775000",
    "101039.775000",
    "101041.775000",
    "101043.775000",
    "101045.775000",
    "101047.775000",
    "101049.775000",
    "101051.775000",
    "101053.775000",
    "101055.775000",
    "101057.775000",
    "101059.775000",
    "101101.775000",
    "101103.775000",
    "101105.775000",
    "101107.775000",
    "101109.775000",
    "101111.775000",
    "101113.775000",
    "101115.775000",
    "101117.775000",
    "101119.775000",
    "101121.775000",
    "101123.775000",
    "101125.775000",
    "101127.775000",
    "101129.775000",
    "101131.775000",
    "101133.775000",
    "101135.775000",
    "101137.775000",
    "101139.775000",
    "101141.775000",
    "101143.775000",
    "101145.775000",
    "101147.775000",
    "101149.775000",
    "101151.775000",
    "101153.775000",
    "101155.775000",
    "101157.775000",
    "101159.775000",
    "101201.775000",
    "101203.775000",
    "101205.775000",
    "101207.775000",
    "101209.775000",
    "101211.775000",
    "101213.775000",
    "101215.775000",
    "101217.775000",
    "101219.775000",
    "101221.775000",
    "101223.775000",
    "101225.775000",
    "101227.775000",
    "101229.775000",
    "101231.775000",
    "101233.775000",
    "101235.775000",
    "101237.775000",
    "101239.775000",
    "101241.775000",
    "101243.775000",
    "101245.775000",
    "101247.775000",
    "101249.775000",
    "101251.775000",
    "101253.775000",
    "101255.775000",
    "101257.775000",
    "101259.775000",
    "101301.775000",
    "101303.775000",
    "101305.775000",
    "101307.775000",
    "101309.775000",
    "101311.775000",
    "101313.775000",
    "101315.775000",
    "101317.775000",
    "101319.775000",
    "101321.775000",
    "101323.775000",
    "101325.775000",
    "101327.775000",
    "101329.775000",
    "101331.775000",
    "101333.775000",
    "101335.775000",
    "101337.775000",
    "101339.775000",
    "101341.775000",
    "101343.775000",
    "101345.775000",
    "101347.775000",
    "101349.775000",
    "101351.775000",
    "101353.775000",
    "101355.775000",
    "101357.775000",
    "101359.775000",
    "101401.775000",
    "101403.775000",
    "101405.775000",
    "101407.775000",
    "101409.775000",
    "101411.775000",
    "101413.775000",
    "101415.775000",
    "101417.775000",
    "101419.775000",
    "101421.775000",
    "101423.775000",
    "101425.775000",
    "101427.775000",
    "101429.775000",
    "101431.775000",
    "101433.775000",
    "101435.775000",
    "101437.775000",
    "101439.775000",
    "101441.775000",
    "101443.775000",
    "101445.775000",
    "101447.775000",
    "101449.775000",
    "101451.775000",
    "101453.775000",
    "101455.775000",
    "101457.775000",
    "101459.775000",
    "101501.775000",
    "101503.775000",
    "101505.775000",
    "101507.775000",
    "101509.775000",
    "101511.775000",
    "101513.775000",
    "101515.775000",
    "101517.775000",
    "101519.775000",
    "101521.775000",
    "101523.775000",
    "101525.775000",
    "101527.775000",
    "101529.775000",
    "101531.775000",
    "101533.775000",
    "101535.775000",
    "101537.775000",
    "101539.775000",
    "101541.775000",
    "101543.775000",
    "101545.775000",
    "101547.775000",
    "101549.775000",
    "101551.775000",
    "101553.775000",
    "101555.775000",
    "101557.775000",
    "101559.775000",
    "101601.775000",
    "101603.775000",
    "101605.775000",
    "101607.775000",
    "101609.775000",
    "101611.775000",
    "101613.775000",
    "101615.775000",
    "101617.775000",
    "101619.775000",
    "101621.775000",
    "101623.775000",
    "101625.775000",
    "101627.775000",
    "101629.775000",
    "101631.775000",
    "101633.775000",
    "101635.775000",
    "101637.775000",
    "101639.775000",
    "101641.775000",
    "101643.775000",
    "101645.775000",
    "101647.775000",
    "101649.775000",
    "101651.775000",
    "101653.775000",
    "101655.775000",
    "101657.775000",
    "101659.775000",
    "101701.775000",
    "101703.775000",
    "101705.775000",
    "101707.775000",
    "101709.775000",
    "101711.775000",
    "101713.775000",
    "101715.775000",
    "101717.775000",
    "101719.775000",
    "101721.775000",
    "101723.775000",
    "101725.775000",
    "101727.775000",
    "101729.775000",
    "101731.775000",
    "101733.775000",
    "101735.775000",
    "101737.775000",
    "101739.775000",
    "101741.775000",
    "101743.775000",
    "101745.775000",
    "101747.775000",
    "101749.775000",
    "101751.775000",
    "101753.775000",
    "101755.775000",
    "101757.775000",
    "101759.775000",
    "101801.775000",
    "101803.775000",
    "101805.775000",
    "101807.775000",
    "101809.775000",
    "101811.775000",
    "101813.775000",
    "101815.775000",
    "101817.775000",
    "101819.775000",
    "101821.775000",
    "101823.775000",
    "101825.775000",
    "101827.775000",
    "101829.775000",
    "101831.775000",
    "101833.775000",
    "101835.775000",
    "101837.775000",
    "101839.775000",
    "101841.775000",
    "101843.775000",
    "101845.775000",
    "101847.775000",
    "101849.775000",
    "101851.775000",
    "101853.775000",
    "101855.775000",
    "101857.775000",
    "101859.775000"
   ],
   "ContentTime": [
    "101032.775000",
    "101034.271000",
    "101036.271000",
    "101038.271000",
    "101040.272000",
    "101042.272000",
    "101044.271000",
    "101046.270000",
    "101048.270000",
    "101050.270000",
    "101052.270000",
    "101054.271000",
    "101056.271000",
    "101058.271000",
    "101100.272000",
    "101102.271000",
    "101104.270000",
    "101106.271000",
    "101108.271000",
    "101110.271000",
    "101112.272000",
    "101114.271000",
    "101116.271000",
    "101118.271000",
    "101120.272000",
    "101122.270000",
    "101124.270000",
    "101126.271000",
    "101128.271000",
    "101130.271000",
    "101132.272000",
    "101134.271000",
    "101136.271000",
    "101138.271000",
    "101140.271000",
    "101142.270000",
    "101144.271000",
    "101146.271000",
    "101148.271000",
    "101150.271000",
    "101152.271000",
    "101154.271000",
    "101156.271000",
    "101158.271000",
    "101200.270000",
    "101202.271000",
    "101204.272000",
    "101206.271000",
    "101208.272000",
    "101210.271000",
    "101212.271000",
    "101214.270000",
    "101216.270000",
    "101218.270000",
    "101220.271000",
    "101222.271000",
    "101224.271000",
    "101226.271000",
    "101228.272000",
    "101230.271000",
    "101232.270000",
    "101234.270000",
    "101236.271000",
    "101238.271000",
    "101240.272000",
    "101242.271000",
    "101244.271000",
    "101246.271000",
    "101248.272000",
    "101250.270000",
    "101252.271000",
    "101254.271000",
    "101256.271000",
    "101258.271000",
    "101300.272000",
    "101302.272000",
    "101304.271000",
    "101306.270000",
    "101308.270000",
    "101310.271000",
    "101312.270000",
    "101314.271000",
    "101316.272000",
    "101318.272000",
    "101320.272000",
    "101322.272000",
    "101324.271000",
    "101326.271000",
    "101328.271000",
    "101330.272000",
    "101332.272000",
    "101334.271000",
    "101336.271000",
    "101338.272000",
    "101340.272000",
    "101342.271000",
    "101344.270000",
    "101346.271000",
    "101348.271000",
    "101350.271000",
    "101352.271000",
    "101354.271000",
    "101356.271000",
    "101358.272000",
    "101400.270000",
    "101402.271000",
    "101404.271000",
    "101406.271000",
    "101408.272000",
    "101410.272000",
    "101412.271000",
    "101414.271000",
    "101416.270000",
    "101418.270000",
    "101420.270000",
    "101422.270000",
    "101424.271000",
    "101426.271000",
    "101428.271000",
    "101430.271000",
    "101432.271000",
    "101434.271000",
    "101436.271000",
    "101438.270000",
    "101440.271000",
    "101442.272000",
    "101444.271000",
    "101446.271000",
    "101448.271000",
    "101450.271000",
    "101452.270000",
    "101454.270000",
    "101456.284000",
    "101458.271000",
    "101500.271000",
    "101502.271000",
    "101504.271000",
    "101506.271000",
    "101508.272000",
    "101510.271000",
    "101512.271000",
    "101514.270000",
    "101516.271000",
    "101518.271000",
    "101520.271000",
    "101522.271000",
    "101524.272000",
    "101526.271000",
    "101528.271000",
    "101530.271000",
    "101532.270000",
    "101534.271000",
    "101536.271000",
    "101538.271000",
    "101540.272000",
    "101542.271000",
    "101544.271000",
    "101546.270000",
    "101548.271000",
    "101550.271000",
    "101552.272000",
    "101554.272000",
    "101556.272000",
    "101558.272000",
    "101600.271000",
    "101602.271000",
    "101604.270000",
    "101606.270000",
    "101608.272000",
    "101610.271000",
    "101612.271000",
    "101614.271000",
    "101616.271000",
    "101618.272000",
    "101620.270000",
    "101622.271000",
    "101624.271000",
    "101626.271000",
    "101628.272000",
    "101630.272000",
    "101632.271000",
    "101634.271000",
    "101636.270000",
    "101638.270000",
    "101640.271000",
    "101642.272000",
    "101644.272000",
    "101646.272000",
    "101648.272000",
    "101650.271000",
    "101652.272000",
    "101654.271000",
    "101656.270000",
    "101658.271000",
    "101700.272000",
    "101702.271000",
    "101704.272000",
    "101706.272000",
    "101708.272000",
    "101710.272000",
    "101712.271000",
    "101714.271000",
    "101716.271000",
    "101718.272000",
    "101720.274000",
    "101722.271000",
    "101724.271000",
    "101726.272000",
    "101728.271000",
    "101730.270000",
    "101732.270000",
    "101734.270000",
    "101736.271000",
    "101738.272000",
    "101740.271000",
    "101742.272000",
    "101744.271000",
    "101746.270000",
    "101748.271000",
    "101750.270000",
    "101752.272000",
    "101754.271000",
    "101756.272000",
    "101758.272000",
    "101800.271000",
    "101802.272000",
    "101804.271000",
    "101806.271000",
    "101808.271000",
    "101810.271000",
    "101812.271000",
    "101814.271000",
    "101816.271000",
    "101818.272000",
    "101820.271000",
    "101822.271000",
    "101824.270000",
    "101826.271000",
    "101828.271000",
    "101830.272000",
    "101832.272000",
    "101834.272000",
    "101836.271000",
    "101838.271000",
    "101840.270000",
    "101842.270000",
    "101844.270000",
    "101846.272000",
    "101848.272000",
    "101850.272000",
    "101852.272000",
    "101854.271000",
    "101856.270000",
    "101858.271000",
    "101900.270000",
    "101902.108000"
   ],
   "InstanceCreationTime": [
    "101032.775000",
    "101034.271000",
    "101036.271000",
    "101038.271000",
    "101040.272000",
    "101042.272000",
    "101044.271000",
    "101046.270000",
    "101048.270000",
    "101050.270000",
    "101052.270000",
    "101054.271000",
    "101056.271000",
    "101058.271000",
    "101100.272000",
    "101102.271000",
    "101104.270000",
    "101106.271000",
    "101108.271000",
    "101110.271000",
    "101112.272000",
    "101114.271000",
    "101116.271000",
    "101118.271000",
    "101120.272000",
    "101122.270000",
    "101124.270000",
    "101126.271000",
    "101128.271000",
    "101130.271000",
    "101132.272000",
    "101134.271000",
    "101136.271000",
    "101138.271000",
    "101140.271000",
    "101142.270000",
    "101144.271000",
    "101146.271000",
    "101148.271000",
    "101150.271000",
    "101152.271000",
    "101154.271000",
    "101156.271000",
    "101158.271000",
    "101200.270000",
    "101202.271000",
    "101204.272000",
    "101206.271000",
    "101208.272000",
    "101210.271000",
    "101212.271000",
    "101214.270000",
    "101216.270000",
    "101218.270000",
    "101220.271000",
    "101222.271000",
    "101224.271000",
    "101226.271000",
    "101228.272000",
    "101230.271000",
    "101232.270000",
    "101234.270000",
    "101236.271000",
    "101238.271000",
    "101240.272000",
    "101242.271000",
    "101244.271000",
    "101246.271000",
    "101248.272000",
    "101250.270000",
    "101252.271000",
    "101254.271000",
    "101256.271000",
    "101258.271000",
    "101300.272000",
    "101302.272000",
    "101304.271000",
    "101306.270000",
    "101308.270000",
    "101310.271000",
    "101312.270000",
    "101314.271000",
    "101316.272000",
    "101318.272000",
    "101320.272000",
    "101322.272000",
    "101324.271000",
    "101326.271000",
    "101328.271000",
    "101330.272000",
    "101332.272000",
    "101334.271000",
    "101336.271000",
    "101338.272000",
    "101340.272000",
    "101342.271000",
    "101344.270000",
    "101346.271000",
    "101348.271000",
    "101350.271000",
    "101352.271000",
    "101354.271000",
    "101356.271000",
    "101358.272000",
    "101400.270000",
    "101402.271000",
    "101404.271000",
    "101406.271000",
    "101408.272000",
    "101410.272000",
    "101412.271000",
    "101414.271000",
    "101416.270000",
    "101418.270000",
    "101420.270000",
    "101422.270000",
    "101424.271000",
    "101426.271000",
    "101428.271000",
    "101430.271000",
    "101432.271000",
    "101434.271000",
    "101436.271000",
    "101438.270000",
    "101440.271000",
    "101442.272000",
    "101444.271000",
    "101446.271000",
    "101448.271000",
    "101450.271000",
    "101452.270000",
    "101454.270000",
    "101456.284000",
    "101458.271000",
    "101500.271000",
    "101502.271000",
    "101504.271000",
    "101506.271000",
    "101508.272000",
    "101510.271000",
    "101512.271000",
    "101514.270000",
    "101516.271000",
    "101518.271000",
    "101520.271000",
    "101522.271000",
    "101524.272000",
    "101526.271000",
    "101528.271000",
    "101530.271000",
    "101532.270000",
    "101534.271000",
    "101536.271000",
    "101538.271000",
    "101540.272000",
    "101542.271000",
    "101544.271000",
    "101546.270000",
    "101548.271000",
    "101550.271000",
    "101552.272000",
    "101554.272000",
    "101556.272000",
    "101558.272000",
    "101600.271000",
    "101602.271000",
    "101604.270000",
    "101606.270000",
    "101608.272000",
    "101610.271000",
    "101612.271000",
    "101614.271000",
    "101616.271000",
    "101618.272000",
    "101620.270000",
    "101622.271000",
    "101624.271000",
    "101626.271000",
    "101628.272000",
    "101630.272000",
    "101632.271000",
    "101634.271000",
    "101636.270000",
    "101638.270000",
    "101640.271000",
    "101642.272000",
    "101644.272000",
    "101646.272000",
    "101648.272000",
    "101650.271000",
    "101652.272000",
    "101654.271000",
    "101656.270000",
    "101658.271000",
    "101700.272000",
    "101702.271000",
    "101704.272000",
    "101706.272000",
    "101708.272000",
    "101710.272000",
    "101712.271000",
    "101714.271000",
    "101716.271000",
    "101718.272000",
    "101720.274000",
    "101722.271000",
    "101724.271000",
    "101726.272000",
    "101728.271000",
    "101730.270000",
    "101732.270000",
    "101734.270000",
    "101736.271000",
    "101738.272000",
    "101740.271000",
    "101742.272000",
    "101744.271000",
    "101746.270000",
    "101748.271000",
    "101750.270000",
    "101752.272000",
    "101754.271000",
    "101756.272000",
    "101758.272000",
    "101800.271000",
    "101802.272000",
    "101804.271000",
    "101806.271000",
    "101808.271000",
    "101810.271000",
    "101812.271000",
    "101814.271000",
    "101816.271000",
    "101818.272000",
    "101820.271000",
    "101822.271000",
    "101824.270000",
    "101826.271000",
    "101828.271000",
    "101830.272000",
    "101832.272000",
    "101834.272000",
    "101836.271000",
    "101838.271000",
    "101840.270000",
    "101842.270000",
    "101844.270000",
    "101846.272000",
    "101848.272000",
    "101850.272000",
    "101852.272000",
    "101854.271000",
    "101856.270000",
    "101858.271000",
    "101900.270000",
    "101902.108000"
   ],
   "InstanceNumber": [
    1,
    2,
    3,
    4,
    5,
    6,
    7,
    8,
    9,
    10,
    11,
    12,
    13,
    14,
    15,
    16,
    17,
    18,
    19,
    20,
    21,
    22,
    23,
    24,
    25,
    26,
    27,
    28,
    29,
    30,
    31,
    32,
    33,
    34,
    35,
    36,
    37,
    38,
    39,
    40,
    41,
    42,
    43,
    44,
    45,
    46,
    47,
    48,
    49,
    50,
    51,
    52,
    53,
    54,
    55,
    56,
    57,
    58,
    59,
    60,
    61,
    62,
    63,
    64,
    65,
    66,
    67,
    68,
    69,
    70,
    71,
    72,
    73,
    74,
    75,
    76,
    77,
    78,
    79,
    80,
    81,
    82,
    83,
    84,
    85,
    86,
    87,
    88,
    89,
    90,
    91,
    92,
    93,
    94,
    95,
    96,
    97,
    98,
    99,
    100,
    101,
    102,
    103,
    104,
    105,
    106,
    107,
    108,
    109,
    110,
    111,
    112,
    113,
    114,
    115,
    116,
    117,
    118,
    119,
    120,
    121,
    122,
    123,
    124,
    125,
    126,
    127,
    128,
    129,
    130,
    131,
    132,
    133,
    134,
    135,
    136,
    137,
    138,
    139,
    140,
    141,
    142,
    143,
    144,
    145,
    146,
    147,
    148,
    149,
    150,
    151,
    152,
    153,
    154,
    155,
    156,
    157,
    158,
    159,
    160,
    161,
    162,
    163,
    164,
    165,
    166,
    167,
    168,
    169,
    170,
    171,
    172,
    173,
    174,
    175,
    176,
    177,
    178,
    179,
    180,
    181,
    182,
    183,
    184,
    185,
    186,
    187,
    188,
    189,
    190,
    191,
    192,
    193,
    194,
    195,
    196,
    197,
    198,
    199,
    200,
    201,
    202,
    203,
    204,
    205,
    206,
    207,
    208,
    209,
    210,
    211,
    212,
    213,
    214,
    215,
    216,
    217,
    218,
    219,
    220,
    221,
    222,
    223,
    224,
    225,
    226,
    227,
    228,
    229,
    230,
    231,
    232,
    233,
    234,
    235,
    236,
    237,
    238,
    239,
    240,
    241,
    242,
    243,
    244,
    245,
    246,
    247,
    248,
    249,
    250,
    251,
    252,
    253,
    254,
    255,
    256
   ],
   "LargestImagePixelValue": [
    3585,
    3584,
    3319,
    3431,
    3226,
    3670,
    3346,
    3643,
    3542,
    3377,
    3524,
    3670,
    3422,
    3506,
    3699,
    3515,
    3414,
    3491,
    3536,
    3517,
    3452,
    3702,
    3563,
    3489,
    3662,
    3469,
    3462,
    3530,
    3693,
    3707,
    3694,
    3491,
    3680,
    3545,
    3441,
    3720,
    3437,
    3648,
    3484,
    3292,
    3580,
    3625,
    3209,
    3388,
    3486,
    3402,
    3616,
    3635,
    3386,
    3332,
    3713,
    3528,
    3473,
    3674,
    3543,
    3473,
    3505,
    3578,
    3670,
    3763,
    3343,
    3492,
    3516,
    3655,
    3755,
    3422,
    3601,
    3559,
    3389,
    3670,
    3611,
    3441,
    3593,
    3380,
    3636,
    3557,
    3463,
    3655,
    3496,
    3773,
    3434,
    3482,
    3647,
    3496,
    3631,
    3458,
    3470,
    3573,
    3506,
    3315,
    3698,
    3814,
    3727,
    3439,
    3500,
    3429,
    3655,
    3402,
    3612,
    3364,
    3449,
    3487,
    3456,
    3823,
    3522,
    3701,
    3478,
    3723,
    3488,
    3395,
    3683,
    3548,
    3858,
    3516,
    3709,
    3580,
    3585,
    3655,
    3710,
    3481,
    3552,
    3637,
    3842,
    3625,
    3729,
    3497,
    3893,
    3515,
    3655,
    3475,
    3737,
    3369,
    3650,
    3450,
    3616,
    3562,
    3641,
    3484,
    3842,
    3476,
    3582,
    3749,
    3552,
    3681,
    3599,
    3843,
    3645,
    3602,
    3898,
    3528,
    3488,
    3968,
    3565,
    3507,
    3680,
    3577,
    3683,
    3321,
    3804,
    3424,
    3553,
    3735,
    3456,
    3255,
    3761,
    3446,
    3571,
    3942,
    3407,
    3956,
    3480,
    3627,
    3448,
    3670,
    3381,
    3866,
    3605,
    3564,
    3627,
    3427,
    3646,
    3574,
    3536,
    3444,
    3922,
    3310,
    3695,
    3356,
    3480,
    3547,
    3293,
    3601,
    3457,
    4095,
    3748,
    3662,
    3460,
    3529,
    3301,
    3595,
    4042,
    3495,
    3591,
    3622,
    3698,
    3431,
    3537,
    3598,
    3715,
    3574,
    3785,
    3663,
    3386,
    3781,
    3533,
    3582,
    3333,
    3943,
    3517,
    3385,
    3578,
    3756,
    3469,
    3524,
    3338,
    3587,
    3253,
    3551,
    3341,
    3857,
    3608,
    3615,
    3440,
    3447,
    3972,
    3540,
    3391,
    3335,
    3668,
    3428,
    3585,
    3454,
    3620,
    3387,
    3576,
    3392,
    3852,
    3638,
    3452,
    3595,
    3562,
    3573,
    3837,
    3532,
    3816,
    3605
   ],
   "WindowCenter": [
    849.0,
    847.0,
    845.0,
    846.0,
    844.0,
    847.0,
    845.0,
    846.0,
    845.0,
    844.0,
    845.0,
    847.0,
    845.0,
    846.0,
    847.0,
    845.0,
    844.0,
    845.0,
    845.0,
    845.0,
    844.0,
    846.0,
    844.0,
    843.0,
    845.0,
    844.0,
    844.0,
    844.0,
    846.0,
    846.0,
    845.0,
    843.0,
    844.0,
    843.0,
    843.0,
    845.0,
    843.0,
    843.0,
    842.0,
    841.0,
    844.0,
    845.0,
    842.0,
    843.0,
    844.0,
    842.0,
    843.0,
    844.0,
    843.0,
    843.0,
    845.0,
    843.0,
    842.0,
    843.0,
    843.0,
    842.0,
    843.0,
    844.0,
    845.0,
    846.0,
    843.0,
    844.0,
    844.0,
    846.0,
    847.0,
    844.0,
    844.0,
    845.0,
    844.0,
    844.0,
    844.0,
    843.0,
    844.0,
    842.0,
    844.0,
    843.0,
    842.0,
    844.0,
    843.0,
    844.0,
    843.0,
    844.0,
    845.0,
    843.0,
    843.0,
    841.0,
    843.0,
    843.0,
    844.0,
    842.0,
    843.0,
    844.0,
    844.0,
    842.0,
    843.0,
    843.0,
    845.0,
    843.0,
    843.0,
    842.0,
    843.0,
    844.0,
    845.0,
    847.0,
    844.0,
    845.0,
    844.0,
    846.0,
    844.0,
    844.0,
    846.0,
    846.0,
    847.0,
    845.0,
    846.0,
    844.0,
    844.0,
    844.0,
    844.0,
    844.0,
    846.0,
    847.0,
    847.0,
    846.0,
    846.0,
