{
 "AcquisitionMatrixPE": 100,
 "AcquisitionNumber": 1,
 "AcquisitionTime": "10:19:44.837500",
 "BandwidthPerPixelPhaseEncode": 18.519,
 "BaseResolution": 100,
 "BodyPartExamined": "BRAIN",
 "ConsistencyInfo": "N4_VE11C_LATEST_20160120",
 "ConversionSoftware": "dcm2niix",
 "ConversionSoftwareVersion": "v1.0.20180622 GCC4.9.2",
 "DerivedVendorReportedEchoSpacing": 0.000539986,
 "DeviceSerialNumber": "166078",
 "DwellTime": 2.1e-06,
 "EchoTime": 0.034,
 "EchoTrainLength": 100,
 "EffectiveEchoSpacing": 0.000539986,
 "FlipAngle": 90,
 "ImageOrientationPatientDICOM": [
  1,
  0,
  0,
  0,
  0.995396,
  -0.0958458
 ],
 "ImageType": [
  "ORIGINAL",
  "PRIMARY",
  "M",
  "ND",
  "MOSAIC"
 ],
 "InPlanePhaseEncodingDirectionDICOM": "COL",
 "InstitutionAddress": "Street_StreetNo_Bei_Jing_District_CN_ZIP",
 "InstitutionName": "BeiJing_Normal_University",
 "InstitutionalDepartmentName": "Department",
 "MRAcquisitionType": "2D",
 "MagneticFieldStrength": 3,
 "Manufacturer": "Siemens",
 "ManufacturersModelName": "Prisma",
 "Modality": "MR",
 "MultibandAccelerationFactor": 3,
 "PartialFourier": 1,
 "PatientPosition": "HFS",
 "PercentPhaseFOV": 100,
 "PhaseEncodingDirection": "j-",
 "PhaseEncodingSteps": 100,
 "PhaseResolution": 1,
 "PixelBandwidth": 2380,
 "ProcedureStepDescription": "BNU_P2018_64CH_Zhen.ZongLei",
 "ProtocolName": "bold_100x100_s3_2x2x2_static_256",
 "PulseSequenceDetails": "%SiemensSeq%_ep2d_bold",
 "ReceiveCoilActiveElements": "HC1-7;NC1",
 "ReceiveCoilName": "HeadNeck_64",
 "ReconMatrixPE": 100,
 "RepetitionTime": 2,
 "SAR": 0.0785448,
 "ScanOptions": "FS",
 "ScanningSequence": "EP",
 "SequenceName": "_epfid2d1_100",
 "SequenceVariant": "SK",
 "SeriesDescription": "bold_100x100_s3_2x2x2_static_256",
 "SeriesNumber": 12,
 "ShimSetting": [
  -5454,
  -11495,
  -1248,
  141,
  -61,
  -307,
  -206,
  57
 ],
 "SliceThickness": 2,
 "SliceTiming": [
  1.485,
  0,
  0.99,
  0.0825,
  1.0725,
  0.165,
  1.155,
  0.2475,
  1.2375,
  0.33,
  1.32,
  0.4125,
  1.4025,
  0.5775,
  1.5675,
  0.66,
  1.65,
  0.7425,
  1.7325,
  0.825,
  1.815,
  0.9075,
  1.8975,
  0.495,
  1.485,
  0,
  0.99,
  0.0825,
  1.0725,
  0.165,
  1.155,
  0.2475,
  1.2375,
  0.33,
  1.32,
  0.4125,
  1.4025,
  0.5775,
  1.5675,
  0.66,
  1.65,
  0.7425,
  1.7325,
  0.825,
  1.815,
  0.9075,
  1.8975,
  0.495,
  1.485,
  0,
  0.99,
  0.0825,
  1.0725,
  0.165,
  1.155,
  0.2475,
  1.2375,
  0.33,
  1.32,
  0.4125,
  1.4025,
  0.5775,
  1.5675,
  0.66,
  1.65,
  0.7425,
  1.7325,
  0.825,
  1.815,
  0.9075,
  1.8975,
  0.495
 ],
 "SoftwareVersions": "syngo_MR_E11",
 "SpacingBetweenSlices": 2,
 "StationName": "AWP166078",
 "TaskName": "imagenet",
 "TotalReadoutTime": 0.0534586,
 "TxRefAmp": 245.379,
 "dcmmeta_affine": [
  [
   -2.0,
   0.0,
   0.0,
   102.02409362792969
  ],
  [
   0.0,
   1.9907923936843872,
   -0.19169150292873383,
   -88.43534851074219
  ],
  [
   0.0,
   0.19169150292873383,
   1.9907923936843872,
   -78.96721649169922
  ],
  [
   0.0,
   0.0,
   0.0,
   1.0
  ]
 ],
 "dcmmeta_reorient_transform": [
  [
   0.0,
   -1.0,
   0.0,
   99.0
  ],
  [
   1.0,
   0.0,
   0.0,
   0.0
  ],
  [
   0.0,
   0.0,
   1.0,
   0.0
  ],
  [
   0.0,
   0.0,
   0.0,
   1.0
  ]
 ],
 "dcmmeta_shape": [
  100,
  100,
  72,
  256
 ],
 "dcmmeta_slice_dim": 2,
 "dcmmeta_version": 0.6,
 "global": {
  "const": {
   "AcquisitionMatrix": [
    100,
    0,
    0,
    100
   ],
   "AngioFlag": "N",
   "BitsAllocated": 16,
   "BitsStored": 12,
   "BodyPartExamined": "BRAIN",
   "Columns": 900,
   "EchoNumbers": 1,
   "EchoTime": 34.0,
   "EchoTrainLength": 100,
   "FlipAngle": 90.0,
   "HighBit": 11,
   "ImageOrientationPatient": [
    1.0,
    0.0,
    0.0,
    0.0,
    0.99539619816501,
    -0.0958457546198
   ],
   "ImagePositionPatient": [
    -902.02409648895,
    -904.97006082379,
    16.686845966907
   ],
   "ImageType": [
    "ORIGINAL",
    "PRIMARY",
    "M",
    "ND",
    "MOSAIC"
   ],
   "ImagedNucleus": "1H",
   "ImagingFrequency": 123.257773,
   "InPlanePhaseEncodingDirection": "COL",
   "MRAcquisitionType": "2D",
   "MagneticFieldStrength": 3.0,
   "Manufacturer": "SIEMENS",
   "ManufacturerModelName": "Prisma",
   "Modality": "MR",
   "NumberOfAverages": 1.0,
   "NumberOfPhaseEncodingSteps": 100,
   "PercentPhaseFieldOfView": 100.0,
   "PercentSampling": 100.0,
   "PerformedProcedureStepStartTime": "085838.769000",
   "PhotometricInterpretation": "MONOCHROME2",
   "PixelBandwidth": 2380.0,
   "PixelRepresentation": 0,
   "PixelSpacing": [
    2.0,
    2.0
   ],
   "ProtocolName": "bold_100x100_s3_2x2x2_static_256",
   "RepetitionTime": 2000.0,
   "Rows": 900,
   "SAR": 0.07854475701914,
   "SamplesPerPixel": 1,
   "ScanOptions": "FS",
   "ScanningSequence": "EP",
   "SequenceName": "*epfid2d1_100",
   "SequenceVariant": "SK",
   "SeriesDescription": "bold_100x100_s3_2x2x2_static_256",
   "SeriesNumber": 12,
   "SeriesTime": "101946.891000",
   "SliceLocation": -70.127515353163,
   "SliceThickness": 2.0,
   "SmallestImagePixelValue": 0,
   "SoftwareVersions": "syngo MR E11",
   "SpacingBetweenSlices": 1.9999999987347,
   "SpecificCharacterSet": "ISO_IR 100",
   "StudyID": "1",
   "StudyTime": "085838.642000",
   "TransmitCoilName": "Body",
   "VariableFlipAngleFlag": "N",
   "WindowCenterWidthExplanation": "Algo1",
   "dBdt": 0.0
  },
  "slices": {}
 },
 "time": {
  "samples": {
   "AcquisitionNumber": [
    1,
    2,
    3,
    4,
    5,
    6,
    7,
    8,
    9,
    10,
    11,
    12,
    13,
    14,
    15,
    16,
    17,
    18,
    19,
    20,
    21,
    22,
    23,
    24,
    25,
    26,
    27,
    28,
    29,
    30,
    31,
    32,
    33,
    34,
    35,
    36,
    37,
    38,
    39,
    40,
    41,
    42,
    43,
    44,
    45,
    46,
    47,
    48,
    49,
    50,
    51,
    52,
    53,
    54,
    55,
    56,
    57,
    58,
    59,
    60,
    61,
    62,
    63,
    64,
    65,
    66,
    67,
    68,
    69,
    70,
    71,
    72,
    73,
    74,
    75,
    76,
    77,
    78,
    79,
    80,
    81,
    82,
    83,
    84,
    85,
    86,
    87,
    88,
    89,
    90,
    91,
    92,
    93,
    94,
    95,
    96,
    97,
    98,
    99,
    100,
    101,
    102,
    103,
    104,
    105,
    106,
    107,
    108,
    109,
    110,
    111,
    112,
    113,
    114,
    115,
    116,
    117,
    118,
    119,
    120,
    121,
    122,
    123,
    124,
    125,
    126,
    127,
    128,
    129,
    130,
    131,
    132,
    133,
    134,
    135,
    136,
    137,
    138,
    139,
    140,
    141,
    142,
    143,
    144,
    145,
    146,
    147,
    148,
    149,
    150,
    151,
    152,
    153,
    154,
    155,
    156,
    157,
    158,
    159,
    160,
    161,
    162,
    163,
    164,
    165,
    166,
    167,
    168,
    169,
    170,
    171,
    172,
    173,
    174,
    175,
    176,
    177,
    178,
    179,
    180,
    181,
    182,
    183,
    184,
    185,
    186,
    187,
    188,
    189,
    190,
    191,
    192,
    193,
    194,
    195,
    196,
    197,
    198,
    199,
    200,
    201,
    202,
    203,
    204,
    205,
    206,
    207,
    208,
    209,
    210,
    211,
    212,
    213,
    214,
    215,
    216,
    217,
    218,
    219,
    220,
    221,
    222,
    223,
    224,
    225,
    226,
    227,
    228,
    229,
    230,
    231,
    232,
    233,
    234,
    235,
    236,
    237,
    238,
    239,
    240,
    241,
    242,
    243,
    244,
    245,
    246,
    247,
    248,
    249,
    250,
    251,
    252,
    253,
    254,
    255,
    256
   ],
   "AcquisitionTime": [
    "101944.837500",
    "101946.837500",
    "101948.837500",
    "101950.837500",
    "101952.837500",
    "101954.837500",
    "101956.837500",
    "101958.837500",
    "102000.837500",
    "102002.837500",
    "102004.837500",
    "102006.837500",
    "102008.837500",
    "102010.837500",
    "102012.837500",
    "102014.837500",
    "102016.837500",
    "102018.837500",
    "102020.837500",
    "102022.837500",
    "102024.837500",
    "102026.837500",
    "102028.837500",
    "102030.837500",
    "102032.837500",
    "102034.837500",
    "102036.837500",
    "102038.837500",
    "102040.837500",
    "102042.837500",
    "102044.837500",
    "102046.837500",
    "102048.837500",
    "102050.837500",
    "102052.837500",
    "102054.837500",
    "102056.837500",
    "102058.837500",
    "102100.837500",
    "102102.837500",
    "102104.837500",
    "102106.837500",
    "102108.837500",
    "102110.837500",
    "102112.837500",
    "102114.837500",
    "102116.837500",
    "102118.837500",
    "102120.837500",
    "102122.837500",
    "102124.837500",
    "102126.837500",
    "102128.837500",
    "102130.837500",
    "102132.837500",
    "102134.837500",
    "102136.837500",
    "102138.837500",
    "102140.837500",
    "102142.837500",
    "102144.837500",
    "102146.837500",
    "102148.837500",
    "102150.837500",
    "102152.837500",
    "102154.837500",
    "102156.837500",
    "102158.837500",
    "102200.837500",
    "102202.837500",
    "102204.837500",
    "102206.837500",
    "102208.837500",
    "102210.837500",
    "102212.837500",
    "102214.837500",
    "102216.837500",
    "102218.837500",
    "102220.837500",
    "102222.837500",
    "102224.837500",
    "102226.837500",
    "102228.837500",
    "102230.837500",
    "102232.837500",
    "102234.837500",
    "102236.837500",
    "102238.837500",
    "102240.837500",
    "102242.837500",
    "102244.837500",
    "102246.837500",
    "102248.837500",
    "102250.837500",
    "102252.837500",
    "102254.837500",
    "102256.837500",
    "102258.837500",
    "102300.837500",
    "102302.837500",
    "102304.837500",
    "102306.837500",
    "102308.837500",
    "102310.837500",
    "102312.837500",
    "102314.837500",
    "102316.837500",
    "102318.837500",
    "102320.837500",
    "102322.837500",
    "102324.837500",
    "102326.837500",
    "102328.837500",
    "102330.837500",
    "102332.837500",
    "102334.837500",
    "102336.837500",
    "102338.837500",
    "102340.837500",
    "102342.837500",
    "102344.837500",
    "102346.837500",
    "102348.837500",
    "102350.837500",
    "102352.837500",
    "102354.837500",
    "102356.837500",
    "102358.837500",
    "102400.837500",
    "102402.837500",
    "102404.837500",
    "102406.837500",
    "102408.837500",
    "102410.837500",
    "102412.837500",
    "102414.837500",
    "102416.837500",
    "102418.837500",
    "102420.837500",
    "102422.837500",
    "102424.837500",
    "102426.837500",
    "102428.837500",
    "102430.837500",
    "102432.837500",
    "102434.837500",
    "102436.837500",
    "102438.837500",
    "102440.837500",
    "102442.837500",
    "102444.837500",
    "102446.837500",
    "102448.837500",
    "102450.837500",
    "102452.837500",
    "102454.837500",
    "102456.837500",
    "102458.837500",
    "102500.837500",
    "102502.837500",
    "102504.837500",
    "102506.837500",
    "102508.837500",
    "102510.837500",
    "102512.837500",
    "102514.837500",
    "102516.837500",
    "102518.837500",
    "102520.837500",
    "102522.837500",
    "102524.837500",
    "102526.837500",
    "102528.837500",
    "102530.837500",
    "102532.837500",
    "102534.837500",
    "102536.837500",
    "102538.837500",
    "102540.837500",
    "102542.837500",
    "102544.837500",
    "102546.837500",
    "102548.837500",
    "102550.837500",
    "102552.837500",
    "102554.837500",
    "102556.837500",
    "102558.837500",
    "102600.837500",
    "102602.837500",
    "102604.837500",
    "102606.837500",
    "102608.837500",
    "102610.837500",
    "102612.837500",
    "102614.837500",
    "102616.837500",
    "102618.837500",
    "102620.837500",
    "102622.837500",
    "102624.837500",
    "102626.837500",
    "102628.837500",
    "102630.837500",
    "102632.837500",
    "102634.837500",
    "102636.837500",
    "102638.837500",
    "102640.837500",
    "102642.837500",
    "102644.837500",
    "102646.837500",
    "102648.837500",
    "102650.837500",
    "102652.837500",
    "102654.837500",
    "102656.837500",
    "102658.837500",
    "102700.837500",
    "102702.837500",
    "102704.837500",
    "102706.837500",
    "102708.837500",
    "102710.837500",
    "102712.837500",
    "102714.837500",
    "102716.837500",
    "102718.837500",
    "102720.837500",
    "102722.837500",
    "102724.837500",
    "102726.837500",
    "102728.837500",
    "102730.837500",
    "102732.837500",
    "102734.837500",
    "102736.837500",
    "102738.837500",
    "102740.837500",
    "102742.837500",
    "102744.837500",
    "102746.837500",
    "102748.837500",
    "102750.837500",
    "102752.837500",
    "102754.837500",
    "102756.837500",
    "102758.837500",
    "102800.837500",
    "102802.837500",
    "102804.837500",
    "102806.837500",
    "102808.837500",
    "102810.837500",
    "102812.837500",
    "102814.837500"
   ],
   "ContentTime": [
    "101946.894000",
    "101948.389000",
    "101950.390000",
    "101952.389000",
    "101954.389000",
    "101956.389000",
    "101958.389000",
    "102000.389000",
    "102002.389000",
    "102004.389000",
    "102006.389000",
    "102008.389000",
    "102010.389000",
    "102012.390000",
    "102014.389000",
    "102016.390000",
    "102018.390000",
    "102020.390000",
    "102022.389000",
    "102024.389000",
    "102026.389000",
    "102028.389000",
    "102030.390000",
    "102032.390000",
    "102034.390000",
    "102036.390000",
    "102038.389000",
    "102040.390000",
    "102042.389000",
    "102044.389000",
    "102046.390000",
    "102048.389000",
    "102050.390000",
    "102052.390000",
    "102054.390000",
    "102056.390000",
    "102058.389000",
    "102100.389000",
    "102102.390000",
    "102104.389000",
    "102106.389000",
    "102108.389000",
    "102110.390000",
    "102112.390000",
    "102114.389000",
    "102116.389000",
    "102118.390000",
    "102120.389000",
    "102122.391000",
    "102124.390000",
    "102126.390000",
    "102128.389000",
    "102130.390000",
    "102132.390000",
    "102134.389000",
    "102136.389000",
    "102138.390000",
    "102140.391000",
    "102142.390000",
    "102144.389000",
    "102146.390000",
    "102148.390000",
    "102150.389000",
    "102152.389000",
    "102154.390000",
    "102156.390000",
    "102158.389000",
    "102200.389000",
    "102202.390000",
    "102204.390000",
    "102206.389000",
    "102208.390000",
    "102210.389000",
    "102212.389000",
    "102214.389000",
    "102216.390000",
    "102218.389000",
    "102220.389000",
    "102222.390000",
    "102224.390000",
    "102226.389000",
    "102228.390000",
    "102230.389000",
    "102232.390000",
    "102234.390000",
    "102236.390000",
    "102238.389000",
    "102240.389000",
    "102242.390000",
    "102244.390000",
    "102246.390000",
    "102248.389000",
    "102250.390000",
    "102252.390000",
    "102254.389000",
    "102256.389000",
    "102258.389000",
    "102300.390000",
    "102302.389000",
    "102304.390000",
    "102306.389000",
    "102308.389000",
    "102310.389000",
    "102312.390000",
    "102314.389000",
    "102316.390000",
    "102318.389000",
    "102320.390000",
    "102322.390000",
    "102324.390000",
    "102326.390000",
    "102328.390000",
    "102330.390000",
    "102332.390000",
    "102334.390000",
    "102336.390000",
    "102338.390000",
    "102340.389000",
    "102342.390000",
    "102344.389000",
    "102346.389000",
    "102348.390000",
    "102350.390000",
    "102352.389000",
    "102354.390000",
    "102356.390000",
    "102358.389000",
    "102400.391000",
    "102402.389000",
    "102404.390000",
    "102406.389000",
    "102408.390000",
    "102410.390000",
    "102412.389000",
    "102414.390000",
    "102416.389000",
    "102418.390000",
    "102420.390000",
    "102422.390000",
    "102424.390000",
    "102426.390000",
    "102428.389000",
    "102430.389000",
    "102432.390000",
    "102434.390000",
    "102436.390000",
    "102438.390000",
    "102440.390000",
    "102442.390000",
    "102444.889000",
    "102446.389000",
    "102448.390000",
    "102450.390000",
    "102452.390000",
    "102454.396000",
    "102456.390000",
    "102458.389000",
    "102500.390000",
    "102502.389000",
    "102504.390000",
    "102506.390000",
    "102508.390000",
    "102510.390000",
    "102512.389000",
    "102514.390000",
    "102516.390000",
    "102518.389000",
    "102520.390000",
    "102522.390000",
    "102524.390000",
    "102526.389000",
    "102528.389000",
    "102530.389000",
    "102532.390000",
    "102534.390000",
    "102536.390000",
    "102538.390000",
    "102540.390000",
    "102542.390000",
    "102544.390000",
    "102546.389000",
    "102548.389000",
    "102550.390000",
    "102552.390000",
    "102554.389000",
    "102556.389000",
    "102558.390000",
    "102600.389000",
    "102602.390000",
    "102604.389000",
    "102606.389000",
    "102608.389000",
    "102610.390000",
    "102612.390000",
    "102614.389000",
    "102616.390000",
    "102618.390000",
    "102620.391000",
    "102622.390000",
    "102624.390000",
    "102626.390000",
    "102628.390000",
    "102630.390000",
    "102632.389000",
    "102634.389000",
    "102636.390000",
    "102638.390000",
    "102640.390000",
    "102642.390000",
    "102644.890000",
    "102646.389000",
    "102648.390000",
    "102650.389000",
    "102652.389000",
    "102654.391000",
    "102656.390000",
    "102658.389000",
    "102700.389000",
    "102702.390000",
    "102704.390000",
    "102706.390000",
    "102708.390000",
    "102710.390000",
    "102712.391000",
    "102714.389000",
    "102716.389000",
    "102718.389000",
    "102720.390000",
    "102722.389000",
    "102724.390000",
    "102726.390000",
    "102728.389000",
    "102730.390000",
    "102732.389000",
    "102734.390000",
    "102736.390000",
    "102738.389000",
    "102740.389000",
    "102742.390000",
    "102744.390000",
    "102746.389000",
    "102748.390000",
    "102750.390000",
    "102752.390000",
    "102754.390000",
    "102756.390000",
    "102758.390000",
    "102800.389000",
    "102802.389000",
    "102804.391000",
    "102806.389000",
    "102808.390000",
    "102810.390000",
    "102812.390000",
    "102814.389000",
    "102816.254000"
   ],
   "InstanceCreationTime": [
    "101946.894000",
    "101948.389000",
    "101950.390000",
    "101952.389000",
    "101954.389000",
    "101956.389000",
    "101958.389000",
    "102000.389000",
    "102002.389000",
    "102004.389000",
    "102006.389000",
    "102008.389000",
    "102010.389000",
    "102012.390000",
    "102014.389000",
    "102016.390000",
    "102018.390000",
    "102020.390000",
    "102022.389000",
    "102024.389000",
    "102026.389000",
    "102028.389000",
    "102030.390000",
    "102032.390000",
    "102034.390000",
    "102036.390000",
    "102038.389000",
    "102040.390000",
    "102042.389000",
    "102044.389000",
    "102046.390000",
    "102048.389000",
    "102050.390000",
    "102052.390000",
    "102054.390000",
    "102056.390000",
    "102058.389000",
    "102100.389000",
    "102102.390000",
    "102104.389000",
    "102106.389000",
    "102108.389000",
    "102110.390000",
    "102112.390000",
    "102114.389000",
    "102116.389000",
    "102118.390000",
    "102120.389000",
    "102122.391000",
    "102124.390000",
    "102126.390000",
    "102128.389000",
    "102130.390000",
    "102132.390000",
    "102134.389000",
    "102136.389000",
    "102138.390000",
    "102140.391000",
    "102142.390000",
    "102144.389000",
    "102146.390000",
    "102148.390000",
    "102150.389000",
    "102152.389000",
    "102154.390000",
    "102156.390000",
    "102158.389000",
    "102200.389000",
    "102202.390000",
    "102204.390000",
    "102206.389000",
    "102208.390000",
    "102210.389000",
    "102212.389000",
    "102214.389000",
    "102216.390000",
    "102218.389000",
    "102220.389000",
    "102222.390000",
    "102224.390000",
    "102226.389000",
    "102228.390000",
    "102230.389000",
    "102232.390000",
    "102234.390000",
    "102236.390000",
    "102238.389000",
    "102240.389000",
    "102242.390000",
    "102244.390000",
    "102246.390000",
    "102248.389000",
    "102250.390000",
    "102252.390000",
    "102254.389000",
    "102256.389000",
    "102258.389000",
    "102300.390000",
    "102302.389000",
    "102304.390000",
    "102306.389000",
    "102308.389000",
    "102310.389000",
    "102312.390000",
    "102314.389000",
    "102316.390000",
    "102318.389000",
    "102320.390000",
    "102322.390000",
    "102324.390000",
    "102326.390000",
    "102328.390000",
    "102330.390000",
    "102332.390000",
    "102334.390000",
    "102336.390000",
    "102338.390000",
    "102340.389000",
    "102342.390000",
    "102344.389000",
    "102346.389000",
    "102348.390000",
    "102350.390000",
    "102352.389000",
    "102354.390000",
    "102356.390000",
    "102358.389000",
    "102400.391000",
    "102402.389000",
    "102404.390000",
    "102406.389000",
    "102408.390000",
    "102410.390000",
    "102412.389000",
    "102414.390000",
    "102416.389000",
    "102418.390000",
    "102420.390000",
    "102422.390000",
    "102424.390000",
    "102426.390000",
    "102428.389000",
    "102430.389000",
    "102432.390000",
    "102434.390000",
    "102436.390000",
    "102438.390000",
    "102440.390000",
    "102442.390000",
    "102444.889000",
    "102446.389000",
    "102448.390000",
    "102450.390000",
    "102452.390000",
    "102454.396000",
    "102456.390000",
    "102458.389000",
    "102500.390000",
    "102502.389000",
    "102504.390000",
    "102506.390000",
    "102508.390000",
    "102510.390000",
    "102512.389000",
    "102514.390000",
    "102516.390000",
    "102518.389000",
    "102520.390000",
    "102522.390000",
    "102524.390000",
    "102526.389000",
    "102528.389000",
    "102530.389000",
    "102532.390000",
    "102534.390000",
    "102536.390000",
    "102538.390000",
    "102540.390000",
    "102542.390000",
    "102544.390000",
    "102546.389000",
    "102548.389000",
    "102550.390000",
    "102552.390000",
    "102554.389000",
    "102556.389000",
    "102558.390000",
    "102600.389000",
    "102602.390000",
    "102604.389000",
    "102606.389000",
    "102608.389000",
    "102610.390000",
    "102612.390000",
    "102614.389000",
    "102616.390000",
    "102618.390000",
    "102620.391000",
    "102622.390000",
    "102624.390000",
    "102626.390000",
    "102628.390000",
    "102630.390000",
    "102632.389000",
    "102634.389000",
    "102636.390000",
    "102638.390000",
    "102640.390000",
    "102642.390000",
    "102644.890000",
    "102646.389000",
    "102648.390000",
    "102650.389000",
    "102652.389000",
    "102654.391000",
    "102656.390000",
    "102658.389000",
    "102700.389000",
    "102702.390000",
    "102704.390000",
    "102706.390000",
    "102708.390000",
    "102710.390000",
    "102712.391000",
    "102714.389000",
    "102716.389000",
    "102718.389000",
    "102720.390000",
    "102722.389000",
    "102724.390000",
    "102726.390000",
    "102728.389000",
    "102730.390000",
    "102732.389000",
    "102734.390000",
    "102736.390000",
    "102738.389000",
    "102740.389000",
    "102742.390000",
    "102744.390000",
    "102746.389000",
    "102748.390000",
    "102750.390000",
    "102752.390000",
    "102754.390000",
    "102756.390000",
    "102758.390000",
    "102800.389000",
    "102802.389000",
    "102804.391000",
    "102806.389000",
    "102808.390000",
    "102810.390000",
    "102812.390000",
    "102814.389000",
    "102816.254000"
   ],
   "InstanceNumber": [
    1,
    2,
    3,
    4,
    5,
    6,
    7,
    8,
    9,
    10,
    11,
    12,
    13,
    14,
    15,
    16,
    17,
    18,
    19,
    20,
    21,
    22,
    23,
    24,
    25,
    26,
    27,
    28,
    29,
    30,
    31,
    32,
    33,
    34,
    35,
    36,
    37,
    38,
    39,
    40,
    41,
    42,
    43,
    44,
    45,
    46,
    47,
    48,
    49,
    50,
    51,
    52,
    53,
    54,
    55,
    56,
    57,
    58,
    59,
    60,
    61,
    62,
    63,
    64,
    65,
    66,
    67,
    68,
    69,
    70,
    71,
    72,
    73,
    74,
    75,
    76,
    77,
    78,
    79,
    80,
    81,
    82,
    83,
    84,
    85,
    86,
    87,
    88,
    89,
    90,
    91,
    92,
    93,
    94,
    95,
    96,
    97,
    98,
    99,
    100,
    101,
    102,
    103,
    104,
    105,
    106,
    107,
    108,
    109,
    110,
    111,
    112,
    113,
    114,
    115,
    116,
    117,
    118,
    119,
    120,
    121,
    122,
    123,
    124,
    125,
    126,
    127,
    128,
    129,
    130,
    131,
    132,
    133,
    134,
    135,
    136,
    137,
    138,
    139,
    140,
    141,
    142,
    143,
    144,
    145,
    146,
    147,
    148,
    149,
    150,
    151,
    152,
    153,
    154,
    155,
    156,
    157,
    158,
    159,
    160,
    161,
    162,
    163,
    164,
    165,
    166,
    167,
    168,
    169,
    170,
    171,
    172,
    173,
    174,
    175,
    176,
    177,
    178,
    179,
    180,
    181,
    182,
    183,
    184,
    185,
    186,
    187,
    188,
    189,
    190,
    191,
    192,
    193,
    194,
    195,
    196,
    197,
    198,
    199,
    200,
    201,
    202,
    203,
    204,
    205,
    206,
    207,
    208,
    209,
    210,
    211,
    212,
    213,
    214,
    215,
    216,
    217,
    218,
    219,
    220,
    221,
    222,
    223,
    224,
    225,
    226,
    227,
    228,
    229,
    230,
    231,
    232,
    233,
    234,
    235,
    236,
    237,
    238,
    239,
    240,
    241,
    242,
    243,
    244,
    245,
    246,
    247,
    248,
    249,
    250,
    251,
    252,
    253,
    254,
    255,
    256
   ],
   "LargestImagePixelValue": [
    3866,
    3851,
    3612,
    4095,
    3702,
    3905,
    3831,
    3721,
    4016,
    3864,
    3714,
    3815,
    3663,
    3757,
    3573,
    3764,
    3902,
    3791,
    3883,
    3732,
    3848,
    4095,
    3838,
    3900,
    3748,
    4094,
    3894,
    3816,
    3817,
    3779,
    3929,
    3905,
    4015,
    3793,
    3858,
    3782,
    3941,
    3741,
    3764,
    3831,
    3813,
    3742,
    3892,
    3710,
    3817,
    3694,
    3745,
    3653,
    3715,
    3740,
    3569,
    3858,
    3716,
    3718,
    3804,
    3685,
    3552,
    3704,
    3653,
    3698,
    3754,
    3635,
    3689,
    3729,
    3654,
    3743,
    3981,
    3738,
    3644,
    3771,
    3783,
    3698,
    3786,
    3675,
    3646,
    3871,
    3718,
    3575,
    3710,
    3703,
    3605,
    3510,
    3625,
    3598,
    3831,
    3548,
    3674,
    3361,
    3634,
    3657,
    3491,
    3664,
    3456,
    3595,
    3666,
    3644,
    3705,
    3591,
    3731,
    3629,
    3730,
    3630,
    3591,
    3651,
    3605,
    3598,
    3604,
    3583,
    3606,
    3589,
    3580,
    3648,
    3892,
    3690,
    3487,
    3475,
    3500,
    3575,
    3542,
    3475,
    3467,
    3395,
    3583,
    3496,
    3527,
    3497,
    3540,
    3275,
    3790,
    3437,
    3836,
    3536,
    3574,
    3476,
    3615,
    3455,
    3593,
    3557,
    3567,
    3481,
    3564,
    3330,
    3710,
    3497,
    3395,
    3638,
    3628,
    3629,
    3489,
    3550,
    3648,
    3416,
    3630,
    3431,
    3286,
    3267,
    3501,
    3487,
    3521,
    3252,
    3228,
    3226,
    3542,
    3253,
    3554,
    3444,
    3478,
    3453,
    3480,
    3587,
    3366,
    3579,
    3553,
    3393,
    3519,
    3345,
    3509,
    3296,
    3494,
    3301,
    3524,
    3385,
    3454,
    3474,
    3569,
    3455,
    3620,
    3358,
    3518,
    3302,
    3665,
    3244,
    3294,
    3730,
    3406,
    3493,
    3332,
    3516,
    3268,
    3647,
    3315,
    3321,
    3766,
    3457,
    3403,
    3719,
    3445,
    3489,
    3321,
    3426,
    3377,
    3801,
    3491,
    3363,
    3511,
    3391,
    3741,
    3366,
    3513,
    3596,
    3435,
    3543,
    3573,
    3235,
    3331,
    3338,
    3659,
    3518,
    3507,
    3410,
    3497,
    3675,
    3616,
    3475,
    3495,
    3428,
    3588,
    3426,
    3504,
    3430,
    3512,
    3401,
    3530,
    3545,
    3499,
    3387,
    3727,
    3393,
    3480,
    3675,
    3458,
    3457,
    3566,
    3441,
    3326,
    3612
   ],
   "WindowCenter": [
    850.0,
    848.0,
    847.0,
    850.0,
    848.0,
    848.0,
    847.0,
    846.0,
    847.0,
    845.0,
    845.0,
    845.0,
    844.0,
    844.0,
    844.0,
    845.0,
    846.0,
    844.0,
    843.0,
    842.0,
    843.0,
    845.0,
    844.0,
    845.0,
    845.0,
    847.0,
    846.0,
    844.0,
    843.0,
    842.0,
    843.0,
    844.0,
    844.0,
    843.0,
    843.0,
    843.0,
    845.0,
    845.0,
    845.0,
    845.0,
    843.0,
    841.0,
    842.0,
    841.0,
    842.0,
    842.0,
    843.0,
    842.0,
    843.0,
    845.0,
    845.0,
    844.0,
    843.0,
    842.0,
    842.0,
    841.0,
    840.0,
    842.0,
    841.0,
    842.0,
    842.0,
    842.0,
    843.0,
    844.0,
    843.0,
    843.0,
    845.0,
    845.0,
    845.0,
    843.0,
    843.0,
    843.0,
    844.0,
    843.0,
    842.0,
    845.0,
    844.0,
    843.0,
    844.0,
    844.0,
    841.0,
    841.0,
    842.0,
    841.0,
    843.0,
    841.0,
    842.0,
    840.0,
    842.0,
    841.0,
    839.0,
    840.0,
    839.0,
    839.0,
    840.0,
    840.0,
    842.0,
    842.0,
    842.0,
    842.0,
    842.0,
    842.0,
    842.0,
    843.0,
    842.0,
    842.0,
    843.0,
    845.0,
    845.0,
    844.0,
    843.0,
    842.0,
    842.0,
    842.0,
    842.0,
    842.0,
    841.0,
    841.0,
    841.0,
    841.0,
    839.0,
    840.0,
    841.0,
    840.0,
