{
 "AcquisitionMatrixPE": 100,
 "AcquisitionNumber": 1,
 "AcquisitionTime": "09:09:41.872500",
 "BandwidthPerPixelPhaseEncode": 18.519,
 "BaseResolution": 100,
 "BodyPartExamined": "BRAIN",
 "ConsistencyInfo": "N4_VE11C_LATEST_20160120",
 "ConversionSoftware": "dcm2niix",
 "ConversionSoftwareVersion": "v1.0.20180622 GCC4.9.2",
 "DerivedVendorReportedEchoSpacing": 0.000539986,
 "DeviceSerialNumber": "166078",
 "DwellTime": 2.1e-06,
 "EchoTime": 0.034,
 "EchoTrainLength": 100,
 "EffectiveEchoSpacing": 0.000539986,
 "FlipAngle": 90,
 "ImageOrientationPatientDICOM": [
  1,
  0,
  0,
  0,
  0.995396,
  -0.0958458
 ],
 "ImageType": [
  "ORIGINAL",
  "PRIMARY",
  "M",
  "ND",
  "MOSAIC"
 ],
 "InPlanePhaseEncodingDirectionDICOM": "COL",
 "InstitutionAddress": "Street_StreetNo_Bei_Jing_District_CN_ZIP",
 "InstitutionName": "BeiJing_Normal_University",
 "InstitutionalDepartmentName": "Department",
 "MRAcquisitionType": "2D",
 "MagneticFieldStrength": 3,
 "Manufacturer": "Siemens",
 "ManufacturersModelName": "Prisma",
 "Modality": "MR",
 "MultibandAccelerationFactor": 3,
 "PartialFourier": 1,
 "PatientPosition": "HFS",
 "PercentPhaseFOV": 100,
 "PhaseEncodingDirection": "j-",
 "PhaseEncodingSteps": 100,
 "PhaseResolution": 1,
 "PixelBandwidth": 2380,
 "ProcedureStepDescription": "BNU_P2018_64CH_Zhen.ZongLei",
 "ProtocolName": "bold_100x100_s3_2x2x2_static_256",
 "PulseSequenceDetails": "%SiemensSeq%_ep2d_bold",
 "ReceiveCoilActiveElements": "HC1-7;NC1",
 "ReceiveCoilName": "HeadNeck_64",
 "ReconMatrixPE": 100,
 "RepetitionTime": 2,
 "SAR": 0.0785448,
 "ScanOptions": "FS",
 "ScanningSequence": "EP",
 "SequenceName": "_epfid2d1_100",
 "SequenceVariant": "SK",
 "SeriesDescription": "bold_100x100_s3_2x2x2_static_256",
 "SeriesNumber": 3,
 "ShimSetting": [
  -5454,
  -11495,
  -1248,
  141,
  -61,
  -307,
  -206,
  57
 ],
 "SliceThickness": 2,
 "SliceTiming": [
  1.485,
  0,
  0.99,
  0.0825,
  1.0725,
  0.165,
  1.155,
  0.2475,
  1.2375,
  0.33,
  1.32,
  0.4125,
  1.4025,
  0.5775,
  1.5675,
  0.66,
  1.65,
  0.7425,
  1.7325,
  0.825,
  1.815,
  0.9075,
  1.8975,
  0.495,
  1.485,
  0,
  0.99,
  0.0825,
  1.0725,
  0.165,
  1.155,
  0.2475,
  1.2375,
  0.33,
  1.32,
  0.4125,
  1.4025,
  0.5775,
  1.5675,
  0.66,
  1.65,
  0.7425,
  1.7325,
  0.825,
  1.815,
  0.9075,
  1.8975,
  0.495,
  1.485,
  0,
  0.99,
  0.0825,
  1.0725,
  0.165,
  1.155,
  0.2475,
  1.2375,
  0.33,
  1.32,
  0.4125,
  1.4025,
  0.5775,
  1.5675,
  0.66,
  1.65,
  0.7425,
  1.7325,
  0.825,
  1.815,
  0.9075,
  1.8975,
  0.495
 ],
 "SoftwareVersions": "syngo_MR_E11",
 "SpacingBetweenSlices": 2,
 "StationName": "AWP166078",
 "TaskName": "imagenet",
 "TotalReadoutTime": 0.0534586,
 "TxRefAmp": 245.379,
 "dcmmeta_affine": [
  [
   -2.0,
   0.0,
   0.0,
   102.02409362792969
  ],
  [
   0.0,
   1.9907923936843872,
   -0.19169150292873383,
   -88.43534851074219
  ],
  [
   0.0,
   0.19169150292873383,
   1.9907923936843872,
   -78.96721649169922
  ],
  [
   0.0,
   0.0,
   0.0,
   1.0
  ]
 ],
 "dcmmeta_reorient_transform": [
  [
   0.0,
   -1.0,
   0.0,
   99.0
  ],
  [
   1.0,
   0.0,
   0.0,
   0.0
  ],
  [
   0.0,
   0.0,
   1.0,
   0.0
  ],
  [
   0.0,
   0.0,
   0.0,
   1.0
  ]
 ],
 "dcmmeta_shape": [
  100,
  100,
  72,
  256
 ],
 "dcmmeta_slice_dim": 2,
 "dcmmeta_version": 0.6,
 "global": {
  "const": {
   "AcquisitionMatrix": [
    100,
    0,
    0,
    100
   ],
   "AngioFlag": "N",
   "BitsAllocated": 16,
   "BitsStored": 12,
   "BodyPartExamined": "BRAIN",
   "Columns": 900,
   "EchoNumbers": 1,
   "EchoTime": 34.0,
   "EchoTrainLength": 100,
   "FlipAngle": 90.0,
   "HighBit": 11,
   "ImageOrientationPatient": [
    1.0,
    0.0,
    0.0,
    0.0,
    0.99539619816501,
    -0.0958457546198
   ],
   "ImagePositionPatient": [
    -902.02409648895,
    -904.97006082379,
    16.686845966907
   ],
   "ImageType": [
    "ORIGINAL",
    "PRIMARY",
    "M",
    "ND",
    "MOSAIC"
   ],
   "ImagedNucleus": "1H",
   "ImagingFrequency": 123.257742,
   "InPlanePhaseEncodingDirection": "COL",
   "MRAcquisitionType": "2D",
   "MagneticFieldStrength": 3.0,
   "Manufacturer": "SIEMENS",
   "ManufacturerModelName": "Prisma",
   "Modality": "MR",
   "NumberOfAverages": 1.0,
   "NumberOfPhaseEncodingSteps": 100,
   "PercentPhaseFieldOfView": 100.0,
   "PercentSampling": 100.0,
   "PerformedProcedureStepStartTime": "085838.769000",
   "PhotometricInterpretation": "MONOCHROME2",
   "PixelBandwidth": 2380.0,
   "PixelRepresentation": 0,
   "PixelSpacing": [
    2.0,
    2.0
   ],
   "ProtocolName": "bold_100x100_s3_2x2x2_static_256",
   "RepetitionTime": 2000.0,
   "Rows": 900,
   "SAR": 0.07854475701914,
   "SamplesPerPixel": 1,
   "ScanOptions": "FS",
   "ScanningSequence": "EP",
   "SequenceName": "*epfid2d1_100",
   "SequenceVariant": "SK",
   "SeriesDescription": "bold_100x100_s3_2x2x2_static_256",
   "SeriesNumber": 3,
   "SeriesTime": "090944.772000",
   "SliceLocation": -70.127515353163,
   "SliceThickness": 2.0,
   "SmallestImagePixelValue": 0,
   "SoftwareVersions": "syngo MR E11",
   "SpacingBetweenSlices": 1.9999999987347,
   "SpecificCharacterSet": "ISO_IR 100",
   "StudyID": "1",
   "StudyTime": "085838.642000",
   "TransmitCoilName": "Body",
   "VariableFlipAngleFlag": "N",
   "WindowCenterWidthExplanation": "Algo1",
   "dBdt": 0.0
  },
  "slices": {}
 },
 "time": {
  "samples": {
   "AcquisitionNumber": [
    1,
    2,
    3,
    4,
    5,
    6,
    7,
    8,
    9,
    10,
    11,
    12,
    13,
    14,
    15,
    16,
    17,
    18,
    19,
    20,
    21,
    22,
    23,
    24,
    25,
    26,
    27,
    28,
    29,
    30,
    31,
    32,
    33,
    34,
    35,
    36,
    37,
    38,
    39,
    40,
    41,
    42,
    43,
    44,
    45,
    46,
    47,
    48,
    49,
    50,
    51,
    52,
    53,
    54,
    55,
    56,
    57,
    58,
    59,
    60,
    61,
    62,
    63,
    64,
    65,
    66,
    67,
    68,
    69,
    70,
    71,
    72,
    73,
    74,
    75,
    76,
    77,
    78,
    79,
    80,
    81,
    82,
    83,
    84,
    85,
    86,
    87,
    88,
    89,
    90,
    91,
    92,
    93,
    94,
    95,
    96,
    97,
    98,
    99,
    100,
    101,
    102,
    103,
    104,
    105,
    106,
    107,
    108,
    109,
    110,
    111,
    112,
    113,
    114,
    115,
    116,
    117,
    118,
    119,
    120,
    121,
    122,
    123,
    124,
    125,
    126,
    127,
    128,
    129,
    130,
    131,
    132,
    133,
    134,
    135,
    136,
    137,
    138,
    139,
    140,
    141,
    142,
    143,
    144,
    145,
    146,
    147,
    148,
    149,
    150,
    151,
    152,
    153,
    154,
    155,
    156,
    157,
    158,
    159,
    160,
    161,
    162,
    163,
    164,
    165,
    166,
    167,
    168,
    169,
    170,
    171,
    172,
    173,
    174,
    175,
    176,
    177,
    178,
    179,
    180,
    181,
    182,
    183,
    184,
    185,
    186,
    187,
    188,
    189,
    190,
    191,
    192,
    193,
    194,
    195,
    196,
    197,
    198,
    199,
    200,
    201,
    202,
    203,
    204,
    205,
    206,
    207,
    208,
    209,
    210,
    211,
    212,
    213,
    214,
    215,
    216,
    217,
    218,
    219,
    220,
    221,
    222,
    223,
    224,
    225,
    226,
    227,
    228,
    229,
    230,
    231,
    232,
    233,
    234,
    235,
    236,
    237,
    238,
    239,
    240,
    241,
    242,
    243,
    244,
    245,
    246,
    247,
    248,
    249,
    250,
    251,
    252,
    253,
    254,
    255,
    256
   ],
   "AcquisitionTime": [
    "090941.872500",
    "090943.872500",
    "090945.872500",
    "090947.872500",
    "090949.872500",
    "090951.872500",
    "090953.872500",
    "090955.872500",
    "090957.872500",
    "090959.872500",
    "091001.872500",
    "091003.872500",
    "091005.872500",
    "091007.872500",
    "091009.872500",
    "091011.872500",
    "091013.872500",
    "091015.872500",
    "091017.872500",
    "091019.872500",
    "091021.872500",
    "091023.872500",
    "091025.872500",
    "091027.872500",
    "091029.872500",
    "091031.872500",
    "091033.872500",
    "091035.872500",
    "091037.872500",
    "091039.872500",
    "091041.872500",
    "091043.872500",
    "091045.872500",
    "091047.872500",
    "091049.872500",
    "091051.872500",
    "091053.872500",
    "091055.872500",
    "091057.872500",
    "091059.872500",
    "091101.872500",
    "091103.872500",
    "091105.872500",
    "091107.872500",
    "091109.872500",
    "091111.872500",
    "091113.872500",
    "091115.872500",
    "091117.872500",
    "091119.872500",
    "091121.872500",
    "091123.872500",
    "091125.872500",
    "091127.872500",
    "091129.872500",
    "091131.872500",
    "091133.872500",
    "091135.872500",
    "091137.872500",
    "091139.872500",
    "091141.872500",
    "091143.872500",
    "091145.872500",
    "091147.872500",
    "091149.872500",
    "091151.872500",
    "091153.872500",
    "091155.872500",
    "091157.872500",
    "091159.872500",
    "091201.872500",
    "091203.872500",
    "091205.872500",
    "091207.872500",
    "091209.872500",
    "091211.872500",
    "091213.872500",
    "091215.872500",
    "091217.872500",
    "091219.872500",
    "091221.872500",
    "091223.872500",
    "091225.872500",
    "091227.872500",
    "091229.872500",
    "091231.872500",
    "091233.872500",
    "091235.872500",
    "091237.872500",
    "091239.872500",
    "091241.872500",
    "091243.872500",
    "091245.872500",
    "091247.872500",
    "091249.872500",
    "091251.872500",
    "091253.872500",
    "091255.872500",
    "091257.872500",
    "091259.872500",
    "091301.872500",
    "091303.872500",
    "091305.872500",
    "091307.872500",
    "091309.872500",
    "091311.872500",
    "091313.872500",
    "091315.872500",
    "091317.872500",
    "091319.872500",
    "091321.872500",
    "091323.872500",
    "091325.872500",
    "091327.872500",
    "091329.872500",
    "091331.872500",
    "091333.872500",
    "091335.872500",
    "091337.872500",
    "091339.872500",
    "091341.872500",
    "091343.872500",
    "091345.872500",
    "091347.872500",
    "091349.872500",
    "091351.872500",
    "091353.872500",
    "091355.872500",
    "091357.872500",
    "091359.872500",
    "091401.872500",
    "091403.872500",
    "091405.872500",
    "091407.872500",
    "091409.872500",
    "091411.872500",
    "091413.872500",
    "091415.872500",
    "091417.872500",
    "091419.872500",
    "091421.872500",
    "091423.872500",
    "091425.872500",
    "091427.872500",
    "091429.872500",
    "091431.872500",
    "091433.872500",
    "091435.872500",
    "091437.872500",
    "091439.872500",
    "091441.872500",
    "091443.872500",
    "091445.872500",
    "091447.872500",
    "091449.872500",
    "091451.872500",
    "091453.872500",
    "091455.872500",
    "091457.872500",
    "091459.872500",
    "091501.872500",
    "091503.872500",
    "091505.872500",
    "091507.872500",
    "091509.872500",
    "091511.872500",
    "091513.872500",
    "091515.872500",
    "091517.872500",
    "091519.872500",
    "091521.872500",
    "091523.872500",
    "091525.872500",
    "091527.872500",
    "091529.872500",
    "091531.872500",
    "091533.872500",
    "091535.872500",
    "091537.872500",
    "091539.872500",
    "091541.872500",
    "091543.872500",
    "091545.872500",
    "091547.872500",
    "091549.872500",
    "091551.872500",
    "091553.872500",
    "091555.872500",
    "091557.872500",
    "091559.872500",
    "091601.872500",
    "091603.872500",
    "091605.872500",
    "091607.872500",
    "091609.872500",
    "091611.872500",
    "091613.872500",
    "091615.872500",
    "091617.872500",
    "091619.872500",
    "091621.872500",
    "091623.872500",
    "091625.872500",
    "091627.872500",
    "091629.872500",
    "091631.872500",
    "091633.872500",
    "091635.872500",
    "091637.872500",
    "091639.872500",
    "091641.872500",
    "091643.872500",
    "091645.872500",
    "091647.872500",
    "091649.872500",
    "091651.872500",
    "091653.872500",
    "091655.872500",
    "091657.872500",
    "091659.872500",
    "091701.872500",
    "091703.872500",
    "091705.872500",
    "091707.872500",
    "091709.872500",
    "091711.872500",
    "091713.872500",
    "091715.872500",
    "091717.872500",
    "091719.872500",
    "091721.872500",
    "091723.872500",
    "091725.872500",
    "091727.872500",
    "091729.872500",
    "091731.872500",
    "091733.872500",
    "091735.872500",
    "091737.872500",
    "091739.872500",
    "091741.872500",
    "091743.872500",
    "091745.872500",
    "091747.872500",
    "091749.872500",
    "091751.872500",
    "091753.872500",
    "091755.872500",
    "091757.872500",
    "091759.872500",
    "091801.872500",
    "091803.872500",
    "091805.872500",
    "091807.872500",
    "091809.872500",
    "091811.872500"
   ],
   "ContentTime": [
    "090944.776000",
    "090946.272000",
    "090948.271000",
    "090950.271000",
    "090952.271000",
    "090954.271000",
    "090956.271000",
    "090958.270000",
    "091000.271000",
    "091002.271000",
    "091004.272000",
    "091006.271000",
    "091008.271000",
    "091010.271000",
    "091012.271000",
    "091014.271000",
    "091016.272000",
    "091018.271000",
    "091020.272000",
    "091022.271000",
    "091024.271000",
    "091026.271000",
    "091028.272000",
    "091030.272000",
    "091032.271000",
    "091034.271000",
    "091036.272000",
    "091038.271000",
    "091040.271000",
    "091042.271000",
    "091044.271000",
    "091046.272000",
    "091048.271000",
    "091050.270000",
    "091052.272000",
    "091054.271000",
    "091056.271000",
    "091058.272000",
    "091100.271000",
    "091102.271000",
    "091104.272000",
    "091106.272000",
    "091108.270000",
    "091110.271000",
    "091112.271000",
    "091114.272000",
    "091116.271000",
    "091118.272000",
    "091120.271000",
    "091122.272000",
    "091124.272000",
    "091126.272000",
    "091128.271000",
    "091130.271000",
    "091132.271000",
    "091134.271000",
    "091136.271000",
    "091138.271000",
    "091140.271000",
    "091142.271000",
    "091144.271000",
    "091146.272000",
    "091148.272000",
    "091150.271000",
    "091152.271000",
    "091154.271000",
    "091156.271000",
    "091158.272000",
    "091200.271000",
    "091202.272000",
    "091204.271000",
    "091206.271000",
    "091208.271000",
    "091210.272000",
    "091212.271000",
    "091214.271000",
    "091216.272000",
    "091218.271000",
    "091220.271000",
    "091222.271000",
    "091224.271000",
    "091226.271000",
    "091228.272000",
    "091230.271000",
    "091232.271000",
    "091234.271000",
    "091236.271000",
    "091238.272000",
    "091240.272000",
    "091242.271000",
    "091244.271000",
    "091246.271000",
    "091248.272000",
    "091250.271000",
    "091252.272000",
    "091254.271000",
    "091256.272000",
    "091258.272000",
    "091300.272000",
    "091302.272000",
    "091304.271000",
    "091306.272000",
    "091308.272000",
    "091310.270000",
    "091312.272000",
    "091314.291000",
    "091316.271000",
    "091318.271000",
    "091320.271000",
    "091322.271000",
    "091324.271000",
    "091326.271000",
    "091328.271000",
    "091330.272000",
    "091332.271000",
    "091334.271000",
    "091336.271000",
    "091338.272000",
    "091340.272000",
    "091342.271000",
    "091344.272000",
    "091346.282000",
    "091348.271000",
    "091350.272000",
    "091352.271000",
    "091354.272000",
    "091356.272000",
    "091358.271000",
    "091400.271000",
    "091402.272000",
    "091404.272000",
    "091406.271000",
    "091408.271000",
    "091410.272000",
    "091412.276000",
    "091414.272000",
    "091416.272000",
    "091418.271000",
    "091420.271000",
    "091422.271000",
    "091424.271000",
    "091426.271000",
    "091428.271000",
    "091430.271000",
    "091432.271000",
    "091434.271000",
    "091436.271000",
    "091438.272000",
    "091440.271000",
    "091442.272000",
    "091444.271000",
    "091446.271000",
    "091448.272000",
    "091450.271000",
    "091452.272000",
    "091454.272000",
    "091456.271000",
    "091458.271000",
    "091500.271000",
    "091502.271000",
    "091504.271000",
    "091506.271000",
    "091508.272000",
    "091510.271000",
    "091512.271000",
    "091514.272000",
    "091516.271000",
    "091518.271000",
    "091520.272000",
    "091522.272000",
    "091524.272000",
    "091526.271000",
    "091528.272000",
    "091530.271000",
    "091532.271000",
    "091534.272000",
    "091536.271000",
    "091538.271000",
    "091540.272000",
    "091542.272000",
    "091544.271000",
    "091546.272000",
    "091548.272000",
    "091550.271000",
    "091552.271000",
    "091554.272000",
    "091556.272000",
    "091558.271000",
    "091600.271000",
    "091602.271000",
    "091604.271000",
    "091606.272000",
    "091608.271000",
    "091610.272000",
    "091612.271000",
    "091614.272000",
    "091616.271000",
    "091618.272000",
    "091620.271000",
    "091622.272000",
    "091624.271000",
    "091626.272000",
    "091628.272000",
    "091630.272000",
    "091632.271000",
    "091634.272000",
    "091636.272000",
    "091638.272000",
    "091640.270000",
    "091642.272000",
    "091644.272000",
    "091646.272000",
    "091648.271000",
    "091650.272000",
    "091652.271000",
    "091654.272000",
    "091656.272000",
    "091658.272000",
    "091700.272000",
    "091702.271000",
    "091704.271000",
    "091706.271000",
    "091708.271000",
    "091710.272000",
    "091712.272000",
    "091714.272000",
    "091716.271000",
    "091718.272000",
    "091720.272000",
    "091722.272000",
    "091724.272000",
    "091726.272000",
    "091728.272000",
    "091730.272000",
    "091732.273000",
    "091734.272000",
    "091736.271000",
    "091738.272000",
    "091740.272000",
    "091742.271000",
    "091744.271000",
    "091746.272000",
    "091748.272000",
    "091750.271000",
    "091752.272000",
    "091754.271000",
    "091756.271000",
    "091758.272000",
    "091800.271000",
    "091802.271000",
    "091804.271000",
    "091806.271000",
    "091808.271000",
    "091810.271000",
    "091812.272000",
    "091814.145000"
   ],
   "InstanceCreationTime": [
    "090944.776000",
    "090946.272000",
    "090948.271000",
    "090950.271000",
    "090952.271000",
    "090954.271000",
    "090956.271000",
    "090958.270000",
    "091000.271000",
    "091002.271000",
    "091004.272000",
    "091006.271000",
    "091008.271000",
    "091010.271000",
    "091012.271000",
    "091014.271000",
    "091016.272000",
    "091018.271000",
    "091020.272000",
    "091022.271000",
    "091024.271000",
    "091026.271000",
    "091028.272000",
    "091030.272000",
    "091032.271000",
    "091034.271000",
    "091036.272000",
    "091038.271000",
    "091040.271000",
    "091042.271000",
    "091044.271000",
    "091046.272000",
    "091048.271000",
    "091050.270000",
    "091052.272000",
    "091054.271000",
    "091056.271000",
    "091058.272000",
    "091100.271000",
    "091102.271000",
    "091104.272000",
    "091106.272000",
    "091108.270000",
    "091110.271000",
    "091112.271000",
    "091114.272000",
    "091116.271000",
    "091118.272000",
    "091120.271000",
    "091122.272000",
    "091124.272000",
    "091126.272000",
    "091128.271000",
    "091130.271000",
    "091132.271000",
    "091134.271000",
    "091136.271000",
    "091138.271000",
    "091140.271000",
    "091142.271000",
    "091144.271000",
    "091146.272000",
    "091148.272000",
    "091150.271000",
    "091152.271000",
    "091154.271000",
    "091156.271000",
    "091158.272000",
    "091200.271000",
    "091202.272000",
    "091204.271000",
    "091206.271000",
    "091208.271000",
    "091210.272000",
    "091212.271000",
    "091214.271000",
    "091216.272000",
    "091218.271000",
    "091220.271000",
    "091222.271000",
    "091224.271000",
    "091226.271000",
    "091228.272000",
    "091230.271000",
    "091232.271000",
    "091234.271000",
    "091236.271000",
    "091238.272000",
    "091240.272000",
    "091242.271000",
    "091244.271000",
    "091246.271000",
    "091248.272000",
    "091250.271000",
    "091252.272000",
    "091254.271000",
    "091256.272000",
    "091258.272000",
    "091300.272000",
    "091302.272000",
    "091304.271000",
    "091306.272000",
    "091308.272000",
    "091310.270000",
    "091312.272000",
    "091314.291000",
    "091316.271000",
    "091318.271000",
    "091320.271000",
    "091322.271000",
    "091324.271000",
    "091326.271000",
    "091328.271000",
    "091330.272000",
    "091332.271000",
    "091334.271000",
    "091336.271000",
    "091338.272000",
    "091340.272000",
    "091342.271000",
    "091344.272000",
    "091346.282000",
    "091348.271000",
    "091350.272000",
    "091352.271000",
    "091354.272000",
    "091356.272000",
    "091358.271000",
    "091400.271000",
    "091402.272000",
    "091404.272000",
    "091406.271000",
    "091408.271000",
    "091410.272000",
    "091412.276000",
    "091414.272000",
    "091416.272000",
    "091418.271000",
    "091420.271000",
    "091422.271000",
    "091424.271000",
    "091426.271000",
    "091428.271000",
    "091430.271000",
    "091432.271000",
    "091434.271000",
    "091436.271000",
    "091438.272000",
    "091440.271000",
    "091442.272000",
    "091444.271000",
    "091446.271000",
    "091448.272000",
    "091450.271000",
    "091452.272000",
    "091454.272000",
    "091456.271000",
    "091458.271000",
    "091500.271000",
    "091502.271000",
    "091504.271000",
    "091506.271000",
    "091508.272000",
    "091510.271000",
    "091512.271000",
    "091514.272000",
    "091516.271000",
    "091518.271000",
    "091520.272000",
    "091522.272000",
    "091524.272000",
    "091526.271000",
    "091528.272000",
    "091530.271000",
    "091532.271000",
    "091534.272000",
    "091536.271000",
    "091538.271000",
    "091540.272000",
    "091542.272000",
    "091544.271000",
    "091546.272000",
    "091548.272000",
    "091550.271000",
    "091552.271000",
    "091554.272000",
    "091556.272000",
    "091558.271000",
    "091600.271000",
    "091602.271000",
    "091604.271000",
    "091606.272000",
    "091608.271000",
    "091610.272000",
    "091612.271000",
    "091614.272000",
    "091616.271000",
    "091618.272000",
    "091620.271000",
    "091622.272000",
    "091624.271000",
    "091626.272000",
    "091628.272000",
    "091630.272000",
    "091632.271000",
    "091634.272000",
    "091636.272000",
    "091638.272000",
    "091640.270000",
    "091642.272000",
    "091644.272000",
    "091646.272000",
    "091648.271000",
    "091650.272000",
    "091652.271000",
    "091654.272000",
    "091656.272000",
    "091658.272000",
    "091700.272000",
    "091702.271000",
    "091704.271000",
    "091706.271000",
    "091708.271000",
    "091710.272000",
    "091712.272000",
    "091714.272000",
    "091716.271000",
    "091718.272000",
    "091720.272000",
    "091722.272000",
    "091724.272000",
    "091726.272000",
    "091728.272000",
    "091730.272000",
    "091732.273000",
    "091734.272000",
    "091736.271000",
    "091738.272000",
    "091740.272000",
    "091742.271000",
    "091744.271000",
    "091746.272000",
    "091748.272000",
    "091750.271000",
    "091752.272000",
    "091754.271000",
    "091756.271000",
    "091758.272000",
    "091800.271000",
    "091802.271000",
    "091804.271000",
    "091806.271000",
    "091808.271000",
    "091810.271000",
    "091812.272000",
    "091814.145000"
   ],
   "InstanceNumber": [
    1,
    2,
    3,
    4,
    5,
    6,
    7,
    8,
    9,
    10,
    11,
    12,
    13,
    14,
    15,
    16,
    17,
    18,
    19,
    20,
    21,
    22,
    23,
    24,
    25,
    26,
    27,
    28,
    29,
    30,
    31,
    32,
    33,
    34,
    35,
    36,
    37,
    38,
    39,
    40,
    41,
    42,
    43,
    44,
    45,
    46,
    47,
    48,
    49,
    50,
    51,
    52,
    53,
    54,
    55,
    56,
    57,
    58,
    59,
    60,
    61,
    62,
    63,
    64,
    65,
    66,
    67,
    68,
    69,
    70,
    71,
    72,
    73,
    74,
    75,
    76,
    77,
    78,
    79,
    80,
    81,
    82,
    83,
    84,
    85,
    86,
    87,
    88,
    89,
    90,
    91,
    92,
    93,
    94,
    95,
    96,
    97,
    98,
    99,
    100,
    101,
    102,
    103,
    104,
    105,
    106,
    107,
    108,
    109,
    110,
    111,
    112,
    113,
    114,
    115,
    116,
    117,
    118,
    119,
    120,
    121,
    122,
    123,
    124,
    125,
    126,
    127,
    128,
    129,
    130,
    131,
    132,
    133,
    134,
    135,
    136,
    137,
    138,
    139,
    140,
    141,
    142,
    143,
    144,
    145,
    146,
    147,
    148,
    149,
    150,
    151,
    152,
    153,
    154,
    155,
    156,
    157,
    158,
    159,
    160,
    161,
    162,
    163,
    164,
    165,
    166,
    167,
    168,
    169,
    170,
    171,
    172,
    173,
    174,
    175,
    176,
    177,
    178,
    179,
    180,
    181,
    182,
    183,
    184,
    185,
    186,
    187,
    188,
    189,
    190,
    191,
    192,
    193,
    194,
    195,
    196,
    197,
    198,
    199,
    200,
    201,
    202,
    203,
    204,
    205,
    206,
    207,
    208,
    209,
    210,
    211,
    212,
    213,
    214,
    215,
    216,
    217,
    218,
    219,
    220,
    221,
    222,
    223,
    224,
    225,
    226,
    227,
    228,
    229,
    230,
    231,
    232,
    233,
    234,
    235,
    236,
    237,
    238,
    239,
    240,
    241,
    242,
    243,
    244,
    245,
    246,
    247,
    248,
    249,
    250,
    251,
    252,
    253,
    254,
    255,
    256
   ],
   "LargestImagePixelValue": [
    3478,
    3482,
    3488,
    3451,
    3439,
    3488,
    3469,
    3466,
    3511,
    3484,
    3470,
    3447,
    3473,
    3460,
    3487,
    3469,
    3516,
    3486,
    3496,
    3481,
    3494,
    3457,
    3472,
    3486,
    3479,
    3469,
    3461,
    3469,
    3447,
    3449,
    3495,
    3473,
    3441,
    3461,
    3461,
    3492,
    3449,
    3469,
    3487,
    3453,
    3498,
    3458,
    3492,
    3457,
    3459,
    3477,
    3424,
    3474,
    3453,
    3454,
    3475,
    3450,
    3451,
    3510,
    3456,
    3481,
    3492,
    3504,
    3524,
    3465,
    3487,
    3455,
    3475,
    3462,
    3464,
    3467,
    3494,
    3509,
    3481,
    3535,
    3519,
    3553,
    3512,
    3533,
    3521,
    3511,
    3490,
    3494,
    3481,
    3481,
    3463,
    3533,
    3501,
    3500,
    3507,
    3451,
    3528,
    3500,
    3519,
    3539,
    3492,
    3509,
    3507,
    3566,
    3490,
    3564,
    3538,
    3529,
    3587,
    3525,
    3554,
    3557,
    3578,
    3603,
    3536,
    3563,
    3511,
    3541,
    3548,
    3540,
    3550,
    3527,
    3517,
    3540,
    3484,
    3524,
    3517,
    3517,
    3582,
    3538,
    3584,
    3568,
    3568,
    3558,
    3577,
    3550,
    3551,
    3501,
    3612,
    3556,
    3590,
    3570,
    3589,
    3552,
    3563,
    3604,
    3565,
    3551,
    3602,
    3570,
    3570,
    3592,
    3576,
    3531,
    3595,
    3599,
    3551,
    3622,
    3569,
    3593,
    3623,
    3601,
    3610,
    3539,
    3608,
    3608,
    3620,
    3591,
    3571,
    3639,
    3597,
    3584,
    3574,
    3547,
    3586,
    3597,
    3615,
    3547,
    3550,
    3527,
    3532,
    3583,
    3527,
    3572,
    3569,
    3544,
    3538,
    3566,
    3555,
    3599,
    3609,
    3617,
    3654,
    3609,
    3630,
    3610,
    3631,
    3680,
    3630,
    3610,
    3654,
    3564,
    3608,
    3563,
    3567,
    3583,
    3620,
    3594,
    3585,
    3563,
    3580,
    3556,
    3588,
    3607,
    3554,
    3584,
    3587,
    3576,
    3582,
    3600,
    3583,
    3601,
    3599,
    3646,
    3614,
    3657,
    3664,
    3638,
    3652,
    3625,
    3627,
    3623,
    3633,
    3619,
    3639,
    3623,
    3625,
    3673,
    3639,
    3619,
    3663,
    3644,
    3673,
    3671,
    3666,
    3654,
    3644,
    3651,
    3677,
    3646,
    3648,
    3689,
    3695,
    3716,
    3666,
    3663,
    3682,
    3693,
    3696,
    3660,
    3640,
    3668,
    3663,
    3657,
    3678,
    3654
   ],
   "WindowCenter": [
    855.0,
    852.0,
    853.0,
    852.0,
    850.0,
    849.0,
    849.0,
    849.0,
    852.0,
    852.0,
    853.0,
    853.0,
    854.0,
    853.0,
    852.0,
    851.0,
    852.0,
    851.0,
    852.0,
    852.0,
    851.0,
    850.0,
    850.0,
    850.0,
    850.0,
    850.0,
    850.0,
    851.0,
    852.0,
    851.0,
    851.0,
    850.0,
    849.0,
    849.0,
    850.0,
    851.0,
    852.0,
    852.0,
    853.0,
    852.0,
    852.0,
    852.0,
    852.0,
    853.0,
    852.0,
    851.0,
    850.0,
    851.0,
    850.0,
    849.0,
    849.0,
    849.0,
    849.0,
    849.0,
    848.0,
    848.0,
    849.0,
    850.0,
    851.0,
    852.0,
    851.0,
    850.0,
    851.0,
    851.0,
    852.0,
    851.0,
    851.0,
    850.0,
    850.0,
    851.0,
    851.0,
    851.0,
    851.0,
    851.0,
    851.0,
    851.0,
    851.0,
    851.0,
    851.0,
    851.0,
    850.0,
    850.0,
    851.0,
    852.0,
    852.0,
    851.0,
    850.0,
    850.0,
    851.0,
    851.0,
    851.0,
    851.0,
    850.0,
    852.0,
    852.0,
    852.0,
    851.0,
    850.0,
    851.0,
    850.0,
    850.0,
    850.0,
    851.0,
    850.0,
    850.0,
    850.0,
    850.0,
    852.0,
    852.0,
    852.0,
    852.0,
    852.0,
    852.0,
    852.0,
    851.0,
    851.0,
    851.0,
    851.0,
    853.0,
    852.0,
    852.0,
    851.0,
    851.0,
    851.0,
