{
 "AcquisitionMatrixPE": 100,
 "AcquisitionNumber": 1,
 "AcquisitionTime": "14:00:16.092500",
 "BandwidthPerPixelPhaseEncode": 18.519,
 "BaseResolution": 100,
 "BodyPartExamined": "BRAIN",
 "ConsistencyInfo": "N4_VE11C_LATEST_20160120",
 "ConversionSoftware": "dcm2niix",
 "ConversionSoftwareVersion": "v1.0.20180622 GCC4.9.2",
 "DerivedVendorReportedEchoSpacing": 0.000539986,
 "DeviceSerialNumber": "166078",
 "DwellTime": 2.1e-06,
 "EchoTime": 0.034,
 "EchoTrainLength": 100,
 "EffectiveEchoSpacing": 0.000539986,
 "FlipAngle": 90,
 "ImageOrientationPatientDICOM": [
  1,
  -4.5782e-06,
  -5.48897e-05,
  -3.03345e-08,
  0.996494,
  -0.0836675
 ],
 "ImageType": [
  "ORIGINAL",
  "PRIMARY",
  "M",
  "ND",
  "MOSAIC"
 ],
 "InPlanePhaseEncodingDirectionDICOM": "COL",
 "InstitutionAddress": "Street_StreetNo_Bei_Jing_District_CN_ZIP",
 "InstitutionName": "BeiJing_Normal_University",
 "InstitutionalDepartmentName": "Department",
 "MRAcquisitionType": "2D",
 "MagneticFieldStrength": 3,
 "Manufacturer": "Siemens",
 "ManufacturersModelName": "Prisma",
 "Modality": "MR",
 "MultibandAccelerationFactor": 3,
 "PartialFourier": 1,
 "PatientPosition": "HFS",
 "PercentPhaseFOV": 100,
 "PhaseEncodingDirection": "j-",
 "PhaseEncodingSteps": 100,
 "PhaseResolution": 1,
 "PixelBandwidth": 2380,
 "ProcedureStepDescription": "BNU_P2018_64CH_Zhen.ZongLei",
 "ProtocolName": "bold_100x100_s3_2x2x2_static_256",
 "PulseSequenceDetails": "%SiemensSeq%_ep2d_bold",
 "ReceiveCoilActiveElements": "HC1-7;NC1",
 "ReceiveCoilName": "HeadNeck_64",
 "ReconMatrixPE": 100,
 "RepetitionTime": 2,
 "SAR": 0.0793508,
 "ScanOptions": "FS",
 "ScanningSequence": "EP",
 "SequenceName": "_epfid2d1_100",
 "SequenceVariant": "SK",
 "SeriesDescription": "bold_100x100_s3_2x2x2_static_256",
 "SeriesNumber": 14,
 "ShimSetting": [
  -5465,
  -11514,
  -1298,
  434,
  -8,
  -201,
  -135,
  -16
 ],
 "SliceThickness": 2,
 "SliceTiming": [
  1.485,
  0,
  0.99,
  0.0825,
  1.0725,
  0.165,
  1.155,
  0.2475,
  1.2375,
  0.33,
  1.32,
  0.4125,
  1.4025,
  0.5775,
  1.5675,
  0.66,
  1.65,
  0.7425,
  1.7325,
  0.825,
  1.815,
  0.9075,
  1.8975,
  0.495,
  1.485,
  0,
  0.99,
  0.0825,
  1.0725,
  0.165,
  1.155,
  0.2475,
  1.2375,
  0.33,
  1.32,
  0.4125,
  1.4025,
  0.5775,
  1.5675,
  0.66,
  1.65,
  0.7425,
  1.7325,
  0.825,
  1.815,
  0.9075,
  1.8975,
  0.495,
  1.485,
  0,
  0.99,
  0.0825,
  1.0725,
  0.165,
  1.155,
  0.2475,
  1.2375,
  0.33,
  1.32,
  0.4125,
  1.4025,
  0.5775,
  1.5675,
  0.66,
  1.65,
  0.7425,
  1.7325,
  0.825,
  1.815,
  0.9075,
  1.8975,
  0.495
 ],
 "SoftwareVersions": "syngo_MR_E11",
 "SpacingBetweenSlices": 2,
 "StationName": "AWP166078",
 "TaskName": "imagenet",
 "TotalReadoutTime": 0.0534586,
 "TxRefAmp": 212.831,
 "dcmmeta_affine": [
  [
   -2.0,
   -6.066899516099511e-08,
   -0.00011016056669177487,
   104.11992645263672
  ],
  [
   9.156405212706886e-06,
   1.9929873943328857,
   -0.16733504831790924,
   -85.59622955322266
  ],
  [
   -0.00010977938654832542,
   0.16733504831790924,
   1.9929875135421753,
   -70.5794677734375
  ],
  [
   0.0,
   0.0,
   0.0,
   1.0
  ]
 ],
 "dcmmeta_reorient_transform": [
  [
   0.0,
   -1.0,
   0.0,
   99.0
  ],
  [
   1.0,
   0.0,
   0.0,
   0.0
  ],
  [
   0.0,
   0.0,
   1.0,
   0.0
  ],
  [
   0.0,
   0.0,
   0.0,
   1.0
  ]
 ],
 "dcmmeta_shape": [
  100,
  100,
  72,
  256
 ],
 "dcmmeta_slice_dim": 2,
 "dcmmeta_version": 0.6,
 "global": {
  "const": {
   "AcquisitionMatrix": [
    100,
    0,
    0,
    100
   ],
   "AngioFlag": "N",
   "BitsAllocated": 16,
   "BitsStored": 12,
   "BodyPartExamined": "BRAIN",
   "Columns": 900,
   "EchoNumbers": 1,
   "EchoTime": 34.0,
   "EchoTrainLength": 100,
   "FlipAngle": 90.0,
   "HighBit": 11,
   "ImageOrientationPatient": [
    0.99999999848308,
    -4.57820243e-06,
    -5.48896923e-05,
    -3.0334497e-08,
    0.9964937259729,
    -0.0836675211575
   ],
   "ImagePositionPatient": [
    -904.11989683269,
    -908.9008437646,
    12.964633570993
   ],
   "ImageType": [
    "ORIGINAL",
    "PRIMARY",
    "M",
    "ND",
    "MOSAIC"
   ],
   "ImagedNucleus": "1H",
   "ImagingFrequency": 123.257776,
   "InPlanePhaseEncodingDirection": "COL",
   "MRAcquisitionType": "2D",
   "MagneticFieldStrength": 3.0,
   "Manufacturer": "SIEMENS",
   "ManufacturerModelName": "Prisma",
   "Modality": "MR",
   "NumberOfAverages": 1.0,
   "NumberOfPhaseEncodingSteps": 100,
   "PercentPhaseFieldOfView": 100.0,
   "PercentSampling": 100.0,
   "PerformedProcedureStepStartTime": "120754.453000",
   "PhotometricInterpretation": "MONOCHROME2",
   "PixelBandwidth": 2380.0,
   "PixelRepresentation": 0,
   "PixelSpacing": [
    2.0,
    2.0
   ],
   "ProtocolName": "bold_100x100_s3_2x2x2_static_256",
   "RepetitionTime": 2000.0,
   "Rows": 900,
   "SAR": 0.07935082826242,
   "SamplesPerPixel": 1,
   "ScanOptions": "FS",
   "ScanningSequence": "EP",
   "SequenceName": "*epfid2d1_100",
   "SequenceVariant": "SK",
   "SeriesDescription": "bold_100x100_s3_2x2x2_static_256",
   "SeriesNumber": 14,
   "SeriesTime": "140019.022000",
   "SliceLocation": -63.176103646327,
   "SliceThickness": 2.0,
   "SmallestImagePixelValue": 0,
   "SoftwareVersions": "syngo MR E11",
   "SpacingBetweenSlices": 2.0000000620842,
   "SpecificCharacterSet": "ISO_IR 100",
   "StudyID": "1",
   "StudyTime": "120754.308000",
   "TransmitCoilName": "Body",
   "VariableFlipAngleFlag": "N",
   "WindowCenterWidthExplanation": "Algo1",
   "dBdt": 0.0
  },
  "slices": {}
 },
 "time": {
  "samples": {
   "AcquisitionNumber": [
    1,
    2,
    3,
    4,
    5,
    6,
    7,
    8,
    9,
    10,
    11,
    12,
    13,
    14,
    15,
    16,
    17,
    18,
    19,
    20,
    21,
    22,
    23,
    24,
    25,
    26,
    27,
    28,
    29,
    30,
    31,
    32,
    33,
    34,
    35,
    36,
    37,
    38,
    39,
    40,
    41,
    42,
    43,
    44,
    45,
    46,
    47,
    48,
    49,
    50,
    51,
    52,
    53,
    54,
    55,
    56,
    57,
    58,
    59,
    60,
    61,
    62,
    63,
    64,
    65,
    66,
    67,
    68,
    69,
    70,
    71,
    72,
    73,
    74,
    75,
    76,
    77,
    78,
    79,
    80,
    81,
    82,
    83,
    84,
    85,
    86,
    87,
    88,
    89,
    90,
    91,
    92,
    93,
    94,
    95,
    96,
    97,
    98,
    99,
    100,
    101,
    102,
    103,
    104,
    105,
    106,
    107,
    108,
    109,
    110,
    111,
    112,
    113,
    114,
    115,
    116,
    117,
    118,
    119,
    120,
    121,
    122,
    123,
    124,
    125,
    126,
    127,
    128,
    129,
    130,
    131,
    132,
    133,
    134,
    135,
    136,
    137,
    138,
    139,
    140,
    141,
    142,
    143,
    144,
    145,
    146,
    147,
    148,
    149,
    150,
    151,
    152,
    153,
    154,
    155,
    156,
    157,
    158,
    159,
    160,
    161,
    162,
    163,
    164,
    165,
    166,
    167,
    168,
    169,
    170,
    171,
    172,
    173,
    174,
    175,
    176,
    177,
    178,
    179,
    180,
    181,
    182,
    183,
    184,
    185,
    186,
    187,
    188,
    189,
    190,
    191,
    192,
    193,
    194,
    195,
    196,
    197,
    198,
    199,
    200,
    201,
    202,
    203,
    204,
    205,
    206,
    207,
    208,
    209,
    210,
    211,
    212,
    213,
    214,
    215,
    216,
    217,
    218,
    219,
    220,
    221,
    222,
    223,
    224,
    225,
    226,
    227,
    228,
    229,
    230,
    231,
    232,
    233,
    234,
    235,
    236,
    237,
    238,
    239,
    240,
    241,
    242,
    243,
    244,
    245,
    246,
    247,
    248,
    249,
    250,
    251,
    252,
    253,
    254,
    255,
    256
   ],
   "AcquisitionTime": [
    "140016.092500",
    "140018.092500",
    "140020.092500",
    "140022.092500",
    "140024.092500",
    "140026.092500",
    "140028.092500",
    "140030.092500",
    "140032.092500",
    "140034.092500",
    "140036.092500",
    "140038.092500",
    "140040.092500",
    "140042.092500",
    "140044.092500",
    "140046.092500",
    "140048.092500",
    "140050.092500",
    "140052.092500",
    "140054.092500",
    "140056.092500",
    "140058.092500",
    "140100.092500",
    "140102.092500",
    "140104.092500",
    "140106.092500",
    "140108.092500",
    "140110.092500",
    "140112.092500",
    "140114.092500",
    "140116.092500",
    "140118.092500",
    "140120.092500",
    "140122.092500",
    "140124.092500",
    "140126.092500",
    "140128.092500",
    "140130.092500",
    "140132.092500",
    "140134.092500",
    "140136.092500",
    "140138.092500",
    "140140.092500",
    "140142.092500",
    "140144.092500",
    "140146.092500",
    "140148.092500",
    "140150.092500",
    "140152.092500",
    "140154.092500",
    "140156.092500",
    "140158.092500",
    "140200.092500",
    "140202.092500",
    "140204.092500",
    "140206.092500",
    "140208.092500",
    "140210.092500",
    "140212.092500",
    "140214.092500",
    "140216.092500",
    "140218.092500",
    "140220.092500",
    "140222.092500",
    "140224.092500",
    "140226.092500",
    "140228.092500",
    "140230.092500",
    "140232.092500",
    "140234.092500",
    "140236.092500",
    "140238.092500",
    "140240.092500",
    "140242.092500",
    "140244.092500",
    "140246.092500",
    "140248.092500",
    "140250.092500",
    "140252.092500",
    "140254.092500",
    "140256.092500",
    "140258.092500",
    "140300.092500",
    "140302.092500",
    "140304.092500",
    "140306.092500",
    "140308.092500",
    "140310.092500",
    "140312.092500",
    "140314.092500",
    "140316.092500",
    "140318.092500",
    "140320.092500",
    "140322.092500",
    "140324.092500",
    "140326.092500",
    "140328.092500",
    "140330.092500",
    "140332.092500",
    "140334.092500",
    "140336.092500",
    "140338.092500",
    "140340.092500",
    "140342.092500",
    "140344.092500",
    "140346.092500",
    "140348.092500",
    "140350.092500",
    "140352.092500",
    "140354.092500",
    "140356.092500",
    "140358.092500",
    "140400.092500",
    "140402.092500",
    "140404.092500",
    "140406.092500",
    "140408.092500",
    "140410.092500",
    "140412.092500",
    "140414.092500",
    "140416.092500",
    "140418.092500",
    "140420.092500",
    "140422.092500",
    "140424.092500",
    "140426.092500",
    "140428.092500",
    "140430.092500",
    "140432.092500",
    "140434.092500",
    "140436.092500",
    "140438.092500",
    "140440.092500",
    "140442.092500",
    "140444.092500",
    "140446.092500",
    "140448.092500",
    "140450.092500",
    "140452.092500",
    "140454.092500",
    "140456.092500",
    "140458.092500",
    "140500.092500",
    "140502.092500",
    "140504.092500",
    "140506.092500",
    "140508.092500",
    "140510.092500",
    "140512.092500",
    "140514.092500",
    "140516.092500",
    "140518.092500",
    "140520.092500",
    "140522.092500",
    "140524.092500",
    "140526.092500",
    "140528.092500",
    "140530.092500",
    "140532.092500",
    "140534.092500",
    "140536.092500",
    "140538.092500",
    "140540.092500",
    "140542.092500",
    "140544.092500",
    "140546.092500",
    "140548.092500",
    "140550.092500",
    "140552.092500",
    "140554.092500",
    "140556.092500",
    "140558.092500",
    "140600.092500",
    "140602.092500",
    "140604.092500",
    "140606.092500",
    "140608.092500",
    "140610.092500",
    "140612.092500",
    "140614.092500",
    "140616.092500",
    "140618.092500",
    "140620.092500",
    "140622.092500",
    "140624.092500",
    "140626.092500",
    "140628.092500",
    "140630.092500",
    "140632.092500",
    "140634.092500",
    "140636.092500",
    "140638.092500",
    "140640.092500",
    "140642.092500",
    "140644.092500",
    "140646.092500",
    "140648.092500",
    "140650.092500",
    "140652.092500",
    "140654.092500",
    "140656.092500",
    "140658.092500",
    "140700.092500",
    "140702.092500",
    "140704.092500",
    "140706.092500",
    "140708.092500",
    "140710.092500",
    "140712.092500",
    "140714.092500",
    "140716.092500",
    "140718.092500",
    "140720.092500",
    "140722.092500",
    "140724.092500",
    "140726.092500",
    "140728.092500",
    "140730.092500",
    "140732.092500",
    "140734.092500",
    "140736.092500",
    "140738.092500",
    "140740.092500",
    "140742.092500",
    "140744.092500",
    "140746.092500",
    "140748.092500",
    "140750.092500",
    "140752.092500",
    "140754.092500",
    "140756.092500",
    "140758.092500",
    "140800.092500",
    "140802.092500",
    "140804.092500",
    "140806.092500",
    "140808.092500",
    "140810.092500",
    "140812.092500",
    "140814.092500",
    "140816.092500",
    "140818.092500",
    "140820.092500",
    "140822.092500",
    "140824.092500",
    "140826.092500",
    "140828.092500",
    "140830.092500",
    "140832.092500",
    "140834.092500",
    "140836.092500",
    "140838.092500",
    "140840.092500",
    "140842.092500",
    "140844.092500",
    "140846.092500"
   ],
   "ContentTime": [
    "140019.025000",
    "140020.508000",
    "140022.509000",
    "140024.509000",
    "140026.507000",
    "140028.508000",
    "140030.507000",
    "140032.508000",
    "140034.509000",
    "140036.509000",
    "140038.508000",
    "140040.509000",
    "140042.508000",
    "140044.508000",
    "140046.508000",
    "140048.507000",
    "140050.508000",
    "140052.508000",
    "140054.508000",
    "140056.509000",
    "140058.508000",
    "140100.507000",
    "140102.508000",
    "140104.508000",
    "140106.509000",
    "140108.508000",
    "140110.508000",
    "140112.508000",
    "140114.509000",
    "140116.509000",
    "140118.507000",
    "140120.507000",
    "140122.507000",
    "140124.508000",
    "140126.508000",
    "140128.508000",
    "140130.509000",
    "140132.508000",
    "140134.509000",
    "140136.507000",
    "140138.507000",
    "140140.507000",
    "140142.508000",
    "140144.508000",
    "140146.509000",
    "140148.509000",
    "140150.509000",
    "140152.508000",
    "140154.508000",
    "140156.508000",
    "140158.507000",
    "140200.509000",
    "140202.508000",
    "140204.508000",
    "140206.508000",
    "140208.509000",
    "140210.508000",
    "140212.507000",
    "140214.507000",
    "140216.509000",
    "140218.509000",
    "140220.508000",
    "140222.508000",
    "140224.508000",
    "140226.509000",
    "140228.507000",
    "140230.508000",
    "140232.508000",
    "140234.509000",
    "140236.509000",
    "140238.509000",
    "140240.509000",
    "140242.509000",
    "140244.509000",
    "140246.507000",
    "140248.508000",
    "140250.508000",
    "140252.508000",
    "140254.508000",
    "140256.508000",
    "140258.508000",
    "140300.509000",
    "140302.508000",
    "140304.508000",
    "140306.507000",
    "140308.507000",
    "140310.508000",
    "140312.508000",
    "140314.508000",
    "140316.509000",
    "140318.509000",
    "140320.507000",
    "140322.508000",
    "140324.507000",
    "140326.508000",
    "140328.509000",
    "140330.508000",
    "140332.509000",
    "140334.508000",
    "140336.508000",
    "140338.508000",
    "140340.508000",
    "140342.508000",
    "140344.508000",
    "140346.508000",
    "140348.509000",
    "140350.508000",
    "140352.509000",
    "140354.508000",
    "140356.507000",
    "140358.508000",
    "140400.508000",
    "140402.509000",
    "140404.508000",
    "140406.508000",
    "140408.508000",
    "140410.509000",
    "140412.508000",
    "140414.507000",
    "140416.508000",
    "140418.508000",
    "140420.509000",
    "140422.508000",
    "140424.508000",
    "140426.509000",
    "140428.508000",
    "140430.508000",
    "140432.507000",
    "140434.507000",
    "140436.509000",
    "140438.509000",
    "140440.508000",
    "140442.509000",
    "140444.509000",
    "140446.508000",
    "140448.507000",
    "140450.508000",
    "140452.507000",
    "140454.509000",
    "140456.509000",
    "140458.508000",
    "140500.508000",
    "140502.509000",
    "140504.509000",
    "140506.507000",
    "140508.508000",
    "140510.508000",
    "140512.508000",
    "140514.508000",
    "140516.508000",
    "140518.509000",
    "140520.509000",
    "140522.507000",
    "140524.508000",
    "140526.508000",
    "140528.508000",
    "140530.509000",
    "140532.508000",
    "140534.509000",
    "140536.508000",
    "140538.508000",
    "140540.507000",
    "140542.508000",
    "140544.508000",
    "140546.509000",
    "140548.519000",
    "140550.509000",
    "140552.508000",
    "140554.508000",
    "140556.509000",
    "140558.507000",
    "140600.507000",
    "140602.508000",
    "140604.509000",
    "140606.508000",
    "140608.508000",
    "140610.509000",
    "140612.508000",
    "140614.509000",
    "140616.507000",
    "140618.508000",
    "140620.507000",
    "140622.508000",
    "140624.508000",
    "140626.508000",
    "140628.508000",
    "140630.508000",
    "140632.508000",
    "140634.508000",
    "140636.507000",
    "140638.509000",
    "140640.508000",
    "140642.509000",
    "140644.509000",
    "140646.509000",
    "140648.509000",
    "140650.507000",
    "140652.508000",
    "140654.508000",
    "140656.509000",
    "140658.509000",
    "140700.509000",
    "140702.509000",
    "140704.509000",
    "140706.509000",
    "140708.508000",
    "140710.508000",
    "140712.508000",
    "140714.509000",
    "140716.509000",
    "140718.508000",
    "140720.509000",
    "140722.509000",
    "140724.509000",
    "140726.507000",
    "140728.508000",
    "140730.508000",
    "140732.509000",
    "140734.509000",
    "140736.509000",
    "140738.509000",
    "140740.509000",
    "140742.508000",
    "140744.508000",
    "140746.508000",
    "140748.509000",
    "140750.509000",
    "140752.508000",
    "140754.508000",
    "140756.509000",
    "140758.509000",
    "140800.508000",
    "140802.508000",
    "140804.508000",
    "140806.509000",
    "140808.509000",
    "140810.508000",
    "140812.509000",
    "140814.508000",
    "140816.508000",
    "140818.508000",
    "140820.507000",
    "140822.507000",
    "140824.509000",
    "140826.509000",
    "140828.509000",
    "140830.508000",
    "140832.509000",
    "140834.508000",
    "140836.508000",
    "140838.508000",
    "140840.508000",
    "140842.509000",
    "140844.509000",
    "140846.508000",
    "140848.089000"
   ],
   "InstanceCreationTime": [
    "140019.025000",
    "140020.508000",
    "140022.509000",
    "140024.509000",
    "140026.507000",
    "140028.508000",
    "140030.507000",
    "140032.508000",
    "140034.509000",
    "140036.509000",
    "140038.508000",
    "140040.509000",
    "140042.508000",
    "140044.508000",
    "140046.508000",
    "140048.507000",
    "140050.508000",
    "140052.508000",
    "140054.508000",
    "140056.509000",
    "140058.508000",
    "140100.507000",
    "140102.508000",
    "140104.508000",
    "140106.509000",
    "140108.508000",
    "140110.508000",
    "140112.508000",
    "140114.509000",
    "140116.509000",
    "140118.507000",
    "140120.507000",
    "140122.507000",
    "140124.508000",
    "140126.508000",
    "140128.508000",
    "140130.509000",
    "140132.508000",
    "140134.509000",
    "140136.507000",
    "140138.507000",
    "140140.507000",
    "140142.508000",
    "140144.508000",
    "140146.509000",
    "140148.509000",
    "140150.509000",
    "140152.508000",
    "140154.508000",
    "140156.508000",
    "140158.507000",
    "140200.509000",
    "140202.508000",
    "140204.508000",
    "140206.508000",
    "140208.509000",
    "140210.508000",
    "140212.507000",
    "140214.507000",
    "140216.509000",
    "140218.509000",
    "140220.508000",
    "140222.508000",
    "140224.508000",
    "140226.509000",
    "140228.507000",
    "140230.508000",
    "140232.508000",
    "140234.509000",
    "140236.509000",
    "140238.509000",
    "140240.509000",
    "140242.509000",
    "140244.509000",
    "140246.507000",
    "140248.508000",
    "140250.508000",
    "140252.508000",
    "140254.508000",
    "140256.508000",
    "140258.508000",
    "140300.509000",
    "140302.508000",
    "140304.508000",
    "140306.507000",
    "140308.507000",
    "140310.508000",
    "140312.508000",
    "140314.508000",
    "140316.509000",
    "140318.509000",
    "140320.507000",
    "140322.508000",
    "140324.507000",
    "140326.508000",
    "140328.509000",
    "140330.508000",
    "140332.509000",
    "140334.508000",
    "140336.508000",
    "140338.508000",
    "140340.508000",
    "140342.508000",
    "140344.508000",
    "140346.508000",
    "140348.509000",
    "140350.508000",
    "140352.509000",
    "140354.508000",
    "140356.507000",
    "140358.508000",
    "140400.508000",
    "140402.509000",
    "140404.508000",
    "140406.508000",
    "140408.508000",
    "140410.509000",
    "140412.508000",
    "140414.507000",
    "140416.508000",
    "140418.508000",
    "140420.509000",
    "140422.508000",
    "140424.508000",
    "140426.509000",
    "140428.508000",
    "140430.508000",
    "140432.507000",
    "140434.507000",
    "140436.509000",
    "140438.509000",
    "140440.508000",
    "140442.509000",
    "140444.509000",
    "140446.508000",
    "140448.507000",
    "140450.508000",
    "140452.507000",
    "140454.509000",
    "140456.509000",
    "140458.508000",
    "140500.508000",
    "140502.509000",
    "140504.509000",
    "140506.507000",
    "140508.508000",
    "140510.508000",
    "140512.508000",
    "140514.508000",
    "140516.508000",
    "140518.509000",
    "140520.509000",
    "140522.507000",
    "140524.508000",
    "140526.508000",
    "140528.508000",
    "140530.509000",
    "140532.508000",
    "140534.509000",
    "140536.508000",
    "140538.508000",
    "140540.507000",
    "140542.508000",
    "140544.508000",
    "140546.509000",
    "140548.519000",
    "140550.509000",
    "140552.508000",
    "140554.508000",
    "140556.509000",
    "140558.507000",
    "140600.507000",
    "140602.508000",
    "140604.509000",
    "140606.508000",
    "140608.508000",
    "140610.509000",
    "140612.508000",
    "140614.509000",
    "140616.507000",
    "140618.508000",
    "140620.507000",
    "140622.508000",
    "140624.508000",
    "140626.508000",
    "140628.508000",
    "140630.508000",
    "140632.508000",
    "140634.508000",
    "140636.507000",
    "140638.509000",
    "140640.508000",
    "140642.509000",
    "140644.509000",
    "140646.509000",
    "140648.509000",
    "140650.507000",
    "140652.508000",
    "140654.508000",
    "140656.509000",
    "140658.509000",
    "140700.509000",
    "140702.509000",
    "140704.509000",
    "140706.509000",
    "140708.508000",
    "140710.508000",
    "140712.508000",
    "140714.509000",
    "140716.509000",
    "140718.508000",
    "140720.509000",
    "140722.509000",
    "140724.509000",
    "140726.507000",
    "140728.508000",
    "140730.508000",
    "140732.509000",
    "140734.509000",
    "140736.509000",
    "140738.509000",
    "140740.509000",
    "140742.508000",
    "140744.508000",
    "140746.508000",
    "140748.509000",
    "140750.509000",
    "140752.508000",
    "140754.508000",
    "140756.509000",
    "140758.509000",
    "140800.508000",
    "140802.508000",
    "140804.508000",
    "140806.509000",
    "140808.509000",
    "140810.508000",
    "140812.509000",
    "140814.508000",
    "140816.508000",
    "140818.508000",
    "140820.507000",
    "140822.507000",
    "140824.509000",
    "140826.509000",
    "140828.509000",
    "140830.508000",
    "140832.509000",
    "140834.508000",
    "140836.508000",
    "140838.508000",
    "140840.508000",
    "140842.509000",
    "140844.509000",
    "140846.508000",
    "140848.089000"
   ],
   "InstanceNumber": [
    1,
    2,
    3,
    4,
    5,
    6,
    7,
    8,
    9,
    10,
    11,
    12,
    13,
    14,
    15,
    16,
    17,
    18,
    19,
    20,
    21,
    22,
    23,
    24,
    25,
    26,
    27,
    28,
    29,
    30,
    31,
    32,
    33,
    34,
    35,
    36,
    37,
    38,
    39,
    40,
    41,
    42,
    43,
    44,
    45,
    46,
    47,
    48,
    49,
    50,
    51,
    52,
    53,
    54,
    55,
    56,
    57,
    58,
    59,
    60,
    61,
    62,
    63,
    64,
    65,
    66,
    67,
    68,
    69,
    70,
    71,
    72,
    73,
    74,
    75,
    76,
    77,
    78,
    79,
    80,
    81,
    82,
    83,
    84,
    85,
    86,
    87,
    88,
    89,
    90,
    91,
    92,
    93,
    94,
    95,
    96,
    97,
    98,
    99,
    100,
    101,
    102,
    103,
    104,
    105,
    106,
    107,
    108,
    109,
    110,
    111,
    112,
    113,
    114,
    115,
    116,
    117,
    118,
    119,
    120,
    121,
    122,
    123,
    124,
    125,
    126,
    127,
    128,
    129,
    130,
    131,
    132,
    133,
    134,
    135,
    136,
    137,
    138,
    139,
    140,
    141,
    142,
    143,
    144,
    145,
    146,
    147,
    148,
    149,
    150,
    151,
    152,
    153,
    154,
    155,
    156,
    157,
    158,
    159,
    160,
    161,
    162,
    163,
    164,
    165,
    166,
    167,
    168,
    169,
    170,
    171,
    172,
    173,
    174,
    175,
    176,
    177,
    178,
    179,
    180,
    181,
    182,
    183,
    184,
    185,
    186,
    187,
    188,
    189,
    190,
    191,
    192,
    193,
    194,
    195,
    196,
    197,
    198,
    199,
    200,
    201,
    202,
    203,
    204,
    205,
    206,
    207,
    208,
    209,
    210,
    211,
    212,
    213,
    214,
    215,
    216,
    217,
    218,
    219,
    220,
    221,
    222,
    223,
    224,
    225,
    226,
    227,
    228,
    229,
    230,
    231,
    232,
    233,
    234,
    235,
    236,
    237,
    238,
    239,
    240,
    241,
    242,
    243,
    244,
    245,
    246,
    247,
    248,
    249,
    250,
    251,
    252,
    253,
    254,
    255,
    256
   ],
   "LargestImagePixelValue": [
    2914,
    2858,
    2894,
    2859,
    2864,
    2843,
    2839,
    2834,
    2836,
    2839,
    2835,
    2837,
    2823,
    2800,
    2825,
    2832,
    2809,
    2795,
    2801,
    2803,
    2826,
    2793,
    2813,
    2796,
    2805,
    2818,
    2786,
    2854,
    2847,
    2844,
    2837,
    2832,
    2827,
    2843,
    2804,
    2793,
    2793,
    2832,
    2796,
    2799,
    2775,
    2823,
    2779,
    2785,
    2789,
    2788,
    2798,
    2808,
    2770,
    2797,
    2789,
    2816,
    2780,
    2815,
    2781,
    2797,
    2799,
    2812,
    2821,
    2776,
    2790,
    2775,
    2794,
    2800,
    2788,
    2797,
    2783,
    2774,
    2788,
    2798,
    2768,
    2782,
    2766,
    2785,
    2786,
    2808,
    2790,
    2817,
    2829,
    2814,
    2806,
    2798,
    2807,
    2774,
    2781,
    2773,
    2750,
    2779,
    2754,
    2790,
    2774,
    2776,
    2752,
    2788,
    2755,
    2751,
    2807,
    2824,
    2760,
    2746,
    2794,
    2777,
    2764,
    2757,
    2757,
    2782,
    2770,
    2811,
    2770,
    2810,
    2794,
    2810,
    2829,
    2818,
    2785,
    2819,
    2762,
    2763,
    2747,
    2778,
    2761,
    2768,
    2739,
    2812,
    2785,
    2811,
    2781,
    2783,
    2771,
    2775,
    2764,
    2795,
    2800,
    2798,
    2766,
    2812,
    2767,
    2757,
    2798,
    2787,
    2760,
    2749,
    2786,
    2770,
    2767,
    2804,
    2730,
    2749,
    2732,
    2792,
    2762,
    2806,
    2770,
    2743,
    2776,
    2776,
    2765,
    2746,
    2784,
    2783,
    2774,
    2776,
    2829,
    2759,
    2749,
    2773,
    2764,
    2811,
    2765,
    2760,
    2767,
    2774,
    2775,
    2778,
    2788,
    2753,
    2742,
    2737,
    2740,
    2762,
    2761,
    2771,
    2757,
    2762,
    2791,
    2769,
    2754,
    2739,
    2735,
    2803,
    2791,
    2791,
    2752,
    2757,
    2737,
    2735,
    2724,
    2743,
    2731,
    2711,
    2736,
    2734,
    2713,
    2747,
    2725,
    2754,
    2732,
    2752,
    2743,
    2794,
    2728,
    2722,
    2720,
    2737,
    2712,
    2756,
    2762,
    2717,
    2703,
    2726,
    2736,
    2702,
    2690,
    2723,
    2686,
    2709,
    2688,
    2696,
    2662,
    2662,
    2660,
    2665,
    2676,
    2712,
    2708,
    2703,
    2699,
    2695,
    2652,
    2762,
    2721,
    2686,
    2705,
    2696,
    2659,
    2716,
    2668,
    2685,
    2680,
    2675,
    2668,
    2671,
    2664,
    2672,
    2716,
    2685
   ],
   "WindowCenter": [
    743.0,
    741.0,
    742.0,
    741.0,
    741.0,
    742.0,
    741.0,
    740.0,
    740.0,
    740.0,
    741.0,
    742.0,
    741.0,
    741.0,
    739.0,
    740.0,
    741.0,
    742.0,
    741.0,
    739.0,
    739.0,
    738.0,
    740.0,
    741.0,
    741.0,
    741.0,
    740.0,
    740.0,
    740.0,
    740.0,
    740.0,
    741.0,
    740.0,
    740.0,
    740.0,
    741.0,
    740.0,
    741.0,
    740.0,
    740.0,
    739.0,
    740.0,
    740.0,
    739.0,
    738.0,
    739.0,
    740.0,
    740.0,
    740.0,
    740.0,
    739.0,
    740.0,
    740.0,
    740.0,
    740.0,
    739.0,
    738.0,
    739.0,
    740.0,
    740.0,
    740.0,
    739.0,
    739.0,
    739.0,
    739.0,
    739.0,
    739.0,
    739.0,
    739.0,
    739.0,
    739.0,
    740.0,
    740.0,
    740.0,
    740.0,
    740.0,
    740.0,
    740.0,
    740.0,
    739.0,
    739.0,
    739.0,
    739.0,
    739.0,
    738.0,
    739.0,
    738.0,
    740.0,
    740.0,
    740.0,
    739.0,
    739.0,
    739.0,
    739.0,
    739.0,
    738.0,
    739.0,
    740.0,
    740.0,
    739.0,
    739.0,
    739.0,
    740.0,
    740.0,
    739.0,
    738.0,
    739.0,
    740.0,
    739.0,
    739.0,
