{
 "AcquisitionMatrixPE": 100,
 "AcquisitionNumber": 1,
 "AcquisitionTime": "12:34:16.477500",
 "BandwidthPerPixelPhaseEncode": 18.519,
 "BaseResolution": 100,
 "BodyPartExamined": "BRAIN",
 "ConsistencyInfo": "N4_VE11C_LATEST_20160120",
 "ConversionSoftware": "dcm2niix",
 "ConversionSoftwareVersion": "v1.0.20180622 GCC4.9.2",
 "DerivedVendorReportedEchoSpacing": 0.000539986,
 "DeviceSerialNumber": "166078",
 "DwellTime": 2.1e-06,
 "EchoTime": 0.034,
 "EchoTrainLength": 100,
 "EffectiveEchoSpacing": 0.000539986,
 "FlipAngle": 90,
 "ImageOrientationPatientDICOM": [
  1,
  -4.5782e-06,
  -5.48897e-05,
  -3.03345e-08,
  0.996494,
  -0.0836675
 ],
 "ImageType": [
  "ORIGINAL",
  "PRIMARY",
  "M",
  "ND",
  "MOSAIC"
 ],
 "InPlanePhaseEncodingDirectionDICOM": "COL",
 "InstitutionAddress": "Street_StreetNo_Bei_Jing_District_CN_ZIP",
 "InstitutionName": "BeiJing_Normal_University",
 "InstitutionalDepartmentName": "Department",
 "MRAcquisitionType": "2D",
 "MagneticFieldStrength": 3,
 "Manufacturer": "Siemens",
 "ManufacturersModelName": "Prisma",
 "Modality": "MR",
 "MultibandAccelerationFactor": 3,
 "PartialFourier": 1,
 "PatientPosition": "HFS",
 "PercentPhaseFOV": 100,
 "PhaseEncodingDirection": "j-",
 "PhaseEncodingSteps": 100,
 "PhaseResolution": 1,
 "PixelBandwidth": 2380,
 "ProcedureStepDescription": "BNU_P2018_64CH_Zhen.ZongLei",
 "ProtocolName": "bold_100x100_s3_2x2x2_static_256",
 "PulseSequenceDetails": "%SiemensSeq%_ep2d_bold",
 "ReceiveCoilActiveElements": "HC1-7;NC1",
 "ReceiveCoilName": "HeadNeck_64",
 "ReconMatrixPE": 100,
 "RepetitionTime": 2,
 "SAR": 0.0793508,
 "ScanOptions": "FS",
 "ScanningSequence": "EP",
 "SequenceName": "_epfid2d1_100",
 "SequenceVariant": "SK",
 "SeriesDescription": "bold_100x100_s3_2x2x2_static_256",
 "SeriesNumber": 4,
 "ShimSetting": [
  -5465,
  -11514,
  -1298,
  434,
  -8,
  -201,
  -135,
  -16
 ],
 "SliceThickness": 2,
 "SliceTiming": [
  1.485,
  0,
  0.99,
  0.0825,
  1.0725,
  0.165,
  1.155,
  0.2475,
  1.2375,
  0.33,
  1.32,
  0.4125,
  1.4025,
  0.5775,
  1.5675,
  0.66,
  1.65,
  0.7425,
  1.7325,
  0.825,
  1.815,
  0.9075,
  1.8975,
  0.495,
  1.485,
  0,
  0.99,
  0.0825,
  1.0725,
  0.165,
  1.155,
  0.2475,
  1.2375,
  0.33,
  1.32,
  0.4125,
  1.4025,
  0.5775,
  1.5675,
  0.66,
  1.65,
  0.7425,
  1.7325,
  0.825,
  1.815,
  0.9075,
  1.8975,
  0.495,
  1.485,
  0,
  0.99,
  0.0825,
  1.0725,
  0.165,
  1.155,
  0.2475,
  1.2375,
  0.33,
  1.32,
  0.4125,
  1.4025,
  0.5775,
  1.5675,
  0.66,
  1.65,
  0.7425,
  1.7325,
  0.825,
  1.815,
  0.9075,
  1.8975,
  0.495
 ],
 "SoftwareVersions": "syngo_MR_E11",
 "SpacingBetweenSlices": 2,
 "StationName": "AWP166078",
 "TaskName": "imagenet",
 "TotalReadoutTime": 0.0534586,
 "TxRefAmp": 212.831,
 "dcmmeta_affine": [
  [
   -2.0,
   -6.066899516099511e-08,
   -0.00011016056669177487,
   104.11992645263672
  ],
  [
   9.156405212706886e-06,
   1.9929873943328857,
   -0.16733504831790924,
   -85.59622955322266
  ],
  [
   -0.00010977938654832542,
   0.16733504831790924,
   1.9929875135421753,
   -70.5794677734375
  ],
  [
   0.0,
   0.0,
   0.0,
   1.0
  ]
 ],
 "dcmmeta_reorient_transform": [
  [
   0.0,
   -1.0,
   0.0,
   99.0
  ],
  [
   1.0,
   0.0,
   0.0,
   0.0
  ],
  [
   0.0,
   0.0,
   1.0,
   0.0
  ],
  [
   0.0,
   0.0,
   0.0,
   1.0
  ]
 ],
 "dcmmeta_shape": [
  100,
  100,
  72,
  256
 ],
 "dcmmeta_slice_dim": 2,
 "dcmmeta_version": 0.6,
 "global": {
  "const": {
   "AcquisitionMatrix": [
    100,
    0,
    0,
    100
   ],
   "AngioFlag": "N",
   "BitsAllocated": 16,
   "BitsStored": 12,
   "BodyPartExamined": "BRAIN",
   "Columns": 900,
   "EchoNumbers": 1,
   "EchoTime": 34.0,
   "EchoTrainLength": 100,
   "FlipAngle": 90.0,
   "HighBit": 11,
   "ImageOrientationPatient": [
    0.99999999848308,
    -4.57820243e-06,
    -5.48896923e-05,
    -3.0334497e-08,
    0.9964937259729,
    -0.0836675211575
   ],
   "ImagePositionPatient": [
    -904.11989683269,
    -908.9008437646,
    12.964633570993
   ],
   "ImageType": [
    "ORIGINAL",
    "PRIMARY",
    "M",
    "ND",
    "MOSAIC"
   ],
   "ImagedNucleus": "1H",
   "ImagingFrequency": 123.257739,
   "InPlanePhaseEncodingDirection": "COL",
   "MRAcquisitionType": "2D",
   "MagneticFieldStrength": 3.0,
   "Manufacturer": "SIEMENS",
   "ManufacturerModelName": "Prisma",
   "Modality": "MR",
   "NumberOfAverages": 1.0,
   "NumberOfPhaseEncodingSteps": 100,
   "PercentPhaseFieldOfView": 100.0,
   "PercentSampling": 100.0,
   "PerformedProcedureStepStartTime": "120754.453000",
   "PhotometricInterpretation": "MONOCHROME2",
   "PixelBandwidth": 2380.0,
   "PixelRepresentation": 0,
   "PixelSpacing": [
    2.0,
    2.0
   ],
   "ProtocolName": "bold_100x100_s3_2x2x2_static_256",
   "RepetitionTime": 2000.0,
   "Rows": 900,
   "SAR": 0.07935082826242,
   "SamplesPerPixel": 1,
   "ScanOptions": "FS",
   "ScanningSequence": "EP",
   "SequenceName": "*epfid2d1_100",
   "SequenceVariant": "SK",
   "SeriesDescription": "bold_100x100_s3_2x2x2_static_256",
   "SeriesNumber": 4,
   "SeriesTime": "123419.189000",
   "SliceLocation": -63.176103646327,
   "SliceThickness": 2.0,
   "SmallestImagePixelValue": 0,
   "SoftwareVersions": "syngo MR E11",
   "SpacingBetweenSlices": 2.0000000620842,
   "SpecificCharacterSet": "ISO_IR 100",
   "StudyID": "1",
   "StudyTime": "120754.308000",
   "TransmitCoilName": "Body",
   "VariableFlipAngleFlag": "N",
   "WindowCenterWidthExplanation": "Algo1",
   "dBdt": 0.0
  },
  "slices": {}
 },
 "time": {
  "samples": {
   "AcquisitionNumber": [
    1,
    2,
    3,
    4,
    5,
    6,
    7,
    8,
    9,
    10,
    11,
    12,
    13,
    14,
    15,
    16,
    17,
    18,
    19,
    20,
    21,
    22,
    23,
    24,
    25,
    26,
    27,
    28,
    29,
    30,
    31,
    32,
    33,
    34,
    35,
    36,
    37,
    38,
    39,
    40,
    41,
    42,
    43,
    44,
    45,
    46,
    47,
    48,
    49,
    50,
    51,
    52,
    53,
    54,
    55,
    56,
    57,
    58,
    59,
    60,
    61,
    62,
    63,
    64,
    65,
    66,
    67,
    68,
    69,
    70,
    71,
    72,
    73,
    74,
    75,
    76,
    77,
    78,
    79,
    80,
    81,
    82,
    83,
    84,
    85,
    86,
    87,
    88,
    89,
    90,
    91,
    92,
    93,
    94,
    95,
    96,
    97,
    98,
    99,
    100,
    101,
    102,
    103,
    104,
    105,
    106,
    107,
    108,
    109,
    110,
    111,
    112,
    113,
    114,
    115,
    116,
    117,
    118,
    119,
    120,
    121,
    122,
    123,
    124,
    125,
    126,
    127,
    128,
    129,
    130,
    131,
    132,
    133,
    134,
    135,
    136,
    137,
    138,
    139,
    140,
    141,
    142,
    143,
    144,
    145,
    146,
    147,
    148,
    149,
    150,
    151,
    152,
    153,
    154,
    155,
    156,
    157,
    158,
    159,
    160,
    161,
    162,
    163,
    164,
    165,
    166,
    167,
    168,
    169,
    170,
    171,
    172,
    173,
    174,
    175,
    176,
    177,
    178,
    179,
    180,
    181,
    182,
    183,
    184,
    185,
    186,
    187,
    188,
    189,
    190,
    191,
    192,
    193,
    194,
    195,
    196,
    197,
    198,
    199,
    200,
    201,
    202,
    203,
    204,
    205,
    206,
    207,
    208,
    209,
    210,
    211,
    212,
    213,
    214,
    215,
    216,
    217,
    218,
    219,
    220,
    221,
    222,
    223,
    224,
    225,
    226,
    227,
    228,
    229,
    230,
    231,
    232,
    233,
    234,
    235,
    236,
    237,
    238,
    239,
    240,
    241,
    242,
    243,
    244,
    245,
    246,
    247,
    248,
    249,
    250,
    251,
    252,
    253,
    254,
    255,
    256
   ],
   "AcquisitionTime": [
    "123416.477500",
    "123418.477500",
    "123420.477500",
    "123422.477500",
    "123424.477500",
    "123426.477500",
    "123428.477500",
    "123430.477500",
    "123432.477500",
    "123434.477500",
    "123436.477500",
    "123438.477500",
    "123440.477500",
    "123442.477500",
    "123444.477500",
    "123446.477500",
    "123448.477500",
    "123450.477500",
    "123452.477500",
    "123454.477500",
    "123456.477500",
    "123458.477500",
    "123500.477500",
    "123502.477500",
    "123504.477500",
    "123506.477500",
    "123508.477500",
    "123510.477500",
    "123512.477500",
    "123514.477500",
    "123516.477500",
    "123518.477500",
    "123520.477500",
    "123522.477500",
    "123524.477500",
    "123526.477500",
    "123528.477500",
    "123530.477500",
    "123532.477500",
    "123534.477500",
    "123536.477500",
    "123538.477500",
    "123540.477500",
    "123542.477500",
    "123544.477500",
    "123546.477500",
    "123548.477500",
    "123550.477500",
    "123552.477500",
    "123554.477500",
    "123556.477500",
    "123558.477500",
    "123600.477500",
    "123602.477500",
    "123604.477500",
    "123606.477500",
    "123608.477500",
    "123610.477500",
    "123612.477500",
    "123614.477500",
    "123616.477500",
    "123618.477500",
    "123620.477500",
    "123622.477500",
    "123624.477500",
    "123626.477500",
    "123628.477500",
    "123630.477500",
    "123632.477500",
    "123634.477500",
    "123636.477500",
    "123638.477500",
    "123640.477500",
    "123642.477500",
    "123644.477500",
    "123646.477500",
    "123648.477500",
    "123650.477500",
    "123652.477500",
    "123654.477500",
    "123656.477500",
    "123658.477500",
    "123700.477500",
    "123702.477500",
    "123704.477500",
    "123706.477500",
    "123708.477500",
    "123710.477500",
    "123712.477500",
    "123714.477500",
    "123716.477500",
    "123718.477500",
    "123720.477500",
    "123722.477500",
    "123724.477500",
    "123726.477500",
    "123728.477500",
    "123730.477500",
    "123732.477500",
    "123734.477500",
    "123736.477500",
    "123738.477500",
    "123740.477500",
    "123742.477500",
    "123744.477500",
    "123746.477500",
    "123748.477500",
    "123750.477500",
    "123752.477500",
    "123754.477500",
    "123756.477500",
    "123758.477500",
    "123800.477500",
    "123802.477500",
    "123804.477500",
    "123806.477500",
    "123808.477500",
    "123810.477500",
    "123812.477500",
    "123814.477500",
    "123816.477500",
    "123818.477500",
    "123820.477500",
    "123822.477500",
    "123824.477500",
    "123826.477500",
    "123828.477500",
    "123830.477500",
    "123832.477500",
    "123834.477500",
    "123836.477500",
    "123838.477500",
    "123840.477500",
    "123842.477500",
    "123844.477500",
    "123846.477500",
    "123848.477500",
    "123850.477500",
    "123852.477500",
    "123854.477500",
    "123856.477500",
    "123858.477500",
    "123900.477500",
    "123902.477500",
    "123904.477500",
    "123906.477500",
    "123908.477500",
    "123910.477500",
    "123912.477500",
    "123914.477500",
    "123916.477500",
    "123918.477500",
    "123920.477500",
    "123922.477500",
    "123924.477500",
    "123926.477500",
    "123928.477500",
    "123930.477500",
    "123932.477500",
    "123934.477500",
    "123936.477500",
    "123938.477500",
    "123940.477500",
    "123942.477500",
    "123944.477500",
    "123946.477500",
    "123948.477500",
    "123950.477500",
    "123952.477500",
    "123954.477500",
    "123956.477500",
    "123958.477500",
    "124000.477500",
    "124002.477500",
    "124004.477500",
    "124006.477500",
    "124008.477500",
    "124010.477500",
    "124012.477500",
    "124014.477500",
    "124016.477500",
    "124018.477500",
    "124020.477500",
    "124022.477500",
    "124024.477500",
    "124026.477500",
    "124028.477500",
    "124030.477500",
    "124032.477500",
    "124034.477500",
    "124036.477500",
    "124038.477500",
    "124040.477500",
    "124042.477500",
    "124044.477500",
    "124046.477500",
    "124048.477500",
    "124050.477500",
    "124052.477500",
    "124054.477500",
    "124056.477500",
    "124058.477500",
    "124100.477500",
    "124102.477500",
    "124104.477500",
    "124106.477500",
    "124108.477500",
    "124110.477500",
    "124112.477500",
    "124114.477500",
    "124116.477500",
    "124118.477500",
    "124120.477500",
    "124122.477500",
    "124124.477500",
    "124126.477500",
    "124128.477500",
    "124130.477500",
    "124132.477500",
    "124134.477500",
    "124136.477500",
    "124138.477500",
    "124140.477500",
    "124142.477500",
    "124144.477500",
    "124146.477500",
    "124148.477500",
    "124150.477500",
    "124152.477500",
    "124154.477500",
    "124156.477500",
    "124158.477500",
    "124200.477500",
    "124202.477500",
    "124204.477500",
    "124206.477500",
    "124208.477500",
    "124210.477500",
    "124212.477500",
    "124214.477500",
    "124216.477500",
    "124218.477500",
    "124220.477500",
    "124222.477500",
    "124224.477500",
    "124226.477500",
    "124228.477500",
    "124230.477500",
    "124232.477500",
    "124234.477500",
    "124236.477500",
    "124238.477500",
    "124240.477500",
    "124242.477500",
    "124244.477500",
    "124246.477500"
   ],
   "ContentTime": [
    "123419.193000",
    "123420.689000",
    "123423.189000",
    "123424.689000",
    "123426.687000",
    "123428.687000",
    "123430.687000",
    "123433.187000",
    "123434.689000",
    "123436.689000",
    "123438.688000",
    "123440.689000",
    "123442.688000",
    "123445.188000",
    "123446.687000",
    "123448.688000",
    "123450.687000",
    "123452.689000",
    "123454.689000",
    "123457.188000",
    "123458.689000",
    "123501.188000",
    "123503.187000",
    "123504.687000",
    "123506.687000",
    "123508.688000",
    "123510.689000",
    "123512.688000",
    "123514.688000",
    "123516.688000",
    "123518.687000",
    "123520.688000",
    "123522.688000",
    "123524.687000",
    "123526.688000",
    "123528.688000",
    "123530.689000",
    "123532.689000",
    "123534.688000",
    "123536.687000",
    "123538.688000",
    "123540.687000",
    "123542.688000",
    "123545.189000",
    "123546.688000",
    "123549.189000",
    "123550.688000",
    "123552.688000",
    "123554.687000",
    "123557.188000",
    "123558.687000",
    "123600.687000",
    "123602.688000",
    "123605.189000",
    "123606.688000",
    "123609.189000",
    "123610.687000",
    "123612.687000",
    "123614.687000",
    "123616.688000",
    "123618.689000",
    "123620.688000",
    "123622.688000",
    "123624.689000",
    "123626.688000",
    "123628.687000",
    "123630.687000",
    "123633.188000",
    "123634.688000",
    "123636.688000",
    "123639.188000",
    "123640.689000",
    "123642.690000",
    "123644.688000",
    "123646.687000",
    "123648.688000",
    "123650.687000",
    "123652.688000",
    "123654.689000",
    "123656.688000",
    "123658.689000",
    "123700.688000",
    "123703.187000",
    "123704.687000",
    "123706.687000",
    "123708.687000",
    "123710.687000",
    "123712.690000",
    "123715.188000",
    "123716.688000",
    "123718.689000",
    "123720.687000",
    "123722.687000",
    "123724.687000",
    "123726.687000",
    "123728.689000",
    "123730.689000",
    "123732.689000",
    "123735.189000",
    "123736.689000",
    "123738.688000",
    "123740.688000",
    "123743.188000",
    "123744.688000",
    "123746.688000",
    "123748.688000",
    "123751.188000",
    "123752.688000",
    "123755.188000",
    "123756.687000",
    "123758.688000",
    "123801.187000",
    "123802.687000",
    "123804.688000",
    "123806.689000",
    "123808.689000",
    "123810.688000",
    "123812.689000",
    "123814.688000",
    "123816.688000",
    "123818.687000",
    "123820.688000",
    "123822.688000",
    "123824.688000",
    "123826.689000",
    "123828.688000",
    "123830.688000",
    "123833.188000",
    "123834.687000",
    "123836.687000",
    "123838.689000",
    "123840.688000",
    "123842.688000",
    "123844.689000",
    "123846.688000",
    "123848.688000",
    "123851.188000",
    "123852.687000",
    "123854.687000",
    "123856.689000",
    "123858.689000",
    "123900.688000",
    "123902.688000",
    "123904.688000",
    "123906.688000",
    "123908.687000",
    "123910.688000",
    "123912.688000",
    "123914.689000",
    "123916.689000",
    "123918.688000",
    "123920.688000",
    "123922.689000",
    "123925.188000",
    "123926.687000",
    "123928.688000",
    "123930.687000",
    "123932.688000",
    "123934.688000",
    "123937.189000",
    "123938.688000",
    "123940.687000",
    "123942.688000",
    "123944.687000",
    "123946.687000",
    "123948.689000",
    "123950.688000",
    "123952.689000",
    "123955.189000",
    "123956.688000",
    "123958.687000",
    "124000.687000",
    "124002.688000",
    "124004.687000",
    "124007.189000",
    "124009.188000",
    "124010.689000",
    "124012.688000",
    "124014.688000",
    "124016.687000",
    "124018.687000",
    "124020.688000",
    "124022.688000",
    "124024.688000",
    "124026.689000",
    "124028.688000",
    "124031.188000",
    "124032.689000",
    "124035.188000",
    "124036.687000",
    "124038.687000",
    "124040.688000",
    "124042.688000",
    "124044.688000",
    "124046.689000",
    "124048.688000",
    "124050.687000",
    "124052.687000",
    "124054.687000",
    "124056.687000",
    "124059.188000",
    "124100.688000",
    "124102.688000",
    "124104.689000",
    "124107.189000",
    "124109.188000",
    "124111.188000",
    "124112.688000",
    "124114.687000",
    "124116.689000",
    "124118.689000",
    "124120.689000",
    "124122.689000",
    "124124.689000",
    "124126.687000",
    "124129.188000",
    "124130.688000",
    "124132.687000",
    "124134.688000",
    "124137.188000",
    "124138.689000",
    "124140.688000",
    "124142.688000",
    "124144.688000",
    "124147.188000",
    "124148.687000",
    "124150.688000",
    "124152.689000",
    "124154.688000",
    "124157.189000",
    "124158.688000",
    "124200.688000",
    "124203.187000",
    "124204.687000",
    "124206.687000",
    "124208.688000",
    "124210.688000",
    "124212.688000",
    "124214.689000",
    "124216.688000",
    "124218.687000",
    "124220.687000",
    "124222.687000",
    "124224.687000",
    "124226.688000",
    "124228.688000",
    "124230.689000",
    "124232.689000",
    "124234.689000",
    "124236.687000",
    "124238.687000",
    "124240.688000",
    "124242.688000",
    "124244.688000",
    "124246.688000",
    "124248.660000"
   ],
   "InstanceCreationTime": [
    "123419.193000",
    "123420.689000",
    "123423.189000",
    "123424.689000",
    "123426.687000",
    "123428.687000",
    "123430.687000",
    "123433.187000",
    "123434.689000",
    "123436.689000",
    "123438.688000",
    "123440.689000",
    "123442.688000",
    "123445.188000",
    "123446.687000",
    "123448.688000",
    "123450.687000",
    "123452.689000",
    "123454.689000",
    "123457.188000",
    "123458.689000",
    "123501.188000",
    "123503.187000",
    "123504.687000",
    "123506.687000",
    "123508.688000",
    "123510.689000",
    "123512.688000",
    "123514.688000",
    "123516.688000",
    "123518.687000",
    "123520.688000",
    "123522.688000",
    "123524.687000",
    "123526.688000",
    "123528.688000",
    "123530.689000",
    "123532.689000",
    "123534.688000",
    "123536.687000",
    "123538.688000",
    "123540.687000",
    "123542.688000",
    "123545.189000",
    "123546.688000",
    "123549.189000",
    "123550.688000",
    "123552.688000",
    "123554.687000",
    "123557.188000",
    "123558.687000",
    "123600.687000",
    "123602.688000",
    "123605.189000",
    "123606.688000",
    "123609.189000",
    "123610.687000",
    "123612.687000",
    "123614.687000",
    "123616.688000",
    "123618.689000",
    "123620.688000",
    "123622.688000",
    "123624.689000",
    "123626.688000",
    "123628.687000",
    "123630.687000",
    "123633.188000",
    "123634.688000",
    "123636.688000",
    "123639.188000",
    "123640.689000",
    "123642.690000",
    "123644.688000",
    "123646.687000",
    "123648.688000",
    "123650.687000",
    "123652.688000",
    "123654.689000",
    "123656.688000",
    "123658.689000",
    "123700.688000",
    "123703.187000",
    "123704.687000",
    "123706.687000",
    "123708.687000",
    "123710.687000",
    "123712.690000",
    "123715.188000",
    "123716.688000",
    "123718.689000",
    "123720.687000",
    "123722.687000",
    "123724.687000",
    "123726.687000",
    "123728.689000",
    "123730.689000",
    "123732.689000",
    "123735.189000",
    "123736.689000",
    "123738.688000",
    "123740.688000",
    "123743.188000",
    "123744.688000",
    "123746.688000",
    "123748.688000",
    "123751.188000",
    "123752.688000",
    "123755.188000",
    "123756.687000",
    "123758.688000",
    "123801.187000",
    "123802.687000",
    "123804.688000",
    "123806.689000",
    "123808.689000",
    "123810.688000",
    "123812.689000",
    "123814.688000",
    "123816.688000",
    "123818.687000",
    "123820.688000",
    "123822.688000",
    "123824.688000",
    "123826.689000",
    "123828.688000",
    "123830.688000",
    "123833.188000",
    "123834.687000",
    "123836.687000",
    "123838.689000",
    "123840.688000",
    "123842.688000",
    "123844.689000",
    "123846.688000",
    "123848.688000",
    "123851.188000",
    "123852.687000",
    "123854.687000",
    "123856.689000",
    "123858.689000",
    "123900.688000",
    "123902.688000",
    "123904.688000",
    "123906.688000",
    "123908.687000",
    "123910.688000",
    "123912.688000",
    "123914.689000",
    "123916.689000",
    "123918.688000",
    "123920.688000",
    "123922.689000",
    "123925.188000",
    "123926.687000",
    "123928.688000",
    "123930.687000",
    "123932.688000",
    "123934.688000",
    "123937.189000",
    "123938.688000",
    "123940.687000",
    "123942.688000",
    "123944.687000",
    "123946.687000",
    "123948.689000",
    "123950.688000",
    "123952.689000",
    "123955.189000",
    "123956.688000",
    "123958.687000",
    "124000.687000",
    "124002.688000",
    "124004.687000",
    "124007.189000",
    "124009.188000",
    "124010.689000",
    "124012.688000",
    "124014.688000",
    "124016.687000",
    "124018.687000",
    "124020.688000",
    "124022.688000",
    "124024.688000",
    "124026.689000",
    "124028.688000",
    "124031.188000",
    "124032.689000",
    "124035.188000",
    "124036.687000",
    "124038.687000",
    "124040.688000",
    "124042.688000",
    "124044.688000",
    "124046.689000",
    "124048.688000",
    "124050.687000",
    "124052.687000",
    "124054.687000",
    "124056.687000",
    "124059.188000",
    "124100.688000",
    "124102.688000",
    "124104.689000",
    "124107.189000",
    "124109.188000",
    "124111.188000",
    "124112.688000",
    "124114.687000",
    "124116.689000",
    "124118.689000",
    "124120.689000",
    "124122.689000",
    "124124.689000",
    "124126.687000",
    "124129.188000",
    "124130.688000",
    "124132.687000",
    "124134.688000",
    "124137.188000",
    "124138.689000",
    "124140.688000",
    "124142.688000",
    "124144.688000",
    "124147.188000",
    "124148.687000",
    "124150.688000",
    "124152.689000",
    "124154.688000",
    "124157.189000",
    "124158.688000",
    "124200.688000",
    "124203.187000",
    "124204.687000",
    "124206.687000",
    "124208.688000",
    "124210.688000",
    "124212.688000",
    "124214.689000",
    "124216.688000",
    "124218.687000",
    "124220.687000",
    "124222.687000",
    "124224.687000",
    "124226.688000",
    "124228.688000",
    "124230.689000",
    "124232.689000",
    "124234.689000",
    "124236.687000",
    "124238.687000",
    "124240.688000",
    "124242.688000",
    "124244.688000",
    "124246.688000",
    "124248.660000"
   ],
   "InstanceNumber": [
    1,
    2,
    3,
    4,
    5,
    6,
    7,
    8,
    9,
    10,
    11,
    12,
    13,
    14,
    15,
    16,
    17,
    18,
    19,
    20,
    21,
    22,
    23,
    24,
    25,
    26,
    27,
    28,
    29,
    30,
    31,
    32,
    33,
    34,
    35,
    36,
    37,
    38,
    39,
    40,
    41,
    42,
    43,
    44,
    45,
    46,
    47,
    48,
    49,
    50,
    51,
    52,
    53,
    54,
    55,
    56,
    57,
    58,
    59,
    60,
    61,
    62,
    63,
    64,
    65,
    66,
    67,
    68,
    69,
    70,
    71,
    72,
    73,
    74,
    75,
    76,
    77,
    78,
    79,
    80,
    81,
    82,
    83,
    84,
    85,
    86,
    87,
    88,
    89,
    90,
    91,
    92,
    93,
    94,
    95,
    96,
    97,
    98,
    99,
    100,
    101,
    102,
    103,
    104,
    105,
    106,
    107,
    108,
    109,
    110,
    111,
    112,
    113,
    114,
    115,
    116,
    117,
    118,
    119,
    120,
    121,
    122,
    123,
    124,
    125,
    126,
    127,
    128,
    129,
    130,
    131,
    132,
    133,
    134,
    135,
    136,
    137,
    138,
    139,
    140,
    141,
    142,
    143,
    144,
    145,
    146,
    147,
    148,
    149,
    150,
    151,
    152,
    153,
    154,
    155,
    156,
    157,
    158,
    159,
    160,
    161,
    162,
    163,
    164,
    165,
    166,
    167,
    168,
    169,
    170,
    171,
    172,
    173,
    174,
    175,
    176,
    177,
    178,
    179,
    180,
    181,
    182,
    183,
    184,
    185,
    186,
    187,
    188,
    189,
    190,
    191,
    192,
    193,
    194,
    195,
    196,
    197,
    198,
    199,
    200,
    201,
    202,
    203,
    204,
    205,
    206,
    207,
    208,
    209,
    210,
    211,
    212,
    213,
    214,
    215,
    216,
    217,
    218,
    219,
    220,
    221,
    222,
    223,
    224,
    225,
    226,
    227,
    228,
    229,
    230,
    231,
    232,
    233,
    234,
    235,
    236,
    237,
    238,
    239,
    240,
    241,
    242,
    243,
    244,
    245,
    246,
    247,
    248,
    249,
    250,
    251,
    252,
    253,
    254,
    255,
    256
   ],
   "LargestImagePixelValue": [
    3483,
    3414,
    3455,
    3404,
    3332,
    3388,
    3381,
    3459,
    3358,
    3339,
    3398,
    3365,
    3380,
    3357,
    3364,
    3354,
    3414,
    3414,
    3396,
    3441,
    3353,
    3399,
    3362,
    3364,
    3389,
    3400,
    3387,
    3390,
    3432,
    3419,
    3407,
    3418,
    3409,
    3362,
    3396,
    3373,
    3420,
    3407,
    3382,
    3375,
    3386,
    3404,
    3390,
    3445,
    3407,
    3422,
    3398,
    3396,
    3443,
    3421,
    3399,
    3403,
    3382,
    3413,
    3403,
    3416,
    3369,
    3400,
    3364,
    3410,
    3300,
    3340,
    3337,
    3358,
    3319,
    3289,
    3346,
    3339,
    3346,
    3381,
    3294,
    3437,
    3390,
    3369,
    3360,
    3382,
    3411,
    3375,
    3391,
    3338,
    3413,
    3387,
    3379,
    3373,
    3352,
    3382,
    3363,
    3361,
    3390,
    3405,
    3347,
    3303,
    3399,
    3350,
    3375,
    3349,
    3388,
    3399,
    3363,
    3317,
    3387,
    3353,
    3328,
    3334,
    3273,
    3286,
    3322,
    3337,
    3373,
    3367,
    3327,
    3296,
    3317,
    3359,
    3378,
    3329,
    3281,
    3333,
    3370,
    3360,
    3356,
    3340,
    3331,
    3329,
    3316,
    3339,
    3345,
    3339,
    3290,
    3352,
    3282,
    3297,
    3289,
    3331,
    3350,
    3314,
    3315,
    3328,
    3307,
    3333,
    3323,
    3313,
    3290,
    3313,
    3316,
    3330,
    3361,
    3327,
    3301,
    3336,
    3321,
    3324,
    3336,
    3293,
    3282,
    3308,
    3307,
    3303,
    3294,
    3302,
    3292,
    3350,
    3343,
    3278,
    3285,
    3334,
    3300,
    3318,
    3316,
    3358,
    3354,
    3331,
    3323,
    3314,
    3301,
    3261,
    3317,
    3319,
    3299,
    3279,
    3281,
    3290,
    3289,
    3291,
    3304,
    3313,
    3317,
    3271,
    3312,
    3320,
    3329,
    3294,
    3297,
    3295,
    3289,
    3221,
    3250,
    3287,
    3279,
    3305,
    3279,
    3301,
    3357,
    3318,
    3354,
    3379,
    3311,
    3285,
    3321,
    3282,
    3277,
    3263,
    3256,
    3285,
    3317,
    3297,
    3304,
    3266,
    3311,
    3309,
    3349,
    3291,
    3292,
    3280,
    3256,
    3291,
    3318,
    3282,
    3348,
    3339,
    3383,
    3338,
    3302,
    3350,
    3343,
    3366,
    3306,
    3332,
    3294,
    3298,
    3340,
    3336,
    3328,
    3337,
    3319,
    3310,
    3266,
    3328,
    3276,
    3340,
    3332,
    3285,
    3287,
    3311,
    3317,
    3312
   ],
   "WindowCenter": [
    771.0,
    770.0,
    770.0,
    771.0,
    770.0,
    770.0,
    769.0,
    770.0,
    770.0,
    770.0,
    771.0,
    771.0,
    770.0,
    769.0,
    769.0,
    769.0,
    770.0,
    770.0,
    771.0,
    770.0,
    769.0,
    770.0,
    771.0,
    771.0,
    771.0,
    771.0,
    769.0,
    770.0,
    770.0,
    771.0,
    772.0,
    772.0,
    770.0,
    768.0,
    768.0,
    770.0,
    772.0,
    772.0,
    770.0,
    769.0,
    769.0,
    770.0,
    772.0,
    772.0,
    770.0,
    769.0,
    769.0,
    770.0,
    770.0,
    771.0,
    770.0,
    770.0,
    770.0,
    771.0,
    770.0,
    769.0,
    768.0,
    768.0,
    769.0,
    770.0,
    769.0,
    771.0,
    770.0,
    769.0,
    769.0,
    767.0,
    769.0,
    769.0,
    768.0,
    769.0,
    769.0,
    771.0,
    772.0,
    772.0,
    771.0,
    771.0,
    772.0,
    771.0,
    769.0,
    768.0,
    769.0,
    770.0,
    770.0,
    770.0,
    769.0,
    769.0,
    770.0,
    770.0,
    771.0,
    771.0,
    770.0,
    769.0,
    768.0,
    769.0,
    770.0,
    770.0,
    772.0,
    772.0,
    770.0,
    769.0,
    769.0,
    771.0,
    769.0,
    768.0,
    766.0,
    767.0,
    769.0,
    770.0,
    771.0,
    771.0,
