{
 "AcquisitionMatrixPE": 100,
 "AcquisitionNumber": 1,
 "AcquisitionTime": "14:36:57.272500",
 "BandwidthPerPixelPhaseEncode": 18.519,
 "BaseResolution": 100,
 "BodyPartExamined": "BRAIN",
 "ConsistencyInfo": "N4_VE11C_LATEST_20160120",
 "ConversionSoftware": "dcm2niix",
 "ConversionSoftwareVersion": "v1.0.20180622 GCC4.9.2",
 "DerivedVendorReportedEchoSpacing": 0.000539986,
 "DeviceSerialNumber": "166078",
 "DwellTime": 2.1e-06,
 "EchoTime": 0.034,
 "EchoTrainLength": 100,
 "EffectiveEchoSpacing": 0.000539986,
 "FlipAngle": 90,
 "ImageOrientationPatientDICOM": [
  1,
  0,
  0,
  0,
  0.976296,
  -0.21644
 ],
 "ImageType": [
  "ORIGINAL",
  "PRIMARY",
  "M",
  "ND",
  "MOSAIC"
 ],
 "InPlanePhaseEncodingDirectionDICOM": "COL",
 "InstitutionAddress": "Street_StreetNo_Bei_Jing_District_CN_ZIP",
 "InstitutionName": "BeiJing_Normal_University",
 "InstitutionalDepartmentName": "Department",
 "MRAcquisitionType": "2D",
 "MagneticFieldStrength": 3,
 "Manufacturer": "Siemens",
 "ManufacturersModelName": "Prisma",
 "Modality": "MR",
 "MultibandAccelerationFactor": 3,
 "PartialFourier": 1,
 "PatientPosition": "HFS",
 "PercentPhaseFOV": 100,
 "PhaseEncodingDirection": "j-",
 "PhaseEncodingSteps": 100,
 "PhaseResolution": 1,
 "PixelBandwidth": 2380,
 "ProcedureStepDescription": "BNU_P2018_64CH_Zhen.ZongLei",
 "ProtocolName": "bold_100x100_s3_2x2x2_static_256",
 "PulseSequenceDetails": "%SiemensSeq%_ep2d_bold",
 "ReceiveCoilActiveElements": "HC1-7;NC1",
 "ReceiveCoilName": "HeadNeck_64",
 "ReconMatrixPE": 100,
 "RepetitionTime": 2,
 "SAR": 0.0693089,
 "ScanOptions": "FS",
 "ScanningSequence": "EP",
 "SequenceName": "_epfid2d1_100",
 "SequenceVariant": "SK",
 "SeriesDescription": "bold_100x100_s3_2x2x2_static_256",
 "SeriesNumber": 14,
 "ShimSetting": [
  -5451,
  -11480,
  -1266,
  297,
  30,
  -133,
  -191,
  75
 ],
 "SliceThickness": 2,
 "SliceTiming": [
  1.485,
  0,
  0.99,
  0.0825,
  1.0725,
  0.165,
  1.155,
  0.2475,
  1.2375,
  0.33,
  1.32,
  0.4125,
  1.4025,
  0.5775,
  1.5675,
  0.66,
  1.65,
  0.7425,
  1.7325,
  0.825,
  1.815,
  0.9075,
  1.8975,
  0.495,
  1.485,
  0,
  0.99,
  0.0825,
  1.0725,
  0.165,
  1.155,
  0.2475,
  1.2375,
  0.33,
  1.32,
  0.4125,
  1.4025,
  0.5775,
  1.5675,
  0.66,
  1.65,
  0.7425,
  1.7325,
  0.825,
  1.815,
  0.9075,
  1.8975,
  0.495,
  1.485,
  0,
  0.99,
  0.0825,
  1.0725,
  0.165,
  1.155,
  0.2475,
  1.2375,
  0.33,
  1.32,
  0.4125,
  1.4025,
  0.5775,
  1.5675,
  0.66,
  1.65,
  0.7425,
  1.7325,
  0.825,
  1.815,
  0.9075,
  1.8975,
  0.495
 ],
 "SoftwareVersions": "syngo_MR_E11",
 "SpacingBetweenSlices": 2,
 "StationName": "AWP166078",
 "TaskName": "imagenet",
 "TotalReadoutTime": 0.0534586,
 "TxRefAmp": 225.288,
 "dcmmeta_affine": [
  [
   -2.0,
   0.0,
   0.0,
   102.02409362792969
  ],
  [
   0.0,
   1.9525920152664185,
   -0.432879239320755,
   -80.41100311279297
  ],
  [
   0.0,
   0.432879239320755,
   1.9525920152664185,
   -80.63894653320312
  ],
  [
   0.0,
   0.0,
   0.0,
   1.0
  ]
 ],
 "dcmmeta_reorient_transform": [
  [
   0.0,
   -1.0,
   0.0,
   99.0
  ],
  [
   1.0,
   0.0,
   0.0,
   0.0
  ],
  [
   0.0,
   0.0,
   1.0,
   0.0
  ],
  [
   0.0,
   0.0,
   0.0,
   1.0
  ]
 ],
 "dcmmeta_shape": [
  100,
  100,
  72,
  256
 ],
 "dcmmeta_slice_dim": 2,
 "dcmmeta_version": 0.6,
 "global": {
  "const": {
   "AcquisitionMatrix": [
    100,
    0,
    0,
    100
   ],
   "AngioFlag": "N",
   "BitsAllocated": 16,
   "BitsStored": 12,
   "BodyPartExamined": "BRAIN",
   "Columns": 900,
   "EchoNumbers": 1,
   "EchoTime": 34.0,
   "EchoTrainLength": 100,
   "FlipAngle": 90.0,
   "HighBit": 11,
   "ImageOrientationPatient": [
    1.0,
    0.0,
    0.0,
    0.0,
    0.97629600560084,
    -0.2164396207903
   ],
   "ImagePositionPatient": [
    -902.02409648895,
    -893.93241246416,
    135.36779845127
   ],
   "ImageType": [
    "ORIGINAL",
    "PRIMARY",
    "M",
    "ND",
    "MOSAIC"
   ],
   "ImagedNucleus": "1H",
   "ImagingFrequency": 123.257761,
   "InPlanePhaseEncodingDirection": "COL",
   "MRAcquisitionType": "2D",
   "MagneticFieldStrength": 3.0,
   "Manufacturer": "SIEMENS",
   "ManufacturerModelName": "Prisma",
   "Modality": "MR",
   "NumberOfAverages": 1.0,
   "NumberOfPhaseEncodingSteps": 100,
   "PercentPhaseFieldOfView": 100.0,
   "PercentSampling": 100.0,
   "PerformedProcedureStepStartTime": "130057.132000",
   "PhotometricInterpretation": "MONOCHROME2",
   "PixelBandwidth": 2380.0,
   "PixelRepresentation": 0,
   "PixelSpacing": [
    2.0,
    2.0
   ],
   "ProtocolName": "bold_100x100_s3_2x2x2_static_256",
   "RepetitionTime": 2000.0,
   "Rows": 900,
   "SAR": 0.06930886653402,
   "SamplesPerPixel": 1,
   "ScanOptions": "FS",
   "ScanningSequence": "EP",
   "SequenceName": "*epfid2d1_100",
   "SequenceVariant": "SK",
   "SeriesDescription": "bold_100x100_s3_2x2x2_static_256",
   "SeriesNumber": 14,
   "SeriesTime": "143659.982000",
   "SliceLocation": -61.323351450955,
   "SliceThickness": 2.0,
   "SmallestImagePixelValue": 0,
   "SoftwareVersions": "syngo MR E11",
   "SpacingBetweenSlices": 2.0000000533031,
   "SpecificCharacterSet": "ISO_IR 100",
   "StudyID": "1",
   "StudyTime": "130057.027000",
   "TransmitCoilName": "Body",
   "VariableFlipAngleFlag": "N",
   "WindowCenterWidthExplanation": "Algo1",
   "dBdt": 0.0
  },
  "slices": {}
 },
 "time": {
  "samples": {
   "AcquisitionNumber": [
    1,
    2,
    3,
    4,
    5,
    6,
    7,
    8,
    9,
    10,
    11,
    12,
    13,
    14,
    15,
    16,
    17,
    18,
    19,
    20,
    21,
    22,
    23,
    24,
    25,
    26,
    27,
    28,
    29,
    30,
    31,
    32,
    33,
    34,
    35,
    36,
    37,
    38,
    39,
    40,
    41,
    42,
    43,
    44,
    45,
    46,
    47,
    48,
    49,
    50,
    51,
    52,
    53,
    54,
    55,
    56,
    57,
    58,
    59,
    60,
    61,
    62,
    63,
    64,
    65,
    66,
    67,
    68,
    69,
    70,
    71,
    72,
    73,
    74,
    75,
    76,
    77,
    78,
    79,
    80,
    81,
    82,
    83,
    84,
    85,
    86,
    87,
    88,
    89,
    90,
    91,
    92,
    93,
    94,
    95,
    96,
    97,
    98,
    99,
    100,
    101,
    102,
    103,
    104,
    105,
    106,
    107,
    108,
    109,
    110,
    111,
    112,
    113,
    114,
    115,
    116,
    117,
    118,
    119,
    120,
    121,
    122,
    123,
    124,
    125,
    126,
    127,
    128,
    129,
    130,
    131,
    132,
    133,
    134,
    135,
    136,
    137,
    138,
    139,
    140,
    141,
    142,
    143,
    144,
    145,
    146,
    147,
    148,
    149,
    150,
    151,
    152,
    153,
    154,
    155,
    156,
    157,
    158,
    159,
    160,
    161,
    162,
    163,
    164,
    165,
    166,
    167,
    168,
    169,
    170,
    171,
    172,
    173,
    174,
    175,
    176,
    177,
    178,
    179,
    180,
    181,
    182,
    183,
    184,
    185,
    186,
    187,
    188,
    189,
    190,
    191,
    192,
    193,
    194,
    195,
    196,
    197,
    198,
    199,
    200,
    201,
    202,
    203,
    204,
    205,
    206,
    207,
    208,
    209,
    210,
    211,
    212,
    213,
    214,
    215,
    216,
    217,
    218,
    219,
    220,
    221,
    222,
    223,
    224,
    225,
    226,
    227,
    228,
    229,
    230,
    231,
    232,
    233,
    234,
    235,
    236,
    237,
    238,
    239,
    240,
    241,
    242,
    243,
    244,
    245,
    246,
    247,
    248,
    249,
    250,
    251,
    252,
    253,
    254,
    255,
    256
   ],
   "AcquisitionTime": [
    "143657.272500",
    "143659.272500",
    "143701.272500",
    "143703.272500",
    "143705.272500",
    "143707.272500",
    "143709.272500",
    "143711.272500",
    "143713.272500",
    "143715.272500",
    "143717.272500",
    "143719.272500",
    "143721.272500",
    "143723.272500",
    "143725.272500",
    "143727.272500",
    "143729.272500",
    "143731.272500",
    "143733.272500",
    "143735.272500",
    "143737.272500",
    "143739.272500",
    "143741.272500",
    "143743.272500",
    "143745.272500",
    "143747.272500",
    "143749.272500",
    "143751.272500",
    "143753.272500",
    "143755.272500",
    "143757.272500",
    "143759.272500",
    "143801.272500",
    "143803.272500",
    "143805.272500",
    "143807.272500",
    "143809.272500",
    "143811.272500",
    "143813.272500",
    "143815.272500",
    "143817.272500",
    "143819.272500",
    "143821.272500",
    "143823.272500",
    "143825.272500",
    "143827.272500",
    "143829.272500",
    "143831.272500",
    "143833.272500",
    "143835.272500",
    "143837.272500",
    "143839.272500",
    "143841.272500",
    "143843.272500",
    "143845.272500",
    "143847.272500",
    "143849.272500",
    "143851.272500",
    "143853.272500",
    "143855.272500",
    "143857.272500",
    "143859.272500",
    "143901.272500",
    "143903.272500",
    "143905.272500",
    "143907.272500",
    "143909.272500",
    "143911.272500",
    "143913.272500",
    "143915.272500",
    "143917.272500",
    "143919.272500",
    "143921.272500",
    "143923.272500",
    "143925.272500",
    "143927.272500",
    "143929.272500",
    "143931.272500",
    "143933.272500",
    "143935.272500",
    "143937.272500",
    "143939.272500",
    "143941.272500",
    "143943.272500",
    "143945.272500",
    "143947.272500",
    "143949.272500",
    "143951.272500",
    "143953.272500",
    "143955.272500",
    "143957.272500",
    "143959.272500",
    "144001.272500",
    "144003.272500",
    "144005.272500",
    "144007.272500",
    "144009.272500",
    "144011.272500",
    "144013.272500",
    "144015.272500",
    "144017.272500",
    "144019.272500",
    "144021.272500",
    "144023.272500",
    "144025.272500",
    "144027.272500",
    "144029.272500",
    "144031.272500",
    "144033.272500",
    "144035.272500",
    "144037.272500",
    "144039.272500",
    "144041.272500",
    "144043.272500",
    "144045.272500",
    "144047.272500",
    "144049.272500",
    "144051.272500",
    "144053.272500",
    "144055.272500",
    "144057.272500",
    "144059.272500",
    "144101.272500",
    "144103.272500",
    "144105.272500",
    "144107.272500",
    "144109.272500",
    "144111.272500",
    "144113.272500",
    "144115.272500",
    "144117.272500",
    "144119.272500",
    "144121.272500",
    "144123.272500",
    "144125.272500",
    "144127.272500",
    "144129.272500",
    "144131.272500",
    "144133.272500",
    "144135.272500",
    "144137.272500",
    "144139.272500",
    "144141.272500",
    "144143.272500",
    "144145.272500",
    "144147.272500",
    "144149.272500",
    "144151.272500",
    "144153.272500",
    "144155.272500",
    "144157.272500",
    "144159.272500",
    "144201.272500",
    "144203.272500",
    "144205.272500",
    "144207.272500",
    "144209.272500",
    "144211.272500",
    "144213.272500",
    "144215.272500",
    "144217.272500",
    "144219.272500",
    "144221.272500",
    "144223.272500",
    "144225.272500",
    "144227.272500",
    "144229.272500",
    "144231.272500",
    "144233.272500",
    "144235.272500",
    "144237.272500",
    "144239.272500",
    "144241.272500",
    "144243.272500",
    "144245.272500",
    "144247.272500",
    "144249.272500",
    "144251.272500",
    "144253.272500",
    "144255.272500",
    "144257.272500",
    "144259.272500",
    "144301.272500",
    "144303.272500",
    "144305.272500",
    "144307.272500",
    "144309.272500",
    "144311.272500",
    "144313.272500",
    "144315.272500",
    "144317.272500",
    "144319.272500",
    "144321.272500",
    "144323.272500",
    "144325.272500",
    "144327.272500",
    "144329.272500",
    "144331.272500",
    "144333.272500",
    "144335.272500",
    "144337.272500",
    "144339.272500",
    "144341.272500",
    "144343.272500",
    "144345.272500",
    "144347.272500",
    "144349.272500",
    "144351.272500",
    "144353.272500",
    "144355.272500",
    "144357.272500",
    "144359.272500",
    "144401.272500",
    "144403.272500",
    "144405.272500",
    "144407.272500",
    "144409.272500",
    "144411.272500",
    "144413.272500",
    "144415.272500",
    "144417.272500",
    "144419.272500",
    "144421.272500",
    "144423.272500",
    "144425.272500",
    "144427.272500",
    "144429.272500",
    "144431.272500",
    "144433.272500",
    "144435.272500",
    "144437.272500",
    "144439.272500",
    "144441.272500",
    "144443.272500",
    "144445.272500",
    "144447.272500",
    "144449.272500",
    "144451.272500",
    "144453.272500",
    "144455.272500",
    "144457.272500",
    "144459.272500",
    "144501.272500",
    "144503.272500",
    "144505.272500",
    "144507.272500",
    "144509.272500",
    "144511.272500",
    "144513.272500",
    "144515.272500",
    "144517.272500",
    "144519.272500",
    "144521.272500",
    "144523.272500",
    "144525.272500",
    "144527.272500"
   ],
   "ContentTime": [
    "143659.986000",
    "143701.481000",
    "143703.482000",
    "143705.483000",
    "143707.482000",
    "143709.483000",
    "143711.483000",
    "143713.482000",
    "143715.482000",
    "143717.481000",
    "143719.482000",
    "143721.483000",
    "143723.483000",
    "143725.482000",
    "143727.482000",
    "143729.482000",
    "143731.481000",
    "143733.481000",
    "143735.481000",
    "143737.482000",
    "143739.482000",
    "143741.482000",
    "143743.483000",
    "143745.482000",
    "143747.483000",
    "143749.481000",
    "143751.481000",
    "143753.482000",
    "143755.481000",
    "143757.483000",
    "143759.483000",
    "143801.483000",
    "143803.482000",
    "143805.481000",
    "143807.482000",
    "143809.481000",
    "143811.481000",
    "143813.482000",
    "143815.483000",
    "143817.482000",
    "143819.482000",
    "143821.482000",
    "143823.482000",
    "143825.482000",
    "143827.481000",
    "143829.481000",
    "143831.483000",
    "143833.482000",
    "143835.482000",
    "143837.483000",
    "143839.483000",
    "143841.482000",
    "143843.482000",
    "143845.482000",
    "143847.482000",
    "143849.482000",
    "143851.483000",
    "143853.483000",
    "143855.482000",
    "143857.483000",
    "143859.481000",
    "143901.482000",
    "143903.482000",
    "143905.482000",
    "143907.483000",
    "143909.483000",
    "143911.483000",
    "143913.483000",
    "143915.482000",
    "143917.481000",
    "143919.481000",
    "143921.481000",
    "143923.483000",
    "143925.483000",
    "143927.483000",
    "143929.482000",
    "143931.483000",
    "143933.482000",
    "143935.482000",
    "143937.482000",
    "143939.482000",
    "143941.483000",
    "143943.483000",
    "143945.482000",
    "143947.482000",
    "143949.483000",
    "143951.481000",
    "143953.482000",
    "143955.481000",
    "143957.481000",
    "143959.482000",
    "144001.482000",
    "144003.483000",
    "144005.482000",
    "144007.482000",
    "144009.482000",
    "144011.481000",
    "144013.481000",
    "144015.481000",
    "144017.483000",
    "144019.483000",
    "144021.483000",
    "144023.483000",
    "144025.482000",
    "144027.482000",
    "144029.481000",
    "144031.482000",
    "144033.483000",
    "144035.483000",
    "144037.482000",
    "144039.482000",
    "144041.482000",
    "144043.481000",
    "144045.481000",
    "144047.482000",
    "144049.482000",
    "144051.483000",
    "144053.483000",
    "144055.483000",
    "144057.482000",
    "144059.482000",
    "144101.481000",
    "144103.482000",
    "144105.481000",
    "144107.481000",
    "144109.482000",
    "144111.483000",
    "144113.483000",
    "144115.482000",
    "144117.482000",
    "144119.482000",
    "144121.482000",
    "144123.481000",
    "144125.481000",
    "144127.482000",
    "144129.482000",
    "144131.482000",
    "144133.482000",
    "144135.481000",
    "144137.481000",
    "144139.482000",
    "144141.482000",
    "144143.482000",
    "144145.493000",
    "144147.482000",
    "144149.482000",
    "144151.483000",
    "144153.482000",
    "144155.482000",
    "144157.482000",
    "144159.482000",
    "144201.483000",
    "144203.483000",
    "144205.482000",
    "144207.483000",
    "144209.482000",
    "144211.482000",
    "144213.482000",
    "144215.482000",
    "144217.482000",
    "144219.483000",
    "144221.483000",
    "144223.482000",
    "144225.482000",
    "144227.482000",
    "144229.482000",
    "144231.482000",
    "144233.482000",
    "144235.482000",
    "144237.482000",
    "144239.483000",
    "144241.483000",
    "144243.482000",
    "144245.481000",
    "144247.482000",
    "144249.481000",
    "144251.481000",
    "144253.482000",
    "144255.483000",
    "144257.483000",
    "144259.483000",
    "144301.483000",
    "144303.482000",
    "144305.482000",
    "144307.482000",
    "144309.482000",
    "144311.482000",
    "144313.483000",
    "144315.483000",
    "144317.482000",
    "144319.483000",
    "144321.482000",
    "144323.482000",
    "144325.481000",
    "144327.482000",
    "144329.482000",
    "144331.483000",
    "144333.483000",
    "144335.483000",
    "144337.482000",
    "144339.482000",
    "144341.482000",
    "144343.483000",
    "144345.482000",
    "144347.482000",
    "144349.483000",
    "144351.483000",
    "144353.483000",
    "144355.482000",
    "144357.482000",
    "144359.482000",
    "144401.482000",
    "144403.482000",
    "144405.483000",
    "144407.483000",
    "144409.482000",
    "144411.483000",
    "144413.481000",
    "144415.481000",
    "144417.482000",
    "144419.481000",
    "144421.483000",
    "144423.483000",
    "144425.483000",
    "144427.483000",
    "144429.482000",
    "144431.482000",
    "144433.482000",
    "144435.481000",
    "144437.482000",
    "144439.483000",
    "144441.483000",
    "144443.483000",
    "144445.483000",
    "144447.483000",
    "144449.481000",
    "144451.482000",
    "144453.482000",
    "144455.482000",
    "144457.483000",
    "144459.482000",
    "144501.483000",
    "144503.483000",
    "144505.481000",
    "144507.482000",
    "144509.481000",
    "144511.481000",
    "144513.483000",
    "144515.483000",
    "144517.483000",
    "144519.483000",
    "144521.483000",
    "144523.482000",
    "144525.481000",
    "144527.482000",
    "144529.244000"
   ],
   "InstanceCreationTime": [
    "143659.986000",
    "143701.481000",
    "143703.482000",
    "143705.483000",
    "143707.482000",
    "143709.483000",
    "143711.483000",
    "143713.482000",
    "143715.482000",
    "143717.481000",
    "143719.482000",
    "143721.483000",
    "143723.483000",
    "143725.482000",
    "143727.482000",
    "143729.482000",
    "143731.481000",
    "143733.481000",
    "143735.481000",
    "143737.482000",
    "143739.482000",
    "143741.482000",
    "143743.483000",
    "143745.482000",
    "143747.483000",
    "143749.481000",
    "143751.481000",
    "143753.482000",
    "143755.481000",
    "143757.483000",
    "143759.483000",
    "143801.483000",
    "143803.482000",
    "143805.481000",
    "143807.482000",
    "143809.481000",
    "143811.481000",
    "143813.482000",
    "143815.483000",
    "143817.482000",
    "143819.482000",
    "143821.482000",
    "143823.482000",
    "143825.482000",
    "143827.481000",
    "143829.481000",
    "143831.483000",
    "143833.482000",
    "143835.482000",
    "143837.483000",
    "143839.483000",
    "143841.482000",
    "143843.482000",
    "143845.482000",
    "143847.482000",
    "143849.482000",
    "143851.483000",
    "143853.483000",
    "143855.482000",
    "143857.483000",
    "143859.481000",
    "143901.482000",
    "143903.482000",
    "143905.482000",
    "143907.483000",
    "143909.483000",
    "143911.483000",
    "143913.483000",
    "143915.482000",
    "143917.481000",
    "143919.481000",
    "143921.481000",
    "143923.483000",
    "143925.483000",
    "143927.483000",
    "143929.482000",
    "143931.483000",
    "143933.482000",
    "143935.482000",
    "143937.482000",
    "143939.482000",
    "143941.483000",
    "143943.483000",
    "143945.482000",
    "143947.482000",
    "143949.483000",
    "143951.481000",
    "143953.482000",
    "143955.481000",
    "143957.481000",
    "143959.482000",
    "144001.482000",
    "144003.483000",
    "144005.482000",
    "144007.482000",
    "144009.482000",
    "144011.481000",
    "144013.481000",
    "144015.481000",
    "144017.483000",
    "144019.483000",
    "144021.483000",
    "144023.483000",
    "144025.482000",
    "144027.482000",
    "144029.481000",
    "144031.482000",
    "144033.483000",
    "144035.483000",
    "144037.482000",
    "144039.482000",
    "144041.482000",
    "144043.481000",
    "144045.481000",
    "144047.482000",
    "144049.482000",
    "144051.483000",
    "144053.483000",
    "144055.483000",
    "144057.482000",
    "144059.482000",
    "144101.481000",
    "144103.482000",
    "144105.481000",
    "144107.481000",
    "144109.482000",
    "144111.483000",
    "144113.483000",
    "144115.482000",
    "144117.482000",
    "144119.482000",
    "144121.482000",
    "144123.481000",
    "144125.481000",
    "144127.482000",
    "144129.482000",
    "144131.482000",
    "144133.482000",
    "144135.481000",
    "144137.481000",
    "144139.482000",
    "144141.482000",
    "144143.482000",
    "144145.493000",
    "144147.482000",
    "144149.482000",
    "144151.483000",
    "144153.482000",
    "144155.482000",
    "144157.482000",
    "144159.482000",
    "144201.483000",
    "144203.483000",
    "144205.482000",
    "144207.483000",
    "144209.482000",
    "144211.482000",
    "144213.482000",
    "144215.482000",
    "144217.482000",
    "144219.483000",
    "144221.483000",
    "144223.482000",
    "144225.482000",
    "144227.482000",
    "144229.482000",
    "144231.482000",
    "144233.482000",
    "144235.482000",
    "144237.482000",
    "144239.483000",
    "144241.483000",
    "144243.482000",
    "144245.481000",
    "144247.482000",
    "144249.481000",
    "144251.481000",
    "144253.482000",
    "144255.483000",
    "144257.483000",
    "144259.483000",
    "144301.483000",
    "144303.482000",
    "144305.482000",
    "144307.482000",
    "144309.482000",
    "144311.482000",
    "144313.483000",
    "144315.483000",
    "144317.482000",
    "144319.483000",
    "144321.482000",
    "144323.482000",
    "144325.481000",
    "144327.482000",
    "144329.482000",
    "144331.483000",
    "144333.483000",
    "144335.483000",
    "144337.482000",
    "144339.482000",
    "144341.482000",
    "144343.483000",
    "144345.482000",
    "144347.482000",
    "144349.483000",
    "144351.483000",
    "144353.483000",
    "144355.482000",
    "144357.482000",
    "144359.482000",
    "144401.482000",
    "144403.482000",
    "144405.483000",
    "144407.483000",
    "144409.482000",
    "144411.483000",
    "144413.481000",
    "144415.481000",
    "144417.482000",
    "144419.481000",
    "144421.483000",
    "144423.483000",
    "144425.483000",
    "144427.483000",
    "144429.482000",
    "144431.482000",
    "144433.482000",
    "144435.481000",
    "144437.482000",
    "144439.483000",
    "144441.483000",
    "144443.483000",
    "144445.483000",
    "144447.483000",
    "144449.481000",
    "144451.482000",
    "144453.482000",
    "144455.482000",
    "144457.483000",
    "144459.482000",
    "144501.483000",
    "144503.483000",
    "144505.481000",
    "144507.482000",
    "144509.481000",
    "144511.481000",
    "144513.483000",
    "144515.483000",
    "144517.483000",
    "144519.483000",
    "144521.483000",
    "144523.482000",
    "144525.481000",
    "144527.482000",
    "144529.244000"
   ],
   "InstanceNumber": [
    1,
    2,
    3,
    4,
    5,
    6,
    7,
    8,
    9,
    10,
    11,
    12,
    13,
    14,
    15,
    16,
    17,
    18,
    19,
    20,
    21,
    22,
    23,
    24,
    25,
    26,
    27,
    28,
    29,
    30,
    31,
    32,
    33,
    34,
    35,
    36,
    37,
    38,
    39,
    40,
    41,
    42,
    43,
    44,
    45,
    46,
    47,
    48,
    49,
    50,
    51,
    52,
    53,
    54,
    55,
    56,
    57,
    58,
    59,
    60,
    61,
    62,
    63,
    64,
    65,
    66,
    67,
    68,
    69,
    70,
    71,
    72,
    73,
    74,
    75,
    76,
    77,
    78,
    79,
    80,
    81,
    82,
    83,
    84,
    85,
    86,
    87,
    88,
    89,
    90,
    91,
    92,
    93,
    94,
    95,
    96,
    97,
    98,
    99,
    100,
    101,
    102,
    103,
    104,
    105,
    106,
    107,
    108,
    109,
    110,
    111,
    112,
    113,
    114,
    115,
    116,
    117,
    118,
    119,
    120,
    121,
    122,
    123,
    124,
    125,
    126,
    127,
    128,
    129,
    130,
    131,
    132,
    133,
    134,
    135,
    136,
    137,
    138,
    139,
    140,
    141,
    142,
    143,
    144,
    145,
    146,
    147,
    148,
    149,
    150,
    151,
    152,
    153,
    154,
    155,
    156,
    157,
    158,
    159,
    160,
    161,
    162,
    163,
    164,
    165,
    166,
    167,
    168,
    169,
    170,
    171,
    172,
    173,
    174,
    175,
    176,
    177,
    178,
    179,
    180,
    181,
    182,
    183,
    184,
    185,
    186,
    187,
    188,
    189,
    190,
    191,
    192,
    193,
    194,
    195,
    196,
    197,
    198,
    199,
    200,
    201,
    202,
    203,
    204,
    205,
    206,
    207,
    208,
    209,
    210,
    211,
    212,
    213,
    214,
    215,
    216,
    217,
    218,
    219,
    220,
    221,
    222,
    223,
    224,
    225,
    226,
    227,
    228,
    229,
    230,
    231,
    232,
    233,
    234,
    235,
    236,
    237,
    238,
    239,
    240,
    241,
    242,
    243,
    244,
    245,
    246,
    247,
    248,
    249,
    250,
    251,
    252,
    253,
    254,
    255,
    256
   ],
   "LargestImagePixelValue": [
    3321,
    3344,
    3282,
    3359,
    3292,
    3356,
    3328,
    3368,
    3342,
    3344,
    3303,
    3348,
    3328,
    3349,
    3347,
    3310,
    3413,
    3346,
    3352,
    3384,
    3317,
    3364,
    3357,
    3364,
    3335,
    3374,
    3340,
    3318,
    3380,
    3322,
    3336,
    3373,
    3325,
    3377,
    3339,
    3378,
    3342,
    3347,
    3324,
    3337,
    3337,
    3318,
    3392,
    3347,
    3377,
    3368,
    3364,
    3394,
    3369,
    3391,
    3328,
    3362,
    3355,
    3384,
    3355,
    3352,
    3316,
    3411,
    3353,
    3369,
    3319,
    3383,
    3345,
    3369,
    3359,
    3333,
    3351,
    3357,
    3390,
    3373,
    3353,
    3371,
    3313,
    3328,
    3326,
    3354,
    3371,
    3353,
    3398,
    3324,
    3365,
    3327,
    3324,
    3392,
    3308,
    3343,
    3388,
    3335,
    3353,
    3339,
    3353,
    3334,
    3380,
    3340,
    3335,
    3369,
    3363,
    3399,
    3337,
    3345,
    3383,
    3398,
    3379,
    3384,
    3412,
    3374,
    3400,
    3371,
    3388,
    3363,
    3370,
    3360,
    3402,
    3371,
    3341,
    3397,
    3382,
    3367,
    3417,
    3361,
    3371,
    3367,
    3376,
    3352,
    3369,
    3354,
    3430,
    3365,
    3387,
    3376,
    3370,
    3410,
    3356,
    3379,
    3319,
    3384,
    3341,
    3402,
    3418,
    3367,
    3419,
    3409,
    3426,
    3375,
    3446,
    3361,
    3384,
    3373,
    3335,
    3369,
    3357,
    3387,
    3390,
    3357,
    3404,
    3362,
    3386,
    3362,
    3384,
    3397,
    3348,
    3451,
    3367,
    3343,
    3372,
    3358,
    3365,
    3370,
    3347,
    3339,
    3333,
    3411,
    3352,
    3398,
    3421,
    3372,
    3401,
    3357,
    3362,
    3360,
    3358,
    3419,
    3383,
    3394,
    3369,
    3410,
    3377,
    3369,
    3415,
    3358,
    3397,
    3408,
    3372,
    3411,
    3373,
    3397,
    3435,
    3397,
    3416,
    3393,
    3430,
    3378,
    3401,
    3436,
    3370,
    3401,
    3368,
    3376,
    3360,
    3367,
    3368,
    3382,
    3363,
    3398,
    3415,
    3372,
    3415,
    3398,
    3421,
    3370,
    3379,
    3366,
    3390,
    3403,
    3368,
    3392,
    3372,
    3401,
    3402,
    3396,
    3372,
    3422,
    3398,
    3363,
    3400,
    3397,
    3408,
    3387,
    3404,
    3378,
    3373,
    3363,
    3395,
    3383,
    3362,
    3388,
    3385,
    3414,
    3395,
    3402,
    3371,
    3390,
    3370,
    3407,
    3388,
    3381
   ],
   "WindowCenter": [
    813.0,
    812.0,
    811.0,
    812.0,
    811.0,
    812.0,
    812.0,
    813.0,
    812.0,
    813.0,
    814.0,
    814.0,
    813.0,
    812.0,
    812.0,
    813.0,
    813.0,
    812.0,
    811.0,
    810.0,
    811.0,
    812.0,
    812.0,
    811.0,
    811.0,
    811.0,
    810.0,
    810.0,
    811.0,
    810.0,
    809.0,
    809.0,
    810.0,
    812.0,
    812.0,
    811.0,
    810.0,
    810.0,
    812.0,
    812.0,
    812.0,
    812.0,
    812.0,
    812.0,
    812.0,
    811.0,
    811.0,
    811.0,
    811.0,
    811.0,
    811.0,
    811.0,
    811.0,
    811.0,
    812.0,
    813.0,
    812.0,
    814.0,
    812.0,
    811.0,
    810.0,
    809.0,
    809.0,
    809.0,
    810.0,
    809.0,
    809.0,
    810.0,
    810.0,
    810.0,
    812.0,
    812.0,
    812.0,
    813.0,
    815.0,
    814.0,
    813.0,
    812.0,
    811.0,
    809.0,
    811.0,
    812.0,
    812.0,
    812.0,
    811.0,
    810.0,
    810.0,
    809.0,
    809.0,
    810.0,
    811.0,
    810.0,
    810.0,
    811.0,
    812.0,
    811.0,
    812.0,
    813.0,
    813.0,
    813.0,
    812.0,
    812.0,
    812.0,
    812.0,
    811.0,
    811.0,
    811.0,
    810.0,
    810.0,
    809.0,
    810.0,
    811.0,
    812.0,
    811.0,
    810.0,
    810.0,
    811.0,
    812.0,
    814.0,
    813.0,
    811.0,
    809.0,
    809.0,
    810.0,
    812.0,
