{
  "AcquisitionMatrixPE": 100,
  "AcquisitionNumber": 1,
  "AcquisitionTime": "13:34:5.522500",
  "BandwidthPerPixelPhaseEncode": 18.519,
  "BaseResolution": 100,
  "BodyPartExamined": "BRAIN",
  "ConsistencyInfo": "N4_VE11C_LATEST_20160120",
  "ConversionSoftware": "dcm2niix",
  "ConversionSoftwareVersion": "v1.0.20180622 GCC4.9.2",
  "DerivedVendorReportedEchoSpacing": 0.000539986,
  "DeviceSerialNumber": "166078",
  "DwellTime": 2.1e-06,
  "EchoTime": 0.034,
  "EchoTrainLength": 100,
  "EffectiveEchoSpacing": 0.000539986,
  "FlipAngle": 90,
  "ImageOrientationPatientDICOM": [1, 0, 0, 0, 0.976296, -0.21644],
  "ImageType": [
    "ORIGINAL",
    "PRIMARY",
    "M",
    "ND",
    "MOSAIC"
],
  "InPlanePhaseEncodingDirectionDICOM": "COL",
  "InstitutionAddress": "Street_StreetNo_Bei_Jing_District_CN_ZIP",
  "InstitutionName": "BeiJing_Normal_University",
  "InstitutionalDepartmentName": "Department",
  "MRAcquisitionType": "2D",
  "MagneticFieldStrength": 3,
  "Manufacturer": "Siemens",
  "ManufacturersModelName": "Prisma",
  "Modality": "MR",
  "MultibandAccelerationFactor": 3,
  "PartialFourier": 1,
  "PatientPosition": "HFS",
  "PercentPhaseFOV": 100,
  "PhaseEncodingDirection": "j-",
  "PhaseEncodingSteps": 100,
  "PhaseResolution": 1,
  "PixelBandwidth": 2380,
  "ProcedureStepDescription": "BNU_P2018_64CH_Zhen.ZongLei",
  "ProtocolName": "bold_100x100_s3_2x2x2_static_256",
  "PulseSequenceDetails": "%SiemensSeq%_ep2d_bold",
  "ReceiveCoilActiveElements": "HC1-7;NC1",
  "ReceiveCoilName": "HeadNeck_64",
  "ReconMatrixPE": 100,
  "RepetitionTime": 2,
  "SAR": 0.0693089,
  "ScanOptions": "FS",
  "ScanningSequence": "EP",
  "SequenceName": "_epfid2d1_100",
  "SequenceVariant": "SK",
  "SeriesDescription": "bold_100x100_s3_2x2x2_static_256",
  "SeriesNumber": 6,
  "ShimSetting": [-5451, -11480, -1266, 297, 30, -133, -191, 75],
  "SliceThickness": 2,
  "SliceTiming": [1.485, 0, 0.99, 0.0825, 1.0725, 0.165, 1.155, 0.2475, 1.2375, 0.33, 1.32, 0.4125, 1.4025, 0.5775, 1.5675, 0.66, 1.65, 0.7425, 1.7325, 0.825, 1.815, 0.9075, 1.8975, 0.495, 1.485, 0, 0.99, 0.0825, 1.0725, 0.165, 1.155, 0.2475, 1.2375, 0.33, 1.32, 0.4125, 1.4025, 0.5775, 1.5675, 0.66, 1.65, 0.7425, 1.7325, 0.825, 1.815, 0.9075, 1.8975, 0.495, 1.485, 0, 0.99, 0.0825, 1.0725, 0.165, 1.155, 0.2475, 1.2375, 0.33, 1.32, 0.4125, 1.4025, 0.5775, 1.5675, 0.66, 1.65, 0.7425, 1.7325, 0.825, 1.815, 0.9075, 1.8975, 0.495],
  "SoftwareVersions": "syngo_MR_E11",
  "SpacingBetweenSlices": 2,
  "StationName": "AWP166078",
  "TaskName": "naturalvision",
  "TotalReadoutTime": 0.0534586,
  "TxRefAmp": 225.288,
  "dcmmeta_affine": [
    [-2.0, 0.0, 0.0, 102.02409362792969],
    [0.0, 1.9525920152664185, -0.432879239320755, -80.41100311279297],
    [0.0, 0.432879239320755, 1.9525920152664185, -80.63894653320312],
    [0.0, 0.0, 0.0, 1.0]
],
  "dcmmeta_reorient_transform": [
    [0.0, -1.0, 0.0, 99.0],
    [1.0, 0.0, 0.0, 0.0],
    [0.0, 0.0, 1.0, 0.0],
    [0.0, 0.0, 0.0, 1.0]
],
  "dcmmeta_shape": [100, 100, 72, 256],
  "dcmmeta_slice_dim": 2,
  "dcmmeta_version": 0.6,
  "global": {
    "const": {
      "AcquisitionMatrix": [100, 0, 0, 100],
      "AngioFlag": "N",
      "BitsAllocated": 16,
      "BitsStored": 12,
      "BodyPartExamined": "BRAIN",
      "Columns": 900,
      "EchoNumbers": 1,
      "EchoTime": 34.0,
      "EchoTrainLength": 100,
      "FlipAngle": 90.0,
      "HighBit": 11,
      "ImageOrientationPatient": [1.0, 0.0, 0.0, 0.0, 0.97629600560084, -0.2164396207903],
      "ImagePositionPatient": [-902.02409648895, -893.93241246416, 135.36779845127],
      "ImageType": [
        "ORIGINAL",
        "PRIMARY",
        "M",
        "ND",
        "MOSAIC"
],
      "ImagedNucleus": "1H",
      "ImagingFrequency": 123.257752,
      "InPlanePhaseEncodingDirection": "COL",
      "MRAcquisitionType": "2D",
      "MagneticFieldStrength": 3.0,
      "Manufacturer": "SIEMENS",
      "ManufacturerModelName": "Prisma",
      "Modality": "MR",
      "NumberOfAverages": 1.0,
      "NumberOfPhaseEncodingSteps": 100,
      "PercentPhaseFieldOfView": 100.0,
      "PercentSampling": 100.0,
      "PerformedProcedureStepStartTime": "130057.132000",
      "PhotometricInterpretation": "MONOCHROME2",
      "PixelBandwidth": 2380.0,
      "PixelRepresentation": 0,
      "PixelSpacing": [2.0, 2.0],
      "ProtocolName": "bold_100x100_s3_2x2x2_static_256",
      "RepetitionTime": 2000.0,
      "Rows": 900,
      "SAR": 0.06930886653402,
      "SamplesPerPixel": 1,
      "ScanOptions": "FS",
      "ScanningSequence": "EP",
      "SequenceName": "*epfid2d1_100",
      "SequenceVariant": "SK",
      "SeriesDescription": "bold_100x100_s3_2x2x2_static_256",
      "SeriesNumber": 6,
      "SeriesTime": "133407.498000",
      "SliceLocation": -61.323351450955,
      "SliceThickness": 2.0,
      "SmallestImagePixelValue": 0,
      "SoftwareVersions": "syngo MR E11",
      "SpacingBetweenSlices": 2.0000000533031,
      "SpecificCharacterSet": "ISO_IR 100",
      "StudyID": "1",
      "StudyTime": "130057.027000",
      "TransmitCoilName": "Body",
      "VariableFlipAngleFlag": "N",
      "WindowCenterWidthExplanation": "Algo1",
      "dBdt": 0.0},
    "slices": {}
  },
  "time": {
    "samples": {
      "AcquisitionNumber": [1, 2, 3, 4, 5, 6, 7, 8, 9, 10, 11, 12, 13, 14, 15, 16, 17, 18, 19, 20, 21, 22, 23, 24, 25, 26, 27, 28, 29, 30, 31, 32, 33, 34, 35, 36, 37, 38, 39, 40, 41, 42, 43, 44, 45, 46, 47, 48, 49, 50, 51, 52, 53, 54, 55, 56, 57, 58, 59, 60, 61, 62, 63, 64, 65, 66, 67, 68, 69, 70, 71, 72, 73, 74, 75, 76, 77, 78, 79, 80, 81, 82, 83, 84, 85, 86, 87, 88, 89, 90, 91, 92, 93, 94, 95, 96, 97, 98, 99, 100, 101, 102, 103, 104, 105, 106, 107, 108, 109, 110, 111, 112, 113, 114, 115, 116, 117, 118, 119, 120, 121, 122, 123, 124, 125, 126, 127, 128, 129, 130, 131, 132, 133, 134, 135, 136, 137, 138, 139, 140, 141, 142, 143, 144, 145, 146, 147, 148, 149, 150, 151, 152, 153, 154, 155, 156, 157, 158, 159, 160, 161, 162, 163, 164, 165, 166, 167, 168, 169, 170, 171, 172, 173, 174, 175, 176, 177, 178, 179, 180, 181, 182, 183, 184, 185, 186, 187, 188, 189, 190, 191, 192, 193, 194, 195, 196, 197, 198, 199, 200, 201, 202, 203, 204, 205, 206, 207, 208, 209, 210, 211, 212, 213, 214, 215, 216, 217, 218, 219, 220, 221, 222, 223, 224, 225, 226, 227, 228, 229, 230, 231, 232, 233, 234, 235, 236, 237, 238, 239, 240, 241, 242, 243, 244, 245, 246, 247, 248, 249, 250, 251, 252, 253, 254, 255, 256],
      "AcquisitionTime": ["133405.522500", "133407.522500", "133409.522500", "133411.522500", "133413.522500", "133415.522500", "133417.522500", "133419.522500", "133421.522500", "133423.522500", "133425.522500", "133427.522500", "133429.522500", "133431.522500", "133433.522500", "133435.522500", "133437.522500", "133439.522500", "133441.522500", "133443.522500", "133445.522500", "133447.522500", "133449.522500", "133451.522500", "133453.522500", "133455.522500", "133457.522500", "133459.522500", "133501.522500", "133503.522500", "133505.522500", "133507.522500", "133509.522500", "133511.522500", "133513.522500", "133515.522500", "133517.522500", "133519.522500", "133521.522500", "133523.522500", "133525.522500", "133527.522500", "133529.522500", "133531.522500", "133533.522500", "133535.522500", "133537.522500", "133539.522500", "133541.522500", "133543.522500", "133545.522500", "133547.522500", "133549.522500", "133551.522500", "133553.522500", "133555.522500", "133557.522500", "133559.522500", "133601.522500", "133603.522500", "133605.522500", "133607.522500", "133609.522500", "133611.522500", "133613.522500", "133615.522500", "133617.522500", "133619.522500", "133621.522500", "133623.522500", "133625.522500", "133627.522500", "133629.522500", "133631.522500", "133633.522500", "133635.522500", "133637.522500", "133639.522500", "133641.522500", "133643.522500", "133645.522500", "133647.522500", "133649.522500", "133651.522500", "133653.522500", "133655.522500", "133657.522500", "133659.522500", "133701.522500", "133703.522500", "133705.522500", "133707.522500", "133709.522500", "133711.522500", "133713.522500", "133715.522500", "133717.522500", "133719.522500", "133721.522500", "133723.522500", "133725.522500", "133727.522500", "133729.522500", "133731.522500", "133733.522500", "133735.522500", "133737.522500", "133739.522500", "133741.522500", "133743.522500", "133745.522500", "133747.522500", "133749.522500", "133751.522500", "133753.522500", "133755.522500", "133757.522500", "133759.522500", "133801.522500", "133803.522500", "133805.522500", "133807.522500", "133809.522500", "133811.522500", "133813.522500", "133815.522500", "133817.522500", "133819.522500", "133821.522500", "133823.522500", "133825.522500", "133827.522500", "133829.522500", "133831.522500", "133833.522500", "133835.522500", "133837.522500", "133839.522500", "133841.522500", "133843.522500", "133845.522500", "133847.522500", "133849.522500", "133851.522500", "133853.522500", "133855.522500", "133857.522500", "133859.522500", "133901.522500", "133903.522500", "133905.522500", "133907.522500", "133909.522500", "133911.522500", "133913.522500", "133915.522500", "133917.522500", "133919.522500", "133921.522500", "133923.522500", "133925.522500", "133927.522500", "133929.522500", "133931.522500", "133933.522500", "133935.522500", "133937.522500", "133939.522500", "133941.522500", "133943.522500", "133945.522500", "133947.522500", "133949.522500", "133951.522500", "133953.522500", "133955.522500", "133957.522500", "133959.522500", "134001.522500", "134003.522500", "134005.522500", "134007.522500", "134009.522500", "134011.522500", "134013.522500", "134015.522500", "134017.522500", "134019.522500", "134021.522500", "134023.522500", "134025.522500", "134027.522500", "134029.522500", "134031.522500", "134033.522500", "134035.522500", "134037.522500", "134039.522500", "134041.522500", "134043.522500", "134045.522500", "134047.522500", "134049.522500", "134051.522500", "134053.522500", "134055.522500", "134057.522500", "134059.522500", "134101.522500", "134103.522500", "134105.522500", "134107.522500", "134109.522500", "134111.522500", "134113.522500", "134115.522500", "134117.522500", "134119.522500", "134121.522500", "134123.522500", "134125.522500", "134127.522500", "134129.522500", "134131.522500", "134133.522500", "134135.522500", "134137.522500", "134139.522500", "134141.522500", "134143.522500", "134145.522500", "134147.522500", "134149.522500", "134151.522500", "134153.522500", "134155.522500", "134157.522500", "134159.522500", "134201.522500", "134203.522500", "134205.522500", "134207.522500", "134209.522500", "134211.522500", "134213.522500", "134215.522500", "134217.522500", "134219.522500", "134221.522500", "134223.522500", "134225.522500", "134227.522500", "134229.522500", "134231.522500", "134233.522500", "134235.522500"],
      "ContentTime": ["133407.502000", "133408.997000", "133411.497000", "133413.498000", "133414.997000", "133417.497000", "133419.497000", "133421.496000", "133422.997000", "133425.497000", "133426.997000", "133429.497000", "133430.997000", "133433.497000", "133434.998000", "133437.496000", "133438.997000", "133441.497000", "133443.497000", "133445.497000", "133447.497000", "133449.497000", "133451.498000", "133453.498000", "133455.496000", "133456.996000", "133458.997000", "133500.998000", "133502.997000", "133505.497000", "133507.498000", "133508.997000", "133511.498000", "133513.496000", "133514.996000", "133517.497000", "133519.498000", "133521.497000", "133523.497000", "133525.497000", "133526.997000", "133529.497000", "133530.996000", "133533.496000", "133535.498000", "133537.497000", "133539.498000", "133541.498000", "133543.498000", "133544.997000", "133547.496000", "133549.497000", "133550.997000", "133553.498000", "133554.998000", "133557.497000", "133558.997000", "133601.497000", "133602.997000", "133605.496000", "133606.996000", "133608.997000", "133610.997000", "133613.498000", "133614.998000", "133616.997000", "133618.997000", "133621.497000", "133622.996000", "133625.496000", "133626.997000", "133629.498000", "133630.997000", "133633.498000", "133634.997000", "133637.497000", "133639.497000", "133640.996000", "133643.496000", "133645.498000", "133647.498000", "133648.998000", "133650.998000", "133652.998000", "133654.997000", "133656.996000", "133658.996000", "133700.996000", "133702.998000", "133704.997000", "133707.498000", "133709.497000", "133711.497000", "133713.497000", "133714.997000", "133717.497000", "133719.497000", "133720.998000", "133722.998000", "133724.998000", "133727.498000", "133728.997000", "133731.498000", "133733.497000", "133734.996000", "133737.498000", "133739.498000", "133741.498000", "133743.498000", "133745.498000", "133747.498000", "133749.497000", "133751.496000", "133753.496000", "133755.497000", "133757.498000", "133759.497000", "133801.497000", "133803.497000", "133805.498000", "133807.497000", "133809.497000", "133811.497000", "133813.497000", "133815.497000", "133817.497000", "133819.498000", "133821.498000", "133823.497000", "133824.996000", "133826.996000", "133829.498000", "133831.498000", "133833.498000", "133834.997000", "133836.998000", "133838.998000", "133840.998000", "133843.496000", "133845.497000", "133847.497000", "133849.498000", "133851.498000", "133853.497000", "133855.498000", "133857.497000", "133858.998000", "133901.496000", "133903.496000", "133905.497000", "133907.498000", "133909.498000", "133910.998000", "133913.497000", "133915.498000", "133917.496000", "133918.996000", "133921.497000", "133922.998000", "133925.498000", "133927.498000", "133928.997000", "133931.498000", "133933.497000", "133935.496000", "133936.997000", "133939.498000", "133940.997000", "133942.998000", "133945.498000", "133947.498000", "133949.498000", "133950.998000", "133953.497000", "133954.997000", "133957.497000", "133959.498000", "134001.497000", "134003.498000", "134005.497000", "134007.497000", "134009.497000", "134011.496000", "134012.996000", "134014.997000", "134016.997000", "134018.997000", "134020.998000", "134023.498000", "134024.997000", "134027.497000", "134029.497000", "134030.997000", "134032.997000", "134035.497000", "134037.498000", "134038.997000", "134040.997000", "134043.498000", "134044.996000", "134047.497000", "134049.498000", "134051.498000", "134053.497000", "134055.497000", "134056.998000", "134059.498000", "134100.998000", "134103.496000", "134104.997000", "134107.498000", "134109.497000", "134110.998000", "134113.498000", "134115.497000", "134117.498000", "134119.496000", "134120.997000", "134123.497000", "134125.498000", "134127.497000", "134129.497000", "134131.498000", "134132.998000", "134135.497000", "134137.497000", "134139.497000", "134141.497000", "134143.498000", "134145.498000", "134146.997000", "134149.510000", "134150.998000", "134152.998000", "134154.996000", "134156.997000", "134159.497000", "134200.997000", "134203.497000", "134205.498000", "134206.998000", "134209.498000", "134210.998000", "134212.996000", "134214.996000", "134216.997000", "134218.998000", "134221.498000", "134223.497000", "134225.498000", "134226.998000", "134229.497000", "134230.997000", "134232.997000", "134234.998000", "134237.020000"],
      "InstanceCreationTime": ["133407.502000", "133408.997000", "133411.497000", "133413.498000", "133414.997000", "133417.497000", "133419.497000", "133421.496000", "133422.997000", "133425.497000", "133426.997000", "133429.497000", "133430.997000", "133433.497000", "133434.998000", "133437.496000", "133438.997000", "133441.497000", "133443.497000", "133445.497000", "133447.497000", "133449.497000", "133451.498000", "133453.498000", "133455.496000", "133456.996000", "133458.997000", "133500.998000", "133502.997000", "133505.497000", "133507.498000", "133508.997000", "133511.498000", "133513.496000", "133514.996000", "133517.497000", "133519.498000", "133521.497000", "133523.497000", "133525.497000", "133526.997000", "133529.497000", "133530.996000", "133533.496000", "133535.498000", "133537.497000", "133539.498000", "133541.498000", "133543.498000", "133544.997000", "133547.496000", "133549.497000", "133550.997000", "133553.498000", "133554.998000", "133557.497000", "133558.997000", "133601.497000", "133602.997000", "133605.496000", "133606.996000", "133608.997000", "133610.997000", "133613.498000", "133614.998000", "133616.997000", "133618.997000", "133621.497000", "133622.996000", "133625.496000", "133626.997000", "133629.498000", "133630.997000", "133633.498000", "133634.997000", "133637.497000", "133639.497000", "133640.996000", "133643.496000", "133645.498000", "133647.498000", "133648.998000", "133650.998000", "133652.998000", "133654.997000", "133656.996000", "133658.996000", "133700.996000", "133702.998000", "133704.997000", "133707.498000", "133709.497000", "133711.497000", "133713.497000", "133714.997000", "133717.497000", "133719.497000", "133720.998000", "133722.998000", "133724.998000", "133727.498000", "133728.997000", "133731.498000", "133733.497000", "133734.996000", "133737.498000", "133739.498000", "133741.498000", "133743.498000", "133745.498000", "133747.498000", "133749.497000", "133751.496000", "133753.496000", "133755.497000", "133757.498000", "133759.497000", "133801.497000", "133803.497000", "133805.498000", "133807.497000", "133809.497000", "133811.497000", "133813.497000", "133815.497000", "133817.497000", "133819.498000", "133821.498000", "133823.497000", "133824.996000", "133826.996000", "133829.498000", "133831.498000", "133833.498000", "133834.997000", "133836.998000", "133838.998000", "133840.998000", "133843.496000", "133845.497000", "133847.497000", "133849.498000", "133851.498000", "133853.497000", "133855.498000", "133857.497000", "133858.998000", "133901.496000", "133903.496000", "133905.497000", "133907.498000", "133909.498000", "133910.998000", "133913.497000", "133915.498000", "133917.496000", "133918.996000", "133921.497000", "133922.998000", "133925.498000", "133927.498000", "133928.997000", "133931.498000", "133933.497000", "133935.496000", "133936.997000", "133939.498000", "133940.997000", "133942.998000", "133945.498000", "133947.498000", "133949.498000", "133950.998000", "133953.497000", "133954.997000", "133957.497000", "133959.498000", "134001.497000", "134003.498000", "134005.497000", "134007.497000", "134009.497000", "134011.496000", "134012.996000", "134014.997000", "134016.997000", "134018.997000", "134020.998000", "134023.498000", "134024.997000", "134027.497000", "134029.497000", "134030.997000", "134032.997000", "134035.497000", "134037.498000", "134038.997000", "134040.997000", "134043.498000", "134044.996000", "134047.497000", "134049.498000", "134051.498000", "134053.497000", "134055.497000", "134056.998000", "134059.498000", "134100.998000", "134103.496000", "134104.997000", "134107.498000", "134109.497000", "134110.998000", "134113.498000", "134115.497000", "134117.498000", "134119.496000", "134120.997000", "134123.497000", "134125.498000", "134127.497000", "134129.497000", "134131.498000", "134132.998000", "134135.497000", "134137.497000", "134139.497000", "134141.497000", "134143.498000", "134145.498000", "134146.997000", "134149.510000", "134150.998000", "134152.998000", "134154.996000", "134156.997000", "134159.497000", "134200.997000", "134203.497000", "134205.498000", "134206.998000", "134209.498000", "134210.998000", "134212.996000", "134214.996000", "134216.997000", "134218.998000", "134221.498000", "134223.497000", "134225.498000", "134226.998000", "134229.497000", "134230.997000", "134232.997000", "134234.998000", "134237.020000"],
      "InstanceNumber": [1, 2, 3, 4, 5, 6, 7, 8, 9, 10, 11, 12, 13, 14, 15, 16, 17, 18, 19, 20, 21, 22, 23, 24, 25, 26, 27, 28, 29, 30, 31, 32, 33, 34, 35, 36, 37, 38, 39, 40, 41, 42, 43, 44, 45, 46, 47, 48, 49, 50, 51, 52, 53, 54, 55, 56, 57, 58, 59, 60, 61, 62, 63, 64, 65, 66, 67, 68, 69, 70, 71, 72, 73, 74, 75, 76, 77, 78, 79, 80, 81, 82, 83, 84, 85, 86, 87, 88, 89, 90, 91, 92, 93, 94, 95, 96, 97, 98, 99, 100, 101, 102, 103, 104, 105, 106, 107, 108, 109, 110, 111, 112, 113, 114, 115, 116, 117, 118, 119, 120, 121, 122, 123, 124, 125, 126, 127, 128, 129, 130, 131, 132, 133, 134, 135, 136, 137, 138, 139, 140, 141, 142, 143, 144, 145, 146, 147, 148, 149, 150, 151, 152, 153, 154, 155, 156, 157, 158, 159, 160, 161, 162, 163, 164, 165, 166, 167, 168, 169, 170, 171, 172, 173, 174, 175, 176, 177, 178, 179, 180, 181, 182, 183, 184, 185, 186, 187, 188, 189, 190, 191, 192, 193, 194, 195, 196, 197, 198, 199, 200, 201, 202, 203, 204, 205, 206, 207, 208, 209, 210, 211, 212, 213, 214, 215, 216, 217, 218, 219, 220, 221, 222, 223, 224, 225, 226, 227, 228, 229, 230, 231, 232, 233, 234, 235, 236, 237, 238, 239, 240, 241, 242, 243, 244, 245, 246, 247, 248, 249, 250, 251, 252, 253, 254, 255, 256],
      "LargestImagePixelValue": [3891, 3814, 3746, 3834, 3776, 3784, 3752, 3789, 3751, 3819, 3779, 3763, 3760, 3750, 3792, 3763, 3787, 3764, 3738, 3780, 3757, 3748, 3767, 3809, 3767, 3806, 3764, 3785, 3755, 3737, 3804, 3748, 3825, 3765, 3801, 3761, 3789, 3758, 3685, 3786, 3768, 3750, 3801, 3764, 3806, 3785, 3785, 3798, 3756, 3809, 3753, 3800, 3765, 3773, 3788, 3721, 3807, 3754, 3693, 3728, 3729, 3783, 3760, 3758, 3771, 3759, 3780, 3738, 3765, 3741, 3764, 3755, 3718, 3774, 3744, 3822, 3766, 3805, 3768, 3732, 3795, 3771, 3825, 3755, 3770, 3783, 3798, 3795, 3748, 3774, 3761, 3761, 3736, 3742, 3752, 3712, 3802, 3765, 3786, 3747, 3746, 3757, 3752, 3791, 3767, 3741, 3729, 3722, 3779, 3740, 3730, 3753, 3731, 3743, 3716, 3743, 3731, 3676, 3723, 3712, 3749, 3729, 3730, 3720, 3730, 3725, 3728, 3698, 3713, 3744, 3765, 3727, 3741, 3721, 3722, 3738, 3735, 3747, 3756, 3741, 3703, 3693, 3676, 3740, 3730, 3736, 3751, 3744, 3714, 3718, 3741, 3741, 3719, 3754, 3734, 3723, 3757, 3764, 3766, 3713, 3702, 3757, 3731, 3749, 3731, 3682, 3712, 3701, 3735, 3720, 3725, 3701, 3681, 3715, 3713, 3694, 3744, 3717, 3721, 3695, 3662, 3735, 3702, 3694, 3745, 3725, 3700, 3721, 3686, 3746, 3709, 3742, 3702, 3704, 3757, 3733, 3721, 3736, 3681, 3749, 3714, 3714, 3688, 3699, 3708, 3684, 3703, 3667, 3723, 3709, 3665, 3690, 3653, 3719, 3714, 3737, 3746, 3716, 3704, 3683, 3688, 3724, 3724, 3764, 3699, 3651, 3726, 3682, 3716, 3692, 3660, 3720, 3721, 3727, 3708, 3704, 3736, 3718, 3729, 3708, 3686, 3737, 3718, 3677, 3748, 3714, 3719, 3723, 3735, 3695, 3691, 3697, 3658, 3673, 3663, 3699],
      "WindowCenter": [827.0, 826.0, 825.0, 826.0, 825.0, 824.0, 823.0, 824.0, 824.0, 824.0, 824.0, 824.0, 824.0, 824.0, 825.0, 824.0, 824.0, 824.0, 824.0, 824.0, 822.0, 822.0, 822.0, 823.0, 823.0, 823.0, 822.0, 822.0, 823.0, 823.0, 823.0, 823.0, 823.0, 823.0, 825.0, 825.0, 824.0, 824.0, 823.0, 825.0, 825.0, 825.0, 825.0, 825.0, 824.0, 824.0, 825.0, 824.0, 823.0, 823.0, 823.0, 824.0, 824.0, 824.0, 823.0, 823.0, 824.0, 824.0, 823.0, 823.0, 823.0, 824.0, 824.0, 824.0, 824.0, 824.0, 823.0, 823.0, 823.0, 823.0, 822.0, 822.0, 823.0, 825.0, 825.0, 825.0, 824.0, 824.0, 824.0, 824.0, 824.0, 824.0, 824.0, 823.0, 823.0, 822.0, 823.0, 823.0, 823.0, 824.0, 824.0, 824.0, 824.0, 824.0, 825.0, 825.0, 825.0, 824.0, 824.0, 824.0, 824.0, 823.0, 823.0, 824.0, 824.0, 823.0, 823.0, 822.0, 823.0, 823.0, 824.0, 824.0, 824.0, 824.0, 823.0, 823.0, 823.0, 822.0, 823.0, 823.0, 823.0, 823.0, 824.0, 824.0, 825.0, 824.0, 823.0, 822.0, 822.0, 823.0, 823.0, 824.0, 823.0, 824.0, 823.0, 823.0, 824.0, 825.0, 824.0, 823.0, 822.0, 823.0, 823.0, 824.0, 825.0, 824.0, 823.0, 824.0, 824.0, 825.0, 824.0, 823.0, 823.0, 823.0, 826.0, 826.0, 825.0, 823.0, 822.0, 822.0, 822.0, 823.0, 823.0, 824.0, 824.0, 823.0, 825.0, 826.0, 826.0, 826.0, 825.0, 823.0, 823.0, 824.0, 825.0, 825.0, 825.0, 823.0, 822.0, 823.0, 823.0, 823.0, 822.0, 822.0, 824.0, 824.0, 824.0, 823.0, 823.0, 823.0, 824.0, 824.0, 824.0, 824.0, 825.0, 824.0, 824.0, 825.0, 825.0, 824.0, 823.0, 823.0, 823.0, 823.0, 823.0, 823.0, 823.0, 824.0, 825.0, 825.0, 824.0, 825.0, 826.0, 827.0, 827.0, 826.0, 825.0, 824.0, 823.0, 823.0, 822.0, 823.0, 823.0, 823.0, 823.0, 822.0, 823.0, 823.0, 824.0, 823.0, 823.0, 824.0, 825.0, 826.0, 826.0, 826.0, 825.0, 824.0, 824.0, 823.0, 824.0, 825.0, 824.0, 823.0, 824.0, 824.0, 826.0, 827.0, 826.0, 824.0, 822.0, 822.0, 822.0, 821.0, 821.0, 822.0],
      "WindowWidth": [1781.0, 1777.0, 1776.0, 1777.0, 1775.0, 1772.0, 1771.0, 1771.0, 1772.0, 1774.0, 1773.0, 1772.0, 1773.0, 1773.0, 1774.0, 1772.0, 1772.0, 1772.0, 1772.0, 1771.0, 1767.0, 1766.0, 1767.0, 1770.0, 1770.0, 1770.0, 1767.0, 1767.0, 1768.0, 1768.0, 1770.0, 1768.0, 1770.0, 1769.0, 1774.0, 1773.0, 1772.0, 1770.0, 1769.0, 1775.0, 1775.0, 1773.0, 1774.0, 1773.0, 1773.0, 1773.0, 1774.0, 1773.0, 1770.0, 1770.0, 1770.0, 1771.0, 1771.0, 1771.0, 1770.0, 1769.0, 1772.0, 1771.0, 1769.0, 1770.0, 1770.0, 1771.0, 1771.0, 1771.0, 1772.0, 1772.0, 1769.0, 1767.0, 1769.0, 1768.0, 1767.0, 1767.0, 1768.0, 1774.0, 1775.0, 1776.0, 1772.0, 1772.0, 1772.0, 1772.0, 1773.0, 1771.0, 1773.0, 1770.0, 1769.0, 1767.0, 1768.0, 1770.0, 1770.0, 1772.0, 1773.0, 1772.0, 1771.0, 1771.0, 1775.0, 1776.0, 1775.0, 1771.0, 1772.0, 1771.0, 1772.0, 1771.0, 1770.0, 1773.0, 1772.0, 1770.0, 1768.0, 1767.0, 1769.0, 1770.0, 1771.0, 1772.0, 1771.0, 1771.0, 1769.0, 1768.0, 1769.0, 1766.0, 1769.0, 1770.0, 1769.0, 1770.0, 1771.0, 1773.0, 1773.0, 1771.0, 1768.0, 1766.0, 1767.0, 1768.0, 1770.0, 1770.0, 1770.0, 1771.0, 1770.0, 1770.0, 1773.0, 1773.0, 1772.0, 1770.0, 1768.0, 1768.0, 1769.0, 1773.0, 1774.0, 1771.0, 1770.0, 1771.0, 1772.0, 1774.0, 1772.0, 1770.0, 1768.0, 1771.0, 1777.0, 1779.0, 1775.0, 1769.0, 1767.0, 1766.0, 1765.0, 1768.0, 1770.0, 1771.0, 1770.0, 1768.0, 1773.0, 1776.0, 1777.0, 1776.0, 1773.0, 1770.0, 1769.0, 1771.0, 1774.0, 1775.0, 1773.0, 1768.0, 1767.0, 1768.0, 1767.0, 1768.0, 1767.0, 1767.0, 1772.0, 1772.0, 1770.0, 1770.0, 1768.0, 1768.0, 1770.0, 1771.0, 1770.0, 1771.0, 1773.0, 1771.0, 1772.0, 1775.0, 1774.0, 1772.0, 1769.0, 1768.0, 1769.0, 1769.0, 1768.0, 1767.0, 1768.0, 1771.0, 1774.0, 1773.0, 1771.0, 1773.0, 1775.0, 1778.0, 1778.0, 1777.0, 1774.0, 1770.0, 1768.0, 1767.0, 1765.0, 1767.0, 1767.0, 1769.0, 1767.0, 1766.0, 1768.0, 1769.0, 1770.0, 1769.0, 1768.0, 1771.0, 1774.0, 1776.0, 1777.0, 1777.0, 1774.0, 1771.0, 1770.0, 1770.0, 1770.0, 1773.0, 1770.0, 1767.0, 1771.0, 1772.0, 1775.0, 1779.0, 1777.0, 1771.0, 1766.0, 1765.0, 1764.0, 1764.0, 1762.0, 1766.0]
    },
    "slices": {}
  }
}