{
  "AcquisitionMatrixPE": 100,
  "AcquisitionNumber": 1,
  "AcquisitionTime": "13:24:36.810000",
  "BandwidthPerPixelPhaseEncode": 18.519,
  "BaseResolution": 100,
  "BodyPartExamined": "BRAIN",
  "ConsistencyInfo": "N4_VE11C_LATEST_20160120",
  "ConversionSoftware": "dcm2niix",
  "ConversionSoftwareVersion": "v1.0.20180622 GCC4.9.2",
  "DerivedVendorReportedEchoSpacing": 0.000539986,
  "DeviceSerialNumber": "166078",
  "DwellTime": 2.1e-06,
  "EchoTime": 0.034,
  "EchoTrainLength": 100,
  "EffectiveEchoSpacing": 0.000539986,
  "FlipAngle": 90,
  "ImageOrientationPatientDICOM": [1, 0, 0, 0, 0.976296, -0.21644],
  "ImageType": [
    "ORIGINAL",
    "PRIMARY",
    "M",
    "ND",
    "MOSAIC"
],
  "InPlanePhaseEncodingDirectionDICOM": "COL",
  "InstitutionAddress": "Street_StreetNo_Bei_Jing_District_CN_ZIP",
  "InstitutionName": "BeiJing_Normal_University",
  "InstitutionalDepartmentName": "Department",
  "MRAcquisitionType": "2D",
  "MagneticFieldStrength": 3,
  "Manufacturer": "Siemens",
  "ManufacturersModelName": "Prisma",
  "Modality": "MR",
  "MultibandAccelerationFactor": 3,
  "PartialFourier": 1,
  "PatientPosition": "HFS",
  "PercentPhaseFOV": 100,
  "PhaseEncodingDirection": "j-",
  "PhaseEncodingSteps": 100,
  "PhaseResolution": 1,
  "PixelBandwidth": 2380,
  "ProcedureStepDescription": "BNU_P2018_64CH_Zhen.ZongLei",
  "ProtocolName": "bold_100x100_s3_2x2x2_static_256",
  "PulseSequenceDetails": "%SiemensSeq%_ep2d_bold",
  "ReceiveCoilActiveElements": "HC1-7;NC1",
  "ReceiveCoilName": "HeadNeck_64",
  "ReconMatrixPE": 100,
  "RepetitionTime": 2,
  "SAR": 0.0693089,
  "ScanOptions": "FS",
  "ScanningSequence": "EP",
  "SequenceName": "_epfid2d1_100",
  "SequenceVariant": "SK",
  "SeriesDescription": "bold_100x100_s3_2x2x2_static_256",
  "SeriesNumber": 5,
  "ShimSetting": [-5451, -11480, -1266, 297, 30, -133, -191, 75],
  "SliceThickness": 2,
  "SliceTiming": [1.485, 0, 0.99, 0.0825, 1.0725, 0.165, 1.155, 0.2475, 1.2375, 0.33, 1.32, 0.4125, 1.4025, 0.5775, 1.5675, 0.66, 1.65, 0.7425, 1.7325, 0.825, 1.815, 0.9075, 1.8975, 0.495, 1.485, 0, 0.99, 0.0825, 1.0725, 0.165, 1.155, 0.2475, 1.2375, 0.33, 1.32, 0.4125, 1.4025, 0.5775, 1.5675, 0.66, 1.65, 0.7425, 1.7325, 0.825, 1.815, 0.9075, 1.8975, 0.495, 1.485, 0, 0.99, 0.0825, 1.0725, 0.165, 1.155, 0.2475, 1.2375, 0.33, 1.32, 0.4125, 1.4025, 0.5775, 1.5675, 0.66, 1.65, 0.7425, 1.7325, 0.825, 1.815, 0.9075, 1.8975, 0.495],
  "SoftwareVersions": "syngo_MR_E11",
  "SpacingBetweenSlices": 2,
  "StationName": "AWP166078",
  "TaskName": "naturalvision",
  "TotalReadoutTime": 0.0534586,
  "TxRefAmp": 225.288,
  "dcmmeta_affine": [
    [-2.0, 0.0, 0.0, 102.02409362792969],
    [0.0, 1.9525920152664185, -0.432879239320755, -80.41100311279297],
    [0.0, 0.432879239320755, 1.9525920152664185, -80.63894653320312],
    [0.0, 0.0, 0.0, 1.0]
],
  "dcmmeta_reorient_transform": [
    [0.0, -1.0, 0.0, 99.0],
    [1.0, 0.0, 0.0, 0.0],
    [0.0, 0.0, 1.0, 0.0],
    [0.0, 0.0, 0.0, 1.0]
],
  "dcmmeta_shape": [100, 100, 72, 256],
  "dcmmeta_slice_dim": 2,
  "dcmmeta_version": 0.6,
  "global": {
    "const": {
      "AcquisitionMatrix": [100, 0, 0, 100],
      "AngioFlag": "N",
      "BitsAllocated": 16,
      "BitsStored": 12,
      "BodyPartExamined": "BRAIN",
      "Columns": 900,
      "EchoNumbers": 1,
      "EchoTime": 34.0,
      "EchoTrainLength": 100,
      "FlipAngle": 90.0,
      "HighBit": 11,
      "ImageOrientationPatient": [1.0, 0.0, 0.0, 0.0, 0.97629600560084, -0.2164396207903],
      "ImagePositionPatient": [-902.02409648895, -893.93241246416, 135.36779845127],
      "ImageType": [
        "ORIGINAL",
        "PRIMARY",
        "M",
        "ND",
        "MOSAIC"
],
      "ImagedNucleus": "1H",
      "ImagingFrequency": 123.257751,
      "InPlanePhaseEncodingDirection": "COL",
      "MRAcquisitionType": "2D",
      "MagneticFieldStrength": 3.0,
      "Manufacturer": "SIEMENS",
      "ManufacturerModelName": "Prisma",
      "Modality": "MR",
      "NumberOfAverages": 1.0,
      "NumberOfPhaseEncodingSteps": 100,
      "PercentPhaseFieldOfView": 100.0,
      "PercentSampling": 100.0,
      "PerformedProcedureStepStartTime": "130057.132000",
      "PhotometricInterpretation": "MONOCHROME2",
      "PixelBandwidth": 2380.0,
      "PixelRepresentation": 0,
      "PixelSpacing": [2.0, 2.0],
      "ProtocolName": "bold_100x100_s3_2x2x2_static_256",
      "RepetitionTime": 2000.0,
      "Rows": 900,
      "SAR": 0.06930886653402,
      "SamplesPerPixel": 1,
      "ScanOptions": "FS",
      "ScanningSequence": "EP",
      "SequenceName": "*epfid2d1_100",
      "SequenceVariant": "SK",
      "SeriesDescription": "bold_100x100_s3_2x2x2_static_256",
      "SeriesNumber": 5,
      "SeriesTime": "132438.869000",
      "SliceLocation": -61.323351450955,
      "SliceThickness": 2.0,
      "SmallestImagePixelValue": 0,
      "SoftwareVersions": "syngo MR E11",
      "SpacingBetweenSlices": 2.0000000533031,
      "SpecificCharacterSet": "ISO_IR 100",
      "StudyID": "1",
      "StudyTime": "130057.027000",
      "TransmitCoilName": "Body",
      "VariableFlipAngleFlag": "N",
      "WindowCenterWidthExplanation": "Algo1",
      "dBdt": 0.0},
    "slices": {}
  },
  "time": {
    "samples": {
      "AcquisitionNumber": [1, 2, 3, 4, 5, 6, 7, 8, 9, 10, 11, 12, 13, 14, 15, 16, 17, 18, 19, 20, 21, 22, 23, 24, 25, 26, 27, 28, 29, 30, 31, 32, 33, 34, 35, 36, 37, 38, 39, 40, 41, 42, 43, 44, 45, 46, 47, 48, 49, 50, 51, 52, 53, 54, 55, 56, 57, 58, 59, 60, 61, 62, 63, 64, 65, 66, 67, 68, 69, 70, 71, 72, 73, 74, 75, 76, 77, 78, 79, 80, 81, 82, 83, 84, 85, 86, 87, 88, 89, 90, 91, 92, 93, 94, 95, 96, 97, 98, 99, 100, 101, 102, 103, 104, 105, 106, 107, 108, 109, 110, 111, 112, 113, 114, 115, 116, 117, 118, 119, 120, 121, 122, 123, 124, 125, 126, 127, 128, 129, 130, 131, 132, 133, 134, 135, 136, 137, 138, 139, 140, 141, 142, 143, 144, 145, 146, 147, 148, 149, 150, 151, 152, 153, 154, 155, 156, 157, 158, 159, 160, 161, 162, 163, 164, 165, 166, 167, 168, 169, 170, 171, 172, 173, 174, 175, 176, 177, 178, 179, 180, 181, 182, 183, 184, 185, 186, 187, 188, 189, 190, 191, 192, 193, 194, 195, 196, 197, 198, 199, 200, 201, 202, 203, 204, 205, 206, 207, 208, 209, 210, 211, 212, 213, 214, 215, 216, 217, 218, 219, 220, 221, 222, 223, 224, 225, 226, 227, 228, 229, 230, 231, 232, 233, 234, 235, 236, 237, 238, 239, 240, 241, 242, 243, 244, 245, 246, 247, 248, 249, 250, 251, 252, 253, 254, 255, 256],
      "AcquisitionTime": ["132436.810000", "132438.810000", "132440.810000", "132442.810000", "132444.810000", "132446.810000", "132448.810000", "132450.810000", "132452.810000", "132454.810000", "132456.810000", "132458.810000", "132500.810000", "132502.810000", "132504.810000", "132506.810000", "132508.810000", "132510.810000", "132512.810000", "132514.810000", "132516.810000", "132518.810000", "132520.810000", "132522.810000", "132524.810000", "132526.810000", "132528.810000", "132530.810000", "132532.810000", "132534.810000", "132536.810000", "132538.810000", "132540.810000", "132542.810000", "132544.810000", "132546.810000", "132548.810000", "132550.810000", "132552.810000", "132554.810000", "132556.810000", "132558.810000", "132600.810000", "132602.810000", "132604.810000", "132606.810000", "132608.810000", "132610.810000", "132612.810000", "132614.810000", "132616.810000", "132618.810000", "132620.810000", "132622.810000", "132624.810000", "132626.810000", "132628.810000", "132630.810000", "132632.810000", "132634.810000", "132636.810000", "132638.810000", "132640.810000", "132642.810000", "132644.810000", "132646.810000", "132648.810000", "132650.810000", "132652.810000", "132654.810000", "132656.810000", "132658.810000", "132700.810000", "132702.810000", "132704.810000", "132706.810000", "132708.810000", "132710.810000", "132712.810000", "132714.810000", "132716.810000", "132718.810000", "132720.810000", "132722.810000", "132724.810000", "132726.810000", "132728.810000", "132730.810000", "132732.810000", "132734.810000", "132736.810000", "132738.810000", "132740.810000", "132742.810000", "132744.810000", "132746.810000", "132748.810000", "132750.810000", "132752.810000", "132754.810000", "132756.810000", "132758.810000", "132800.810000", "132802.810000", "132804.810000", "132806.810000", "132808.810000", "132810.810000", "132812.810000", "132814.810000", "132816.810000", "132818.810000", "132820.810000", "132822.810000", "132824.810000", "132826.810000", "132828.810000", "132830.810000", "132832.810000", "132834.810000", "132836.810000", "132838.810000", "132840.810000", "132842.810000", "132844.810000", "132846.810000", "132848.810000", "132850.810000", "132852.810000", "132854.810000", "132856.810000", "132858.810000", "132900.810000", "132902.810000", "132904.810000", "132906.810000", "132908.810000", "132910.810000", "132912.810000", "132914.810000", "132916.810000", "132918.810000", "132920.810000", "132922.810000", "132924.810000", "132926.810000", "132928.810000", "132930.810000", "132932.810000", "132934.810000", "132936.810000", "132938.810000", "132940.810000", "132942.810000", "132944.810000", "132946.810000", "132948.810000", "132950.810000", "132952.810000", "132954.810000", "132956.810000", "132958.810000", "133000.810000", "133002.810000", "133004.810000", "133006.810000", "133008.810000", "133010.810000", "133012.810000", "133014.810000", "133016.810000", "133018.810000", "133020.810000", "133022.810000", "133024.810000", "133026.810000", "133028.810000", "133030.810000", "133032.810000", "133034.810000", "133036.810000", "133038.810000", "133040.810000", "133042.810000", "133044.810000", "133046.810000", "133048.810000", "133050.810000", "133052.810000", "133054.810000", "133056.810000", "133058.810000", "133100.810000", "133102.810000", "133104.810000", "133106.810000", "133108.810000", "133110.810000", "133112.810000", "133114.810000", "133116.810000", "133118.810000", "133120.810000", "133122.810000", "133124.810000", "133126.810000", "133128.810000", "133130.810000", "133132.810000", "133134.810000", "133136.810000", "133138.810000", "133140.810000", "133142.810000", "133144.810000", "133146.810000", "133148.810000", "133150.810000", "133152.810000", "133154.810000", "133156.810000", "133158.810000", "133200.810000", "133202.810000", "133204.810000", "133206.810000", "133208.810000", "133210.810000", "133212.810000", "133214.810000", "133216.810000", "133218.810000", "133220.810000", "133222.810000", "133224.810000", "133226.810000", "133228.810000", "133230.810000", "133232.810000", "133234.810000", "133236.810000", "133238.810000", "133240.810000", "133242.810000", "133244.810000", "133246.810000", "133248.810000", "133250.810000", "133252.810000", "133254.810000", "133256.810000", "133258.810000", "133300.810000", "133302.810000", "133304.810000", "133306.810000"],
      "ContentTime": ["132438.873000", "132440.369000", "132442.368000", "132444.369000", "132446.368000", "132448.369000", "132450.369000", "132452.368000", "132454.368000", "132456.368000", "132458.368000", "132500.369000", "132502.369000", "132504.368000", "132506.370000", "132508.369000", "132510.368000", "132512.369000", "132514.369000", "132516.368000", "132518.368000", "132520.368000", "132522.368000", "132524.369000", "132526.368000", "132528.368000", "132530.369000", "132532.369000", "132534.369000", "132536.369000", "132538.369000", "132540.369000", "132542.369000", "132544.369000", "132546.368000", "132548.369000", "132550.368000", "132552.369000", "132554.368000", "132556.369000", "132558.370000", "132600.369000", "132602.368000", "132604.368000", "132606.369000", "132608.369000", "132610.369000", "132612.368000", "132614.368000", "132616.370000", "132618.368000", "132620.369000", "132622.369000", "132624.369000", "132626.369000", "132628.369000", "132630.369000", "132632.368000", "132634.369000", "132636.369000", "132638.368000", "132640.369000", "132642.369000", "132644.369000", "132646.368000", "132648.369000", "132650.370000", "132652.370000", "132654.369000", "132656.368000", "132658.368000", "132700.369000", "132702.368000", "132704.369000", "132706.368000", "132708.370000", "132710.369000", "132712.369000", "132714.368000", "132716.369000", "132718.369000", "132720.368000", "132722.369000", "132724.369000", "132726.369000", "132728.369000", "132730.369000", "132732.369000", "132734.369000", "132736.369000", "132738.368000", "132740.369000", "132742.368000", "132744.369000", "132746.369000", "132748.368000", "132750.369000", "132752.368000", "132754.369000", "132756.368000", "132758.369000", "132800.370000", "132802.370000", "132804.369000", "132806.369000", "132808.369000", "132810.369000", "132812.369000", "132814.368000", "132816.368000", "132818.370000", "132820.369000", "132822.369000", "132824.368000", "132826.368000", "132828.369000", "132830.368000", "132832.368000", "132834.368000", "132836.369000", "132838.368000", "132840.369000", "132842.369000", "132844.368000", "132846.368000", "132848.368000", "132850.369000", "132852.369000", "132854.369000", "132856.368000", "132858.369000", "132900.369000", "132902.368000", "132904.368000", "132906.369000", "132908.369000", "132910.370000", "132912.369000", "132914.369000", "132916.369000", "132918.369000", "132920.369000", "132922.368000", "132924.369000", "132926.368000", "132928.370000", "132930.369000", "132932.368000", "132934.369000", "132936.368000", "132938.369000", "132940.368000", "132942.369000", "132944.369000", "132946.369000", "132948.368000", "132950.369000", "132952.369000", "132954.368000", "132956.369000", "132958.369000", "133000.368000", "133002.369000", "133004.369000", "133006.368000", "133008.369000", "133010.368000", "133012.368000", "133014.368000", "133016.368000", "133018.369000", "133020.369000", "133022.369000", "133024.368000", "133026.368000", "133028.369000", "133030.369000", "133032.368000", "133034.369000", "133036.368000", "133038.369000", "133040.369000", "133042.369000", "133044.369000", "133046.369000", "133048.369000", "133050.368000", "133052.369000", "133054.368000", "133056.370000", "133058.369000", "133100.369000", "133102.368000", "133104.368000", "133106.369000", "133108.369000", "133110.369000", "133112.369000", "133114.370000", "133116.369000", "133118.368000", "133120.369000", "133122.369000", "133124.369000", "133126.369000", "133128.368000", "133130.369000", "133132.370000", "133134.369000", "133136.382000", "133138.369000", "133140.368000", "133142.368000", "133144.368000", "133146.368000", "133148.370000", "133150.369000", "133152.369000", "133154.369000", "133156.369000", "133158.369000", "133200.368000", "133202.369000", "133204.369000", "133206.370000", "133208.369000", "133210.368000", "133212.368000", "133214.369000", "133216.368000", "133218.368000", "133220.369000", "133222.370000", "133224.369000", "133226.369000", "133228.369000", "133230.369000", "133232.368000", "133234.369000", "133236.368000", "133238.368000", "133240.369000", "133242.369000", "133244.369000", "133246.369000", "133248.369000", "133250.369000", "133252.368000", "133254.369000", "133256.369000", "133258.370000", "133300.368000", "133302.368000", "133304.368000", "133306.369000", "133308.200000"],
      "InstanceCreationTime": ["132438.873000", "132440.369000", "132442.368000", "132444.369000", "132446.368000", "132448.369000", "132450.369000", "132452.368000", "132454.368000", "132456.368000", "132458.368000", "132500.369000", "132502.369000", "132504.368000", "132506.370000", "132508.369000", "132510.368000", "132512.369000", "132514.369000", "132516.368000", "132518.368000", "132520.368000", "132522.368000", "132524.369000", "132526.368000", "132528.368000", "132530.369000", "132532.369000", "132534.369000", "132536.369000", "132538.369000", "132540.369000", "132542.369000", "132544.369000", "132546.368000", "132548.369000", "132550.368000", "132552.369000", "132554.368000", "132556.369000", "132558.370000", "132600.369000", "132602.368000", "132604.368000", "132606.369000", "132608.369000", "132610.369000", "132612.368000", "132614.368000", "132616.370000", "132618.368000", "132620.369000", "132622.369000", "132624.369000", "132626.369000", "132628.369000", "132630.369000", "132632.368000", "132634.369000", "132636.369000", "132638.368000", "132640.369000", "132642.369000", "132644.369000", "132646.368000", "132648.369000", "132650.370000", "132652.370000", "132654.369000", "132656.368000", "132658.368000", "132700.369000", "132702.368000", "132704.369000", "132706.368000", "132708.370000", "132710.369000", "132712.369000", "132714.368000", "132716.369000", "132718.369000", "132720.368000", "132722.369000", "132724.369000", "132726.369000", "132728.369000", "132730.369000", "132732.369000", "132734.369000", "132736.369000", "132738.368000", "132740.369000", "132742.368000", "132744.369000", "132746.369000", "132748.368000", "132750.369000", "132752.368000", "132754.369000", "132756.368000", "132758.369000", "132800.370000", "132802.370000", "132804.369000", "132806.369000", "132808.369000", "132810.369000", "132812.369000", "132814.368000", "132816.368000", "132818.370000", "132820.369000", "132822.369000", "132824.368000", "132826.368000", "132828.369000", "132830.368000", "132832.368000", "132834.368000", "132836.369000", "132838.368000", "132840.369000", "132842.369000", "132844.368000", "132846.368000", "132848.368000", "132850.369000", "132852.369000", "132854.369000", "132856.368000", "132858.369000", "132900.369000", "132902.368000", "132904.368000", "132906.369000", "132908.369000", "132910.370000", "132912.369000", "132914.369000", "132916.369000", "132918.369000", "132920.369000", "132922.368000", "132924.369000", "132926.368000", "132928.370000", "132930.369000", "132932.368000", "132934.369000", "132936.368000", "132938.369000", "132940.368000", "132942.369000", "132944.369000", "132946.369000", "132948.368000", "132950.369000", "132952.369000", "132954.368000", "132956.369000", "132958.369000", "133000.368000", "133002.369000", "133004.369000", "133006.368000", "133008.369000", "133010.368000", "133012.368000", "133014.368000", "133016.368000", "133018.369000", "133020.369000", "133022.369000", "133024.368000", "133026.368000", "133028.369000", "133030.369000", "133032.368000", "133034.369000", "133036.368000", "133038.369000", "133040.369000", "133042.369000", "133044.369000", "133046.369000", "133048.369000", "133050.368000", "133052.369000", "133054.368000", "133056.370000", "133058.369000", "133100.369000", "133102.368000", "133104.368000", "133106.369000", "133108.369000", "133110.369000", "133112.369000", "133114.370000", "133116.369000", "133118.368000", "133120.369000", "133122.369000", "133124.369000", "133126.369000", "133128.368000", "133130.369000", "133132.370000", "133134.369000", "133136.382000", "133138.369000", "133140.368000", "133142.368000", "133144.368000", "133146.368000", "133148.370000", "133150.369000", "133152.369000", "133154.369000", "133156.369000", "133158.369000", "133200.368000", "133202.369000", "133204.369000", "133206.370000", "133208.369000", "133210.368000", "133212.368000", "133214.369000", "133216.368000", "133218.368000", "133220.369000", "133222.370000", "133224.369000", "133226.369000", "133228.369000", "133230.369000", "133232.368000", "133234.369000", "133236.368000", "133238.368000", "133240.369000", "133242.369000", "133244.369000", "133246.369000", "133248.369000", "133250.369000", "133252.368000", "133254.369000", "133256.369000", "133258.370000", "133300.368000", "133302.368000", "133304.368000", "133306.369000", "133308.200000"],
      "InstanceNumber": [1, 2, 3, 4, 5, 6, 7, 8, 9, 10, 11, 12, 13, 14, 15, 16, 17, 18, 19, 20, 21, 22, 23, 24, 25, 26, 27, 28, 29, 30, 31, 32, 33, 34, 35, 36, 37, 38, 39, 40, 41, 42, 43, 44, 45, 46, 47, 48, 49, 50, 51, 52, 53, 54, 55, 56, 57, 58, 59, 60, 61, 62, 63, 64, 65, 66, 67, 68, 69, 70, 71, 72, 73, 74, 75, 76, 77, 78, 79, 80, 81, 82, 83, 84, 85, 86, 87, 88, 89, 90, 91, 92, 93, 94, 95, 96, 97, 98, 99, 100, 101, 102, 103, 104, 105, 106, 107, 108, 109, 110, 111, 112, 113, 114, 115, 116, 117, 118, 119, 120, 121, 122, 123, 124, 125, 126, 127, 128, 129, 130, 131, 132, 133, 134, 135, 136, 137, 138, 139, 140, 141, 142, 143, 144, 145, 146, 147, 148, 149, 150, 151, 152, 153, 154, 155, 156, 157, 158, 159, 160, 161, 162, 163, 164, 165, 166, 167, 168, 169, 170, 171, 172, 173, 174, 175, 176, 177, 178, 179, 180, 181, 182, 183, 184, 185, 186, 187, 188, 189, 190, 191, 192, 193, 194, 195, 196, 197, 198, 199, 200, 201, 202, 203, 204, 205, 206, 207, 208, 209, 210, 211, 212, 213, 214, 215, 216, 217, 218, 219, 220, 221, 222, 223, 224, 225, 226, 227, 228, 229, 230, 231, 232, 233, 234, 235, 236, 237, 238, 239, 240, 241, 242, 243, 244, 245, 246, 247, 248, 249, 250, 251, 252, 253, 254, 255, 256],
      "LargestImagePixelValue": [3840, 3653, 3732, 3686, 3768, 3710, 3692, 3770, 3706, 3725, 3704, 3742, 3721, 3795, 3738, 3753, 3775, 3746, 3774, 3753, 3712, 3745, 3696, 3776, 3730, 3739, 3753, 3752, 3775, 3727, 3755, 3808, 3756, 3718, 3766, 3742, 3718, 3743, 3703, 3774, 3751, 3704, 3768, 3746, 3767, 3777, 3751, 3733, 3752, 3765, 3775, 3746, 3757, 3738, 3782, 3719, 3746, 3802, 3738, 3772, 3786, 3717, 3780, 3715, 3749, 3755, 3723, 3765, 3703, 3723, 3734, 3703, 3807, 3725, 3776, 3716, 3756, 3797, 3727, 3741, 3731, 3740, 3719, 3735, 3773, 3709, 3793, 3712, 3724, 3707, 3757, 3753, 3770, 3761, 3743, 3752, 3737, 3810, 3736, 3805, 3773, 3733, 3789, 3780, 3752, 3714, 3729, 3734, 3717, 3783, 3746, 3767, 3765, 3710, 3788, 3725, 3795, 3752, 3809, 3737, 3772, 3717, 3793, 3731, 3737, 3764, 3729, 3799, 3761, 3778, 3749, 3787, 3776, 3783, 3742, 3803, 3731, 3752, 3743, 3701, 3775, 3730, 3781, 3726, 3763, 3733, 3790, 3713, 3794, 3715, 3729, 3723, 3726, 3702, 3750, 3729, 3710, 3722, 3795, 3721, 3808, 3718, 3783, 3742, 3842, 3780, 3828, 3744, 3816, 3723, 3785, 3737, 3796, 3735, 3794, 3721, 3793, 3749, 3797, 3758, 3819, 3773, 3768, 3736, 3781, 3750, 3781, 3772, 3770, 3729, 3709, 3776, 3748, 3792, 3738, 3802, 3745, 3787, 3769, 3729, 3797, 3767, 3829, 3740, 3812, 3728, 3816, 3737, 3819, 3759, 3782, 3743, 3813, 3735, 3798, 3749, 3737, 3831, 3745, 3841, 3732, 3816, 3761, 3830, 3735, 3797, 3776, 3789, 3766, 3779, 3750, 3793, 3768, 3717, 3776, 3737, 3846, 3705, 3794, 3755, 3778, 3750, 3792, 3748, 3732, 3780, 3751, 3800, 3772, 3820, 3768, 3780, 3762, 3789, 3775, 3732],
      "WindowCenter": [826.0, 823.0, 823.0, 823.0, 823.0, 823.0, 823.0, 824.0, 823.0, 823.0, 823.0, 824.0, 824.0, 824.0, 824.0, 823.0, 824.0, 824.0, 824.0, 823.0, 822.0, 823.0, 823.0, 824.0, 823.0, 822.0, 823.0, 823.0, 823.0, 822.0, 823.0, 824.0, 824.0, 822.0, 822.0, 822.0, 822.0, 822.0, 823.0, 822.0, 822.0, 821.0, 821.0, 821.0, 821.0, 821.0, 821.0, 821.0, 821.0, 821.0, 822.0, 822.0, 823.0, 822.0, 822.0, 822.0, 822.0, 822.0, 823.0, 823.0, 823.0, 822.0, 822.0, 822.0, 823.0, 823.0, 823.0, 822.0, 821.0, 821.0, 821.0, 821.0, 822.0, 821.0, 822.0, 822.0, 821.0, 822.0, 821.0, 822.0, 822.0, 821.0, 822.0, 823.0, 823.0, 822.0, 823.0, 823.0, 823.0, 823.0, 823.0, 823.0, 823.0, 823.0, 823.0, 823.0, 823.0, 824.0, 824.0, 823.0, 823.0, 823.0, 823.0, 823.0, 823.0, 823.0, 824.0, 824.0, 823.0, 823.0, 823.0, 822.0, 822.0, 823.0, 823.0, 822.0, 822.0, 821.0, 822.0, 822.0, 822.0, 822.0, 822.0, 822.0, 823.0, 824.0, 823.0, 823.0, 822.0, 822.0, 823.0, 823.0, 824.0, 824.0, 824.0, 824.0, 823.0, 823.0, 823.0, 822.0, 824.0, 824.0, 824.0, 823.0, 823.0, 823.0, 823.0, 823.0, 824.0, 823.0, 823.0, 824.0, 824.0, 823.0, 824.0, 823.0, 823.0, 823.0, 824.0, 823.0, 823.0, 823.0, 823.0, 822.0, 823.0, 823.0, 823.0, 824.0, 825.0, 824.0, 823.0, 823.0, 823.0, 824.0, 824.0, 823.0, 823.0, 824.0, 825.0, 824.0, 824.0, 823.0, 823.0, 823.0, 824.0, 825.0, 824.0, 823.0, 822.0, 822.0, 823.0, 824.0, 825.0, 825.0, 824.0, 823.0, 824.0, 824.0, 825.0, 827.0, 827.0, 825.0, 824.0, 823.0, 823.0, 821.0, 821.0, 821.0, 822.0, 822.0, 823.0, 823.0, 824.0, 823.0, 824.0, 824.0, 825.0, 825.0, 824.0, 824.0, 824.0, 825.0, 825.0, 826.0, 825.0, 826.0, 825.0, 825.0, 825.0, 826.0, 826.0, 825.0, 825.0, 824.0, 824.0, 823.0, 824.0, 823.0, 824.0, 824.0, 825.0, 824.0, 825.0, 825.0, 825.0, 825.0, 824.0, 824.0, 823.0, 823.0, 823.0, 824.0, 823.0, 823.0, 823.0, 823.0],
      "WindowWidth": [1777.0, 1770.0, 1769.0, 1769.0, 1770.0, 1770.0, 1768.0, 1771.0, 1770.0, 1768.0, 1769.0, 1772.0, 1773.0, 1774.0, 1771.0, 1770.0, 1772.0, 1771.0, 1772.0, 1769.0, 1767.0, 1769.0, 1770.0, 1771.0, 1769.0, 1767.0, 1769.0, 1769.0, 1768.0, 1767.0, 1770.0, 1773.0, 1771.0, 1768.0, 1767.0, 1767.0, 1767.0, 1768.0, 1768.0, 1767.0, 1766.0, 1763.0, 1764.0, 1764.0, 1764.0, 1764.0, 1763.0, 1763.0, 1765.0, 1764.0, 1766.0, 1768.0, 1769.0, 1768.0, 1767.0, 1766.0, 1766.0, 1767.0, 1768.0, 1770.0, 1769.0, 1767.0, 1767.0, 1767.0, 1769.0, 1770.0, 1769.0, 1767.0, 1763.0, 1763.0, 1764.0, 1764.0, 1768.0, 1765.0, 1767.0, 1766.0, 1765.0, 1766.0, 1765.0, 1765.0, 1765.0, 1765.0, 1766.0, 1768.0, 1770.0, 1768.0, 1770.0, 1770.0, 1771.0, 1768.0, 1769.0, 1769.0, 1770.0, 1770.0, 1769.0, 1769.0, 1770.0, 1774.0, 1771.0, 1770.0, 1770.0, 1770.0, 1770.0, 1770.0, 1770.0, 1771.0, 1774.0, 1773.0, 1771.0, 1770.0, 1769.0, 1768.0, 1768.0, 1769.0, 1770.0, 1767.0, 1766.0, 1765.0, 1766.0, 1766.0, 1768.0, 1767.0, 1768.0, 1768.0, 1770.0, 1772.0, 1770.0, 1769.0, 1767.0, 1767.0, 1769.0, 1770.0, 1773.0, 1773.0, 1773.0, 1774.0, 1770.0, 1769.0, 1769.0, 1768.0, 1772.0, 1772.0, 1772.0, 1770.0, 1770.0, 1769.0, 1771.0, 1770.0, 1772.0, 1771.0, 1771.0, 1772.0, 1772.0, 1770.0, 1772.0, 1770.0, 1770.0, 1771.0, 1773.0, 1770.0, 1771.0, 1770.0, 1771.0, 1768.0, 1769.0, 1769.0, 1771.0, 1771.0, 1775.0, 1772.0, 1771.0, 1769.0, 1770.0, 1771.0, 1773.0, 1770.0, 1770.0, 1771.0, 1774.0, 1773.0, 1773.0, 1770.0, 1770.0, 1771.0, 1773.0, 1775.0, 1773.0, 1770.0, 1768.0, 1767.0, 1769.0, 1773.0, 1774.0, 1774.0, 1771.0, 1771.0, 1771.0, 1772.0, 1776.0, 1780.0, 1780.0, 1775.0, 1771.0, 1769.0, 1769.0, 1765.0, 1766.0, 1765.0, 1766.0, 1766.0, 1768.0, 1771.0, 1772.0, 1771.0, 1773.0, 1772.0, 1774.0, 1775.0, 1772.0, 1773.0, 1772.0, 1774.0, 1774.0, 1777.0, 1776.0, 1777.0, 1774.0, 1773.0, 1774.0, 1777.0, 1777.0, 1776.0, 1774.0, 1771.0, 1771.0, 1770.0, 1771.0, 1769.0, 1772.0, 1773.0, 1774.0, 1773.0, 1775.0, 1775.0, 1774.0, 1774.0, 1772.0, 1771.0, 1770.0, 1770.0, 1770.0, 1770.0, 1769.0, 1769.0, 1770.0, 1768.0]
    },
    "slices": {}
  }
}