{
 "AcquisitionMatrixPE": 100,
 "AcquisitionNumber": 1,
 "AcquisitionTime": "13:44:38.270000",
 "BandwidthPerPixelPhaseEncode": 18.519,
 "BaseResolution": 100,
 "BodyPartExamined": "BRAIN",
 "ConsistencyInfo": "N4_VE11C_LATEST_20160120",
 "ConversionSoftware": "dcm2niix",
 "ConversionSoftwareVersion": "v1.0.20180622 GCC4.9.2",
 "DerivedVendorReportedEchoSpacing": 0.000539986,
 "DeviceSerialNumber": "166078",
 "DwellTime": 2.1e-06,
 "EchoTime": 0.034,
 "EchoTrainLength": 100,
 "EffectiveEchoSpacing": 0.000539986,
 "FlipAngle": 90,
 "ImageOrientationPatientDICOM": [
  1,
  0,
  0,
  0,
  0.976296,
  -0.21644
 ],
 "ImageType": [
  "ORIGINAL",
  "PRIMARY",
  "M",
  "ND",
  "MOSAIC"
 ],
 "InPlanePhaseEncodingDirectionDICOM": "COL",
 "InstitutionAddress": "Street_StreetNo_Bei_Jing_District_CN_ZIP",
 "InstitutionName": "BeiJing_Normal_University",
 "InstitutionalDepartmentName": "Department",
 "MRAcquisitionType": "2D",
 "MagneticFieldStrength": 3,
 "Manufacturer": "Siemens",
 "ManufacturersModelName": "Prisma",
 "Modality": "MR",
 "MultibandAccelerationFactor": 3,
 "PartialFourier": 1,
 "PatientPosition": "HFS",
 "PercentPhaseFOV": 100,
 "PhaseEncodingDirection": "j-",
 "PhaseEncodingSteps": 100,
 "PhaseResolution": 1,
 "PixelBandwidth": 2380,
 "ProcedureStepDescription": "BNU_P2018_64CH_Zhen.ZongLei",
 "ProtocolName": "bold_100x100_s3_2x2x2_static_256",
 "PulseSequenceDetails": "%SiemensSeq%_ep2d_bold",
 "ReceiveCoilActiveElements": "HC1-7;NC1",
 "ReceiveCoilName": "HeadNeck_64",
 "ReconMatrixPE": 100,
 "RepetitionTime": 2,
 "SAR": 0.0693089,
 "ScanOptions": "FS",
 "ScanningSequence": "EP",
 "SequenceName": "_epfid2d1_100",
 "SequenceVariant": "SK",
 "SeriesDescription": "bold_100x100_s3_2x2x2_static_256",
 "SeriesNumber": 7,
 "ShimSetting": [
  -5451,
  -11480,
  -1266,
  297,
  30,
  -133,
  -191,
  75
 ],
 "SliceThickness": 2,
 "SliceTiming": [
  1.485,
  0,
  0.99,
  0.0825,
  1.0725,
  0.165,
  1.155,
  0.2475,
  1.2375,
  0.33,
  1.32,
  0.4125,
  1.4025,
  0.5775,
  1.5675,
  0.66,
  1.65,
  0.7425,
  1.7325,
  0.825,
  1.815,
  0.9075,
  1.8975,
  0.495,
  1.485,
  0,
  0.99,
  0.0825,
  1.0725,
  0.165,
  1.155,
  0.2475,
  1.2375,
  0.33,
  1.32,
  0.4125,
  1.4025,
  0.5775,
  1.5675,
  0.66,
  1.65,
  0.7425,
  1.7325,
  0.825,
  1.815,
  0.9075,
  1.8975,
  0.495,
  1.485,
  0,
  0.99,
  0.0825,
  1.0725,
  0.165,
  1.155,
  0.2475,
  1.2375,
  0.33,
  1.32,
  0.4125,
  1.4025,
  0.5775,
  1.5675,
  0.66,
  1.65,
  0.7425,
  1.7325,
  0.825,
  1.815,
  0.9075,
  1.8975,
  0.495
 ],
 "SoftwareVersions": "syngo_MR_E11",
 "SpacingBetweenSlices": 2,
 "StationName": "AWP166078",
 "TaskName": "imagenet",
 "TotalReadoutTime": 0.0534586,
 "TxRefAmp": 225.288,
 "dcmmeta_affine": [
  [
   -2.0,
   0.0,
   0.0,
   102.02409362792969
  ],
  [
   0.0,
   1.9525920152664185,
   -0.432879239320755,
   -80.41100311279297
  ],
  [
   0.0,
   0.432879239320755,
   1.9525920152664185,
   -80.63894653320312
  ],
  [
   0.0,
   0.0,
   0.0,
   1.0
  ]
 ],
 "dcmmeta_reorient_transform": [
  [
   0.0,
   -1.0,
   0.0,
   99.0
  ],
  [
   1.0,
   0.0,
   0.0,
   0.0
  ],
  [
   0.0,
   0.0,
   1.0,
   0.0
  ],
  [
   0.0,
   0.0,
   0.0,
   1.0
  ]
 ],
 "dcmmeta_shape": [
  100,
  100,
  72,
  256
 ],
 "dcmmeta_slice_dim": 2,
 "dcmmeta_version": 0.6,
 "global": {
  "const": {
   "AcquisitionMatrix": [
    100,
    0,
    0,
    100
   ],
   "AngioFlag": "N",
   "BitsAllocated": 16,
   "BitsStored": 12,
   "BodyPartExamined": "BRAIN",
   "Columns": 900,
   "EchoNumbers": 1,
   "EchoTime": 34.0,
   "EchoTrainLength": 100,
   "FlipAngle": 90.0,
   "HighBit": 11,
   "ImageOrientationPatient": [
    1.0,
    0.0,
    0.0,
    0.0,
    0.97629600560084,
    -0.2164396207903
   ],
   "ImagePositionPatient": [
    -902.02409648895,
    -893.93241246416,
    135.36779845127
   ],
   "ImageType": [
    "ORIGINAL",
    "PRIMARY",
    "M",
    "ND",
    "MOSAIC"
   ],
   "ImagedNucleus": "1H",
   "ImagingFrequency": 123.257754,
   "InPlanePhaseEncodingDirection": "COL",
   "MRAcquisitionType": "2D",
   "MagneticFieldStrength": 3.0,
   "Manufacturer": "SIEMENS",
   "ManufacturerModelName": "Prisma",
   "Modality": "MR",
   "NumberOfAverages": 1.0,
   "NumberOfPhaseEncodingSteps": 100,
   "PercentPhaseFieldOfView": 100.0,
   "PercentSampling": 100.0,
   "PerformedProcedureStepStartTime": "130057.132000",
   "PhotometricInterpretation": "MONOCHROME2",
   "PixelBandwidth": 2380.0,
   "PixelRepresentation": 0,
   "PixelSpacing": [
    2.0,
    2.0
   ],
   "ProtocolName": "bold_100x100_s3_2x2x2_static_256",
   "RepetitionTime": 2000.0,
   "Rows": 900,
   "SAR": 0.06930886653402,
   "SamplesPerPixel": 1,
   "ScanOptions": "FS",
   "ScanningSequence": "EP",
   "SequenceName": "*epfid2d1_100",
   "SequenceVariant": "SK",
   "SeriesDescription": "bold_100x100_s3_2x2x2_static_256",
   "SeriesNumber": 7,
   "SeriesTime": "134440.375000",
   "SliceLocation": -61.323351450955,
   "SliceThickness": 2.0,
   "SmallestImagePixelValue": 0,
   "SoftwareVersions": "syngo MR E11",
   "SpacingBetweenSlices": 2.0000000533031,
   "SpecificCharacterSet": "ISO_IR 100",
   "StudyID": "1",
   "StudyTime": "130057.027000",
   "TransmitCoilName": "Body",
   "VariableFlipAngleFlag": "N",
   "WindowCenterWidthExplanation": "Algo1",
   "dBdt": 0.0
  },
  "slices": {}
 },
 "time": {
  "samples": {
   "AcquisitionNumber": [
    1,
    2,
    3,
    4,
    5,
    6,
    7,
    8,
    9,
    10,
    11,
    12,
    13,
    14,
    15,
    16,
    17,
    18,
    19,
    20,
    21,
    22,
    23,
    24,
    25,
    26,
    27,
    28,
    29,
    30,
    31,
    32,
    33,
    34,
    35,
    36,
    37,
    38,
    39,
    40,
    41,
    42,
    43,
    44,
    45,
    46,
    47,
    48,
    49,
    50,
    51,
    52,
    53,
    54,
    55,
    56,
    57,
    58,
    59,
    60,
    61,
    62,
    63,
    64,
    65,
    66,
    67,
    68,
    69,
    70,
    71,
    72,
    73,
    74,
    75,
    76,
    77,
    78,
    79,
    80,
    81,
    82,
    83,
    84,
    85,
    86,
    87,
    88,
    89,
    90,
    91,
    92,
    93,
    94,
    95,
    96,
    97,
    98,
    99,
    100,
    101,
    102,
    103,
    104,
    105,
    106,
    107,
    108,
    109,
    110,
    111,
    112,
    113,
    114,
    115,
    116,
    117,
    118,
    119,
    120,
    121,
    122,
    123,
    124,
    125,
    126,
    127,
    128,
    129,
    130,
    131,
    132,
    133,
    134,
    135,
    136,
    137,
    138,
    139,
    140,
    141,
    142,
    143,
    144,
    145,
    146,
    147,
    148,
    149,
    150,
    151,
    152,
    153,
    154,
    155,
    156,
    157,
    158,
    159,
    160,
    161,
    162,
    163,
    164,
    165,
    166,
    167,
    168,
    169,
    170,
    171,
    172,
    173,
    174,
    175,
    176,
    177,
    178,
    179,
    180,
    181,
    182,
    183,
    184,
    185,
    186,
    187,
    188,
    189,
    190,
    191,
    192,
    193,
    194,
    195,
    196,
    197,
    198,
    199,
    200,
    201,
    202,
    203,
    204,
    205,
    206,
    207,
    208,
    209,
    210,
    211,
    212,
    213,
    214,
    215,
    216,
    217,
    218,
    219,
    220,
    221,
    222,
    223,
    224,
    225,
    226,
    227,
    228,
    229,
    230,
    231,
    232,
    233,
    234,
    235,
    236,
    237,
    238,
    239,
    240,
    241,
    242,
    243,
    244,
    245,
    246,
    247,
    248,
    249,
    250,
    251,
    252,
    253,
    254,
    255,
    256
   ],
   "AcquisitionTime": [
    "134438.270000",
    "134440.270000",
    "134442.270000",
    "134444.270000",
    "134446.270000",
    "134448.270000",
    "134450.270000",
    "134452.270000",
    "134454.270000",
    "134456.270000",
    "134458.270000",
    "134500.270000",
    "134502.270000",
    "134504.270000",
    "134506.270000",
    "134508.270000",
    "134510.270000",
    "134512.270000",
    "134514.270000",
    "134516.270000",
    "134518.270000",
    "134520.270000",
    "134522.270000",
    "134524.270000",
    "134526.270000",
    "134528.270000",
    "134530.270000",
    "134532.270000",
    "134534.270000",
    "134536.270000",
    "134538.270000",
    "134540.270000",
    "134542.270000",
    "134544.270000",
    "134546.270000",
    "134548.270000",
    "134550.270000",
    "134552.270000",
    "134554.270000",
    "134556.270000",
    "134558.270000",
    "134600.270000",
    "134602.270000",
    "134604.270000",
    "134606.270000",
    "134608.270000",
    "134610.270000",
    "134612.270000",
    "134614.270000",
    "134616.270000",
    "134618.270000",
    "134620.270000",
    "134622.270000",
    "134624.270000",
    "134626.270000",
    "134628.270000",
    "134630.270000",
    "134632.270000",
    "134634.270000",
    "134636.270000",
    "134638.270000",
    "134640.270000",
    "134642.270000",
    "134644.270000",
    "134646.270000",
    "134648.270000",
    "134650.270000",
    "134652.270000",
    "134654.270000",
    "134656.270000",
    "134658.270000",
    "134700.270000",
    "134702.270000",
    "134704.270000",
    "134706.270000",
    "134708.270000",
    "134710.270000",
    "134712.270000",
    "134714.270000",
    "134716.270000",
    "134718.270000",
    "134720.270000",
    "134722.270000",
    "134724.270000",
    "134726.270000",
    "134728.270000",
    "134730.270000",
    "134732.270000",
    "134734.270000",
    "134736.270000",
    "134738.270000",
    "134740.270000",
    "134742.270000",
    "134744.270000",
    "134746.270000",
    "134748.270000",
    "134750.270000",
    "134752.270000",
    "134754.270000",
    "134756.270000",
    "134758.270000",
    "134800.270000",
    "134802.270000",
    "134804.270000",
    "134806.270000",
    "134808.270000",
    "134810.270000",
    "134812.270000",
    "134814.270000",
    "134816.270000",
    "134818.270000",
    "134820.270000",
    "134822.270000",
    "134824.270000",
    "134826.270000",
    "134828.270000",
    "134830.270000",
    "134832.270000",
    "134834.270000",
    "134836.270000",
    "134838.270000",
    "134840.270000",
    "134842.270000",
    "134844.270000",
    "134846.270000",
    "134848.270000",
    "134850.270000",
    "134852.270000",
    "134854.270000",
    "134856.270000",
    "134858.270000",
    "134900.270000",
    "134902.270000",
    "134904.270000",
    "134906.270000",
    "134908.270000",
    "134910.270000",
    "134912.270000",
    "134914.270000",
    "134916.270000",
    "134918.270000",
    "134920.270000",
    "134922.270000",
    "134924.270000",
    "134926.270000",
    "134928.270000",
    "134930.270000",
    "134932.270000",
    "134934.270000",
    "134936.270000",
    "134938.270000",
    "134940.270000",
    "134942.270000",
    "134944.270000",
    "134946.270000",
    "134948.270000",
    "134950.270000",
    "134952.270000",
    "134954.270000",
    "134956.270000",
    "134958.270000",
    "135000.270000",
    "135002.270000",
    "135004.270000",
    "135006.270000",
    "135008.270000",
    "135010.270000",
    "135012.270000",
    "135014.270000",
    "135016.270000",
    "135018.270000",
    "135020.270000",
    "135022.270000",
    "135024.270000",
    "135026.270000",
    "135028.270000",
    "135030.270000",
    "135032.270000",
    "135034.270000",
    "135036.270000",
    "135038.270000",
    "135040.270000",
    "135042.270000",
    "135044.270000",
    "135046.270000",
    "135048.270000",
    "135050.270000",
    "135052.270000",
    "135054.270000",
    "135056.270000",
    "135058.270000",
    "135100.270000",
    "135102.270000",
    "135104.270000",
    "135106.270000",
    "135108.270000",
    "135110.270000",
    "135112.270000",
    "135114.270000",
    "135116.270000",
    "135118.270000",
    "135120.270000",
    "135122.270000",
    "135124.270000",
    "135126.270000",
    "135128.270000",
    "135130.270000",
    "135132.270000",
    "135134.270000",
    "135136.270000",
    "135138.270000",
    "135140.270000",
    "135142.270000",
    "135144.270000",
    "135146.270000",
    "135148.270000",
    "135150.270000",
    "135152.270000",
    "135154.270000",
    "135156.270000",
    "135158.270000",
    "135200.270000",
    "135202.270000",
    "135204.270000",
    "135206.270000",
    "135208.270000",
    "135210.270000",
    "135212.270000",
    "135214.270000",
    "135216.270000",
    "135218.270000",
    "135220.270000",
    "135222.270000",
    "135224.270000",
    "135226.270000",
    "135228.270000",
    "135230.270000",
    "135232.270000",
    "135234.270000",
    "135236.270000",
    "135238.270000",
    "135240.270000",
    "135242.270000",
    "135244.270000",
    "135246.270000",
    "135248.270000",
    "135250.270000",
    "135252.270000",
    "135254.270000",
    "135256.270000",
    "135258.270000",
    "135300.270000",
    "135302.270000",
    "135304.270000",
    "135306.270000",
    "135308.270000"
   ],
   "ContentTime": [
    "134440.379000",
    "134441.873000",
    "134443.873000",
    "134445.873000",
    "134447.873000",
    "134449.873000",
    "134451.874000",
    "134453.874000",
    "134455.874000",
    "134457.874000",
    "134459.874000",
    "134501.874000",
    "134503.874000",
    "134505.873000",
    "134507.873000",
    "134509.873000",
    "134511.874000",
    "134513.874000",
    "134515.873000",
    "134517.873000",
    "134519.873000",
    "134521.874000",
    "134523.874000",
    "134525.874000",
    "134527.873000",
    "134529.875000",
    "134531.875000",
    "134533.874000",
    "134535.873000",
    "134537.874000",
    "134539.874000",
    "134541.873000",
    "134543.873000",
    "134545.874000",
    "134547.875000",
    "134549.875000",
    "134551.874000",
    "134553.874000",
    "134555.873000",
    "134557.873000",
    "134559.873000",
    "134601.874000",
    "134603.873000",
    "134605.875000",
    "134607.874000",
    "134609.874000",
    "134611.874000",
    "134613.873000",
    "134615.873000",
    "134617.874000",
    "134619.873000",
    "134621.875000",
    "134623.874000",
    "134625.874000",
    "134627.873000",
    "134629.873000",
    "134631.873000",
    "134633.874000",
    "134635.873000",
    "134637.873000",
    "134639.875000",
    "134641.874000",
    "134643.874000",
    "134645.873000",
    "134647.874000",
    "134649.873000",
    "134651.873000",
    "134653.873000",
    "134655.873000",
    "134657.874000",
    "134659.874000",
    "134701.873000",
    "134703.873000",
    "134705.874000",
    "134707.873000",
    "134709.873000",
    "134711.874000",
    "134713.873000",
    "134715.875000",
    "134717.875000",
    "134719.874000",
    "134721.873000",
    "134723.874000",
    "134725.874000",
    "134727.874000",
    "134729.874000",
    "134731.875000",
    "134733.874000",
    "134735.873000",
    "134737.873000",
    "134739.873000",
    "134741.873000",
    "134743.874000",
    "134745.874000",
    "134747.873000",
    "134749.875000",
    "134751.875000",
    "134753.874000",
    "134755.873000",
    "134757.874000",
    "134759.874000",
    "134801.873000",
    "134803.874000",
    "134805.874000",
    "134807.875000",
    "134809.874000",
    "134811.874000",
    "134813.874000",
    "134815.874000",
    "134817.873000",
    "134819.873000",
    "134821.873000",
    "134823.875000",
    "134825.874000",
    "134827.874000",
    "134829.873000",
    "134831.873000",
    "134833.873000",
    "134835.873000",
    "134837.873000",
    "134839.873000",
    "134841.874000",
    "134843.874000",
    "134845.874000",
    "134847.874000",
    "134849.874000",
    "134851.874000",
    "134853.874000",
    "134855.874000",
    "134857.874000",
    "134859.875000",
    "134901.875000",
    "134903.874000",
    "134905.874000",
    "134907.874000",
    "134909.873000",
    "134911.874000",
    "134913.873000",
    "134915.874000",
    "134917.875000",
    "134919.875000",
    "134921.874000",
    "134923.874000",
    "134925.874000",
    "134927.874000",
    "134929.874000",
    "134931.874000",
    "134933.874000",
    "134935.875000",
    "134937.875000",
    "134939.874000",
    "134941.873000",
    "134943.874000",
    "134945.874000",
    "134947.873000",
    "134949.874000",
    "134951.874000",
    "134953.875000",
    "134955.874000",
    "134957.874000",
    "134959.874000",
    "135001.874000",
    "135003.874000",
    "135005.874000",
    "135007.873000",
    "135009.875000",
    "135011.875000",
    "135013.873000",
    "135015.873000",
    "135017.873000",
    "135019.873000",
    "135021.873000",
    "135023.874000",
    "135025.874000",
    "135027.875000",
    "135029.875000",
    "135031.873000",
    "135033.874000",
    "135035.874000",
    "135037.874000",
    "135039.873000",
    "135041.874000",
    "135043.874000",
    "135045.875000",
    "135047.874000",
    "135049.873000",
    "135051.873000",
    "135053.874000",
    "135055.873000",
    "135057.873000",
    "135059.874000",
    "135101.875000",
    "135103.875000",
    "135105.873000",
    "135107.873000",
    "135109.873000",
    "135111.873000",
    "135113.874000",
    "135115.874000",
    "135117.874000",
    "135119.875000",
    "135121.875000",
    "135123.873000",
    "135125.873000",
    "135127.874000",
    "135129.874000",
    "135131.873000",
    "135133.873000",
    "135135.873000",
    "135137.875000",
    "135139.875000",
    "135141.874000",
    "135143.874000",
    "135145.874000",
    "135147.873000",
    "135149.874000",
    "135151.874000",
    "135153.874000",
    "135155.875000",
    "135157.874000",
    "135159.874000",
    "135201.874000",
    "135203.873000",
    "135205.873000",
    "135207.874000",
    "135209.874000",
    "135211.875000",
    "135213.875000",
    "135215.874000",
    "135217.873000",
    "135219.874000",
    "135221.873000",
    "135223.873000",
    "135225.874000",
    "135227.874000",
    "135229.874000",
    "135231.875000",
    "135233.874000",
    "135235.873000",
    "135237.874000",
    "135239.874000",
    "135241.873000",
    "135243.874000",
    "135245.874000",
    "135247.875000",
    "135249.874000",
    "135251.874000",
    "135253.874000",
    "135255.874000",
    "135257.873000",
    "135259.873000",
    "135301.873000",
    "135303.875000",
    "135305.887000",
    "135307.874000",
    "135309.611000"
   ],
   "InstanceCreationTime": [
    "134440.379000",
    "134441.873000",
    "134443.873000",
    "134445.873000",
    "134447.873000",
    "134449.873000",
    "134451.874000",
    "134453.874000",
    "134455.874000",
    "134457.874000",
    "134459.874000",
    "134501.874000",
    "134503.874000",
    "134505.873000",
    "134507.873000",
    "134509.873000",
    "134511.874000",
    "134513.874000",
    "134515.873000",
    "134517.873000",
    "134519.873000",
    "134521.874000",
    "134523.874000",
    "134525.874000",
    "134527.873000",
    "134529.875000",
    "134531.875000",
    "134533.874000",
    "134535.873000",
    "134537.874000",
    "134539.874000",
    "134541.873000",
    "134543.873000",
    "134545.874000",
    "134547.875000",
    "134549.875000",
    "134551.874000",
    "134553.874000",
    "134555.873000",
    "134557.873000",
    "134559.873000",
    "134601.874000",
    "134603.873000",
    "134605.875000",
    "134607.874000",
    "134609.874000",
    "134611.874000",
    "134613.873000",
    "134615.873000",
    "134617.874000",
    "134619.873000",
    "134621.875000",
    "134623.874000",
    "134625.874000",
    "134627.873000",
    "134629.873000",
    "134631.873000",
    "134633.874000",
    "134635.873000",
    "134637.873000",
    "134639.875000",
    "134641.874000",
    "134643.874000",
    "134645.873000",
    "134647.874000",
    "134649.873000",
    "134651.873000",
    "134653.873000",
    "134655.873000",
    "134657.874000",
    "134659.874000",
    "134701.873000",
    "134703.873000",
    "134705.874000",
    "134707.873000",
    "134709.873000",
    "134711.874000",
    "134713.873000",
    "134715.875000",
    "134717.875000",
    "134719.874000",
    "134721.873000",
    "134723.874000",
    "134725.874000",
    "134727.874000",
    "134729.874000",
    "134731.875000",
    "134733.874000",
    "134735.873000",
    "134737.873000",
    "134739.873000",
    "134741.873000",
    "134743.874000",
    "134745.874000",
    "134747.873000",
    "134749.875000",
    "134751.875000",
    "134753.874000",
    "134755.873000",
    "134757.874000",
    "134759.874000",
    "134801.873000",
    "134803.874000",
    "134805.874000",
    "134807.875000",
    "134809.874000",
    "134811.874000",
    "134813.874000",
    "134815.874000",
    "134817.873000",
    "134819.873000",
    "134821.873000",
    "134823.875000",
    "134825.874000",
    "134827.874000",
    "134829.873000",
    "134831.873000",
    "134833.873000",
    "134835.873000",
    "134837.873000",
    "134839.873000",
    "134841.874000",
    "134843.874000",
    "134845.874000",
    "134847.874000",
    "134849.874000",
    "134851.874000",
    "134853.874000",
    "134855.874000",
    "134857.874000",
    "134859.875000",
    "134901.875000",
    "134903.874000",
    "134905.874000",
    "134907.874000",
    "134909.873000",
    "134911.874000",
    "134913.873000",
    "134915.874000",
    "134917.875000",
    "134919.875000",
    "134921.874000",
    "134923.874000",
    "134925.874000",
    "134927.874000",
    "134929.874000",
    "134931.874000",
    "134933.874000",
    "134935.875000",
    "134937.875000",
    "134939.874000",
    "134941.873000",
    "134943.874000",
    "134945.874000",
    "134947.873000",
    "134949.874000",
    "134951.874000",
    "134953.875000",
    "134955.874000",
    "134957.874000",
    "134959.874000",
    "135001.874000",
    "135003.874000",
    "135005.874000",
    "135007.873000",
    "135009.875000",
    "135011.875000",
    "135013.873000",
    "135015.873000",
    "135017.873000",
    "135019.873000",
    "135021.873000",
    "135023.874000",
    "135025.874000",
    "135027.875000",
    "135029.875000",
    "135031.873000",
    "135033.874000",
    "135035.874000",
    "135037.874000",
    "135039.873000",
    "135041.874000",
    "135043.874000",
    "135045.875000",
    "135047.874000",
    "135049.873000",
    "135051.873000",
    "135053.874000",
    "135055.873000",
    "135057.873000",
    "135059.874000",
    "135101.875000",
    "135103.875000",
    "135105.873000",
    "135107.873000",
    "135109.873000",
    "135111.873000",
    "135113.874000",
    "135115.874000",
    "135117.874000",
    "135119.875000",
    "135121.875000",
    "135123.873000",
    "135125.873000",
    "135127.874000",
    "135129.874000",
    "135131.873000",
    "135133.873000",
    "135135.873000",
    "135137.875000",
    "135139.875000",
    "135141.874000",
    "135143.874000",
    "135145.874000",
    "135147.873000",
    "135149.874000",
    "135151.874000",
    "135153.874000",
    "135155.875000",
    "135157.874000",
    "135159.874000",
    "135201.874000",
    "135203.873000",
    "135205.873000",
    "135207.874000",
    "135209.874000",
    "135211.875000",
    "135213.875000",
    "135215.874000",
    "135217.873000",
    "135219.874000",
    "135221.873000",
    "135223.873000",
    "135225.874000",
    "135227.874000",
    "135229.874000",
    "135231.875000",
    "135233.874000",
    "135235.873000",
    "135237.874000",
    "135239.874000",
    "135241.873000",
    "135243.874000",
    "135245.874000",
    "135247.875000",
    "135249.874000",
    "135251.874000",
    "135253.874000",
    "135255.874000",
    "135257.873000",
    "135259.873000",
    "135301.873000",
    "135303.875000",
    "135305.887000",
    "135307.874000",
    "135309.611000"
   ],
   "InstanceNumber": [
    1,
    2,
    3,
    4,
    5,
    6,
    7,
    8,
    9,
    10,
    11,
    12,
    13,
    14,
    15,
    16,
    17,
    18,
    19,
    20,
    21,
    22,
    23,
    24,
    25,
    26,
    27,
    28,
    29,
    30,
    31,
    32,
    33,
    34,
    35,
    36,
    37,
    38,
    39,
    40,
    41,
    42,
    43,
    44,
    45,
    46,
    47,
    48,
    49,
    50,
    51,
    52,
    53,
    54,
    55,
    56,
    57,
    58,
    59,
    60,
    61,
    62,
    63,
    64,
    65,
    66,
    67,
    68,
    69,
    70,
    71,
    72,
    73,
    74,
    75,
    76,
    77,
    78,
    79,
    80,
    81,
    82,
    83,
    84,
    85,
    86,
    87,
    88,
    89,
    90,
    91,
    92,
    93,
    94,
    95,
    96,
    97,
    98,
    99,
    100,
    101,
    102,
    103,
    104,
    105,
    106,
    107,
    108,
    109,
    110,
    111,
    112,
    113,
    114,
    115,
    116,
    117,
    118,
    119,
    120,
    121,
    122,
    123,
    124,
    125,
    126,
    127,
    128,
    129,
    130,
    131,
    132,
    133,
    134,
    135,
    136,
    137,
    138,
    139,
    140,
    141,
    142,
    143,
    144,
    145,
    146,
    147,
    148,
    149,
    150,
    151,
    152,
    153,
    154,
    155,
    156,
    157,
    158,
    159,
    160,
    161,
    162,
    163,
    164,
    165,
    166,
    167,
    168,
    169,
    170,
    171,
    172,
    173,
    174,
    175,
    176,
    177,
    178,
    179,
    180,
    181,
    182,
    183,
    184,
    185,
    186,
    187,
    188,
    189,
    190,
    191,
    192,
    193,
    194,
    195,
    196,
    197,
    198,
    199,
    200,
    201,
    202,
    203,
    204,
    205,
    206,
    207,
    208,
    209,
    210,
    211,
    212,
    213,
    214,
    215,
    216,
    217,
    218,
    219,
    220,
    221,
    222,
    223,
    224,
    225,
    226,
    227,
    228,
    229,
    230,
    231,
    232,
    233,
    234,
    235,
    236,
    237,
    238,
    239,
    240,
    241,
    242,
    243,
    244,
    245,
    246,
    247,
    248,
    249,
    250,
    251,
    252,
    253,
    254,
    255,
    256
   ],
   "LargestImagePixelValue": [
    3873,
    3771,
    3808,
    3759,
    3740,
    3714,
    3718,
    3720,
    3720,
    3760,
    3740,
    3793,
    3762,
    3721,
    3793,
    3726,
    3760,
    3751,
    3718,
    3750,
    3736,
    3751,
    3743,
    3775,
    3748,
    3732,
    3777,
    3745,
    3763,
    3748,
    3745,
    3791,
    3735,
    3739,
    3692,
    3739,
    3752,
    3722,
    3787,
    3738,
    3728,
    3740,
    3739,
    3760,
    3744,
    3686,
    3676,
    3724,
    3768,
    3768,
    3757,
    3738,
    3733,
    3751,
    3724,
    3739,
    3711,
    3722,
    3730,
    3710,
    3736,
    3706,
    3776,
    3722,
    3778,
    3748,
    3704,
    3753,
    3750,
    3759,
    3740,
    3722,
    3806,
    3754,
    3748,
    3735,
    3754,
    3746,
    3732,
    3723,
    3778,
    3754,
    3754,
    3743,
    3725,
    3752,
    3762,
    3734,
    3687,
    3751,
    3730,
    3764,
    3749,
    3715,
    3735,
    3742,
    3742,
    3754,
    3727,
    3717,
    3716,
    3752,
    3725,
    3744,
    3720,
    3732,
    3754,
    3773,
    3774,
    3747,
    3749,
    3750,
    3749,
    3769,
    3719,
    3700,
    3761,
    3722,
    3723,
    3706,
    3746,
    3720,
    3738,
    3703,
    3712,
    3729,
    3711,
    3762,
    3750,
    3720,
    3743,
    3694,
    3724,
    3724,
    3769,
    3690,
    3775,
    3716,
    3696,
    3723,
    3690,
    3739,
    3749,
    3680,
    3778,
    3720,
    3746,
    3763,
    3748,
    3739,
    3756,
    3699,
    3772,
    3711,
    3755,
    3722,
    3735,
    3717,
    3719,
    3735,
    3703,
    3796,
    3715,
    3750,
    3726,
    3704,
    3726,
    3692,
    3765,
    3677,
    3734,
    3690,
    3679,
    3723,
    3691,
    3725,
    3765,
    3710,
    3732,
    3673,
    3741,
    3680,
    3762,
    3750,
    3714,
    3749,
    3722,
    3747,
    3757,
    3710,
    3755,
    3713,
    3785,
    3707,
    3802,
    3746,
    3705,
    3712,
    3745,
    3735,
    3730,
    3702,
    3717,
    3683,
    3760,
    3697,
    3733,
    3755,
    3774,
    3733,
    3722,
    3694,
    3766,
    3726,
    3693,
    3708,
    3726,
    3698,
    3745,
    3693,
    3755,
    3768,
    3729,
    3733,
    3695,
    3747,
    3713,
    3763,
    3713,
    3761,
    3720,
    3727,
    3737,
    3725,
    3755,
    3639,
    3773,
    3738,
    3659,
    3720,
    3649,
    3710,
    3645,
    3754,
    3685,
    3701,
    3726,
    3625,
    3727,
    3650,
    3648,
    3682,
    3660,
    3754,
    3654,
    3702
   ],
   "WindowCenter": [
    825.0,
    824.0,
    824.0,
    823.0,
    823.0,
    824.0,
    825.0,
    824.0,
    823.0,
    823.0,
    823.0,
    824.0,
    825.0,
    824.0,
    825.0,
    824.0,
    824.0,
    825.0,
    825.0,
    825.0,
    824.0,
    823.0,
    824.0,
    826.0,
    825.0,
    824.0,
    824.0,
    824.0,
    825.0,
    825.0,
    824.0,
    823.0,
    822.0,
    823.0,
    824.0,
    824.0,
    825.0,
    824.0,
    825.0,
    825.0,
    825.0,
    824.0,
    823.0,
    822.0,
    822.0,
    822.0,
    822.0,
    822.0,
    822.0,
    822.0,
    823.0,
    824.0,
    823.0,
    823.0,
    823.0,
    824.0,
    824.0,
    823.0,
    824.0,
    823.0,
    823.0,
    823.0,
    824.0,
    823.0,
    824.0,
    823.0,
    823.0,
    823.0,
    823.0,
    824.0,
    825.0,
    825.0,
    825.0,
    825.0,
    824.0,
    824.0,
    824.0,
    824.0,
    823.0,
    823.0,
    824.0,
    825.0,
    825.0,
    824.0,
    825.0,
    825.0,
    824.0,
    823.0,
    822.0,
    823.0,
    823.0,
    823.0,
    824.0,
    825.0,
    825.0,
    825.0,
    824.0,
    824.0,
    823.0,
    824.0,
    825.0,
    825.0,
    825.0,
    824.0,
    825.0,
    825.0,
    827.0,
    826.0,
    824.0,
    823.0,
    822.0,
    823.0,
    823.0,
    823.0,
    823.0,
    822.0,
    822.0,
    823.0,
    823.0,
    823.0,
    824.0,
    824.0,
    825.0,
    825.0,
    826.0,
