{
  "AcquisitionMatrixPE": 100,
  "AcquisitionNumber": 1,
  "AcquisitionTime": "10:54:35.122500",
  "BandwidthPerPixelPhaseEncode": 18.519,
  "BaseResolution": 100,
  "BodyPartExamined": "BRAIN",
  "ConsistencyInfo": "N4_VE11C_LATEST_20160120",
  "ConversionSoftware": "dcm2niix",
  "ConversionSoftwareVersion": "v1.0.20180622 GCC4.9.2",
  "DerivedVendorReportedEchoSpacing": 0.000539986,
  "DeviceSerialNumber": "166078",
  "DwellTime": 2.1e-06,
  "EchoTime": 0.034,
  "EchoTrainLength": 100,
  "EffectiveEchoSpacing": 0.000539986,
  "FlipAngle": 90,
  "ImageOrientationPatientDICOM": [1, 0, 0, 0, 1, 0],
  "ImageType": [
    "ORIGINAL",
    "PRIMARY",
    "M",
    "ND",
    "MOSAIC"
],
  "InPlanePhaseEncodingDirectionDICOM": "COL",
  "InstitutionAddress": "Street_StreetNo_Bei_Jing_District_CN_ZIP",
  "InstitutionName": "BeiJing_Normal_University",
  "InstitutionalDepartmentName": "Department",
  "MRAcquisitionType": "2D",
  "MagneticFieldStrength": 3,
  "Manufacturer": "Siemens",
  "ManufacturersModelName": "Prisma",
  "Modality": "MR",
  "MultibandAccelerationFactor": 3,
  "PartialFourier": 1,
  "PatientPosition": "HFS",
  "PercentPhaseFOV": 100,
  "PhaseEncodingDirection": "j-",
  "PhaseEncodingSteps": 100,
  "PhaseResolution": 1,
  "PixelBandwidth": 2380,
  "ProcedureStepDescription": "BNU_P2018_64CH_Zhen.ZongLei",
  "ProtocolName": "bold_100x100_s3_2x2x2_static_256",
  "PulseSequenceDetails": "%SiemensSeq%_ep2d_bold",
  "ReceiveCoilActiveElements": "HC1-7;NC1",
  "ReceiveCoilName": "HeadNeck_64",
  "ReconMatrixPE": 100,
  "RepetitionTime": 2,
  "SAR": 0.063856,
  "ScanOptions": "FS",
  "ScanningSequence": "EP",
  "SequenceName": "_epfid2d1_100",
  "SequenceVariant": "SK",
  "SeriesDescription": "bold_100x100_s3_2x2x2_static_256",
  "SeriesNumber": 16,
  "ShimSetting": [-5461, -11508, -1257, 359, -45, -237, -153, 30],
  "SliceThickness": 2,
  "SliceTiming": [1.485, 0, 0.99, 0.0825, 1.0725, 0.165, 1.155, 0.2475, 1.2375, 0.33, 1.32, 0.4125, 1.4025, 0.5775, 1.5675, 0.66, 1.65, 0.7425, 1.7325, 0.825, 1.815, 0.9075, 1.8975, 0.495, 1.485, 0, 0.99, 0.0825, 1.0725, 0.165, 1.155, 0.2475, 1.2375, 0.33, 1.32, 0.4125, 1.4025, 0.5775, 1.5675, 0.66, 1.65, 0.7425, 1.7325, 0.825, 1.815, 0.9075, 1.8975, 0.495, 1.485, 0, 0.99, 0.0825, 1.0725, 0.165, 1.155, 0.2475, 1.2375, 0.33, 1.32, 0.4125, 1.4025, 0.5775, 1.5675, 0.66, 1.65, 0.7425, 1.7325, 0.825, 1.815, 0.9075, 1.8975, 0.495],
  "SoftwareVersions": "syngo_MR_E11",
  "SpacingBetweenSlices": 2,
  "StationName": "AWP166078",
  "TaskName": "naturalvision",
  "TotalReadoutTime": 0.0534586,
  "TxRefAmp": 205.086,
  "dcmmeta_affine": [
    [-2.0, 0.0, 0.0, 100.67469787597656],
    [0.0, 2.0, 0.0, -90.81446075439453],
    [0.0, 0.0, 2.0, -56.33012008666992],
    [0.0, 0.0, 0.0, 1.0]
],
  "dcmmeta_reorient_transform": [
    [0.0, -1.0, 0.0, 99.0],
    [1.0, 0.0, 0.0, 0.0],
    [0.0, 0.0, 1.0, 0.0],
    [0.0, 0.0, 0.0, 1.0]
],
  "dcmmeta_shape": [100, 100, 72, 256],
  "dcmmeta_slice_dim": 2,
  "dcmmeta_version": 0.6,
  "global": {
    "const": {
      "AcquisitionMatrix": [100, 0, 0, 100],
      "AngioFlag": "N",
      "BitsAllocated": 16,
      "BitsStored": 12,
      "BodyPartExamined": "BRAIN",
      "Columns": 900,
      "EchoNumbers": 1,
      "EchoTime": 34.0,
      "EchoTrainLength": 100,
      "FlipAngle": 90.0,
      "HighBit": 11,
      "ImageOrientationPatient": [1.0, 0.0, 0.0, 0.0, 1.0, 0.0],
      "ImagePositionPatient": [-900.67469877005, -907.18554210663, -56.33012008667],
      "ImageType": [
        "ORIGINAL",
        "PRIMARY",
        "M",
        "ND",
        "MOSAIC"
],
      "ImagedNucleus": "1H",
      "ImagingFrequency": 123.25776,
      "InPlanePhaseEncodingDirection": "COL",
      "MRAcquisitionType": "2D",
      "MagneticFieldStrength": 3.0,
      "Manufacturer": "SIEMENS",
      "ManufacturerModelName": "Prisma",
      "Modality": "MR",
      "NumberOfAverages": 1.0,
      "NumberOfPhaseEncodingSteps": 100,
      "PercentPhaseFieldOfView": 100.0,
      "PercentSampling": 100.0,
      "PerformedProcedureStepStartTime": "090416.835000",
      "PhotometricInterpretation": "MONOCHROME2",
      "PixelBandwidth": 2380.0,
      "PixelRepresentation": 0,
      "PixelSpacing": [2.0, 2.0],
      "ProtocolName": "bold_100x100_s3_2x2x2_static_256",
      "RepetitionTime": 2000.0,
      "Rows": 900,
      "SAR": 0.06385601749961,
      "SamplesPerPixel": 1,
      "ScanOptions": "FS",
      "ScanningSequence": "EP",
      "SequenceName": "*epfid2d1_100",
      "SequenceVariant": "SK",
      "SeriesDescription": "bold_100x100_s3_2x2x2_static_256",
      "SeriesNumber": 16,
      "SeriesTime": "105437.545000",
      "SliceLocation": -56.33012008667,
      "SliceThickness": 2.0,
      "SmallestImagePixelValue": 0,
      "SoftwareVersions": "syngo MR E11",
      "SpacingBetweenSlices": 1.9999999462719,
      "SpecificCharacterSet": "ISO_IR 100",
      "StudyID": "1",
      "StudyTime": "090416.742000",
      "TransmitCoilName": "Body",
      "VariableFlipAngleFlag": "N",
      "WindowCenterWidthExplanation": "Algo1",
      "dBdt": 0.0},
    "slices": {}
  },
  "time": {
    "samples": {
      "AcquisitionNumber": [1, 2, 3, 4, 5, 6, 7, 8, 9, 10, 11, 12, 13, 14, 15, 16, 17, 18, 19, 20, 21, 22, 23, 24, 25, 26, 27, 28, 29, 30, 31, 32, 33, 34, 35, 36, 37, 38, 39, 40, 41, 42, 43, 44, 45, 46, 47, 48, 49, 50, 51, 52, 53, 54, 55, 56, 57, 58, 59, 60, 61, 62, 63, 64, 65, 66, 67, 68, 69, 70, 71, 72, 73, 74, 75, 76, 77, 78, 79, 80, 81, 82, 83, 84, 85, 86, 87, 88, 89, 90, 91, 92, 93, 94, 95, 96, 97, 98, 99, 100, 101, 102, 103, 104, 105, 106, 107, 108, 109, 110, 111, 112, 113, 114, 115, 116, 117, 118, 119, 120, 121, 122, 123, 124, 125, 126, 127, 128, 129, 130, 131, 132, 133, 134, 135, 136, 137, 138, 139, 140, 141, 142, 143, 144, 145, 146, 147, 148, 149, 150, 151, 152, 153, 154, 155, 156, 157, 158, 159, 160, 161, 162, 163, 164, 165, 166, 167, 168, 169, 170, 171, 172, 173, 174, 175, 176, 177, 178, 179, 180, 181, 182, 183, 184, 185, 186, 187, 188, 189, 190, 191, 192, 193, 194, 195, 196, 197, 198, 199, 200, 201, 202, 203, 204, 205, 206, 207, 208, 209, 210, 211, 212, 213, 214, 215, 216, 217, 218, 219, 220, 221, 222, 223, 224, 225, 226, 227, 228, 229, 230, 231, 232, 233, 234, 235, 236, 237, 238, 239, 240, 241, 242, 243, 244, 245, 246, 247, 248, 249, 250, 251, 252, 253, 254, 255, 256],
      "AcquisitionTime": ["105435.122500", "105437.122500", "105439.122500", "105441.122500", "105443.122500", "105445.122500", "105447.122500", "105449.122500", "105451.122500", "105453.122500", "105455.122500", "105457.122500", "105459.122500", "105501.122500", "105503.122500", "105505.122500", "105507.122500", "105509.122500", "105511.122500", "105513.122500", "105515.122500", "105517.122500", "105519.122500", "105521.122500", "105523.122500", "105525.122500", "105527.122500", "105529.122500", "105531.122500", "105533.122500", "105535.122500", "105537.122500", "105539.122500", "105541.122500", "105543.122500", "105545.122500", "105547.122500", "105549.122500", "105551.122500", "105553.122500", "105555.122500", "105557.122500", "105559.122500", "105601.122500", "105603.122500", "105605.122500", "105607.122500", "105609.122500", "105611.122500", "105613.122500", "105615.122500", "105617.122500", "105619.122500", "105621.122500", "105623.122500", "105625.122500", "105627.122500", "105629.122500", "105631.122500", "105633.122500", "105635.122500", "105637.122500", "105639.122500", "105641.122500", "105643.122500", "105645.122500", "105647.122500", "105649.122500", "105651.122500", "105653.122500", "105655.122500", "105657.122500", "105659.122500", "105701.122500", "105703.122500", "105705.122500", "105707.122500", "105709.122500", "105711.122500", "105713.122500", "105715.122500", "105717.122500", "105719.122500", "105721.122500", "105723.122500", "105725.122500", "105727.122500", "105729.122500", "105731.122500", "105733.122500", "105735.122500", "105737.122500", "105739.122500", "105741.122500", "105743.122500", "105745.122500", "105747.122500", "105749.122500", "105751.122500", "105753.122500", "105755.122500", "105757.122500", "105759.122500", "105801.122500", "105803.122500", "105805.122500", "105807.122500", "105809.122500", "105811.122500", "105813.122500", "105815.122500", "105817.122500", "105819.122500", "105821.122500", "105823.122500", "105825.122500", "105827.122500", "105829.122500", "105831.122500", "105833.122500", "105835.122500", "105837.122500", "105839.122500", "105841.122500", "105843.122500", "105845.122500", "105847.122500", "105849.122500", "105851.122500", "105853.122500", "105855.122500", "105857.122500", "105859.122500", "105901.122500", "105903.122500", "105905.122500", "105907.122500", "105909.122500", "105911.122500", "105913.122500", "105915.122500", "105917.122500", "105919.122500", "105921.122500", "105923.122500", "105925.122500", "105927.122500", "105929.122500", "105931.122500", "105933.122500", "105935.122500", "105937.122500", "105939.122500", "105941.122500", "105943.122500", "105945.122500", "105947.122500", "105949.122500", "105951.122500", "105953.122500", "105955.122500", "105957.122500", "105959.122500", "110001.122500", "110003.122500", "110005.122500", "110007.122500", "110009.122500", "110011.122500", "110013.122500", "110015.122500", "110017.122500", "110019.122500", "110021.122500", "110023.122500", "110025.122500", "110027.122500", "110029.122500", "110031.122500", "110033.122500", "110035.122500", "110037.122500", "110039.122500", "110041.122500", "110043.122500", "110045.122500", "110047.122500", "110049.122500", "110051.122500", "110053.122500", "110055.122500", "110057.122500", "110059.122500", "110101.122500", "110103.122500", "110105.122500", "110107.122500", "110109.122500", "110111.122500", "110113.122500", "110115.122500", "110117.122500", "110119.122500", "110121.122500", "110123.122500", "110125.122500", "110127.122500", "110129.122500", "110131.122500", "110133.122500", "110135.122500", "110137.122500", "110139.122500", "110141.122500", "110143.122500", "110145.122500", "110147.122500", "110149.122500", "110151.122500", "110153.122500", "110155.122500", "110157.122500", "110159.122500", "110201.122500", "110203.122500", "110205.122500", "110207.122500", "110209.122500", "110211.122500", "110213.122500", "110215.122500", "110217.122500", "110219.122500", "110221.122500", "110223.122500", "110225.122500", "110227.122500", "110229.122500", "110231.122500", "110233.122500", "110235.122500", "110237.122500", "110239.122500", "110241.122500", "110243.122500", "110245.122500", "110247.122500", "110249.122500", "110251.122500", "110253.122500", "110255.122500", "110257.122500", "110259.122500", "110301.122500", "110303.122500", "110305.122500"],
      "ContentTime": ["105437.549000", "105439.044000", "105441.045000", "105443.045000", "105445.045000", "105447.045000", "105449.045000", "105451.045000", "105453.044000", "105455.045000", "105457.044000", "105459.045000", "105501.045000", "105503.045000", "105505.045000", "105507.045000", "105509.045000", "105511.045000", "105513.044000", "105515.045000", "105517.043000", "105519.044000", "105521.045000", "105523.045000", "105525.045000", "105527.045000", "105529.045000", "105531.045000", "105533.045000", "105535.045000", "105537.044000", "105539.045000", "105541.044000", "105543.044000", "105545.045000", "105547.045000", "105549.045000", "105551.044000", "105553.044000", "105555.045000", "105557.044000", "105559.045000", "105601.045000", "105603.044000", "105605.045000", "105607.044000", "105609.045000", "105611.045000", "105613.044000", "105615.045000", "105617.045000", "105619.044000", "105621.045000", "105623.045000", "105625.044000", "105627.043000", "105629.045000", "105631.045000", "105633.045000", "105635.045000", "105637.045000", "105639.045000", "105641.045000", "105643.044000", "105645.045000", "105647.044000", "105649.045000", "105651.044000", "105653.044000", "105655.045000", "105657.045000", "105659.045000", "105701.044000", "105703.045000", "105705.045000", "105707.045000", "105709.045000", "105711.045000", "105713.044000", "105715.044000", "105717.045000", "105719.044000", "105721.045000", "105723.045000", "105725.044000", "105727.045000", "105729.045000", "105731.044000", "105733.044000", "105735.045000", "105737.045000", "105739.045000", "105741.044000", "105743.045000", "105745.045000", "105747.045000", "105749.045000", "105751.045000", "105753.045000", "105755.045000", "105757.045000", "105759.045000", "105801.045000", "105803.045000", "105805.045000", "105807.045000", "105809.045000", "105811.044000", "105813.045000", "105815.045000", "105817.044000", "105819.044000", "105821.045000", "105823.045000", "105825.045000", "105827.045000", "105829.045000", "105831.045000", "105833.044000", "105835.045000", "105837.045000", "105839.045000", "105841.044000", "105843.045000", "105845.045000", "105847.045000", "105849.045000", "105851.045000", "105853.045000", "105855.045000", "105857.044000", "105859.045000", "105901.045000", "105903.044000", "105905.045000", "105907.045000", "105909.045000", "105911.045000", "105913.045000", "105915.045000", "105917.044000", "105919.045000", "105921.045000", "105923.045000", "105925.045000", "105927.045000", "105929.045000", "105931.045000", "105933.044000", "105935.045000", "105937.045000", "105939.045000", "105941.045000", "105943.045000", "105945.045000", "105947.045000", "105949.045000", "105951.045000", "105953.044000", "105955.045000", "105957.045000", "105959.045000", "110001.045000", "110003.044000", "110005.045000", "110007.045000", "110009.045000", "110011.045000", "110013.045000", "110015.045000", "110017.045000", "110019.045000", "110021.045000", "110023.044000", "110025.045000", "110027.045000", "110029.045000", "110031.045000", "110033.045000", "110035.045000", "110037.045000", "110039.045000", "110041.044000", "110043.045000", "110045.045000", "110047.045000", "110049.044000", "110051.045000", "110053.045000", "110055.044000", "110057.045000", "110059.045000", "110101.045000", "110103.045000", "110105.045000", "110107.045000", "110109.045000", "110111.045000", "110113.045000", "110115.045000", "110117.045000", "110119.045000", "110121.045000", "110123.045000", "110125.045000", "110127.045000", "110129.045000", "110131.045000", "110133.045000", "110135.045000", "110137.045000", "110139.045000", "110141.045000", "110143.045000", "110145.045000", "110147.045000", "110149.045000", "110151.045000", "110153.044000", "110155.045000", "110157.045000", "110159.043000", "110201.045000", "110203.045000", "110205.045000", "110207.045000", "110209.045000", "110211.045000", "110213.045000", "110215.045000", "110217.045000", "110219.045000", "110221.045000", "110223.045000", "110225.045000", "110227.045000", "110229.045000", "110231.045000", "110233.045000", "110235.045000", "110237.045000", "110239.045000", "110241.058000", "110243.045000", "110245.044000", "110247.044000", "110249.045000", "110251.045000", "110253.045000", "110255.045000", "110257.045000", "110259.044000", "110301.045000", "110303.045000", "110305.045000", "110306.626000"],
      "InstanceCreationTime": ["105437.549000", "105439.044000", "105441.045000", "105443.045000", "105445.045000", "105447.045000", "105449.045000", "105451.045000", "105453.044000", "105455.045000", "105457.044000", "105459.045000", "105501.045000", "105503.045000", "105505.045000", "105507.045000", "105509.045000", "105511.045000", "105513.044000", "105515.045000", "105517.043000", "105519.044000", "105521.045000", "105523.045000", "105525.045000", "105527.045000", "105529.045000", "105531.045000", "105533.045000", "105535.045000", "105537.044000", "105539.045000", "105541.044000", "105543.044000", "105545.045000", "105547.045000", "105549.045000", "105551.044000", "105553.044000", "105555.045000", "105557.044000", "105559.045000", "105601.045000", "105603.044000", "105605.045000", "105607.044000", "105609.045000", "105611.045000", "105613.044000", "105615.045000", "105617.045000", "105619.044000", "105621.045000", "105623.045000", "105625.044000", "105627.043000", "105629.045000", "105631.045000", "105633.045000", "105635.045000", "105637.045000", "105639.045000", "105641.045000", "105643.044000", "105645.045000", "105647.044000", "105649.045000", "105651.044000", "105653.044000", "105655.045000", "105657.045000", "105659.045000", "105701.044000", "105703.045000", "105705.045000", "105707.045000", "105709.045000", "105711.045000", "105713.044000", "105715.044000", "105717.045000", "105719.044000", "105721.045000", "105723.045000", "105725.044000", "105727.045000", "105729.045000", "105731.044000", "105733.044000", "105735.045000", "105737.045000", "105739.045000", "105741.044000", "105743.045000", "105745.045000", "105747.045000", "105749.045000", "105751.045000", "105753.045000", "105755.045000", "105757.045000", "105759.045000", "105801.045000", "105803.045000", "105805.045000", "105807.045000", "105809.045000", "105811.044000", "105813.045000", "105815.045000", "105817.044000", "105819.044000", "105821.045000", "105823.045000", "105825.045000", "105827.045000", "105829.045000", "105831.045000", "105833.044000", "105835.045000", "105837.045000", "105839.045000", "105841.044000", "105843.045000", "105845.045000", "105847.045000", "105849.045000", "105851.045000", "105853.045000", "105855.045000", "105857.044000", "105859.045000", "105901.045000", "105903.044000", "105905.045000", "105907.045000", "105909.045000", "105911.045000", "105913.045000", "105915.045000", "105917.044000", "105919.045000", "105921.045000", "105923.045000", "105925.045000", "105927.045000", "105929.045000", "105931.045000", "105933.044000", "105935.045000", "105937.045000", "105939.045000", "105941.045000", "105943.045000", "105945.045000", "105947.045000", "105949.045000", "105951.045000", "105953.044000", "105955.045000", "105957.045000", "105959.045000", "110001.045000", "110003.044000", "110005.045000", "110007.045000", "110009.045000", "110011.045000", "110013.045000", "110015.045000", "110017.045000", "110019.045000", "110021.045000", "110023.044000", "110025.045000", "110027.045000", "110029.045000", "110031.045000", "110033.045000", "110035.045000", "110037.045000", "110039.045000", "110041.044000", "110043.045000", "110045.045000", "110047.045000", "110049.044000", "110051.045000", "110053.045000", "110055.044000", "110057.045000", "110059.045000", "110101.045000", "110103.045000", "110105.045000", "110107.045000", "110109.045000", "110111.045000", "110113.045000", "110115.045000", "110117.045000", "110119.045000", "110121.045000", "110123.045000", "110125.045000", "110127.045000", "110129.045000", "110131.045000", "110133.045000", "110135.045000", "110137.045000", "110139.045000", "110141.045000", "110143.045000", "110145.045000", "110147.045000", "110149.045000", "110151.045000", "110153.044000", "110155.045000", "110157.045000", "110159.043000", "110201.045000", "110203.045000", "110205.045000", "110207.045000", "110209.045000", "110211.045000", "110213.045000", "110215.045000", "110217.045000", "110219.045000", "110221.045000", "110223.045000", "110225.045000", "110227.045000", "110229.045000", "110231.045000", "110233.045000", "110235.045000", "110237.045000", "110239.045000", "110241.058000", "110243.045000", "110245.044000", "110247.044000", "110249.045000", "110251.045000", "110253.045000", "110255.045000", "110257.045000", "110259.044000", "110301.045000", "110303.045000", "110305.045000", "110306.626000"],
      "InstanceNumber": [1, 2, 3, 4, 5, 6, 7, 8, 9, 10, 11, 12, 13, 14, 15, 16, 17, 18, 19, 20, 21, 22, 23, 24, 25, 26, 27, 28, 29, 30, 31, 32, 33, 34, 35, 36, 37, 38, 39, 40, 41, 42, 43, 44, 45, 46, 47, 48, 49, 50, 51, 52, 53, 54, 55, 56, 57, 58, 59, 60, 61, 62, 63, 64, 65, 66, 67, 68, 69, 70, 71, 72, 73, 74, 75, 76, 77, 78, 79, 80, 81, 82, 83, 84, 85, 86, 87, 88, 89, 90, 91, 92, 93, 94, 95, 96, 97, 98, 99, 100, 101, 102, 103, 104, 105, 106, 107, 108, 109, 110, 111, 112, 113, 114, 115, 116, 117, 118, 119, 120, 121, 122, 123, 124, 125, 126, 127, 128, 129, 130, 131, 132, 133, 134, 135, 136, 137, 138, 139, 140, 141, 142, 143, 144, 145, 146, 147, 148, 149, 150, 151, 152, 153, 154, 155, 156, 157, 158, 159, 160, 161, 162, 163, 164, 165, 166, 167, 168, 169, 170, 171, 172, 173, 174, 175, 176, 177, 178, 179, 180, 181, 182, 183, 184, 185, 186, 187, 188, 189, 190, 191, 192, 193, 194, 195, 196, 197, 198, 199, 200, 201, 202, 203, 204, 205, 206, 207, 208, 209, 210, 211, 212, 213, 214, 215, 216, 217, 218, 219, 220, 221, 222, 223, 224, 225, 226, 227, 228, 229, 230, 231, 232, 233, 234, 235, 236, 237, 238, 239, 240, 241, 242, 243, 244, 245, 246, 247, 248, 249, 250, 251, 252, 253, 254, 255, 256],
      "LargestImagePixelValue": [3695, 3570, 3563, 3575, 3616, 3570, 3589, 3612, 3593, 3616, 3606, 3587, 3593, 3619, 3609, 3619, 3600, 3595, 3570, 3584, 3590, 3589, 3595, 3582, 3581, 3600, 3597, 3610, 3640, 3635, 3612, 3603, 3656, 3634, 3611, 3607, 3613, 3597, 3591, 3588, 3586, 3593, 3623, 3597, 3652, 3639, 3666, 3670, 3637, 3573, 3604, 3535, 3577, 3567, 3609, 3626, 3582, 3597, 3619, 3571, 3625, 3603, 3618, 3599, 3614, 3590, 3608, 3617, 3597, 3600, 3595, 3627, 3614, 3581, 3569, 3548, 3571, 3589, 3584, 3579, 3610, 3604, 3619, 3590, 3595, 3560, 3607, 3606, 3592, 3606, 3587, 3602, 3531, 3579, 3620, 3566, 3564, 3532, 3566, 3581, 3586, 3596, 3584, 3570, 3576, 3613, 3590, 3601, 3623, 3589, 3583, 3562, 3548, 3539, 3541, 3546, 3595, 3606, 3606, 3610, 3623, 3569, 3589, 3601, 3607, 3581, 3601, 3580, 3575, 3574, 3590, 3561, 3566, 3594, 3561, 3562, 3560, 3565, 3548, 3575, 3558, 3544, 3600, 3575, 3552, 3507, 3504, 3537, 3499, 3503, 3582, 3541, 3599, 3545, 3571, 3563, 3521, 3494, 3451, 3474, 3465, 3482, 3462, 3473, 3481, 3483, 3518, 3452, 3508, 3492, 3539, 3491, 3517, 3510, 3512, 3529, 3556, 3549, 3536, 3536, 3551, 3557, 3531, 3542, 3496, 3496, 3497, 3507, 3540, 3534, 3488, 3546, 3509, 3533, 3519, 3487, 3490, 3477, 3514, 3506, 3511, 3525, 3518, 3485, 3499, 3490, 3509, 3509, 3478, 3481, 3500, 3533, 3525, 3520, 3532, 3497, 3518, 3528, 3520, 3555, 3520, 3550, 3517, 3551, 3487, 3520, 3472, 3514, 3489, 3538, 3511, 3537, 3516, 3541, 3526, 3562, 3555, 3549, 3596, 3591, 3560, 3550, 3475, 3514, 3540, 3543, 3551, 3500, 3558, 3514, 3549, 3533, 3489, 3498, 3507, 3483],
      "WindowCenter": [797.0, 795.0, 796.0, 796.0, 797.0, 797.0, 797.0, 797.0, 798.0, 799.0, 800.0, 801.0, 801.0, 800.0, 798.0, 799.0, 799.0, 800.0, 800.0, 799.0, 798.0, 798.0, 799.0, 799.0, 799.0, 799.0, 799.0, 800.0, 800.0, 800.0, 800.0, 800.0, 799.0, 799.0, 799.0, 799.0, 799.0, 800.0, 800.0, 800.0, 799.0, 799.0, 800.0, 802.0, 803.0, 803.0, 803.0, 802.0, 801.0, 799.0, 799.0, 799.0, 800.0, 800.0, 800.0, 799.0, 799.0, 800.0, 800.0, 800.0, 801.0, 800.0, 800.0, 800.0, 800.0, 801.0, 801.0, 802.0, 801.0, 800.0, 800.0, 801.0, 801.0, 801.0, 800.0, 799.0, 799.0, 799.0, 800.0, 801.0, 802.0, 802.0, 803.0, 802.0, 802.0, 801.0, 800.0, 800.0, 800.0, 801.0, 801.0, 801.0, 799.0, 799.0, 798.0, 796.0, 796.0, 796.0, 797.0, 797.0, 797.0, 797.0, 797.0, 798.0, 797.0, 797.0, 798.0, 799.0, 800.0, 800.0, 799.0, 798.0, 798.0, 798.0, 799.0, 800.0, 800.0, 800.0, 799.0, 799.0, 800.0, 801.0, 801.0, 800.0, 799.0, 799.0, 800.0, 801.0, 801.0, 800.0, 799.0, 798.0, 798.0, 799.0, 799.0, 799.0, 799.0, 800.0, 799.0, 799.0, 801.0, 802.0, 803.0, 801.0, 800.0, 798.0, 798.0, 798.0, 798.0, 798.0, 799.0, 799.0, 799.0, 799.0, 799.0, 799.0, 800.0, 799.0, 798.0, 798.0, 796.0, 794.0, 793.0, 793.0, 794.0, 794.0, 795.0, 795.0, 796.0, 796.0, 797.0, 796.0, 797.0, 797.0, 799.0, 799.0, 798.0, 798.0, 801.0, 803.0, 803.0, 801.0, 799.0, 797.0, 796.0, 796.0, 797.0, 797.0, 798.0, 799.0, 801.0, 803.0, 802.0, 800.0, 798.0, 797.0, 796.0, 796.0, 797.0, 797.0, 798.0, 798.0, 798.0, 800.0, 801.0, 801.0, 800.0, 798.0, 798.0, 797.0, 798.0, 798.0, 798.0, 798.0, 799.0, 798.0, 798.0, 799.0, 799.0, 801.0, 802.0, 801.0, 799.0, 799.0, 797.0, 797.0, 797.0, 798.0, 799.0, 800.0, 800.0, 801.0, 801.0, 800.0, 801.0, 802.0, 801.0, 800.0, 801.0, 801.0, 800.0, 799.0, 798.0, 798.0, 797.0, 797.0, 800.0, 801.0, 800.0, 798.0, 797.0, 796.0, 796.0, 796.0, 796.0, 797.0],
      "WindowWidth": [1729.0, 1725.0, 1725.0, 1727.0, 1729.0, 1729.0, 1729.0, 1731.0, 1731.0, 1735.0, 1738.0, 1741.0, 1741.0, 1738.0, 1733.0, 1735.0, 1736.0, 1738.0, 1737.0, 1736.0, 1733.0, 1732.0, 1734.0, 1734.0, 1735.0, 1736.0, 1736.0, 1737.0, 1737.0, 1738.0, 1738.0, 1738.0, 1736.0, 1734.0, 1733.0, 1734.0, 1735.0, 1737.0, 1738.0, 1737.0, 1735.0, 1734.0, 1737.0, 1742.0, 1747.0, 1747.0, 1746.0, 1743.0, 1740.0, 1735.0, 1734.0, 1734.0, 1736.0, 1736.0, 1736.0, 1735.0, 1734.0, 1736.0, 1738.0, 1738.0, 1739.0, 1738.0, 1738.0, 1737.0, 1737.0, 1739.0, 1741.0, 1743.0, 1741.0, 1738.0, 1738.0, 1740.0, 1740.0, 1739.0, 1735.0, 1733.0, 1733.0, 1733.0, 1736.0, 1740.0, 1743.0, 1744.0, 1745.0, 1744.0, 1743.0, 1740.0, 1738.0, 1736.0, 1735.0, 1739.0, 1739.0, 1739.0, 1734.0, 1733.0, 1731.0, 1726.0, 1725.0, 1727.0, 1728.0, 1729.0, 1728.0, 1728.0, 1729.0, 1730.0, 1729.0, 1730.0, 1732.0, 1735.0, 1738.0, 1736.0, 1733.0, 1731.0, 1730.0, 1732.0, 1733.0, 1736.0, 1737.0, 1736.0, 1734.0, 1734.0, 1736.0, 1739.0, 1739.0, 1738.0, 1734.0, 1733.0, 1736.0, 1739.0, 1738.0, 1735.0, 1734.0, 1731.0, 1732.0, 1734.0, 1735.0, 1735.0, 1734.0, 1735.0, 1734.0, 1734.0, 1738.0, 1743.0, 1745.0, 1741.0, 1736.0, 1731.0, 1730.0, 1730.0, 1729.0, 1732.0, 1735.0, 1735.0, 1733.0, 1732.0, 1734.0, 1733.0, 1735.0, 1733.0, 1731.0, 1729.0, 1724.0, 1720.0, 1716.0, 1716.0, 1719.0, 1721.0, 1723.0, 1721.0, 1724.0, 1726.0, 1727.0, 1725.0, 1727.0, 1729.0, 1732.0, 1732.0, 1731.0, 1731.0, 1739.0, 1745.0, 1745.0, 1739.0, 1733.0, 1728.0, 1726.0, 1726.0, 1727.0, 1729.0, 1729.0, 1732.0, 1739.0, 1745.0, 1741.0, 1735.0, 1731.0, 1727.0, 1725.0, 1725.0, 1726.0, 1729.0, 1730.0, 1730.0, 1731.0, 1735.0, 1739.0, 1740.0, 1736.0, 1730.0, 1729.0, 1727.0, 1729.0, 1730.0, 1730.0, 1731.0, 1731.0, 1731.0, 1731.0, 1732.0, 1734.0, 1740.0, 1741.0, 1739.0, 1734.0, 1732.0, 1728.0, 1727.0, 1728.0, 1731.0, 1733.0, 1736.0, 1737.0, 1737.0, 1737.0, 1737.0, 1740.0, 1740.0, 1737.0, 1736.0, 1740.0, 1738.0, 1734.0, 1732.0, 1729.0, 1730.0, 1727.0, 1729.0, 1736.0, 1738.0, 1736.0, 1731.0, 1727.0, 1726.0, 1723.0, 1724.0, 1725.0, 1729.0]
    },
    "slices": {}
  }
}