{
  "AcquisitionMatrixPE": 100,
  "AcquisitionNumber": 1,
  "AcquisitionTime": "09:57:40.162500",
  "BandwidthPerPixelPhaseEncode": 18.519,
  "BaseResolution": 100,
  "BodyPartExamined": "BRAIN",
  "ConsistencyInfo": "N4_VE11C_LATEST_20160120",
  "ConversionSoftware": "dcm2niix",
  "ConversionSoftwareVersion": "v1.0.20180622 GCC4.9.2",
  "DerivedVendorReportedEchoSpacing": 0.000539986,
  "DeviceSerialNumber": "166078",
  "DwellTime": 2.1e-06,
  "EchoTime": 0.034,
  "EchoTrainLength": 100,
  "EffectiveEchoSpacing": 0.000539986,
  "FlipAngle": 90,
  "ImageOrientationPatientDICOM": [1, 0, 0, 0, 1, 0],
  "ImageType": [
    "ORIGINAL",
    "PRIMARY",
    "M",
    "ND",
    "MOSAIC"
],
  "InPlanePhaseEncodingDirectionDICOM": "COL",
  "InstitutionAddress": "Street_StreetNo_Bei_Jing_District_CN_ZIP",
  "InstitutionName": "BeiJing_Normal_University",
  "InstitutionalDepartmentName": "Department",
  "MRAcquisitionType": "2D",
  "MagneticFieldStrength": 3,
  "Manufacturer": "Siemens",
  "ManufacturersModelName": "Prisma",
  "Modality": "MR",
  "MultibandAccelerationFactor": 3,
  "PartialFourier": 1,
  "PatientPosition": "HFS",
  "PercentPhaseFOV": 100,
  "PhaseEncodingDirection": "j-",
  "PhaseEncodingSteps": 100,
  "PhaseResolution": 1,
  "PixelBandwidth": 2380,
  "ProcedureStepDescription": "BNU_P2018_64CH_Zhen.ZongLei",
  "ProtocolName": "bold_100x100_s3_2x2x2_static_256",
  "PulseSequenceDetails": "%SiemensSeq%_ep2d_bold",
  "ReceiveCoilActiveElements": "HC1-7;NC1",
  "ReceiveCoilName": "HeadNeck_64",
  "ReconMatrixPE": 100,
  "RepetitionTime": 2,
  "SAR": 0.063856,
  "ScanOptions": "FS",
  "ScanningSequence": "EP",
  "SequenceName": "_epfid2d1_100",
  "SequenceVariant": "SK",
  "SeriesDescription": "bold_100x100_s3_2x2x2_static_256",
  "SeriesNumber": 9,
  "ShimSetting": [-5461, -11508, -1257, 359, -45, -237, -153, 30],
  "SliceThickness": 2,
  "SliceTiming": [1.485, 0, 0.99, 0.0825, 1.0725, 0.165, 1.155, 0.2475, 1.2375, 0.33, 1.32, 0.4125, 1.4025, 0.5775, 1.5675, 0.66, 1.65, 0.7425, 1.7325, 0.825, 1.815, 0.9075, 1.8975, 0.495, 1.485, 0, 0.99, 0.0825, 1.0725, 0.165, 1.155, 0.2475, 1.2375, 0.33, 1.32, 0.4125, 1.4025, 0.5775, 1.5675, 0.66, 1.65, 0.7425, 1.7325, 0.825, 1.815, 0.9075, 1.8975, 0.495, 1.485, 0, 0.99, 0.0825, 1.0725, 0.165, 1.155, 0.2475, 1.2375, 0.33, 1.32, 0.4125, 1.4025, 0.5775, 1.5675, 0.66, 1.65, 0.7425, 1.7325, 0.825, 1.815, 0.9075, 1.8975, 0.495],
  "SoftwareVersions": "syngo_MR_E11",
  "SpacingBetweenSlices": 2,
  "StationName": "AWP166078",
  "TaskName": "naturalvision",
  "TotalReadoutTime": 0.0534586,
  "TxRefAmp": 205.086,
  "dcmmeta_affine": [
    [-2.0, 0.0, 0.0, 100.67469787597656],
    [0.0, 2.0, 0.0, -90.81446075439453],
    [0.0, 0.0, 2.0, -56.33012008666992],
    [0.0, 0.0, 0.0, 1.0]
],
  "dcmmeta_reorient_transform": [
    [0.0, -1.0, 0.0, 99.0],
    [1.0, 0.0, 0.0, 0.0],
    [0.0, 0.0, 1.0, 0.0],
    [0.0, 0.0, 0.0, 1.0]
],
  "dcmmeta_shape": [100, 100, 72, 256],
  "dcmmeta_slice_dim": 2,
  "dcmmeta_version": 0.6,
  "global": {
    "const": {
      "AcquisitionMatrix": [100, 0, 0, 100],
      "AngioFlag": "N",
      "BitsAllocated": 16,
      "BitsStored": 12,
      "BodyPartExamined": "BRAIN",
      "Columns": 900,
      "EchoNumbers": 1,
      "EchoTime": 34.0,
      "EchoTrainLength": 100,
      "FlipAngle": 90.0,
      "HighBit": 11,
      "ImageOrientationPatient": [1.0, 0.0, 0.0, 0.0, 1.0, 0.0],
      "ImagePositionPatient": [-900.67469877005, -907.18554210663, -56.33012008667],
      "ImageType": [
        "ORIGINAL",
        "PRIMARY",
        "M",
        "ND",
        "MOSAIC"
],
      "ImagedNucleus": "1H",
      "ImagingFrequency": 123.257756,
      "InPlanePhaseEncodingDirection": "COL",
      "MRAcquisitionType": "2D",
      "MagneticFieldStrength": 3.0,
      "Manufacturer": "SIEMENS",
      "ManufacturerModelName": "Prisma",
      "Modality": "MR",
      "NumberOfAverages": 1.0,
      "NumberOfPhaseEncodingSteps": 100,
      "PercentPhaseFieldOfView": 100.0,
      "PercentSampling": 100.0,
      "PerformedProcedureStepStartTime": "090416.835000",
      "PhotometricInterpretation": "MONOCHROME2",
      "PixelBandwidth": 2380.0,
      "PixelRepresentation": 0,
      "PixelSpacing": [2.0, 2.0],
      "ProtocolName": "bold_100x100_s3_2x2x2_static_256",
      "RepetitionTime": 2000.0,
      "Rows": 900,
      "SAR": 0.06385601749961,
      "SamplesPerPixel": 1,
      "ScanOptions": "FS",
      "ScanningSequence": "EP",
      "SequenceName": "*epfid2d1_100",
      "SequenceVariant": "SK",
      "SeriesDescription": "bold_100x100_s3_2x2x2_static_256",
      "SeriesNumber": 9,
      "SeriesTime": "095742.682000",
      "SliceLocation": -56.33012008667,
      "SliceThickness": 2.0,
      "SmallestImagePixelValue": 0,
      "SoftwareVersions": "syngo MR E11",
      "SpacingBetweenSlices": 1.9999999462719,
      "SpecificCharacterSet": "ISO_IR 100",
      "StudyID": "1",
      "StudyTime": "090416.742000",
      "TransmitCoilName": "Body",
      "VariableFlipAngleFlag": "N",
      "WindowCenterWidthExplanation": "Algo1",
      "dBdt": 0.0},
    "slices": {}
  },
  "time": {
    "samples": {
      "AcquisitionNumber": [1, 2, 3, 4, 5, 6, 7, 8, 9, 10, 11, 12, 13, 14, 15, 16, 17, 18, 19, 20, 21, 22, 23, 24, 25, 26, 27, 28, 29, 30, 31, 32, 33, 34, 35, 36, 37, 38, 39, 40, 41, 42, 43, 44, 45, 46, 47, 48, 49, 50, 51, 52, 53, 54, 55, 56, 57, 58, 59, 60, 61, 62, 63, 64, 65, 66, 67, 68, 69, 70, 71, 72, 73, 74, 75, 76, 77, 78, 79, 80, 81, 82, 83, 84, 85, 86, 87, 88, 89, 90, 91, 92, 93, 94, 95, 96, 97, 98, 99, 100, 101, 102, 103, 104, 105, 106, 107, 108, 109, 110, 111, 112, 113, 114, 115, 116, 117, 118, 119, 120, 121, 122, 123, 124, 125, 126, 127, 128, 129, 130, 131, 132, 133, 134, 135, 136, 137, 138, 139, 140, 141, 142, 143, 144, 145, 146, 147, 148, 149, 150, 151, 152, 153, 154, 155, 156, 157, 158, 159, 160, 161, 162, 163, 164, 165, 166, 167, 168, 169, 170, 171, 172, 173, 174, 175, 176, 177, 178, 179, 180, 181, 182, 183, 184, 185, 186, 187, 188, 189, 190, 191, 192, 193, 194, 195, 196, 197, 198, 199, 200, 201, 202, 203, 204, 205, 206, 207, 208, 209, 210, 211, 212, 213, 214, 215, 216, 217, 218, 219, 220, 221, 222, 223, 224, 225, 226, 227, 228, 229, 230, 231, 232, 233, 234, 235, 236, 237, 238, 239, 240, 241, 242, 243, 244, 245, 246, 247, 248, 249, 250, 251, 252, 253, 254, 255, 256],
      "AcquisitionTime": ["095740.162500", "095742.162500", "095744.162500", "095746.162500", "095748.162500", "095750.162500", "095752.162500", "095754.162500", "095756.162500", "095758.162500", "095800.162500", "095802.162500", "095804.162500", "095806.162500", "095808.162500", "095810.162500", "095812.162500", "095814.162500", "095816.162500", "095818.162500", "095820.162500", "095822.162500", "095824.162500", "095826.162500", "095828.162500", "095830.162500", "095832.162500", "095834.162500", "095836.162500", "095838.162500", "095840.162500", "095842.162500", "095844.162500", "095846.162500", "095848.162500", "095850.162500", "095852.162500", "095854.162500", "095856.162500", "095858.162500", "095900.162500", "095902.162500", "095904.162500", "095906.162500", "095908.162500", "095910.162500", "095912.162500", "095914.162500", "095916.162500", "095918.162500", "095920.162500", "095922.162500", "095924.162500", "095926.162500", "095928.162500", "095930.162500", "095932.162500", "095934.162500", "095936.162500", "095938.162500", "095940.162500", "095942.162500", "095944.162500", "095946.162500", "095948.162500", "095950.162500", "095952.162500", "095954.162500", "095956.162500", "095958.162500", "100000.162500", "100002.162500", "100004.162500", "100006.162500", "100008.162500", "100010.162500", "100012.162500", "100014.162500", "100016.162500", "100018.162500", "100020.162500", "100022.162500", "100024.162500", "100026.162500", "100028.162500", "100030.162500", "100032.162500", "100034.162500", "100036.162500", "100038.162500", "100040.162500", "100042.162500", "100044.162500", "100046.162500", "100048.162500", "100050.162500", "100052.162500", "100054.162500", "100056.162500", "100058.162500", "100100.162500", "100102.162500", "100104.162500", "100106.162500", "100108.162500", "100110.162500", "100112.162500", "100114.162500", "100116.162500", "100118.162500", "100120.162500", "100122.162500", "100124.162500", "100126.162500", "100128.162500", "100130.162500", "100132.162500", "100134.162500", "100136.162500", "100138.162500", "100140.162500", "100142.162500", "100144.162500", "100146.162500", "100148.162500", "100150.162500", "100152.162500", "100154.162500", "100156.162500", "100158.162500", "100200.162500", "100202.162500", "100204.162500", "100206.162500", "100208.162500", "100210.162500", "100212.162500", "100214.162500", "100216.162500", "100218.162500", "100220.162500", "100222.162500", "100224.162500", "100226.162500", "100228.162500", "100230.162500", "100232.162500", "100234.162500", "100236.162500", "100238.162500", "100240.162500", "100242.162500", "100244.162500", "100246.162500", "100248.162500", "100250.162500", "100252.162500", "100254.162500", "100256.162500", "100258.162500", "100300.162500", "100302.162500", "100304.162500", "100306.162500", "100308.162500", "100310.162500", "100312.162500", "100314.162500", "100316.162500", "100318.162500", "100320.162500", "100322.162500", "100324.162500", "100326.162500", "100328.162500", "100330.162500", "100332.162500", "100334.162500", "100336.162500", "100338.162500", "100340.162500", "100342.162500", "100344.162500", "100346.162500", "100348.162500", "100350.162500", "100352.162500", "100354.162500", "100356.162500", "100358.162500", "100400.162500", "100402.162500", "100404.162500", "100406.162500", "100408.162500", "100410.162500", "100412.162500", "100414.162500", "100416.162500", "100418.162500", "100420.162500", "100422.162500", "100424.162500", "100426.162500", "100428.162500", "100430.162500", "100432.162500", "100434.162500", "100436.162500", "100438.162500", "100440.162500", "100442.162500", "100444.162500", "100446.162500", "100448.162500", "100450.162500", "100452.162500", "100454.162500", "100456.162500", "100458.162500", "100500.162500", "100502.162500", "100504.162500", "100506.162500", "100508.162500", "100510.162500", "100512.162500", "100514.162500", "100516.162500", "100518.162500", "100520.162500", "100522.162500", "100524.162500", "100526.162500", "100528.162500", "100530.162500", "100532.162500", "100534.162500", "100536.162500", "100538.162500", "100540.162500", "100542.162500", "100544.162500", "100546.162500", "100548.162500", "100550.162500", "100552.162500", "100554.162500", "100556.162500", "100558.162500", "100600.162500", "100602.162500", "100604.162500", "100606.162500", "100608.162500", "100610.162500"],
      "ContentTime": ["095742.685000", "095744.181000", "095746.180000", "095748.179000", "095750.180000", "095752.180000", "095754.181000", "095756.180000", "095758.181000", "095800.181000", "095802.181000", "095804.180000", "095806.180000", "095808.180000", "095810.180000", "095812.181000", "095814.181000", "095816.181000", "095818.181000", "095820.181000", "095822.179000", "095824.180000", "095826.180000", "095828.181000", "095830.181000", "095832.181000", "095834.180000", "095836.181000", "095838.180000", "095840.180000", "095842.180000", "095844.180000", "095846.181000", "095848.180000", "095850.180000", "095852.181000", "095854.181000", "095856.180000", "095858.180000", "095900.180000", "095902.180000", "095904.181000", "095906.180000", "095908.180000", "095910.181000", "095912.181000", "095914.180000", "095916.180000", "095918.180000", "095920.180000", "095922.180000", "095924.181000", "095926.180000", "095928.180000", "095930.181000", "095932.179000", "095934.180000", "095936.179000", "095938.181000", "095940.181000", "095942.181000", "095944.181000", "095946.180000", "095948.180000", "095950.179000", "095952.180000", "095954.180000", "095956.181000", "095958.181000", "100000.180000", "100002.180000", "100004.181000", "100006.180000", "100008.180000", "100010.180000", "100012.179000", "100014.181000", "100016.181000", "100018.181000", "100020.181000", "100022.181000", "100024.180000", "100026.180000", "100028.180000", "100030.179000", "100032.181000", "100034.181000", "100036.181000", "100038.180000", "100040.180000", "100042.179000", "100044.180000", "100046.180000", "100048.181000", "100050.181000", "100052.181000", "100054.180000", "100056.180000", "100058.180000", "100100.179000", "100102.179000", "100104.179000", "100106.181000", "100108.180000", "100110.181000", "100112.181000", "100114.181000", "100116.180000", "100118.180000", "100120.180000", "100122.180000", "100124.181000", "100126.181000", "100128.180000", "100130.181000", "100132.180000", "100134.180000", "100136.180000", "100138.180000", "100140.180000", "100142.181000", "100144.188000", "100146.180000", "100148.180000", "100150.181000", "100152.180000", "100154.180000", "100156.180000", "100158.180000", "100200.180000", "100202.181000", "100204.181000", "100206.181000", "100208.180000", "100210.179000", "100212.179000", "100214.180000", "100216.181000", "100218.180000", "100220.180000", "100222.181000", "100224.181000", "100226.180000", "100228.180000", "100230.180000", "100232.180000", "100234.181000", "100236.181000", "100238.181000", "100240.181000", "100242.181000", "100244.180000", "100246.180000", "100248.180000", "100250.181000", "100252.181000", "100254.181000", "100256.181000", "100258.180000", "100300.181000", "100302.180000", "100304.180000", "100306.180000", "100308.181000", "100310.181000", "100312.181000", "100314.181000", "100316.181000", "100318.179000", "100320.180000", "100322.180000", "100324.180000", "100326.181000", "100328.181000", "100330.181000", "100332.181000", "100334.181000", "100336.180000", "100338.180000", "100340.180000", "100342.179000", "100344.181000", "100346.181000", "100348.181000", "100350.181000", "100352.181000", "100354.180000", "100356.180000", "100358.180000", "100400.181000", "100402.181000", "100404.181000", "100406.180000", "100408.180000", "100410.181000", "100412.180000", "100414.180000", "100416.180000", "100418.181000", "100420.180000", "100422.181000", "100424.181000", "100426.181000", "100428.180000", "100430.180000", "100432.179000", "100434.179000", "100436.180000", "100438.181000", "100440.181000", "100442.181000", "100444.181000", "100446.180000", "100448.180000", "100450.180000", "100452.180000", "100454.181000", "100456.180000", "100458.181000", "100500.181000", "100502.181000", "100504.180000", "100506.179000", "100508.179000", "100510.181000", "100512.180000", "100514.181000", "100516.181000", "100518.180000", "100520.181000", "100522.180000", "100524.180000", "100526.179000", "100528.181000", "100530.180000", "100532.180000", "100534.181000", "100536.180000", "100538.180000", "100540.180000", "100542.180000", "100544.180000", "100546.181000", "100548.181000", "100550.181000", "100552.181000", "100554.181000", "100556.180000", "100558.180000", "100600.180000", "100602.180000", "100604.181000", "100606.181000", "100608.181000", "100610.181000", "100611.869000"],
      "InstanceCreationTime": ["095742.685000", "095744.181000", "095746.180000", "095748.179000", "095750.180000", "095752.180000", "095754.181000", "095756.180000", "095758.181000", "095800.181000", "095802.181000", "095804.180000", "095806.180000", "095808.180000", "095810.180000", "095812.181000", "095814.181000", "095816.181000", "095818.181000", "095820.181000", "095822.179000", "095824.180000", "095826.180000", "095828.181000", "095830.181000", "095832.181000", "095834.180000", "095836.181000", "095838.180000", "095840.180000", "095842.180000", "095844.180000", "095846.181000", "095848.180000", "095850.180000", "095852.181000", "095854.181000", "095856.180000", "095858.180000", "095900.180000", "095902.180000", "095904.181000", "095906.180000", "095908.180000", "095910.181000", "095912.181000", "095914.180000", "095916.180000", "095918.180000", "095920.180000", "095922.180000", "095924.181000", "095926.180000", "095928.180000", "095930.181000", "095932.179000", "095934.180000", "095936.179000", "095938.181000", "095940.181000", "095942.181000", "095944.181000", "095946.180000", "095948.180000", "095950.179000", "095952.180000", "095954.180000", "095956.181000", "095958.181000", "100000.180000", "100002.180000", "100004.181000", "100006.180000", "100008.180000", "100010.180000", "100012.179000", "100014.181000", "100016.181000", "100018.181000", "100020.181000", "100022.181000", "100024.180000", "100026.180000", "100028.180000", "100030.179000", "100032.181000", "100034.181000", "100036.181000", "100038.180000", "100040.180000", "100042.179000", "100044.180000", "100046.180000", "100048.181000", "100050.181000", "100052.181000", "100054.180000", "100056.180000", "100058.180000", "100100.179000", "100102.179000", "100104.179000", "100106.181000", "100108.180000", "100110.181000", "100112.181000", "100114.181000", "100116.180000", "100118.180000", "100120.180000", "100122.180000", "100124.181000", "100126.181000", "100128.180000", "100130.181000", "100132.180000", "100134.180000", "100136.180000", "100138.180000", "100140.180000", "100142.181000", "100144.188000", "100146.180000", "100148.180000", "100150.181000", "100152.180000", "100154.180000", "100156.180000", "100158.180000", "100200.180000", "100202.181000", "100204.181000", "100206.181000", "100208.180000", "100210.179000", "100212.179000", "100214.180000", "100216.181000", "100218.180000", "100220.180000", "100222.181000", "100224.181000", "100226.180000", "100228.180000", "100230.180000", "100232.180000", "100234.181000", "100236.181000", "100238.181000", "100240.181000", "100242.181000", "100244.180000", "100246.180000", "100248.180000", "100250.181000", "100252.181000", "100254.181000", "100256.181000", "100258.180000", "100300.181000", "100302.180000", "100304.180000", "100306.180000", "100308.181000", "100310.181000", "100312.181000", "100314.181000", "100316.181000", "100318.179000", "100320.180000", "100322.180000", "100324.180000", "100326.181000", "100328.181000", "100330.181000", "100332.181000", "100334.181000", "100336.180000", "100338.180000", "100340.180000", "100342.179000", "100344.181000", "100346.181000", "100348.181000", "100350.181000", "100352.181000", "100354.180000", "100356.180000", "100358.180000", "100400.181000", "100402.181000", "100404.181000", "100406.180000", "100408.180000", "100410.181000", "100412.180000", "100414.180000", "100416.180000", "100418.181000", "100420.180000", "100422.181000", "100424.181000", "100426.181000", "100428.180000", "100430.180000", "100432.179000", "100434.179000", "100436.180000", "100438.181000", "100440.181000", "100442.181000", "100444.181000", "100446.180000", "100448.180000", "100450.180000", "100452.180000", "100454.181000", "100456.180000", "100458.181000", "100500.181000", "100502.181000", "100504.180000", "100506.179000", "100508.179000", "100510.181000", "100512.180000", "100514.181000", "100516.181000", "100518.180000", "100520.181000", "100522.180000", "100524.180000", "100526.179000", "100528.181000", "100530.180000", "100532.180000", "100534.181000", "100536.180000", "100538.180000", "100540.180000", "100542.180000", "100544.180000", "100546.181000", "100548.181000", "100550.181000", "100552.181000", "100554.181000", "100556.180000", "100558.180000", "100600.180000", "100602.180000", "100604.181000", "100606.181000", "100608.181000", "100610.181000", "100611.869000"],
      "InstanceNumber": [1, 2, 3, 4, 5, 6, 7, 8, 9, 10, 11, 12, 13, 14, 15, 16, 17, 18, 19, 20, 21, 22, 23, 24, 25, 26, 27, 28, 29, 30, 31, 32, 33, 34, 35, 36, 37, 38, 39, 40, 41, 42, 43, 44, 45, 46, 47, 48, 49, 50, 51, 52, 53, 54, 55, 56, 57, 58, 59, 60, 61, 62, 63, 64, 65, 66, 67, 68, 69, 70, 71, 72, 73, 74, 75, 76, 77, 78, 79, 80, 81, 82, 83, 84, 85, 86, 87, 88, 89, 90, 91, 92, 93, 94, 95, 96, 97, 98, 99, 100, 101, 102, 103, 104, 105, 106, 107, 108, 109, 110, 111, 112, 113, 114, 115, 116, 117, 118, 119, 120, 121, 122, 123, 124, 125, 126, 127, 128, 129, 130, 131, 132, 133, 134, 135, 136, 137, 138, 139, 140, 141, 142, 143, 144, 145, 146, 147, 148, 149, 150, 151, 152, 153, 154, 155, 156, 157, 158, 159, 160, 161, 162, 163, 164, 165, 166, 167, 168, 169, 170, 171, 172, 173, 174, 175, 176, 177, 178, 179, 180, 181, 182, 183, 184, 185, 186, 187, 188, 189, 190, 191, 192, 193, 194, 195, 196, 197, 198, 199, 200, 201, 202, 203, 204, 205, 206, 207, 208, 209, 210, 211, 212, 213, 214, 215, 216, 217, 218, 219, 220, 221, 222, 223, 224, 225, 226, 227, 228, 229, 230, 231, 232, 233, 234, 235, 236, 237, 238, 239, 240, 241, 242, 243, 244, 245, 246, 247, 248, 249, 250, 251, 252, 253, 254, 255, 256],
      "LargestImagePixelValue": [3243, 3227, 3192, 3256, 3264, 3269, 3252, 3252, 3247, 3254, 3205, 3211, 3201, 3218, 3233, 3244, 3322, 3305, 3266, 3269, 3310, 3286, 3212, 3246, 3242, 3213, 3221, 3257, 3265, 3304, 3284, 3335, 3305, 3332, 3334, 3274, 3235, 3278, 3283, 3368, 3350, 3304, 3259, 3252, 3236, 3273, 3235, 3276, 3276, 3279, 3292, 3294, 3297, 3267, 3275, 3297, 3279, 3241, 3278, 3268, 3258, 3295, 3288, 3277, 3244, 3297, 3270, 3251, 3312, 3279, 3275, 3286, 3275, 3312, 3269, 3319, 3290, 3328, 3304, 3277, 3295, 3273, 3222, 3274, 3292, 3289, 3309, 3276, 3265, 3263, 3297, 3273, 3294, 3270, 3310, 3307, 3287, 3321, 3308, 3299, 3278, 3299, 3288, 3324, 3312, 3308, 3279, 3266, 3233, 3236, 3225, 3287, 3241, 3281, 3299, 3324, 3304, 3282, 3262, 3229, 3246, 3293, 3311, 3322, 3346, 3355, 3316, 3274, 3310, 3308, 3281, 3320, 3328, 3315, 3309, 3279, 3281, 3307, 3290, 3319, 3286, 3307, 3277, 3240, 3283, 3257, 3271, 3261, 3223, 3278, 3273, 3248, 3287, 3332, 3313, 3270, 3332, 3314, 3332, 3291, 3340, 3332, 3296, 3319, 3285, 3273, 3261, 3262, 3286, 3268, 3324, 3293, 3318, 3274, 3280, 3447, 3564, 3565, 3572, 3547, 3423, 3359, 3384, 3320, 3338, 3272, 3307, 3314, 3328, 3312, 3312, 3293, 3331, 3228, 3243, 3232, 3265, 3247, 3247, 3267, 3285, 3285, 3264, 3320, 3298, 3330, 3363, 3291, 3281, 3278, 3258, 3317, 3273, 3326, 3279, 3251, 3223, 3258, 3254, 3272, 3265, 3282, 3259, 3265, 3235, 3267, 3343, 3397, 3347, 3364, 3298, 3269, 3295, 3274, 3269, 3232, 3261, 3260, 3287, 3250, 3283, 3279, 3288, 3319, 3309, 3270, 3312, 3372, 3366, 3380, 3310, 3284, 3290, 3296, 3287, 3273],
      "WindowCenter": [789.0, 788.0, 787.0, 788.0, 788.0, 788.0, 789.0, 789.0, 789.0, 790.0, 790.0, 790.0, 789.0, 789.0, 790.0, 791.0, 792.0, 792.0, 792.0, 792.0, 792.0, 791.0, 790.0, 789.0, 789.0, 789.0, 789.0, 790.0, 790.0, 790.0, 791.0, 791.0, 791.0, 791.0, 792.0, 791.0, 791.0, 791.0, 791.0, 791.0, 792.0, 791.0, 791.0, 792.0, 791.0, 790.0, 790.0, 791.0, 792.0, 792.0, 792.0, 792.0, 792.0, 792.0, 792.0, 792.0, 792.0, 790.0, 790.0, 791.0, 791.0, 792.0, 792.0, 791.0, 790.0, 790.0, 790.0, 791.0, 792.0, 792.0, 792.0, 791.0, 790.0, 790.0, 790.0, 790.0, 792.0, 792.0, 792.0, 791.0, 790.0, 789.0, 787.0, 787.0, 789.0, 790.0, 791.0, 790.0, 789.0, 789.0, 789.0, 788.0, 787.0, 787.0, 789.0, 791.0, 792.0, 792.0, 791.0, 790.0, 789.0, 788.0, 789.0, 791.0, 791.0, 791.0, 789.0, 789.0, 788.0, 788.0, 788.0, 789.0, 791.0, 791.0, 790.0, 789.0, 789.0, 788.0, 788.0, 788.0, 789.0, 790.0, 791.0, 790.0, 789.0, 790.0, 789.0, 790.0, 789.0, 788.0, 789.0, 791.0, 791.0, 791.0, 790.0, 790.0, 790.0, 791.0, 790.0, 790.0, 790.0, 790.0, 789.0, 788.0, 788.0, 788.0, 788.0, 788.0, 787.0, 788.0, 789.0, 789.0, 789.0, 789.0, 789.0, 790.0, 791.0, 791.0, 790.0, 789.0, 789.0, 790.0, 790.0, 791.0, 790.0, 790.0, 790.0, 790.0, 792.0, 793.0, 794.0, 795.0, 795.0, 794.0, 793.0, 798.0, 801.0, 802.0, 800.0, 798.0, 796.0, 794.0, 793.0, 792.0, 791.0, 791.0, 791.0, 790.0, 790.0, 790.0, 789.0, 789.0, 789.0, 788.0, 789.0, 790.0, 790.0, 791.0, 790.0, 790.0, 790.0, 790.0, 790.0, 791.0, 791.0, 792.0, 792.0, 791.0, 791.0, 791.0, 791.0, 791.0, 790.0, 791.0, 790.0, 790.0, 789.0, 790.0, 791.0, 791.0, 790.0, 791.0, 791.0, 790.0, 791.0, 792.0, 793.0, 793.0, 793.0, 792.0, 790.0, 789.0, 789.0, 790.0, 790.0, 789.0, 789.0, 791.0, 792.0, 791.0, 790.0, 790.0, 791.0, 791.0, 791.0, 790.0, 792.0, 795.0, 795.0, 793.0, 791.0, 790.0, 790.0, 790.0, 791.0, 791.0],
      "WindowWidth": [1706.0, 1703.0, 1702.0, 1705.0, 1705.0, 1705.0, 1706.0, 1706.0, 1708.0, 1709.0, 1709.0, 1709.0, 1707.0, 1708.0, 1710.0, 1712.0, 1715.0, 1715.0, 1715.0, 1714.0, 1716.0, 1713.0, 1710.0, 1708.0, 1707.0, 1707.0, 1708.0, 1709.0, 1710.0, 1711.0, 1712.0, 1714.0, 1713.0, 1713.0, 1715.0, 1713.0, 1711.0, 1711.0, 1712.0, 1714.0, 1715.0, 1713.0, 1714.0, 1714.0, 1712.0, 1710.0, 1710.0, 1713.0, 1714.0, 1714.0, 1714.0, 1715.0, 1715.0, 1715.0, 1716.0, 1716.0, 1714.0, 1710.0, 1710.0, 1711.0, 1713.0, 1714.0, 1714.0, 1712.0, 1710.0, 1711.0, 1711.0, 1712.0, 1716.0, 1715.0, 1714.0, 1711.0, 1710.0, 1710.0, 1709.0, 1711.0, 1714.0, 1716.0, 1716.0, 1713.0, 1709.0, 1706.0, 1702.0, 1702.0, 1706.0, 1710.0, 1711.0, 1709.0, 1707.0, 1706.0, 1708.0, 1704.0, 1702.0, 1701.0, 1706.0, 1712.0, 1714.0, 1716.0, 1712.0, 1709.0, 1705.0, 1705.0, 1707.0, 1711.0, 1713.0, 1711.0, 1708.0, 1706.0, 1704.0, 1703.0, 1704.0, 1708.0, 1712.0, 1712.0, 1710.0, 1708.0, 1707.0, 1705.0, 1704.0, 1704.0, 1705.0, 1710.0, 1710.0, 1709.0, 1707.0, 1709.0, 1707.0, 1708.0, 1707.0, 1705.0, 1706.0, 1711.0, 1712.0, 1711.0, 1709.0, 1709.0, 1709.0, 1711.0, 1710.0, 1709.0, 1708.0, 1708.0, 1706.0, 1703.0, 1704.0, 1704.0, 1703.0, 1702.0, 1701.0, 1704.0, 1707.0, 1707.0, 1705.0, 1705.0, 1707.0, 1708.0, 1712.0, 1711.0, 1709.0, 1706.0, 1707.0, 1708.0, 1709.0, 1711.0, 1710.0, 1710.0, 1708.0, 1710.0, 1713.0, 1716.0, 1721.0, 1722.0, 1723.0, 1721.0, 1719.0, 1732.0, 1742.0, 1743.0, 1739.0, 1733.0, 1726.0, 1720.0, 1717.0, 1714.0, 1713.0, 1710.0, 1711.0, 1710.0, 1709.0, 1708.0, 1708.0, 1706.0, 1706.0, 1703.0, 1705.0, 1708.0, 1710.0, 1710.0, 1709.0, 1709.0, 1708.0, 1708.0, 1709.0, 1712.0, 1712.0, 1715.0, 1716.0, 1712.0, 1712.0, 1712.0, 1710.0, 1710.0, 1709.0, 1711.0, 1709.0, 1708.0, 1706.0, 1708.0, 1712.0, 1712.0, 1710.0, 1710.0, 1710.0, 1709.0, 1710.0, 1712.0, 1716.0, 1718.0, 1716.0, 1714.0, 1709.0, 1704.0, 1705.0, 1708.0, 1708.0, 1706.0, 1706.0, 1710.0, 1714.0, 1710.0, 1708.0, 1709.0, 1711.0, 1712.0, 1710.0, 1708.0, 1713.0, 1722.0, 1722.0, 1718.0, 1711.0, 1707.0, 1708.0, 1708.0, 1710.0, 1712.0]
    },
    "slices": {}
  }
}