{
  "AcquisitionMatrixPE": 100,
  "AcquisitionNumber": 1,
  "AcquisitionTime": "09:48:1.365000",
  "BandwidthPerPixelPhaseEncode": 18.519,
  "BaseResolution": 100,
  "BodyPartExamined": "BRAIN",
  "ConsistencyInfo": "N4_VE11C_LATEST_20160120",
  "ConversionSoftware": "dcm2niix",
  "ConversionSoftwareVersion": "v1.0.20180622 GCC4.9.2",
  "DerivedVendorReportedEchoSpacing": 0.000539986,
  "DeviceSerialNumber": "166078",
  "DwellTime": 2.1e-06,
  "EchoTime": 0.034,
  "EchoTrainLength": 100,
  "EffectiveEchoSpacing": 0.000539986,
  "FlipAngle": 90,
  "ImageOrientationPatientDICOM": [1, 0, 0, 0, 1, 0],
  "ImageType": [
    "ORIGINAL",
    "PRIMARY",
    "M",
    "ND",
    "MOSAIC"
],
  "InPlanePhaseEncodingDirectionDICOM": "COL",
  "InstitutionAddress": "Street_StreetNo_Bei_Jing_District_CN_ZIP",
  "InstitutionName": "BeiJing_Normal_University",
  "InstitutionalDepartmentName": "Department",
  "MRAcquisitionType": "2D",
  "MagneticFieldStrength": 3,
  "Manufacturer": "Siemens",
  "ManufacturersModelName": "Prisma",
  "Modality": "MR",
  "MultibandAccelerationFactor": 3,
  "PartialFourier": 1,
  "PatientPosition": "HFS",
  "PercentPhaseFOV": 100,
  "PhaseEncodingDirection": "j-",
  "PhaseEncodingSteps": 100,
  "PhaseResolution": 1,
  "PixelBandwidth": 2380,
  "ProcedureStepDescription": "BNU_P2018_64CH_Zhen.ZongLei",
  "ProtocolName": "bold_100x100_s3_2x2x2_static_256",
  "PulseSequenceDetails": "%SiemensSeq%_ep2d_bold",
  "ReceiveCoilActiveElements": "HC1-7;NC1",
  "ReceiveCoilName": "HeadNeck_64",
  "ReconMatrixPE": 100,
  "RepetitionTime": 2,
  "SAR": 0.063856,
  "ScanOptions": "FS",
  "ScanningSequence": "EP",
  "SequenceName": "_epfid2d1_100",
  "SequenceVariant": "SK",
  "SeriesDescription": "bold_100x100_s3_2x2x2_static_256",
  "SeriesNumber": 8,
  "ShimSetting": [-5461, -11508, -1257, 359, -45, -237, -153, 30],
  "SliceThickness": 2,
  "SliceTiming": [1.485, 0, 0.99, 0.0825, 1.0725, 0.165, 1.155, 0.2475, 1.2375, 0.33, 1.32, 0.4125, 1.4025, 0.5775, 1.5675, 0.66, 1.65, 0.7425, 1.7325, 0.825, 1.815, 0.9075, 1.8975, 0.495, 1.485, 0, 0.99, 0.0825, 1.0725, 0.165, 1.155, 0.2475, 1.2375, 0.33, 1.32, 0.4125, 1.4025, 0.5775, 1.5675, 0.66, 1.65, 0.7425, 1.7325, 0.825, 1.815, 0.9075, 1.8975, 0.495, 1.485, 0, 0.99, 0.0825, 1.0725, 0.165, 1.155, 0.2475, 1.2375, 0.33, 1.32, 0.4125, 1.4025, 0.5775, 1.5675, 0.66, 1.65, 0.7425, 1.7325, 0.825, 1.815, 0.9075, 1.8975, 0.495],
  "SoftwareVersions": "syngo_MR_E11",
  "SpacingBetweenSlices": 2,
  "StationName": "AWP166078",
  "TaskName": "naturalvision",
  "TotalReadoutTime": 0.0534586,
  "TxRefAmp": 205.086,
  "dcmmeta_affine": [
    [-2.0, 0.0, 0.0, 100.67469787597656],
    [0.0, 2.0, 0.0, -90.81446075439453],
    [0.0, 0.0, 2.0, -56.33012008666992],
    [0.0, 0.0, 0.0, 1.0]
],
  "dcmmeta_reorient_transform": [
    [0.0, -1.0, 0.0, 99.0],
    [1.0, 0.0, 0.0, 0.0],
    [0.0, 0.0, 1.0, 0.0],
    [0.0, 0.0, 0.0, 1.0]
],
  "dcmmeta_shape": [100, 100, 72, 256],
  "dcmmeta_slice_dim": 2,
  "dcmmeta_version": 0.6,
  "global": {
    "const": {
      "AcquisitionMatrix": [100, 0, 0, 100],
      "AngioFlag": "N",
      "BitsAllocated": 16,
      "BitsStored": 12,
      "BodyPartExamined": "BRAIN",
      "Columns": 900,
      "EchoNumbers": 1,
      "EchoTime": 34.0,
      "EchoTrainLength": 100,
      "FlipAngle": 90.0,
      "HighBit": 11,
      "ImageOrientationPatient": [1.0, 0.0, 0.0, 0.0, 1.0, 0.0],
      "ImagePositionPatient": [-900.67469877005, -907.18554210663, -56.33012008667],
      "ImageType": [
        "ORIGINAL",
        "PRIMARY",
        "M",
        "ND",
        "MOSAIC"
],
      "ImagedNucleus": "1H",
      "ImagingFrequency": 123.257753,
      "InPlanePhaseEncodingDirection": "COL",
      "MRAcquisitionType": "2D",
      "MagneticFieldStrength": 3.0,
      "Manufacturer": "SIEMENS",
      "ManufacturerModelName": "Prisma",
      "Modality": "MR",
      "NumberOfAverages": 1.0,
      "NumberOfPhaseEncodingSteps": 100,
      "PercentPhaseFieldOfView": 100.0,
      "PercentSampling": 100.0,
      "PerformedProcedureStepStartTime": "090416.835000",
      "PhotometricInterpretation": "MONOCHROME2",
      "PixelBandwidth": 2380.0,
      "PixelRepresentation": 0,
      "PixelSpacing": [2.0, 2.0],
      "ProtocolName": "bold_100x100_s3_2x2x2_static_256",
      "RepetitionTime": 2000.0,
      "Rows": 900,
      "SAR": 0.06385601749961,
      "SamplesPerPixel": 1,
      "ScanOptions": "FS",
      "ScanningSequence": "EP",
      "SequenceName": "*epfid2d1_100",
      "SequenceVariant": "SK",
      "SeriesDescription": "bold_100x100_s3_2x2x2_static_256",
      "SeriesNumber": 8,
      "SeriesTime": "094804.166000",
      "SliceLocation": -56.33012008667,
      "SliceThickness": 2.0,
      "SmallestImagePixelValue": 0,
      "SoftwareVersions": "syngo MR E11",
      "SpacingBetweenSlices": 1.9999999462719,
      "SpecificCharacterSet": "ISO_IR 100",
      "StudyID": "1",
      "StudyTime": "090416.742000",
      "TransmitCoilName": "Body",
      "VariableFlipAngleFlag": "N",
      "WindowCenterWidthExplanation": "Algo1",
      "dBdt": 0.0},
    "slices": {}
  },
  "time": {
    "samples": {
      "AcquisitionNumber": [1, 2, 3, 4, 5, 6, 7, 8, 9, 10, 11, 12, 13, 14, 15, 16, 17, 18, 19, 20, 21, 22, 23, 24, 25, 26, 27, 28, 29, 30, 31, 32, 33, 34, 35, 36, 37, 38, 39, 40, 41, 42, 43, 44, 45, 46, 47, 48, 49, 50, 51, 52, 53, 54, 55, 56, 57, 58, 59, 60, 61, 62, 63, 64, 65, 66, 67, 68, 69, 70, 71, 72, 73, 74, 75, 76, 77, 78, 79, 80, 81, 82, 83, 84, 85, 86, 87, 88, 89, 90, 91, 92, 93, 94, 95, 96, 97, 98, 99, 100, 101, 102, 103, 104, 105, 106, 107, 108, 109, 110, 111, 112, 113, 114, 115, 116, 117, 118, 119, 120, 121, 122, 123, 124, 125, 126, 127, 128, 129, 130, 131, 132, 133, 134, 135, 136, 137, 138, 139, 140, 141, 142, 143, 144, 145, 146, 147, 148, 149, 150, 151, 152, 153, 154, 155, 156, 157, 158, 159, 160, 161, 162, 163, 164, 165, 166, 167, 168, 169, 170, 171, 172, 173, 174, 175, 176, 177, 178, 179, 180, 181, 182, 183, 184, 185, 186, 187, 188, 189, 190, 191, 192, 193, 194, 195, 196, 197, 198, 199, 200, 201, 202, 203, 204, 205, 206, 207, 208, 209, 210, 211, 212, 213, 214, 215, 216, 217, 218, 219, 220, 221, 222, 223, 224, 225, 226, 227, 228, 229, 230, 231, 232, 233, 234, 235, 236, 237, 238, 239, 240, 241, 242, 243, 244, 245, 246, 247, 248, 249, 250, 251, 252, 253, 254, 255, 256],
      "AcquisitionTime": ["094801.365000", "094803.365000", "094805.365000", "094807.365000", "094809.365000", "094811.365000", "094813.365000", "094815.365000", "094817.365000", "094819.365000", "094821.365000", "094823.365000", "094825.365000", "094827.365000", "094829.365000", "094831.365000", "094833.365000", "094835.365000", "094837.365000", "094839.365000", "094841.365000", "094843.365000", "094845.365000", "094847.365000", "094849.365000", "094851.365000", "094853.365000", "094855.365000", "094857.365000", "094859.365000", "094901.365000", "094903.365000", "094905.365000", "094907.365000", "094909.365000", "094911.365000", "094913.365000", "094915.365000", "094917.365000", "094919.365000", "094921.365000", "094923.365000", "094925.365000", "094927.365000", "094929.365000", "094931.365000", "094933.365000", "094935.365000", "094937.365000", "094939.365000", "094941.365000", "094943.365000", "094945.365000", "094947.365000", "094949.365000", "094951.365000", "094953.365000", "094955.365000", "094957.365000", "094959.365000", "095001.365000", "095003.365000", "095005.365000", "095007.365000", "095009.365000", "095011.365000", "095013.365000", "095015.365000", "095017.365000", "095019.365000", "095021.365000", "095023.365000", "095025.365000", "095027.365000", "095029.365000", "095031.365000", "095033.365000", "095035.365000", "095037.365000", "095039.365000", "095041.365000", "095043.365000", "095045.365000", "095047.365000", "095049.365000", "095051.365000", "095053.365000", "095055.365000", "095057.365000", "095059.365000", "095101.365000", "095103.365000", "095105.365000", "095107.365000", "095109.365000", "095111.365000", "095113.365000", "095115.365000", "095117.365000", "095119.365000", "095121.365000", "095123.365000", "095125.365000", "095127.365000", "095129.365000", "095131.365000", "095133.365000", "095135.365000", "095137.365000", "095139.365000", "095141.365000", "095143.365000", "095145.365000", "095147.365000", "095149.365000", "095151.365000", "095153.365000", "095155.365000", "095157.365000", "095159.365000", "095201.365000", "095203.365000", "095205.365000", "095207.365000", "095209.365000", "095211.365000", "095213.365000", "095215.365000", "095217.365000", "095219.365000", "095221.365000", "095223.365000", "095225.365000", "095227.365000", "095229.365000", "095231.365000", "095233.365000", "095235.365000", "095237.365000", "095239.365000", "095241.365000", "095243.365000", "095245.365000", "095247.365000", "095249.365000", "095251.365000", "095253.365000", "095255.365000", "095257.365000", "095259.365000", "095301.365000", "095303.365000", "095305.365000", "095307.365000", "095309.365000", "095311.365000", "095313.365000", "095315.365000", "095317.365000", "095319.365000", "095321.365000", "095323.365000", "095325.365000", "095327.365000", "095329.365000", "095331.365000", "095333.365000", "095335.365000", "095337.365000", "095339.365000", "095341.365000", "095343.365000", "095345.365000", "095347.365000", "095349.365000", "095351.365000", "095353.365000", "095355.365000", "095357.365000", "095359.365000", "095401.365000", "095403.365000", "095405.365000", "095407.365000", "095409.365000", "095411.365000", "095413.365000", "095415.365000", "095417.365000", "095419.365000", "095421.365000", "095423.365000", "095425.365000", "095427.365000", "095429.365000", "095431.365000", "095433.365000", "095435.365000", "095437.365000", "095439.365000", "095441.365000", "095443.365000", "095445.365000", "095447.365000", "095449.365000", "095451.365000", "095453.365000", "095455.365000", "095457.365000", "095459.365000", "095501.365000", "095503.365000", "095505.365000", "095507.365000", "095509.365000", "095511.365000", "095513.365000", "095515.365000", "095517.365000", "095519.365000", "095521.365000", "095523.365000", "095525.365000", "095527.365000", "095529.365000", "095531.365000", "095533.365000", "095535.365000", "095537.365000", "095539.365000", "095541.365000", "095543.365000", "095545.365000", "095547.365000", "095549.365000", "095551.365000", "095553.365000", "095555.365000", "095557.365000", "095559.365000", "095601.365000", "095603.365000", "095605.365000", "095607.365000", "095609.365000", "095611.365000", "095613.365000", "095615.365000", "095617.365000", "095619.365000", "095621.365000", "095623.365000", "095625.365000", "095627.365000", "095629.365000", "095631.365000"],
      "ContentTime": ["094804.170000", "094805.665000", "094807.666000", "094809.665000", "094811.665000", "094813.664000", "094815.664000", "094817.666000", "094819.666000", "094821.665000", "094823.666000", "094825.665000", "094827.665000", "094829.666000", "094831.664000", "094833.665000", "094835.665000", "094837.666000", "094839.665000", "094841.666000", "094843.665000", "094845.666000", "094847.665000", "094849.665000", "094851.665000", "094853.666000", "094855.666000", "094857.665000", "094859.665000", "094901.666000", "094903.666000", "094905.664000", "094907.664000", "094909.665000", "094911.665000", "094913.666000", "094915.665000", "094917.666000", "094919.666000", "094921.665000", "094923.665000", "094925.664000", "094927.666000", "094929.665000", "094931.665000", "094933.666000", "094935.665000", "094937.665000", "094939.666000", "094941.665000", "094943.666000", "094945.665000", "094947.666000", "094949.666000", "094951.666000", "094953.665000", "094955.666000", "094957.665000", "094959.664000", "095001.665000", "095003.665000", "095005.665000", "095007.666000", "095009.665000", "095011.665000", "095013.665000", "095015.665000", "095017.664000", "095019.666000", "095021.666000", "095023.665000", "095025.665000", "095027.665000", "095029.666000", "095031.666000", "095033.664000", "095035.664000", "095037.665000", "095039.665000", "095041.666000", "095043.665000", "095045.665000", "095047.665000", "095049.666000", "095051.665000", "095053.666000", "095055.665000", "095057.665000", "095059.665000", "095101.666000", "095103.666000", "095105.665000", "095107.666000", "095109.665000", "095111.666000", "095113.665000", "095115.665000", "095117.665000", "095119.666000", "095121.666000", "095123.666000", "095125.665000", "095127.664000", "095129.665000", "095131.665000", "095133.665000", "095135.666000", "095137.666000", "095139.666000", "095141.665000", "095143.664000", "095145.664000", "095147.666000", "095149.666000", "095151.665000", "095153.666000", "095155.666000", "095157.666000", "095159.665000", "095201.664000", "095203.666000", "095205.682000", "095207.665000", "095209.666000", "095211.665000", "095213.666000", "095215.666000", "095217.665000", "095219.665000", "095221.666000", "095223.666000", "095225.665000", "095227.666000", "095229.665000", "095231.665000", "095233.665000", "095235.664000", "095237.665000", "095239.665000", "095241.665000", "095243.665000", "095245.666000", "095247.666000", "095249.666000", "095251.665000", "095253.664000", "095255.665000", "095257.665000", "095259.666000", "095301.666000", "095303.666000", "095305.666000", "095307.665000", "095309.665000", "095311.664000", "095313.665000", "095315.666000", "095317.666000", "095319.666000", "095321.666000", "095323.665000", "095325.666000", "095327.665000", "095329.664000", "095331.665000", "095333.665000", "095335.665000", "095337.665000", "095339.666000", "095341.666000", "095343.665000", "095345.665000", "095347.664000", "095349.666000", "095351.666000", "095353.666000", "095355.666000", "095357.666000", "095359.665000", "095401.665000", "095403.665000", "095405.665000", "095407.665000", "095409.666000", "095411.665000", "095413.665000", "095415.666000", "095417.665000", "095419.665000", "095421.665000", "095423.666000", "095425.666000", "095427.666000", "095429.665000", "095431.666000", "095433.666000", "095435.665000", "095437.665000", "095439.665000", "095441.665000", "095443.666000", "095445.666000", "095447.665000", "095449.666000", "095451.666000", "095453.665000", "095455.665000", "095457.665000", "095459.665000", "095501.665000", "095503.666000", "095505.665000", "095507.665000", "095509.665000", "095511.665000", "095513.664000", "095515.666000", "095517.666000", "095519.666000", "095521.665000", "095523.665000", "095525.666000", "095527.666000", "095529.666000", "095531.665000", "095533.666000", "095535.666000", "095537.665000", "095539.666000", "095541.666000", "095543.666000", "095545.666000", "095547.665000", "095549.665000", "095551.666000", "095553.666000", "095555.666000", "095557.666000", "095559.666000", "095601.665000", "095603.666000", "095605.665000", "095607.664000", "095609.666000", "095611.665000", "095613.666000", "095615.666000", "095617.666000", "095619.666000", "095621.665000", "095623.664000", "095625.666000", "095627.665000", "095629.666000", "095631.665000", "095633.474000"],
      "InstanceCreationTime": ["094804.170000", "094805.665000", "094807.666000", "094809.665000", "094811.665000", "094813.664000", "094815.664000", "094817.666000", "094819.666000", "094821.665000", "094823.666000", "094825.665000", "094827.665000", "094829.666000", "094831.664000", "094833.665000", "094835.665000", "094837.666000", "094839.665000", "094841.666000", "094843.665000", "094845.666000", "094847.665000", "094849.665000", "094851.665000", "094853.666000", "094855.666000", "094857.665000", "094859.665000", "094901.666000", "094903.666000", "094905.664000", "094907.664000", "094909.665000", "094911.665000", "094913.666000", "094915.665000", "094917.666000", "094919.666000", "094921.665000", "094923.665000", "094925.664000", "094927.666000", "094929.665000", "094931.665000", "094933.666000", "094935.665000", "094937.665000", "094939.666000", "094941.665000", "094943.666000", "094945.665000", "094947.666000", "094949.666000", "094951.666000", "094953.665000", "094955.666000", "094957.665000", "094959.664000", "095001.665000", "095003.665000", "095005.665000", "095007.666000", "095009.665000", "095011.665000", "095013.665000", "095015.665000", "095017.664000", "095019.666000", "095021.666000", "095023.665000", "095025.665000", "095027.665000", "095029.666000", "095031.666000", "095033.664000", "095035.664000", "095037.665000", "095039.665000", "095041.666000", "095043.665000", "095045.665000", "095047.665000", "095049.666000", "095051.665000", "095053.666000", "095055.665000", "095057.665000", "095059.665000", "095101.666000", "095103.666000", "095105.665000", "095107.666000", "095109.665000", "095111.666000", "095113.665000", "095115.665000", "095117.665000", "095119.666000", "095121.666000", "095123.666000", "095125.665000", "095127.664000", "095129.665000", "095131.665000", "095133.665000", "095135.666000", "095137.666000", "095139.666000", "095141.665000", "095143.664000", "095145.664000", "095147.666000", "095149.666000", "095151.665000", "095153.666000", "095155.666000", "095157.666000", "095159.665000", "095201.664000", "095203.666000", "095205.682000", "095207.665000", "095209.666000", "095211.665000", "095213.666000", "095215.666000", "095217.665000", "095219.665000", "095221.666000", "095223.666000", "095225.665000", "095227.666000", "095229.665000", "095231.665000", "095233.665000", "095235.664000", "095237.665000", "095239.665000", "095241.665000", "095243.665000", "095245.666000", "095247.666000", "095249.666000", "095251.665000", "095253.664000", "095255.665000", "095257.665000", "095259.666000", "095301.666000", "095303.666000", "095305.666000", "095307.665000", "095309.665000", "095311.664000", "095313.665000", "095315.666000", "095317.666000", "095319.666000", "095321.666000", "095323.665000", "095325.666000", "095327.665000", "095329.664000", "095331.665000", "095333.665000", "095335.665000", "095337.665000", "095339.666000", "095341.666000", "095343.665000", "095345.665000", "095347.664000", "095349.666000", "095351.666000", "095353.666000", "095355.666000", "095357.666000", "095359.665000", "095401.665000", "095403.665000", "095405.665000", "095407.665000", "095409.666000", "095411.665000", "095413.665000", "095415.666000", "095417.665000", "095419.665000", "095421.665000", "095423.666000", "095425.666000", "095427.666000", "095429.665000", "095431.666000", "095433.666000", "095435.665000", "095437.665000", "095439.665000", "095441.665000", "095443.666000", "095445.666000", "095447.665000", "095449.666000", "095451.666000", "095453.665000", "095455.665000", "095457.665000", "095459.665000", "095501.665000", "095503.666000", "095505.665000", "095507.665000", "095509.665000", "095511.665000", "095513.664000", "095515.666000", "095517.666000", "095519.666000", "095521.665000", "095523.665000", "095525.666000", "095527.666000", "095529.666000", "095531.665000", "095533.666000", "095535.666000", "095537.665000", "095539.666000", "095541.666000", "095543.666000", "095545.666000", "095547.665000", "095549.665000", "095551.666000", "095553.666000", "095555.666000", "095557.666000", "095559.666000", "095601.665000", "095603.666000", "095605.665000", "095607.664000", "095609.666000", "095611.665000", "095613.666000", "095615.666000", "095617.666000", "095619.666000", "095621.665000", "095623.664000", "095625.666000", "095627.665000", "095629.666000", "095631.665000", "095633.474000"],
      "InstanceNumber": [1, 2, 3, 4, 5, 6, 7, 8, 9, 10, 11, 12, 13, 14, 15, 16, 17, 18, 19, 20, 21, 22, 23, 24, 25, 26, 27, 28, 29, 30, 31, 32, 33, 34, 35, 36, 37, 38, 39, 40, 41, 42, 43, 44, 45, 46, 47, 48, 49, 50, 51, 52, 53, 54, 55, 56, 57, 58, 59, 60, 61, 62, 63, 64, 65, 66, 67, 68, 69, 70, 71, 72, 73, 74, 75, 76, 77, 78, 79, 80, 81, 82, 83, 84, 85, 86, 87, 88, 89, 90, 91, 92, 93, 94, 95, 96, 97, 98, 99, 100, 101, 102, 103, 104, 105, 106, 107, 108, 109, 110, 111, 112, 113, 114, 115, 116, 117, 118, 119, 120, 121, 122, 123, 124, 125, 126, 127, 128, 129, 130, 131, 132, 133, 134, 135, 136, 137, 138, 139, 140, 141, 142, 143, 144, 145, 146, 147, 148, 149, 150, 151, 152, 153, 154, 155, 156, 157, 158, 159, 160, 161, 162, 163, 164, 165, 166, 167, 168, 169, 170, 171, 172, 173, 174, 175, 176, 177, 178, 179, 180, 181, 182, 183, 184, 185, 186, 187, 188, 189, 190, 191, 192, 193, 194, 195, 196, 197, 198, 199, 200, 201, 202, 203, 204, 205, 206, 207, 208, 209, 210, 211, 212, 213, 214, 215, 216, 217, 218, 219, 220, 221, 222, 223, 224, 225, 226, 227, 228, 229, 230, 231, 232, 233, 234, 235, 236, 237, 238, 239, 240, 241, 242, 243, 244, 245, 246, 247, 248, 249, 250, 251, 252, 253, 254, 255, 256],
      "LargestImagePixelValue": [3297, 3229, 3271, 3276, 3269, 3274, 3333, 3294, 3235, 3282, 3258, 3285, 3295, 3252, 3257, 3295, 3238, 3210, 3197, 3306, 3222, 3236, 3272, 3252, 3236, 3268, 3270, 3281, 3275, 3274, 3305, 3288, 3283, 3310, 3324, 3407, 3399, 3357, 3339, 3327, 3303, 3291, 3297, 3307, 3377, 3368, 3444, 3412, 3356, 3299, 3259, 3280, 3282, 3295, 3274, 3294, 3262, 3226, 3250, 3271, 3263, 3331, 3293, 3233, 3183, 3198, 3198, 3244, 3285, 3321, 3362, 3339, 3361, 3305, 3255, 3280, 3247, 3268, 3208, 3271, 3234, 3267, 3285, 3276, 3238, 3232, 3232, 3241, 3236, 3249, 3245, 3270, 3277, 3270, 3327, 3300, 3272, 3355, 3353, 3350, 3309, 3357, 3348, 3272, 3287, 3271, 3258, 3187, 3261, 3284, 3299, 3337, 3345, 3296, 3246, 3249, 3220, 3312, 3392, 3406, 3354, 3300, 3270, 3220, 3220, 3223, 3238, 3234, 3216, 3294, 3287, 3288, 3289, 3281, 3267, 3312, 3298, 3290, 3305, 3304, 3196, 3182, 3201, 3227, 3204, 3172, 3122, 3210, 3205, 3275, 3331, 3373, 3306, 3272, 3326, 3323, 3302, 3284, 3303, 3305, 3322, 3357, 3391, 3347, 3315, 3334, 3376, 3378, 3277, 3234, 3173, 3229, 3259, 3334, 3363, 3359, 3363, 3366, 3334, 3311, 3302, 3299, 3252, 3297, 3340, 3365, 3411, 3361, 3267, 3231, 3189, 3221, 3215, 3296, 3347, 3317, 3306, 3208, 3175, 3214, 3262, 3297, 3312, 3306, 3342, 3325, 3244, 3224, 3226, 3194, 3211, 3300, 3308, 3332, 3287, 3294, 3291, 3300, 3291, 3238, 3272, 3271, 3259, 3327, 3347, 3385, 3332, 3280, 3213, 3200, 3286, 3301, 3321, 3385, 3384, 3351, 3296, 3278, 3269, 3251, 3231, 3230, 3221, 3179, 3219, 3269, 3294, 3317, 3311, 3236, 3234, 3206, 3292, 3299, 3301, 3273],
      "WindowCenter": [786.0, 786.0, 787.0, 787.0, 787.0, 788.0, 789.0, 788.0, 787.0, 787.0, 787.0, 789.0, 789.0, 789.0, 789.0, 788.0, 788.0, 788.0, 788.0, 789.0, 788.0, 788.0, 789.0, 789.0, 790.0, 790.0, 789.0, 789.0, 789.0, 790.0, 790.0, 789.0, 788.0, 788.0, 790.0, 792.0, 793.0, 793.0, 792.0, 792.0, 791.0, 791.0, 790.0, 790.0, 791.0, 791.0, 792.0, 793.0, 792.0, 791.0, 790.0, 790.0, 791.0, 792.0, 791.0, 790.0, 789.0, 788.0, 788.0, 788.0, 789.0, 790.0, 790.0, 789.0, 788.0, 789.0, 789.0, 790.0, 790.0, 791.0, 791.0, 790.0, 790.0, 791.0, 791.0, 791.0, 790.0, 789.0, 788.0, 788.0, 788.0, 788.0, 790.0, 791.0, 790.0, 789.0, 789.0, 789.0, 790.0, 790.0, 791.0, 791.0, 790.0, 789.0, 790.0, 790.0, 790.0, 792.0, 791.0, 791.0, 790.0, 791.0, 792.0, 792.0, 791.0, 789.0, 788.0, 788.0, 790.0, 790.0, 790.0, 790.0, 789.0, 789.0, 789.0, 789.0, 788.0, 790.0, 793.0, 794.0, 793.0, 790.0, 789.0, 788.0, 788.0, 788.0, 789.0, 790.0, 790.0, 790.0, 790.0, 790.0, 790.0, 790.0, 789.0, 790.0, 790.0, 791.0, 791.0, 791.0, 790.0, 789.0, 789.0, 788.0, 788.0, 788.0, 787.0, 787.0, 788.0, 790.0, 791.0, 791.0, 789.0, 788.0, 789.0, 788.0, 789.0, 789.0, 790.0, 789.0, 791.0, 793.0, 792.0, 791.0, 790.0, 790.0, 791.0, 791.0, 790.0, 789.0, 788.0, 789.0, 790.0, 791.0, 791.0, 791.0, 791.0, 790.0, 790.0, 789.0, 789.0, 789.0, 789.0, 790.0, 791.0, 793.0, 793.0, 791.0, 788.0, 788.0, 787.0, 787.0, 787.0, 790.0, 792.0, 792.0, 790.0, 788.0, 788.0, 788.0, 788.0, 790.0, 790.0, 789.0, 789.0, 789.0, 789.0, 789.0, 788.0, 788.0, 788.0, 790.0, 790.0, 790.0, 788.0, 788.0, 788.0, 788.0, 789.0, 789.0, 790.0, 791.0, 791.0, 792.0, 791.0, 791.0, 790.0, 789.0, 788.0, 788.0, 788.0, 790.0, 791.0, 791.0, 790.0, 789.0, 788.0, 788.0, 788.0, 789.0, 789.0, 789.0, 788.0, 787.0, 787.0, 790.0, 790.0, 790.0, 788.0, 787.0, 787.0, 787.0, 787.0, 787.0, 789.0, 789.0],
      "WindowWidth": [1701.0, 1700.0, 1702.0, 1701.0, 1703.0, 1705.0, 1708.0, 1706.0, 1702.0, 1701.0, 1703.0, 1707.0, 1709.0, 1708.0, 1707.0, 1706.0, 1706.0, 1706.0, 1706.0, 1706.0, 1704.0, 1705.0, 1707.0, 1709.0, 1710.0, 1709.0, 1708.0, 1708.0, 1708.0, 1710.0, 1709.0, 1707.0, 1706.0, 1706.0, 1709.0, 1715.0, 1719.0, 1718.0, 1716.0, 1716.0, 1715.0, 1713.0, 1711.0, 1711.0, 1712.0, 1714.0, 1717.0, 1719.0, 1717.0, 1712.0, 1709.0, 1711.0, 1714.0, 1714.0, 1712.0, 1709.0, 1707.0, 1706.0, 1706.0, 1706.0, 1706.0, 1710.0, 1710.0, 1708.0, 1706.0, 1706.0, 1708.0, 1710.0, 1710.0, 1713.0, 1713.0, 1712.0, 1712.0, 1712.0, 1713.0, 1712.0, 1709.0, 1706.0, 1704.0, 1705.0, 1705.0, 1706.0, 1710.0, 1713.0, 1712.0, 1708.0, 1706.0, 1707.0, 1709.0, 1711.0, 1712.0, 1712.0, 1710.0, 1708.0, 1709.0, 1710.0, 1711.0, 1715.0, 1714.0, 1712.0, 1710.0, 1713.0, 1717.0, 1715.0, 1712.0, 1708.0, 1706.0, 1705.0, 1709.0, 1711.0, 1710.0, 1709.0, 1709.0, 1707.0, 1706.0, 1706.0, 1705.0, 1711.0, 1720.0, 1721.0, 1717.0, 1711.0, 1707.0, 1705.0, 1704.0, 1705.0, 1708.0, 1709.0, 1709.0, 1711.0, 1711.0, 1711.0, 1709.0, 1709.0, 1708.0, 1709.0, 1710.0, 1713.0, 1714.0, 1712.0, 1708.0, 1707.0, 1706.0, 1705.0, 1704.0, 1703.0, 1700.0, 1702.0, 1704.0, 1710.0, 1713.0, 1713.0, 1708.0, 1705.0, 1706.0, 1704.0, 1706.0, 1708.0, 1708.0, 1708.0, 1712.0, 1717.0, 1717.0, 1712.0, 1711.0, 1711.0, 1712.0, 1711.0, 1708.0, 1707.0, 1705.0, 1705.0, 1708.0, 1712.0, 1712.0, 1713.0, 1711.0, 1711.0, 1708.0, 1707.0, 1707.0, 1708.0, 1707.0, 1709.0, 1713.0, 1718.0, 1718.0, 1712.0, 1705.0, 1702.0, 1701.0, 1701.0, 1702.0, 1710.0, 1716.0, 1715.0, 1710.0, 1705.0, 1702.0, 1703.0, 1705.0, 1708.0, 1708.0, 1707.0, 1707.0, 1707.0, 1707.0, 1706.0, 1704.0, 1703.0, 1704.0, 1709.0, 1709.0, 1709.0, 1704.0, 1704.0, 1704.0, 1705.0, 1706.0, 1706.0, 1709.0, 1711.0, 1712.0, 1715.0, 1713.0, 1712.0, 1708.0, 1707.0, 1705.0, 1703.0, 1705.0, 1709.0, 1712.0, 1713.0, 1711.0, 1707.0, 1705.0, 1705.0, 1703.0, 1706.0, 1707.0, 1707.0, 1704.0, 1700.0, 1702.0, 1708.0, 1710.0, 1708.0, 1704.0, 1700.0, 1701.0, 1700.0, 1701.0, 1702.0, 1706.0, 1708.0]
    },
    "slices": {}
  }
}