{
  "AcquisitionMatrixPE": 100,
  "AcquisitionNumber": 1,
  "AcquisitionTime": "10:21:38.935000",
  "BandwidthPerPixelPhaseEncode": 18.519,
  "BaseResolution": 100,
  "BodyPartExamined": "BRAIN",
  "ConsistencyInfo": "N4_VE11C_LATEST_20160120",
  "ConversionSoftware": "dcm2niix",
  "ConversionSoftwareVersion": "v1.0.20180622 GCC4.9.2",
  "DerivedVendorReportedEchoSpacing": 0.000539986,
  "DeviceSerialNumber": "166078",
  "DwellTime": 2.1e-06,
  "EchoTime": 0.034,
  "EchoTrainLength": 100,
  "EffectiveEchoSpacing": 0.000539986,
  "FlipAngle": 90,
  "ImageOrientationPatientDICOM": [1, 0, 0, 0, 1, 0],
  "ImageType": [
    "ORIGINAL",
    "PRIMARY",
    "M",
    "ND",
    "MOSAIC"
],
  "InPlanePhaseEncodingDirectionDICOM": "COL",
  "InstitutionAddress": "Street_StreetNo_Bei_Jing_District_CN_ZIP",
  "InstitutionName": "BeiJing_Normal_University",
  "InstitutionalDepartmentName": "Department",
  "MRAcquisitionType": "2D",
  "MagneticFieldStrength": 3,
  "Manufacturer": "Siemens",
  "ManufacturersModelName": "Prisma",
  "Modality": "MR",
  "MultibandAccelerationFactor": 3,
  "PartialFourier": 1,
  "PatientPosition": "HFS",
  "PercentPhaseFOV": 100,
  "PhaseEncodingDirection": "j-",
  "PhaseEncodingSteps": 100,
  "PhaseResolution": 1,
  "PixelBandwidth": 2380,
  "ProcedureStepDescription": "BNU_P2018_64CH_Zhen.ZongLei",
  "ProtocolName": "bold_100x100_s3_2x2x2_static_256",
  "PulseSequenceDetails": "%SiemensSeq%_ep2d_bold",
  "ReceiveCoilActiveElements": "HC1-7;NC1",
  "ReceiveCoilName": "HeadNeck_64",
  "ReconMatrixPE": 100,
  "RepetitionTime": 2,
  "SAR": 0.063856,
  "ScanOptions": "FS",
  "ScanningSequence": "EP",
  "SequenceName": "_epfid2d1_100",
  "SequenceVariant": "SK",
  "SeriesDescription": "bold_100x100_s3_2x2x2_static_256",
  "SeriesNumber": 13,
  "ShimSetting": [-5461, -11508, -1257, 359, -45, -237, -153, 30],
  "SliceThickness": 2,
  "SliceTiming": [1.4825, 0, 0.99, 0.0825, 1.0725, 0.165, 1.155, 0.2475, 1.2375, 0.33, 1.32, 0.4125, 1.4025, 0.5775, 1.565, 0.66, 1.6475, 0.7425, 1.73, 0.825, 1.8125, 0.9075, 1.895, 0.495, 1.4825, 0, 0.99, 0.0825, 1.0725, 0.165, 1.155, 0.2475, 1.2375, 0.33, 1.32, 0.4125, 1.4025, 0.5775, 1.565, 0.66, 1.6475, 0.7425, 1.73, 0.825, 1.8125, 0.9075, 1.895, 0.495, 1.4825, 0, 0.99, 0.0825, 1.0725, 0.165, 1.155, 0.2475, 1.2375, 0.33, 1.32, 0.4125, 1.4025, 0.5775, 1.565, 0.66, 1.6475, 0.7425, 1.73, 0.825, 1.8125, 0.9075, 1.895, 0.495],
  "SoftwareVersions": "syngo_MR_E11",
  "SpacingBetweenSlices": 2,
  "StationName": "AWP166078",
  "TaskName": "naturalvision",
  "TotalReadoutTime": 0.0534586,
  "TxRefAmp": 205.086,
  "dcmmeta_affine": [
    [-2.0, 0.0, 0.0, 100.67469787597656],
    [0.0, 2.0, 0.0, -90.81446075439453],
    [0.0, 0.0, 2.0, -56.33012008666992],
    [0.0, 0.0, 0.0, 1.0]
],
  "dcmmeta_reorient_transform": [
    [0.0, -1.0, 0.0, 99.0],
    [1.0, 0.0, 0.0, 0.0],
    [0.0, 0.0, 1.0, 0.0],
    [0.0, 0.0, 0.0, 1.0]
],
  "dcmmeta_shape": [100, 100, 72, 256],
  "dcmmeta_slice_dim": 2,
  "dcmmeta_version": 0.6,
  "global": {
    "const": {
      "AcquisitionMatrix": [100, 0, 0, 100],
      "AngioFlag": "N",
      "BitsAllocated": 16,
      "BitsStored": 12,
      "BodyPartExamined": "BRAIN",
      "Columns": 900,
      "EchoNumbers": 1,
      "EchoTime": 34.0,
      "EchoTrainLength": 100,
      "FlipAngle": 90.0,
      "HighBit": 11,
      "ImageOrientationPatient": [1.0, 0.0, 0.0, 0.0, 1.0, 0.0],
      "ImagePositionPatient": [-900.67469877005, -907.18554210663, -56.33012008667],
      "ImageType": [
        "ORIGINAL",
        "PRIMARY",
        "M",
        "ND",
        "MOSAIC"
],
      "ImagedNucleus": "1H",
      "ImagingFrequency": 123.257761,
      "InPlanePhaseEncodingDirection": "COL",
      "MRAcquisitionType": "2D",
      "MagneticFieldStrength": 3.0,
      "Manufacturer": "SIEMENS",
      "ManufacturerModelName": "Prisma",
      "Modality": "MR",
      "NumberOfAverages": 1.0,
      "NumberOfPhaseEncodingSteps": 100,
      "PercentPhaseFieldOfView": 100.0,
      "PercentSampling": 100.0,
      "PerformedProcedureStepStartTime": "090416.835000",
      "PhotometricInterpretation": "MONOCHROME2",
      "PixelBandwidth": 2380.0,
      "PixelRepresentation": 0,
      "PixelSpacing": [2.0, 2.0],
      "ProtocolName": "bold_100x100_s3_2x2x2_static_256",
      "RepetitionTime": 2000.0,
      "Rows": 900,
      "SAR": 0.06385601749961,
      "SamplesPerPixel": 1,
      "ScanOptions": "FS",
      "ScanningSequence": "EP",
      "SequenceName": "*epfid2d1_100",
      "SequenceVariant": "SK",
      "SeriesDescription": "bold_100x100_s3_2x2x2_static_256",
      "SeriesNumber": 13,
      "SeriesTime": "102141.268000",
      "SliceLocation": -56.33012008667,
      "SliceThickness": 2.0,
      "SmallestImagePixelValue": 0,
      "SoftwareVersions": "syngo MR E11",
      "SpacingBetweenSlices": 1.9999999462719,
      "SpecificCharacterSet": "ISO_IR 100",
      "StudyID": "1",
      "StudyTime": "090416.742000",
      "TransmitCoilName": "Body",
      "VariableFlipAngleFlag": "N",
      "WindowCenterWidthExplanation": "Algo1",
      "dBdt": 0.0},
    "slices": {}
  },
  "time": {
    "samples": {
      "AcquisitionNumber": [1, 2, 3, 4, 5, 6, 7, 8, 9, 10, 11, 12, 13, 14, 15, 16, 17, 18, 19, 20, 21, 22, 23, 24, 25, 26, 27, 28, 29, 30, 31, 32, 33, 34, 35, 36, 37, 38, 39, 40, 41, 42, 43, 44, 45, 46, 47, 48, 49, 50, 51, 52, 53, 54, 55, 56, 57, 58, 59, 60, 61, 62, 63, 64, 65, 66, 67, 68, 69, 70, 71, 72, 73, 74, 75, 76, 77, 78, 79, 80, 81, 82, 83, 84, 85, 86, 87, 88, 89, 90, 91, 92, 93, 94, 95, 96, 97, 98, 99, 100, 101, 102, 103, 104, 105, 106, 107, 108, 109, 110, 111, 112, 113, 114, 115, 116, 117, 118, 119, 120, 121, 122, 123, 124, 125, 126, 127, 128, 129, 130, 131, 132, 133, 134, 135, 136, 137, 138, 139, 140, 141, 142, 143, 144, 145, 146, 147, 148, 149, 150, 151, 152, 153, 154, 155, 156, 157, 158, 159, 160, 161, 162, 163, 164, 165, 166, 167, 168, 169, 170, 171, 172, 173, 174, 175, 176, 177, 178, 179, 180, 181, 182, 183, 184, 185, 186, 187, 188, 189, 190, 191, 192, 193, 194, 195, 196, 197, 198, 199, 200, 201, 202, 203, 204, 205, 206, 207, 208, 209, 210, 211, 212, 213, 214, 215, 216, 217, 218, 219, 220, 221, 222, 223, 224, 225, 226, 227, 228, 229, 230, 231, 232, 233, 234, 235, 236, 237, 238, 239, 240, 241, 242, 243, 244, 245, 246, 247, 248, 249, 250, 251, 252, 253, 254, 255, 256],
      "AcquisitionTime": ["102138.935000", "102140.935000", "102142.935000", "102144.935000", "102146.935000", "102148.935000", "102150.935000", "102152.935000", "102154.935000", "102156.935000", "102158.935000", "102200.935000", "102202.935000", "102204.935000", "102206.935000", "102208.935000", "102210.935000", "102212.935000", "102214.935000", "102216.935000", "102218.935000", "102220.935000", "102222.935000", "102224.935000", "102226.935000", "102228.935000", "102230.935000", "102232.935000", "102234.935000", "102236.935000", "102238.935000", "102240.935000", "102242.935000", "102244.935000", "102246.935000", "102248.935000", "102250.935000", "102252.935000", "102254.935000", "102256.935000", "102258.935000", "102300.935000", "102302.935000", "102304.935000", "102306.935000", "102308.935000", "102310.935000", "102312.935000", "102314.935000", "102316.935000", "102318.935000", "102320.935000", "102322.935000", "102324.935000", "102326.935000", "102328.935000", "102330.935000", "102332.935000", "102334.935000", "102336.935000", "102338.935000", "102340.935000", "102342.935000", "102344.935000", "102346.935000", "102348.935000", "102350.935000", "102352.935000", "102354.935000", "102356.935000", "102358.935000", "102400.935000", "102402.935000", "102404.935000", "102406.935000", "102408.935000", "102410.935000", "102412.935000", "102414.935000", "102416.935000", "102418.935000", "102420.935000", "102422.935000", "102424.935000", "102426.935000", "102428.935000", "102430.935000", "102432.935000", "102434.935000", "102436.935000", "102438.935000", "102440.935000", "102442.935000", "102444.935000", "102446.935000", "102448.935000", "102450.935000", "102452.935000", "102454.935000", "102456.935000", "102458.935000", "102500.935000", "102502.935000", "102504.935000", "102506.935000", "102508.935000", "102510.935000", "102512.935000", "102514.935000", "102516.935000", "102518.935000", "102520.935000", "102522.935000", "102524.935000", "102526.935000", "102528.935000", "102530.935000", "102532.935000", "102534.935000", "102536.935000", "102538.935000", "102540.935000", "102542.935000", "102544.935000", "102546.935000", "102548.935000", "102550.935000", "102552.935000", "102554.935000", "102556.935000", "102558.935000", "102600.935000", "102602.935000", "102604.935000", "102606.935000", "102608.935000", "102610.935000", "102612.935000", "102614.935000", "102616.935000", "102618.935000", "102620.935000", "102622.935000", "102624.935000", "102626.935000", "102628.935000", "102630.935000", "102632.935000", "102634.935000", "102636.935000", "102638.935000", "102640.935000", "102642.935000", "102644.935000", "102646.935000", "102648.935000", "102650.935000", "102652.935000", "102654.935000", "102656.935000", "102658.935000", "102700.935000", "102702.935000", "102704.935000", "102706.935000", "102708.935000", "102710.935000", "102712.935000", "102714.935000", "102716.935000", "102718.935000", "102720.935000", "102722.935000", "102724.935000", "102726.935000", "102728.935000", "102730.935000", "102732.935000", "102734.935000", "102736.935000", "102738.935000", "102740.935000", "102742.935000", "102744.935000", "102746.935000", "102748.935000", "102750.935000", "102752.935000", "102754.935000", "102756.935000", "102758.935000", "102800.935000", "102802.935000", "102804.935000", "102806.935000", "102808.935000", "102810.935000", "102812.935000", "102814.935000", "102816.935000", "102818.935000", "102820.935000", "102822.935000", "102824.935000", "102826.935000", "102828.935000", "102830.935000", "102832.935000", "102834.935000", "102836.935000", "102838.935000", "102840.935000", "102842.935000", "102844.935000", "102846.935000", "102848.935000", "102850.935000", "102852.935000", "102854.935000", "102856.935000", "102858.935000", "102900.935000", "102902.935000", "102904.935000", "102906.935000", "102908.935000", "102910.935000", "102912.935000", "102914.935000", "102916.935000", "102918.935000", "102920.935000", "102922.935000", "102924.935000", "102926.935000", "102928.935000", "102930.935000", "102932.935000", "102934.935000", "102936.935000", "102938.935000", "102940.935000", "102942.935000", "102944.935000", "102946.935000", "102948.935000", "102950.935000", "102952.935000", "102954.935000", "102956.935000", "102958.935000", "103000.935000", "103002.935000", "103004.935000", "103006.935000", "103008.935000"],
      "ContentTime": ["102141.272000", "102142.767000", "102144.767000", "102146.769000", "102148.768000", "102150.769000", "102152.768000", "102154.768000", "102156.768000", "102158.767000", "102200.767000", "102202.768000", "102205.268000", "102206.768000", "102208.769000", "102210.768000", "102212.769000", "102215.269000", "102216.767000", "102218.767000", "102220.767000", "102222.768000", "102224.768000", "102226.768000", "102228.768000", "102230.769000", "102232.768000", "102234.767000", "102236.768000", "102238.768000", "102240.768000", "102242.769000", "102244.769000", "102246.768000", "102248.768000", "102250.767000", "102252.768000", "102254.768000", "102256.769000", "102258.768000", "102300.769000", "102302.768000", "102304.768000", "102306.768000", "102308.768000", "102310.767000", "102312.767000", "102314.768000", "102316.768000", "102318.768000", "102320.768000", "102322.768000", "102324.769000", "102326.767000", "102328.767000", "102330.768000", "102332.768000", "102334.768000", "102336.769000", "102338.769000", "102340.768000", "102342.769000", "102344.767000", "102346.767000", "102348.767000", "102350.769000", "102352.769000", "102354.768000", "102356.769000", "102358.769000", "102400.768000", "102402.767000", "102404.768000", "102406.768000", "102408.768000", "102410.769000", "102412.769000", "102414.768000", "102416.768000", "102418.768000", "102420.767000", "102422.768000", "102424.768000", "102426.768000", "102428.768000", "102430.769000", "102432.769000", "102434.768000", "102436.768000", "102438.767000", "102440.767000", "102442.769000", "102444.769000", "102446.768000", "102448.768000", "102450.768000", "102452.769000", "102454.767000", "102456.768000", "102458.768000", "102500.768000", "102502.768000", "102504.769000", "102506.768000", "102508.768000", "102510.767000", "102513.267000", "102514.768000", "102516.768000", "102518.769000", "102520.768000", "102522.768000", "102524.768000", "102526.769000", "102528.767000", "102530.767000", "102532.767000", "102534.768000", "102537.269000", "102538.768000", "102540.768000", "102542.768000", "102544.769000", "102546.767000", "102548.767000", "102550.767000", "102552.769000", "102554.769000", "102556.768000", "102558.769000", "102600.769000", "102602.768000", "102604.768000", "102606.767000", "102608.768000", "102610.769000", "102612.768000", "102614.768000", "102616.769000", "102618.769000", "102620.767000", "102622.767000", "102624.767000", "102626.768000", "102628.769000", "102630.769000", "102632.768000", "102634.768000", "102636.768000", "102638.767000", "102640.767000", "102642.767000", "102644.769000", "102646.769000", "102648.769000", "102650.769000", "102652.769000", "102654.768000", "102656.768000", "102658.767000", "102700.768000", "102702.768000", "102704.768000", "102706.768000", "102708.769000", "102710.769000", "102712.768000", "102714.768000", "102716.767000", "102718.769000", "102721.268000", "102722.769000", "102725.269000", "102726.769000", "102728.768000", "102731.268000", "102733.268000", "102734.767000", "102736.769000", "102738.768000", "102741.268000", "102742.769000", "102744.769000", "102746.769000", "102748.768000", "102750.768000", "102752.768000", "102754.768000", "102756.768000", "102758.769000", "102800.768000", "102803.268000", "102804.769000", "102806.768000", "102808.767000", "102810.767000", "102812.768000", "102814.768000", "102816.769000", "102818.769000", "102820.768000", "102822.768000", "102824.767000", "102826.767000", "102828.768000", "102830.769000", "102832.769000", "102834.769000", "102836.768000", "102838.768000", "102840.767000", "102842.768000", "102844.768000", "102846.768000", "102849.269000", "102850.768000", "102852.768000", "102854.768000", "102856.769000", "102858.768000", "102901.268000", "102902.767000", "102904.769000", "102906.769000", "102908.769000", "102910.769000", "102912.769000", "102914.769000", "102916.767000", "102918.767000", "102920.767000", "102922.782000", "102924.768000", "102926.768000", "102928.768000", "102930.768000", "102932.767000", "102934.767000", "102936.767000", "102938.769000", "102940.769000", "102942.769000", "102944.769000", "102946.769000", "102948.768000", "102950.768000", "102952.768000", "102954.767000", "102956.769000", "102958.769000", "103000.769000", "103002.769000", "103004.768000", "103006.769000", "103008.767000", "103010.656000"],
      "InstanceCreationTime": ["102141.272000", "102142.767000", "102144.767000", "102146.769000", "102148.768000", "102150.769000", "102152.768000", "102154.768000", "102156.768000", "102158.767000", "102200.767000", "102202.768000", "102205.268000", "102206.768000", "102208.769000", "102210.768000", "102212.769000", "102215.269000", "102216.767000", "102218.767000", "102220.767000", "102222.768000", "102224.768000", "102226.768000", "102228.768000", "102230.769000", "102232.768000", "102234.767000", "102236.768000", "102238.768000", "102240.768000", "102242.769000", "102244.769000", "102246.768000", "102248.768000", "102250.767000", "102252.768000", "102254.768000", "102256.769000", "102258.768000", "102300.769000", "102302.768000", "102304.768000", "102306.768000", "102308.768000", "102310.767000", "102312.767000", "102314.768000", "102316.768000", "102318.768000", "102320.768000", "102322.768000", "102324.769000", "102326.767000", "102328.767000", "102330.768000", "102332.768000", "102334.768000", "102336.769000", "102338.769000", "102340.768000", "102342.769000", "102344.767000", "102346.767000", "102348.767000", "102350.769000", "102352.769000", "102354.768000", "102356.769000", "102358.769000", "102400.768000", "102402.767000", "102404.768000", "102406.768000", "102408.768000", "102410.769000", "102412.769000", "102414.768000", "102416.768000", "102418.768000", "102420.767000", "102422.768000", "102424.768000", "102426.768000", "102428.768000", "102430.769000", "102432.769000", "102434.768000", "102436.768000", "102438.767000", "102440.767000", "102442.769000", "102444.769000", "102446.768000", "102448.768000", "102450.768000", "102452.769000", "102454.767000", "102456.768000", "102458.768000", "102500.768000", "102502.768000", "102504.769000", "102506.768000", "102508.768000", "102510.767000", "102513.267000", "102514.768000", "102516.768000", "102518.769000", "102520.768000", "102522.768000", "102524.768000", "102526.769000", "102528.767000", "102530.767000", "102532.767000", "102534.768000", "102537.269000", "102538.768000", "102540.768000", "102542.768000", "102544.769000", "102546.767000", "102548.767000", "102550.767000", "102552.769000", "102554.769000", "102556.768000", "102558.769000", "102600.769000", "102602.768000", "102604.768000", "102606.767000", "102608.768000", "102610.769000", "102612.768000", "102614.768000", "102616.769000", "102618.769000", "102620.767000", "102622.767000", "102624.767000", "102626.768000", "102628.769000", "102630.769000", "102632.768000", "102634.768000", "102636.768000", "102638.767000", "102640.767000", "102642.767000", "102644.769000", "102646.769000", "102648.769000", "102650.769000", "102652.769000", "102654.768000", "102656.768000", "102658.767000", "102700.768000", "102702.768000", "102704.768000", "102706.768000", "102708.769000", "102710.769000", "102712.768000", "102714.768000", "102716.767000", "102718.769000", "102721.268000", "102722.769000", "102725.269000", "102726.769000", "102728.768000", "102731.268000", "102733.268000", "102734.767000", "102736.769000", "102738.768000", "102741.268000", "102742.769000", "102744.769000", "102746.769000", "102748.768000", "102750.768000", "102752.768000", "102754.768000", "102756.768000", "102758.769000", "102800.768000", "102803.268000", "102804.769000", "102806.768000", "102808.767000", "102810.767000", "102812.768000", "102814.768000", "102816.769000", "102818.769000", "102820.768000", "102822.768000", "102824.767000", "102826.767000", "102828.768000", "102830.769000", "102832.769000", "102834.769000", "102836.768000", "102838.768000", "102840.767000", "102842.768000", "102844.768000", "102846.768000", "102849.269000", "102850.768000", "102852.768000", "102854.768000", "102856.769000", "102858.768000", "102901.268000", "102902.767000", "102904.769000", "102906.769000", "102908.769000", "102910.769000", "102912.769000", "102914.769000", "102916.767000", "102918.767000", "102920.767000", "102922.782000", "102924.768000", "102926.768000", "102928.768000", "102930.768000", "102932.767000", "102934.767000", "102936.767000", "102938.769000", "102940.769000", "102942.769000", "102944.769000", "102946.769000", "102948.768000", "102950.768000", "102952.768000", "102954.767000", "102956.769000", "102958.769000", "103000.769000", "103002.769000", "103004.768000", "103006.769000", "103008.767000", "103010.656000"],
      "InstanceNumber": [1, 2, 3, 4, 5, 6, 7, 8, 9, 10, 11, 12, 13, 14, 15, 16, 17, 18, 19, 20, 21, 22, 23, 24, 25, 26, 27, 28, 29, 30, 31, 32, 33, 34, 35, 36, 37, 38, 39, 40, 41, 42, 43, 44, 45, 46, 47, 48, 49, 50, 51, 52, 53, 54, 55, 56, 57, 58, 59, 60, 61, 62, 63, 64, 65, 66, 67, 68, 69, 70, 71, 72, 73, 74, 75, 76, 77, 78, 79, 80, 81, 82, 83, 84, 85, 86, 87, 88, 89, 90, 91, 92, 93, 94, 95, 96, 97, 98, 99, 100, 101, 102, 103, 104, 105, 106, 107, 108, 109, 110, 111, 112, 113, 114, 115, 116, 117, 118, 119, 120, 121, 122, 123, 124, 125, 126, 127, 128, 129, 130, 131, 132, 133, 134, 135, 136, 137, 138, 139, 140, 141, 142, 143, 144, 145, 146, 147, 148, 149, 150, 151, 152, 153, 154, 155, 156, 157, 158, 159, 160, 161, 162, 163, 164, 165, 166, 167, 168, 169, 170, 171, 172, 173, 174, 175, 176, 177, 178, 179, 180, 181, 182, 183, 184, 185, 186, 187, 188, 189, 190, 191, 192, 193, 194, 195, 196, 197, 198, 199, 200, 201, 202, 203, 204, 205, 206, 207, 208, 209, 210, 211, 212, 213, 214, 215, 216, 217, 218, 219, 220, 221, 222, 223, 224, 225, 226, 227, 228, 229, 230, 231, 232, 233, 234, 235, 236, 237, 238, 239, 240, 241, 242, 243, 244, 245, 246, 247, 248, 249, 250, 251, 252, 253, 254, 255, 256],
      "LargestImagePixelValue": [3329, 3270, 3244, 3258, 3282, 3251, 3261, 3314, 3292, 3270, 3218, 3336, 3279, 3273, 3241, 3260, 3251, 3272, 3268, 3248, 3274, 3293, 3269, 3234, 3261, 3243, 3287, 3267, 3284, 3264, 3265, 3217, 3260, 3281, 3301, 3263, 3252, 3257, 3257, 3265, 3271, 3303, 3325, 3245, 3340, 3241, 3293, 3271, 3279, 3295, 3246, 3273, 3306, 3255, 3245, 3236, 3254, 3278, 3274, 3425, 3312, 3350, 3362, 3321, 3277, 3287, 3341, 3294, 3341, 3316, 3394, 3287, 3313, 3370, 3292, 3302, 3275, 3306, 3289, 3273, 3306, 3297, 3285, 3295, 3307, 3361, 3327, 3329, 3309, 3284, 3302, 3339, 3295, 3322, 3345, 3309, 3361, 3351, 3322, 3355, 3292, 3312, 3319, 3351, 3269, 3341, 3305, 3345, 3308, 3355, 3320, 3313, 3277, 3313, 3299, 3271, 3313, 3299, 3280, 3312, 3320, 3303, 3260, 3288, 3303, 3321, 3269, 3380, 3335, 3284, 3296, 3302, 3257, 3291, 3318, 3342, 3249, 3254, 3277, 3319, 3342, 3262, 3251, 3257, 3268, 3261, 3283, 3257, 3298, 3252, 3271, 3276, 3275, 3239, 3250, 3237, 3252, 3333, 3386, 3327, 3299, 3302, 3259, 3268, 3228, 3251, 3265, 3258, 3260, 3249, 3286, 3318, 3296, 3300, 3243, 3290, 3326, 3379, 3304, 3312, 3267, 3316, 3260, 3308, 3314, 3262, 3251, 3264, 3287, 3285, 3279, 3282, 3442, 3313, 3301, 3289, 3257, 3194, 3275, 3259, 3254, 3267, 3234, 3285, 3322, 3311, 3308, 3259, 3262, 3309, 3330, 3264, 3303, 3300, 3302, 3361, 3365, 3274, 3282, 3303, 3265, 3262, 3256, 3261, 3294, 3307, 3287, 3272, 3263, 3327, 3304, 3311, 3315, 3302, 3290, 3285, 3241, 3311, 3278, 3298, 3289, 3296, 3288, 3298, 3230, 3312, 3317, 3347, 3315, 3267, 3280, 3345, 3309, 3303, 3308, 3306],
      "WindowCenter": [780.0, 779.0, 780.0, 780.0, 779.0, 779.0, 779.0, 780.0, 780.0, 780.0, 781.0, 783.0, 783.0, 782.0, 781.0, 781.0, 781.0, 781.0, 780.0, 780.0, 780.0, 780.0, 780.0, 780.0, 780.0, 780.0, 780.0, 781.0, 782.0, 782.0, 781.0, 780.0, 780.0, 781.0, 782.0, 782.0, 783.0, 784.0, 784.0, 784.0, 783.0, 782.0, 782.0, 781.0, 782.0, 782.0, 784.0, 785.0, 785.0, 784.0, 783.0, 784.0, 784.0, 784.0, 785.0, 784.0, 784.0, 784.0, 786.0, 789.0, 789.0, 788.0, 786.0, 784.0, 784.0, 784.0, 784.0, 785.0, 785.0, 785.0, 785.0, 784.0, 785.0, 786.0, 786.0, 787.0, 787.0, 787.0, 786.0, 786.0, 786.0, 786.0, 787.0, 788.0, 788.0, 787.0, 786.0, 786.0, 786.0, 787.0, 787.0, 786.0, 785.0, 784.0, 784.0, 784.0, 786.0, 786.0, 786.0, 786.0, 786.0, 787.0, 787.0, 787.0, 786.0, 787.0, 786.0, 786.0, 786.0, 786.0, 785.0, 785.0, 784.0, 785.0, 785.0, 786.0, 786.0, 786.0, 786.0, 786.0, 787.0, 787.0, 787.0, 787.0, 787.0, 787.0, 785.0, 786.0, 785.0, 785.0, 784.0, 783.0, 781.0, 781.0, 782.0, 782.0, 783.0, 785.0, 786.0, 786.0, 785.0, 784.0, 784.0, 784.0, 784.0, 784.0, 785.0, 785.0, 785.0, 785.0, 785.0, 785.0, 785.0, 784.0, 784.0, 785.0, 787.0, 791.0, 791.0, 789.0, 787.0, 786.0, 785.0, 784.0, 783.0, 783.0, 784.0, 785.0, 786.0, 786.0, 786.0, 785.0, 785.0, 785.0, 785.0, 789.0, 791.0, 791.0, 790.0, 788.0, 787.0, 786.0, 785.0, 784.0, 784.0, 784.0, 784.0, 784.0, 784.0, 784.0, 785.0, 784.0, 785.0, 785.0, 784.0, 781.0, 778.0, 777.0, 778.0, 778.0, 778.0, 779.0, 780.0, 781.0, 781.0, 783.0, 783.0, 784.0, 785.0, 784.0, 784.0, 782.0, 782.0, 783.0, 784.0, 784.0, 784.0, 783.0, 786.0, 787.0, 787.0, 786.0, 784.0, 784.0, 784.0, 783.0, 783.0, 787.0, 789.0, 788.0, 786.0, 784.0, 784.0, 784.0, 784.0, 784.0, 783.0, 784.0, 785.0, 786.0, 785.0, 785.0, 786.0, 786.0, 786.0, 786.0, 786.0, 785.0, 786.0, 789.0, 790.0, 790.0, 787.0, 785.0, 785.0, 784.0],
      "WindowWidth": [1683.0, 1681.0, 1682.0, 1683.0, 1681.0, 1679.0, 1680.0, 1682.0, 1683.0, 1684.0, 1684.0, 1690.0, 1690.0, 1689.0, 1686.0, 1686.0, 1685.0, 1685.0, 1683.0, 1683.0, 1683.0, 1682.0, 1682.0, 1682.0, 1683.0, 1683.0, 1683.0, 1686.0, 1689.0, 1688.0, 1685.0, 1683.0, 1684.0, 1685.0, 1688.0, 1689.0, 1690.0, 1694.0, 1694.0, 1693.0, 1690.0, 1687.0, 1687.0, 1685.0, 1688.0, 1688.0, 1693.0, 1696.0, 1696.0, 1694.0, 1692.0, 1694.0, 1694.0, 1694.0, 1694.0, 1693.0, 1693.0, 1694.0, 1699.0, 1708.0, 1706.0, 1703.0, 1699.0, 1694.0, 1692.0, 1693.0, 1694.0, 1695.0, 1696.0, 1695.0, 1696.0, 1694.0, 1696.0, 1698.0, 1698.0, 1700.0, 1701.0, 1701.0, 1699.0, 1698.0, 1697.0, 1698.0, 1701.0, 1704.0, 1703.0, 1702.0, 1699.0, 1698.0, 1699.0, 1700.0, 1700.0, 1699.0, 1695.0, 1693.0, 1692.0, 1693.0, 1697.0, 1699.0, 1698.0, 1698.0, 1697.0, 1700.0, 1702.0, 1701.0, 1699.0, 1700.0, 1699.0, 1699.0, 1697.0, 1698.0, 1696.0, 1695.0, 1693.0, 1694.0, 1695.0, 1696.0, 1698.0, 1698.0, 1697.0, 1698.0, 1700.0, 1700.0, 1699.0, 1701.0, 1701.0, 1700.0, 1696.0, 1698.0, 1696.0, 1694.0, 1693.0, 1690.0, 1685.0, 1685.0, 1686.0, 1687.0, 1689.0, 1696.0, 1699.0, 1698.0, 1696.0, 1693.0, 1692.0, 1692.0, 1691.0, 1693.0, 1695.0, 1695.0, 1695.0, 1694.0, 1693.0, 1694.0, 1694.0, 1693.0, 1693.0, 1694.0, 1701.0, 1710.0, 1712.0, 1707.0, 1701.0, 1697.0, 1694.0, 1691.0, 1689.0, 1690.0, 1693.0, 1696.0, 1696.0, 1696.0, 1697.0, 1696.0, 1694.0, 1694.0, 1695.0, 1706.0, 1711.0, 1712.0, 1708.0, 1703.0, 1700.0, 1698.0, 1694.0, 1693.0, 1692.0, 1691.0, 1691.0, 1693.0, 1692.0, 1692.0, 1693.0, 1691.0, 1696.0, 1695.0, 1692.0, 1685.0, 1677.0, 1674.0, 1676.0, 1676.0, 1675.0, 1678.0, 1681.0, 1683.0, 1685.0, 1688.0, 1690.0, 1693.0, 1694.0, 1693.0, 1691.0, 1687.0, 1687.0, 1690.0, 1691.0, 1693.0, 1692.0, 1690.0, 1697.0, 1700.0, 1698.0, 1696.0, 1692.0, 1692.0, 1691.0, 1690.0, 1690.0, 1699.0, 1704.0, 1703.0, 1697.0, 1692.0, 1692.0, 1692.0, 1692.0, 1691.0, 1690.0, 1693.0, 1695.0, 1696.0, 1695.0, 1695.0, 1697.0, 1698.0, 1697.0, 1697.0, 1696.0, 1695.0, 1698.0, 1704.0, 1709.0, 1708.0, 1701.0, 1696.0, 1694.0, 1692.0]
    },
    "slices": {}
  }
}