{
 "AcquisitionMatrixPE": 100,
 "AcquisitionNumber": 1,
 "AcquisitionTime": "12:46:3.602500",
 "BandwidthPerPixelPhaseEncode": 18.519,
 "BaseResolution": 100,
 "BodyPartExamined": "BRAIN",
 "ConsistencyInfo": "N4_VE11C_LATEST_20160120",
 "ConversionSoftware": "dcm2niix",
 "ConversionSoftwareVersion": "v1.0.20180622 GCC4.9.2",
 "DerivedVendorReportedEchoSpacing": 0.000539986,
 "DeviceSerialNumber": "166078",
 "DwellTime": 2.1e-06,
 "EchoTime": 0.034,
 "EchoTrainLength": 100,
 "EffectiveEchoSpacing": 0.000539986,
 "FlipAngle": 90,
 "ImageOrientationPatientDICOM": [
  1,
  0,
  0,
  0,
  0.971134,
  -0.238533
 ],
 "ImageType": [
  "ORIGINAL",
  "PRIMARY",
  "M",
  "ND",
  "MOSAIC"
 ],
 "InPlanePhaseEncodingDirectionDICOM": "COL",
 "InstitutionAddress": "Street_StreetNo_Bei_Jing_District_CN_ZIP",
 "InstitutionName": "BeiJing_Normal_University",
 "InstitutionalDepartmentName": "Department",
 "MRAcquisitionType": "2D",
 "MagneticFieldStrength": 3,
 "Manufacturer": "Siemens",
 "ManufacturersModelName": "Prisma",
 "Modality": "MR",
 "MultibandAccelerationFactor": 3,
 "PartialFourier": 1,
 "PatientPosition": "HFS",
 "PercentPhaseFOV": 100,
 "PhaseEncodingDirection": "j-",
 "PhaseEncodingSteps": 100,
 "PhaseResolution": 1,
 "PixelBandwidth": 2380,
 "ProcedureStepDescription": "BNU_P2018_64CH_Zhen.ZongLei",
 "ProtocolName": "bold_100x100_s3_2x2x2_static_256",
 "PulseSequenceDetails": "%SiemensSeq%_ep2d_bold",
 "ReceiveCoilActiveElements": "HC1-7;NC1",
 "ReceiveCoilName": "HeadNeck_64",
 "ReconMatrixPE": 100,
 "RepetitionTime": 2,
 "SAR": 0.0791928,
 "ScanOptions": "FS",
 "ScanningSequence": "EP",
 "SequenceName": "_epfid2d1_100",
 "SequenceVariant": "SK",
 "SeriesDescription": "bold_100x100_s3_2x2x2_static_256",
 "SeriesNumber": 14,
 "ShimSetting": [
  -5469,
  -11479,
  -1225,
  278,
  -34,
  -346,
  -158,
  82
 ],
 "SliceThickness": 2,
 "SliceTiming": [
  1.485,
  0,
  0.99,
  0.0825,
  1.0725,
  0.165,
  1.155,
  0.2475,
  1.2375,
  0.33,
  1.32,
  0.4125,
  1.4025,
  0.5775,
  1.5675,
  0.66,
  1.65,
  0.7425,
  1.7325,
  0.825,
  1.815,
  0.9075,
  1.8975,
  0.495,
  1.485,
  0,
  0.99,
  0.0825,
  1.0725,
  0.165,
  1.155,
  0.2475,
  1.2375,
  0.33,
  1.32,
  0.4125,
  1.4025,
  0.5775,
  1.5675,
  0.66,
  1.65,
  0.7425,
  1.7325,
  0.825,
  1.815,
  0.9075,
  1.8975,
  0.495,
  1.485,
  0,
  0.99,
  0.0825,
  1.0725,
  0.165,
  1.155,
  0.2475,
  1.2375,
  0.33,
  1.32,
  0.4125,
  1.4025,
  0.5775,
  1.5675,
  0.66,
  1.65,
  0.7425,
  1.7325,
  0.825,
  1.815,
  0.9075,
  1.8975,
  0.495
 ],
 "SoftwareVersions": "syngo_MR_E11",
 "SpacingBetweenSlices": 2,
 "StationName": "AWP166078",
 "TaskName": "imagenet",
 "TotalReadoutTime": 0.0534586,
 "TxRefAmp": 230.166,
 "dcmmeta_affine": [
  [
   -2.0,
   0.0,
   0.0,
   102.03389739990234
  ],
  [
   0.0,
   1.9422686100006104,
   -0.4770669639110565,
   -72.98104858398438
  ],
  [
   0.0,
   0.47706693410873413,
   1.9422686100006104,
   -80.8013916015625
  ],
  [
   0.0,
   0.0,
   0.0,
   1.0
  ]
 ],
 "dcmmeta_reorient_transform": [
  [
   0.0,
   -1.0,
   0.0,
   99.0
  ],
  [
   1.0,
   0.0,
   0.0,
   0.0
  ],
  [
   0.0,
   0.0,
   1.0,
   0.0
  ],
  [
   0.0,
   0.0,
   0.0,
   1.0
  ]
 ],
 "dcmmeta_shape": [
  100,
  100,
  72,
  256
 ],
 "dcmmeta_slice_dim": 2,
 "dcmmeta_version": 0.6,
 "global": {
  "const": {
   "AcquisitionMatrix": [
    100,
    0,
    0,
    100
   ],
   "AngioFlag": "N",
   "BitsAllocated": 16,
   "BitsStored": 12,
   "BodyPartExamined": "BRAIN",
   "Columns": 900,
   "EchoNumbers": 1,
   "EchoTime": 34.0,
   "EchoTrainLength": 100,
   "FlipAngle": 90.0,
   "HighBit": 11,
   "ImageOrientationPatient": [
    1.0,
    0.0,
    0.0,
    0.0,
    0.97113427618897,
    -0.2385334727264
   ],
   "ImagePositionPatient": [
    -902.03389835358,
    -896.2109616377,
    157.25501559049
   ],
   "ImageType": [
    "ORIGINAL",
    "PRIMARY",
    "M",
    "ND",
    "MOSAIC"
   ],
   "ImagedNucleus": "1H",
   "ImagingFrequency": 123.257733,
   "InPlanePhaseEncodingDirection": "COL",
   "MRAcquisitionType": "2D",
   "MagneticFieldStrength": 3.0,
   "Manufacturer": "SIEMENS",
   "ManufacturerModelName": "Prisma",
   "Modality": "MR",
   "NumberOfAverages": 1.0,
   "NumberOfPhaseEncodingSteps": 100,
   "PercentPhaseFieldOfView": 100.0,
   "PercentSampling": 100.0,
   "PerformedProcedureStepStartTime": "111206.127000",
   "PhotometricInterpretation": "MONOCHROME2",
   "PixelBandwidth": 2380.0,
   "PixelRepresentation": 0,
   "PixelSpacing": [
    2.0,
    2.0
   ],
   "ProtocolName": "bold_100x100_s3_2x2x2_static_256",
   "RepetitionTime": 2000.0,
   "Rows": 900,
   "SAR": 0.07919283649308,
   "SamplesPerPixel": 1,
   "ScanOptions": "FS",
   "ScanningSequence": "EP",
   "SequenceName": "*epfid2d1_100",
   "SequenceVariant": "SK",
   "SeriesDescription": "bold_100x100_s3_2x2x2_static_256",
   "SeriesNumber": 14,
   "SeriesTime": "124606.384000",
   "SliceLocation": -61.060577232363,
   "SliceThickness": 2.0,
   "SmallestImagePixelValue": 0,
   "SoftwareVersions": "syngo MR E11",
   "SpacingBetweenSlices": 2.0000000254196,
   "SpecificCharacterSet": "ISO_IR 100",
   "StudyID": "1",
   "StudyTime": "111206.067000",
   "TransmitCoilName": "Body",
   "VariableFlipAngleFlag": "N",
   "WindowCenterWidthExplanation": "Algo1",
   "dBdt": 0.0
  },
  "slices": {}
 },
 "time": {
  "samples": {
   "AcquisitionNumber": [
    1,
    2,
    3,
    4,
    5,
    6,
    7,
    8,
    9,
    10,
    11,
    12,
    13,
    14,
    15,
    16,
    17,
    18,
    19,
    20,
    21,
    22,
    23,
    24,
    25,
    26,
    27,
    28,
    29,
    30,
    31,
    32,
    33,
    34,
    35,
    36,
    37,
    38,
    39,
    40,
    41,
    42,
    43,
    44,
    45,
    46,
    47,
    48,
    49,
    50,
    51,
    52,
    53,
    54,
    55,
    56,
    57,
    58,
    59,
    60,
    61,
    62,
    63,
    64,
    65,
    66,
    67,
    68,
    69,
    70,
    71,
    72,
    73,
    74,
    75,
    76,
    77,
    78,
    79,
    80,
    81,
    82,
    83,
    84,
    85,
    86,
    87,
    88,
    89,
    90,
    91,
    92,
    93,
    94,
    95,
    96,
    97,
    98,
    99,
    100,
    101,
    102,
    103,
    104,
    105,
    106,
    107,
    108,
    109,
    110,
    111,
    112,
    113,
    114,
    115,
    116,
    117,
    118,
    119,
    120,
    121,
    122,
    123,
    124,
    125,
    126,
    127,
    128,
    129,
    130,
    131,
    132,
    133,
    134,
    135,
    136,
    137,
    138,
    139,
    140,
    141,
    142,
    143,
    144,
    145,
    146,
    147,
    148,
    149,
    150,
    151,
    152,
    153,
    154,
    155,
    156,
    157,
    158,
    159,
    160,
    161,
    162,
    163,
    164,
    165,
    166,
    167,
    168,
    169,
    170,
    171,
    172,
    173,
    174,
    175,
    176,
    177,
    178,
    179,
    180,
    181,
    182,
    183,
    184,
    185,
    186,
    187,
    188,
    189,
    190,
    191,
    192,
    193,
    194,
    195,
    196,
    197,
    198,
    199,
    200,
    201,
    202,
    203,
    204,
    205,
    206,
    207,
    208,
    209,
    210,
    211,
    212,
    213,
    214,
    215,
    216,
    217,
    218,
    219,
    220,
    221,
    222,
    223,
    224,
    225,
    226,
    227,
    228,
    229,
    230,
    231,
    232,
    233,
    234,
    235,
    236,
    237,
    238,
    239,
    240,
    241,
    242,
    243,
    244,
    245,
    246,
    247,
    248,
    249,
    250,
    251,
    252,
    253,
    254,
    255,
    256
   ],
   "AcquisitionTime": [
    "124603.602500",
    "124605.602500",
    "124607.602500",
    "124609.602500",
    "124611.602500",
    "124613.602500",
    "124615.602500",
    "124617.602500",
    "124619.602500",
    "124621.602500",
    "124623.602500",
    "124625.602500",
    "124627.602500",
    "124629.602500",
    "124631.602500",
    "124633.602500",
    "124635.602500",
    "124637.602500",
    "124639.602500",
    "124641.602500",
    "124643.602500",
    "124645.602500",
    "124647.602500",
    "124649.602500",
    "124651.602500",
    "124653.602500",
    "124655.602500",
    "124657.602500",
    "124659.602500",
    "124701.602500",
    "124703.602500",
    "124705.602500",
    "124707.602500",
    "124709.602500",
    "124711.602500",
    "124713.602500",
    "124715.602500",
    "124717.602500",
    "124719.602500",
    "124721.602500",
    "124723.602500",
    "124725.602500",
    "124727.602500",
    "124729.602500",
    "124731.602500",
    "124733.602500",
    "124735.602500",
    "124737.602500",
    "124739.602500",
    "124741.602500",
    "124743.602500",
    "124745.602500",
    "124747.602500",
    "124749.602500",
    "124751.602500",
    "124753.602500",
    "124755.602500",
    "124757.602500",
    "124759.602500",
    "124801.602500",
    "124803.602500",
    "124805.602500",
    "124807.602500",
    "124809.602500",
    "124811.602500",
    "124813.602500",
    "124815.602500",
    "124817.602500",
    "124819.602500",
    "124821.602500",
    "124823.602500",
    "124825.602500",
    "124827.602500",
    "124829.602500",
    "124831.602500",
    "124833.602500",
    "124835.602500",
    "124837.602500",
    "124839.602500",
    "124841.602500",
    "124843.602500",
    "124845.602500",
    "124847.602500",
    "124849.602500",
    "124851.602500",
    "124853.602500",
    "124855.602500",
    "124857.602500",
    "124859.602500",
    "124901.602500",
    "124903.602500",
    "124905.602500",
    "124907.602500",
    "124909.602500",
    "124911.602500",
    "124913.602500",
    "124915.602500",
    "124917.602500",
    "124919.602500",
    "124921.602500",
    "124923.602500",
    "124925.602500",
    "124927.602500",
    "124929.602500",
    "124931.602500",
    "124933.602500",
    "124935.602500",
    "124937.602500",
    "124939.602500",
    "124941.602500",
    "124943.602500",
    "124945.602500",
    "124947.602500",
    "124949.602500",
    "124951.602500",
    "124953.602500",
    "124955.602500",
    "124957.602500",
    "124959.602500",
    "125001.602500",
    "125003.602500",
    "125005.602500",
    "125007.602500",
    "125009.602500",
    "125011.602500",
    "125013.602500",
    "125015.602500",
    "125017.602500",
    "125019.602500",
    "125021.602500",
    "125023.602500",
    "125025.602500",
    "125027.602500",
    "125029.602500",
    "125031.602500",
    "125033.602500",
    "125035.602500",
    "125037.602500",
    "125039.602500",
    "125041.602500",
    "125043.602500",
    "125045.602500",
    "125047.602500",
    "125049.602500",
    "125051.602500",
    "125053.602500",
    "125055.602500",
    "125057.602500",
    "125059.602500",
    "125101.602500",
    "125103.602500",
    "125105.602500",
    "125107.602500",
    "125109.602500",
    "125111.602500",
    "125113.602500",
    "125115.602500",
    "125117.602500",
    "125119.602500",
    "125121.602500",
    "125123.602500",
    "125125.602500",
    "125127.602500",
    "125129.602500",
    "125131.602500",
    "125133.602500",
    "125135.602500",
    "125137.602500",
    "125139.602500",
    "125141.602500",
    "125143.602500",
    "125145.602500",
    "125147.602500",
    "125149.602500",
    "125151.602500",
    "125153.602500",
    "125155.602500",
    "125157.602500",
    "125159.602500",
    "125201.602500",
    "125203.602500",
    "125205.602500",
    "125207.602500",
    "125209.602500",
    "125211.602500",
    "125213.602500",
    "125215.602500",
    "125217.602500",
    "125219.602500",
    "125221.602500",
    "125223.602500",
    "125225.602500",
    "125227.602500",
    "125229.602500",
    "125231.602500",
    "125233.602500",
    "125235.602500",
    "125237.602500",
    "125239.602500",
    "125241.602500",
    "125243.602500",
    "125245.602500",
    "125247.602500",
    "125249.602500",
    "125251.602500",
    "125253.602500",
    "125255.602500",
    "125257.602500",
    "125259.602500",
    "125301.602500",
    "125303.602500",
    "125305.602500",
    "125307.602500",
    "125309.602500",
    "125311.602500",
    "125313.602500",
    "125315.602500",
    "125317.602500",
    "125319.602500",
    "125321.602500",
    "125323.602500",
    "125325.602500",
    "125327.602500",
    "125329.602500",
    "125331.602500",
    "125333.602500",
    "125335.602500",
    "125337.602500",
    "125339.602500",
    "125341.602500",
    "125343.602500",
    "125345.602500",
    "125347.602500",
    "125349.602500",
    "125351.602500",
    "125353.602500",
    "125355.602500",
    "125357.602500",
    "125359.602500",
    "125401.602500",
    "125403.602500",
    "125405.602500",
    "125407.602500",
    "125409.602500",
    "125411.602500",
    "125413.602500",
    "125415.602500",
    "125417.602500",
    "125419.602500",
    "125421.602500",
    "125423.602500",
    "125425.602500",
    "125427.602500",
    "125429.602500",
    "125431.602500",
    "125433.602500"
   ],
   "ContentTime": [
    "124606.390000",
    "124607.883000",
    "124609.883000",
    "124611.883000",
    "124613.883000",
    "124615.884000",
    "124617.883000",
    "124619.883000",
    "124621.883000",
    "124623.883000",
    "124625.883000",
    "124627.883000",
    "124629.883000",
    "124631.883000",
    "124633.883000",
    "124635.882000",
    "124637.883000",
    "124639.883000",
    "124641.883000",
    "124643.884000",
    "124645.883000",
    "124647.884000",
    "124649.883000",
    "124651.883000",
    "124653.883000",
    "124655.884000",
    "124657.884000",
    "124659.883000",
    "124701.883000",
    "124703.884000",
    "124705.883000",
    "124707.884000",
    "124709.882000",
    "124711.884000",
    "124713.883000",
    "124715.883000",
    "124717.883000",
    "124719.884000",
    "124721.884000",
    "124723.884000",
    "124725.883000",
    "124727.883000",
    "124729.884000",
    "124731.883000",
    "124733.884000",
    "124735.883000",
    "124737.883000",
    "124739.884000",
    "124741.884000",
    "124743.882000",
    "124745.883000",
    "124747.883000",
    "124749.884000",
    "124751.884000",
    "124753.883000",
    "124755.884000",
    "124757.884000",
    "124759.884000",
    "124801.882000",
    "124803.883000",
    "124805.883000",
    "124807.884000",
    "124809.884000",
    "124811.884000",
    "124813.883000",
    "124815.884000",
    "124817.884000",
    "124819.882000",
    "124821.884000",
    "124823.884000",
    "124825.883000",
    "124827.883000",
    "124829.884000",
    "124831.883000",
    "124833.884000",
    "124835.884000",
    "124837.882000",
    "124839.884000",
    "124841.884000",
    "124843.883000",
    "124845.884000",
    "124847.884000",
    "124849.884000",
    "124851.884000",
    "124853.882000",
    "124855.883000",
    "124857.884000",
    "124859.883000",
    "124901.883000",
    "124903.883000",
    "124905.884000",
    "124907.884000",
    "124909.884000",
    "124911.882000",
    "124913.882000",
    "124915.883000",
    "124917.884000",
    "124919.884000",
    "124921.883000",
    "124923.884000",
    "124925.884000",
    "124927.884000",
    "124929.882000",
    "124931.883000",
    "124933.883000",
    "124935.883000",
    "124937.884000",
    "124939.884000",
    "124941.884000",
    "124943.884000",
    "124945.883000",
    "124947.882000",
    "124949.883000",
    "124951.883000",
    "124953.883000",
    "124955.884000",
    "124957.884000",
    "124959.883000",
    "125001.884000",
    "125003.883000",
    "125005.883000",
    "125007.884000",
    "125009.884000",
    "125011.883000",
    "125013.884000",
    "125015.884000",
    "125017.883000",
    "125019.884000",
    "125021.883000",
    "125023.883000",
    "125025.884000",
    "125027.883000",
    "125029.884000",
    "125031.883000",
    "125033.883000",
    "125035.883000",
    "125037.884000",
    "125039.882000",
    "125041.883000",
    "125043.884000",
    "125045.884000",
    "125047.884000",
    "125049.884000",
    "125051.884000",
    "125053.884000",
    "125055.883000",
    "125057.882000",
    "125059.883000",
    "125101.883000",
    "125103.883000",
    "125105.883000",
    "125107.883000",
    "125109.884000",
    "125111.883000",
    "125113.883000",
    "125115.883000",
    "125117.883000",
    "125119.883000",
    "125121.883000",
    "125123.883000",
    "125125.884000",
    "125127.884000",
    "125129.883000",
    "125131.883000",
    "125133.883000",
    "125135.884000",
    "125137.883000",
    "125139.883000",
    "125141.883000",
    "125143.884000",
    "125145.884000",
    "125147.884000",
    "125149.882000",
    "125151.884000",
    "125153.884000",
    "125155.884000",
    "125157.884000",
    "125159.883000",
    "125201.884000",
    "125203.883000",
    "125205.883000",
    "125207.883000",
    "125209.883000",
    "125211.884000",
    "125213.884000",
    "125215.883000",
    "125217.883000",
    "125219.884000",
    "125221.883000",
    "125223.883000",
    "125225.883000",
    "125227.884000",
    "125229.883000",
    "125231.883000",
    "125233.883000",
    "125235.883000",
    "125237.884000",
    "125239.884000",
    "125241.882000",
    "125243.883000",
    "125245.884000",
    "125247.883000",
    "125249.884000",
    "125251.883000",
    "125253.884000",
    "125255.884000",
    "125257.884000",
    "125259.882000",
    "125301.884000",
    "125303.884000",
    "125305.884000",
    "125307.884000",
    "125309.883000",
    "125311.884000",
    "125313.884000",
    "125315.884000",
    "125317.883000",
    "125319.884000",
    "125321.884000",
    "125323.883000",
    "125325.898000",
    "125327.884000",
    "125329.883000",
    "125331.884000",
    "125333.882000",
    "125335.883000",
    "125337.884000",
    "125339.884000",
    "125341.883000",
    "125343.883000",
    "125345.884000",
    "125347.883000",
    "125349.884000",
    "125351.883000",
    "125353.883000",
    "125355.884000",
    "125357.884000",
    "125359.884000",
    "125401.883000",
    "125403.883000",
    "125405.884000",
    "125407.884000",
    "125409.882000",
    "125411.883000",
    "125413.883000",
    "125415.884000",
    "125417.884000",
    "125419.883000",
    "125421.884000",
    "125423.883000",
    "125425.883000",
    "125427.883000",
    "125429.884000",
    "125431.883000",
    "125433.884000",
    "125435.395000"
   ],
   "InstanceCreationTime": [
    "124606.390000",
    "124607.883000",
    "124609.883000",
    "124611.883000",
    "124613.883000",
    "124615.884000",
    "124617.883000",
    "124619.883000",
    "124621.883000",
    "124623.883000",
    "124625.883000",
    "124627.883000",
    "124629.883000",
    "124631.883000",
    "124633.883000",
    "124635.882000",
    "124637.883000",
    "124639.883000",
    "124641.883000",
    "124643.884000",
    "124645.883000",
    "124647.884000",
    "124649.883000",
    "124651.883000",
    "124653.883000",
    "124655.884000",
    "124657.884000",
    "124659.883000",
    "124701.883000",
    "124703.884000",
    "124705.883000",
    "124707.884000",
    "124709.882000",
    "124711.884000",
    "124713.883000",
    "124715.883000",
    "124717.883000",
    "124719.884000",
    "124721.884000",
    "124723.884000",
    "124725.883000",
    "124727.883000",
    "124729.884000",
    "124731.883000",
    "124733.884000",
    "124735.883000",
    "124737.883000",
    "124739.884000",
    "124741.884000",
    "124743.882000",
    "124745.883000",
    "124747.883000",
    "124749.884000",
    "124751.884000",
    "124753.883000",
    "124755.884000",
    "124757.884000",
    "124759.884000",
    "124801.882000",
    "124803.883000",
    "124805.883000",
    "124807.884000",
    "124809.884000",
    "124811.884000",
    "124813.883000",
    "124815.884000",
    "124817.884000",
    "124819.882000",
    "124821.884000",
    "124823.884000",
    "124825.883000",
    "124827.883000",
    "124829.884000",
    "124831.883000",
    "124833.884000",
    "124835.884000",
    "124837.882000",
    "124839.884000",
    "124841.884000",
    "124843.883000",
    "124845.884000",
    "124847.884000",
    "124849.884000",
    "124851.884000",
    "124853.882000",
    "124855.883000",
    "124857.884000",
    "124859.883000",
    "124901.883000",
    "124903.883000",
    "124905.884000",
    "124907.884000",
    "124909.884000",
    "124911.882000",
    "124913.882000",
    "124915.883000",
    "124917.884000",
    "124919.884000",
    "124921.883000",
    "124923.884000",
    "124925.884000",
    "124927.884000",
    "124929.882000",
    "124931.883000",
    "124933.883000",
    "124935.883000",
    "124937.884000",
    "124939.884000",
    "124941.884000",
    "124943.884000",
    "124945.883000",
    "124947.882000",
    "124949.883000",
    "124951.883000",
    "124953.883000",
    "124955.884000",
    "124957.884000",
    "124959.883000",
    "125001.884000",
    "125003.883000",
    "125005.883000",
    "125007.884000",
    "125009.884000",
    "125011.883000",
    "125013.884000",
    "125015.884000",
    "125017.883000",
    "125019.884000",
    "125021.883000",
    "125023.883000",
    "125025.884000",
    "125027.883000",
    "125029.884000",
    "125031.883000",
    "125033.883000",
    "125035.883000",
    "125037.884000",
    "125039.882000",
    "125041.883000",
    "125043.884000",
    "125045.884000",
    "125047.884000",
    "125049.884000",
    "125051.884000",
    "125053.884000",
    "125055.883000",
    "125057.882000",
    "125059.883000",
    "125101.883000",
    "125103.883000",
    "125105.883000",
    "125107.883000",
    "125109.884000",
    "125111.883000",
    "125113.883000",
    "125115.883000",
    "125117.883000",
    "125119.883000",
    "125121.883000",
    "125123.883000",
    "125125.884000",
    "125127.884000",
    "125129.883000",
    "125131.883000",
    "125133.883000",
    "125135.884000",
    "125137.883000",
    "125139.883000",
    "125141.883000",
    "125143.884000",
    "125145.884000",
    "125147.884000",
    "125149.882000",
    "125151.884000",
    "125153.884000",
    "125155.884000",
    "125157.884000",
    "125159.883000",
    "125201.884000",
    "125203.883000",
    "125205.883000",
    "125207.883000",
    "125209.883000",
    "125211.884000",
    "125213.884000",
    "125215.883000",
    "125217.883000",
    "125219.884000",
    "125221.883000",
    "125223.883000",
    "125225.883000",
    "125227.884000",
    "125229.883000",
    "125231.883000",
    "125233.883000",
    "125235.883000",
    "125237.884000",
    "125239.884000",
    "125241.882000",
    "125243.883000",
    "125245.884000",
    "125247.883000",
    "125249.884000",
    "125251.883000",
    "125253.884000",
    "125255.884000",
    "125257.884000",
    "125259.882000",
    "125301.884000",
    "125303.884000",
    "125305.884000",
    "125307.884000",
    "125309.883000",
    "125311.884000",
    "125313.884000",
    "125315.884000",
    "125317.883000",
    "125319.884000",
    "125321.884000",
    "125323.883000",
    "125325.898000",
    "125327.884000",
    "125329.883000",
    "125331.884000",
    "125333.882000",
    "125335.883000",
    "125337.884000",
    "125339.884000",
    "125341.883000",
    "125343.883000",
    "125345.884000",
    "125347.883000",
    "125349.884000",
    "125351.883000",
    "125353.883000",
    "125355.884000",
    "125357.884000",
    "125359.884000",
    "125401.883000",
    "125403.883000",
    "125405.884000",
    "125407.884000",
    "125409.882000",
    "125411.883000",
    "125413.883000",
    "125415.884000",
    "125417.884000",
    "125419.883000",
    "125421.884000",
    "125423.883000",
    "125425.883000",
    "125427.883000",
    "125429.884000",
    "125431.883000",
    "125433.884000",
    "125435.395000"
   ],
   "InstanceNumber": [
    1,
    2,
    3,
    4,
    5,
    6,
    7,
    8,
    9,
    10,
    11,
    12,
    13,
    14,
    15,
    16,
    17,
    18,
    19,
    20,
    21,
    22,
    23,
    24,
    25,
    26,
    27,
    28,
    29,
    30,
    31,
    32,
    33,
    34,
    35,
    36,
    37,
    38,
    39,
    40,
    41,
    42,
    43,
    44,
    45,
    46,
    47,
    48,
    49,
    50,
    51,
    52,
    53,
    54,
    55,
    56,
    57,
    58,
    59,
    60,
    61,
    62,
    63,
    64,
    65,
    66,
    67,
    68,
    69,
    70,
    71,
    72,
    73,
    74,
    75,
    76,
    77,
    78,
    79,
    80,
    81,
    82,
    83,
    84,
    85,
    86,
    87,
    88,
    89,
    90,
    91,
    92,
    93,
    94,
    95,
    96,
    97,
    98,
    99,
    100,
    101,
    102,
    103,
    104,
    105,
    106,
    107,
    108,
    109,
    110,
    111,
    112,
    113,
    114,
    115,
    116,
    117,
    118,
    119,
    120,
    121,
    122,
    123,
    124,
    125,
    126,
    127,
    128,
    129,
    130,
    131,
    132,
    133,
    134,
    135,
    136,
    137,
    138,
    139,
    140,
    141,
    142,
    143,
    144,
    145,
    146,
    147,
    148,
    149,
    150,
    151,
    152,
    153,
    154,
    155,
    156,
    157,
    158,
    159,
    160,
    161,
    162,
    163,
    164,
    165,
    166,
    167,
    168,
    169,
    170,
    171,
    172,
    173,
    174,
    175,
    176,
    177,
    178,
    179,
    180,
    181,
    182,
    183,
    184,
    185,
    186,
    187,
    188,
    189,
    190,
    191,
    192,
    193,
    194,
    195,
    196,
    197,
    198,
    199,
    200,
    201,
    202,
    203,
    204,
    205,
    206,
    207,
    208,
    209,
    210,
    211,
    212,
    213,
    214,
    215,
    216,
    217,
    218,
    219,
    220,
    221,
    222,
    223,
    224,
    225,
    226,
    227,
    228,
    229,
    230,
    231,
    232,
    233,
    234,
    235,
    236,
    237,
    238,
    239,
    240,
    241,
    242,
    243,
    244,
    245,
    246,
    247,
    248,
    249,
    250,
    251,
    252,
    253,
    254,
    255,
    256
   ],
   "LargestImagePixelValue": [
    3343,
    3298,
    3253,
    3278,
    3274,
    3297,
    3294,
    3318,
    3303,
    3320,
    3303,
    3271,
    3247,
    3263,
    3280,
    3231,
    3274,
    3284,
    3310,
    3296,
    3284,
    3364,
    3374,
    3327,
    3383,
    3380,
    3372,
    3367,
    3409,
    3434,
    3370,
    3362,
    3373,
    3362,
    3383,
    3311,
    3335,
    3322,
    3334,
    3300,
    3335,
    3368,
    3341,
    3326,
    3338,
    3390,
    3408,
    3417,
    3343,
    3350,
    3379,
    3391,
    3400,
    3381,
    3394,
    3388,
    3385,
    3347,
    3336,
    3388,
    3340,
    3382,
    3395,
    3379,
    3394,
    3376,
    3346,
    3355,
    3336,
    3347,
    3387,
    3352,
    3385,
    3414,
    3414,
    3432,
    3453,
    3404,
    3388,
    3359,
    3381,
    3404,
    3426,
    3388,
    3399,
    3407,
    3429,
    3426,
    3385,
    3349,
    3358,
    3375,
    3397,
    3400,
    3415,
    3381,
    3390,
    3382,
    3399,
    3403,
    3399,
    3418,
    3393,
    3408,
    3388,
    3388,
    3424,
    3405,
    3384,
    3369,
    3416,
    3419,
    3398,
    3379,
    3371,
    3320,
    3312,
    3338,
    3360,
    3399,
    3397,
    3385,
    3399,
    3382,
    3366,
    3384,
    3819,
    3388,
    3399,
    3393,
    3372,
    3385,
    3340,
    3308,
    3337,
    3332,
    3329,
    3324,
    3350,
    3369,
    3382,
    3413,
    3402,
    3375,
    3390,
    3381,
    3409,
    3368,
    3392,
    3400,
    3414,
    3390,
    3382,
    3421,
    3406,
    3361,
    3364,
    3363,
    3354,
    3367,
    3343,
    3335,
    3314,
    3329,
    3339,
    3375,
    3382,
    3352,
    3379,
    3383,
    3319,
    3318,
    3324,
    3369,
    3376,
    3378,
    3345,
    3392,
    3410,
    3376,
    3369,
    3349,
    3374,
    3386,
    3359,
    3344,
    3337,
    3325,
    3351,
    3364,
    3375,
    3375,
    3344,
    3317,
    3313,
    3371,
    3388,
    3377,
    3362,
    3414,
    3382,
    3382,
    3352,
    3316,
    3322,
    3311,
    3291,
    3296,
    3307,
    3338,
    3369,
    3342,
    3282,
    3330,
    3327,
    3331,
    3325,
    3334,
    3329,
    3356,
    3385,
    3379,
    3369,
    3330,
    3343,
    3400,
    3389,
    3350,
    3333,
    3364,
    3386,
    3366,
    3335,
    3367,
    3457,
    3350,
    3392,
    3401,
    3339,
    3341,
    3331,
    3329,
    3350,
    3321,
    3336,
    3329,
    3308,
    3359,
    3339,
    3358,
    3351,
    3354,
    3349,
    3339,
    3334,
    3321
   ],
   "WindowCenter": [
    759.0,
    759.0,
    759.0,
    758.0,
    759.0,
    759.0,
    759.0,
    758.0,
    758.0,
    758.0,
    758.0,
    760.0,
    759.0,
    759.0,
    760.0,
    760.0,
    759.0,
    758.0,
    760.0,
    761.0,
    759.0,
    758.0,
    758.0,
    758.0,
    760.0,
    760.0,
    761.0,
    760.0,
    760.0,
    761.0,
    761.0,
    760.0,
    761.0,
    760.0,
    761.0,
    761.0,
    762.0,
    762.0,
    762.0,
    761.0,
    760.0,
    760.0,
    761.0,
    761.0,
    762.0,
    762.0,
    763.0,
    764.0,
    763.0,
    762.0,
    761.0,
    761.0,
    762.0,
    762.0,
    762.0,
    761.0,
    760.0,
    759.0,
    761.0,
    762.0,
    762.0,
    761.0,
    760.0,
    760.0,
    760.0,
    761.0,
    762.0,
    763.0,
    763.0,
    762.0,
    761.0,
    761.0,
    761.0,
    761.0,
    761.0,
    760.0,
    760.0,
    760.0,
    760.0,
    760.0,
    760.0,
    758.0,
    759.0,
    760.0,
    760.0,
    760.0,
    760.0,
    761.0,
    762.0,
    762.0,
    761.0,
    761.0,
    760.0,
    760.0,
    760.0,
    760.0,
    760.0,
    760.0,
    760.0,
    759.0,
    759.0,
    759.0,
    758.0,
    758.0,
    759.0,
    760.0,
    759.0,
    760.0,
    760.0,
    758.0,
    759.0,
    759.0,
    759.0,
    759.0,
    761.0,
    763.0,
    762.0,
    761.0,
    760.0,
    758.0,
    758.0,
    758.0,
    759.0,
    759.0,
    758.0,
