{
 "AcquisitionMatrixPE": 100,
 "AcquisitionNumber": 1,
 "AcquisitionTime": "11:15:45.725000",
 "BandwidthPerPixelPhaseEncode": 18.519,
 "BaseResolution": 100,
 "BodyPartExamined": "BRAIN",
 "ConsistencyInfo": "N4_VE11C_LATEST_20160120",
 "ConversionSoftware": "dcm2niix",
 "ConversionSoftwareVersion": "v1.0.20180622 GCC4.9.2",
 "DerivedVendorReportedEchoSpacing": 0.000539986,
 "DeviceSerialNumber": "166078",
 "DwellTime": 2.1e-06,
 "EchoTime": 0.034,
 "EchoTrainLength": 100,
 "EffectiveEchoSpacing": 0.000539986,
 "FlipAngle": 90,
 "ImageOrientationPatientDICOM": [
  1,
  0,
  0,
  0,
  0.971134,
  -0.238533
 ],
 "ImageType": [
  "ORIGINAL",
  "PRIMARY",
  "M",
  "ND",
  "MOSAIC"
 ],
 "InPlanePhaseEncodingDirectionDICOM": "COL",
 "InstitutionAddress": "Street_StreetNo_Bei_Jing_District_CN_ZIP",
 "InstitutionName": "BeiJing_Normal_University",
 "InstitutionalDepartmentName": "Department",
 "MRAcquisitionType": "2D",
 "MagneticFieldStrength": 3,
 "Manufacturer": "Siemens",
 "ManufacturersModelName": "Prisma",
 "Modality": "MR",
 "MultibandAccelerationFactor": 3,
 "PartialFourier": 1,
 "PatientPosition": "HFS",
 "PercentPhaseFOV": 100,
 "PhaseEncodingDirection": "j-",
 "PhaseEncodingSteps": 100,
 "PhaseResolution": 1,
 "PixelBandwidth": 2380,
 "ProcedureStepDescription": "BNU_P2018_64CH_Zhen.ZongLei",
 "ProtocolName": "bold_100x100_s3_2x2x2_static_256",
 "PulseSequenceDetails": "%SiemensSeq%_ep2d_bold",
 "ReceiveCoilActiveElements": "HC1-7;NC1",
 "ReceiveCoilName": "HeadNeck_64",
 "ReconMatrixPE": 100,
 "RepetitionTime": 2,
 "SAR": 0.0791928,
 "ScanOptions": "FS",
 "ScanningSequence": "EP",
 "SequenceName": "_epfid2d1_100",
 "SequenceVariant": "SK",
 "SeriesDescription": "bold_100x100_s3_2x2x2_static_256",
 "SeriesNumber": 3,
 "ShimSetting": [
  -5469,
  -11479,
  -1225,
  278,
  -34,
  -346,
  -158,
  82
 ],
 "SliceThickness": 2,
 "SliceTiming": [
  1.485,
  0,
  0.99,
  0.0825,
  1.0725,
  0.165,
  1.155,
  0.2475,
  1.2375,
  0.33,
  1.32,
  0.4125,
  1.4025,
  0.5775,
  1.5675,
  0.66,
  1.65,
  0.7425,
  1.7325,
  0.825,
  1.815,
  0.9075,
  1.8975,
  0.495,
  1.485,
  0,
  0.99,
  0.0825,
  1.0725,
  0.165,
  1.155,
  0.2475,
  1.2375,
  0.33,
  1.32,
  0.4125,
  1.4025,
  0.5775,
  1.5675,
  0.66,
  1.65,
  0.7425,
  1.7325,
  0.825,
  1.815,
  0.9075,
  1.8975,
  0.495,
  1.485,
  0,
  0.99,
  0.0825,
  1.0725,
  0.165,
  1.155,
  0.2475,
  1.2375,
  0.33,
  1.32,
  0.4125,
  1.4025,
  0.5775,
  1.5675,
  0.66,
  1.65,
  0.7425,
  1.7325,
  0.825,
  1.815,
  0.9075,
  1.8975,
  0.495
 ],
 "SoftwareVersions": "syngo_MR_E11",
 "SpacingBetweenSlices": 2,
 "StationName": "AWP166078",
 "TaskName": "imagenet",
 "TotalReadoutTime": 0.0534586,
 "TxRefAmp": 230.166,
 "dcmmeta_affine": [
  [
   -2.0,
   0.0,
   0.0,
   102.03389739990234
  ],
  [
   0.0,
   1.9422686100006104,
   -0.4770669639110565,
   -72.98104858398438
  ],
  [
   0.0,
   0.47706693410873413,
   1.9422686100006104,
   -80.8013916015625
  ],
  [
   0.0,
   0.0,
   0.0,
   1.0
  ]
 ],
 "dcmmeta_reorient_transform": [
  [
   0.0,
   -1.0,
   0.0,
   99.0
  ],
  [
   1.0,
   0.0,
   0.0,
   0.0
  ],
  [
   0.0,
   0.0,
   1.0,
   0.0
  ],
  [
   0.0,
   0.0,
   0.0,
   1.0
  ]
 ],
 "dcmmeta_shape": [
  100,
  100,
  72,
  256
 ],
 "dcmmeta_slice_dim": 2,
 "dcmmeta_version": 0.6,
 "global": {
  "const": {
   "AcquisitionMatrix": [
    100,
    0,
    0,
    100
   ],
   "AngioFlag": "N",
   "BitsAllocated": 16,
   "BitsStored": 12,
   "BodyPartExamined": "BRAIN",
   "Columns": 900,
   "EchoNumbers": 1,
   "EchoTime": 34.0,
   "EchoTrainLength": 100,
   "FlipAngle": 90.0,
   "HighBit": 11,
   "ImageOrientationPatient": [
    1.0,
    0.0,
    0.0,
    0.0,
    0.97113427618897,
    -0.2385334727264
   ],
   "ImagePositionPatient": [
    -902.03389835358,
    -896.2109616377,
    157.25501559049
   ],
   "ImageType": [
    "ORIGINAL",
    "PRIMARY",
    "M",
    "ND",
    "MOSAIC"
   ],
   "ImagedNucleus": "1H",
   "ImagingFrequency": 123.257695,
   "InPlanePhaseEncodingDirection": "COL",
   "MRAcquisitionType": "2D",
   "MagneticFieldStrength": 3.0,
   "Manufacturer": "SIEMENS",
   "ManufacturerModelName": "Prisma",
   "Modality": "MR",
   "NumberOfAverages": 1.0,
   "NumberOfPhaseEncodingSteps": 100,
   "PercentPhaseFieldOfView": 100.0,
   "PercentSampling": 100.0,
   "PerformedProcedureStepStartTime": "111206.127000",
   "PhotometricInterpretation": "MONOCHROME2",
   "PixelBandwidth": 2380.0,
   "PixelRepresentation": 0,
   "PixelSpacing": [
    2.0,
    2.0
   ],
   "ProtocolName": "bold_100x100_s3_2x2x2_static_256",
   "RepetitionTime": 2000.0,
   "Rows": 900,
   "SAR": 0.07919283649308,
   "SamplesPerPixel": 1,
   "ScanOptions": "FS",
   "ScanningSequence": "EP",
   "SequenceName": "*epfid2d1_100",
   "SequenceVariant": "SK",
   "SeriesDescription": "bold_100x100_s3_2x2x2_static_256",
   "SeriesNumber": 3,
   "SeriesTime": "111547.904000",
   "SliceLocation": -61.060577232363,
   "SliceThickness": 2.0,
   "SmallestImagePixelValue": 0,
   "SoftwareVersions": "syngo MR E11",
   "SpacingBetweenSlices": 2.0000000254196,
   "SpecificCharacterSet": "ISO_IR 100",
   "StudyID": "1",
   "StudyTime": "111206.067000",
   "TransmitCoilName": "Body",
   "VariableFlipAngleFlag": "N",
   "WindowCenterWidthExplanation": "Algo1",
   "dBdt": 0.0
  },
  "slices": {}
 },
 "time": {
  "samples": {
   "AcquisitionNumber": [
    1,
    2,
    3,
    4,
    5,
    6,
    7,
    8,
    9,
    10,
    11,
    12,
    13,
    14,
    15,
    16,
    17,
    18,
    19,
    20,
    21,
    22,
    23,
    24,
    25,
    26,
    27,
    28,
    29,
    30,
    31,
    32,
    33,
    34,
    35,
    36,
    37,
    38,
    39,
    40,
    41,
    42,
    43,
    44,
    45,
    46,
    47,
    48,
    49,
    50,
    51,
    52,
    53,
    54,
    55,
    56,
    57,
    58,
    59,
    60,
    61,
    62,
    63,
    64,
    65,
    66,
    67,
    68,
    69,
    70,
    71,
    72,
    73,
    74,
    75,
    76,
    77,
    78,
    79,
    80,
    81,
    82,
    83,
    84,
    85,
    86,
    87,
    88,
    89,
    90,
    91,
    92,
    93,
    94,
    95,
    96,
    97,
    98,
    99,
    100,
    101,
    102,
    103,
    104,
    105,
    106,
    107,
    108,
    109,
    110,
    111,
    112,
    113,
    114,
    115,
    116,
    117,
    118,
    119,
    120,
    121,
    122,
    123,
    124,
    125,
    126,
    127,
    128,
    129,
    130,
    131,
    132,
    133,
    134,
    135,
    136,
    137,
    138,
    139,
    140,
    141,
    142,
    143,
    144,
    145,
    146,
    147,
    148,
    149,
    150,
    151,
    152,
    153,
    154,
    155,
    156,
    157,
    158,
    159,
    160,
    161,
    162,
    163,
    164,
    165,
    166,
    167,
    168,
    169,
    170,
    171,
    172,
    173,
    174,
    175,
    176,
    177,
    178,
    179,
    180,
    181,
    182,
    183,
    184,
    185,
    186,
    187,
    188,
    189,
    190,
    191,
    192,
    193,
    194,
    195,
    196,
    197,
    198,
    199,
    200,
    201,
    202,
    203,
    204,
    205,
    206,
    207,
    208,
    209,
    210,
    211,
    212,
    213,
    214,
    215,
    216,
    217,
    218,
    219,
    220,
    221,
    222,
    223,
    224,
    225,
    226,
    227,
    228,
    229,
    230,
    231,
    232,
    233,
    234,
    235,
    236,
    237,
    238,
    239,
    240,
    241,
    242,
    243,
    244,
    245,
    246,
    247,
    248,
    249,
    250,
    251,
    252,
    253,
    254,
    255,
    256
   ],
   "AcquisitionTime": [
    "111545.725000",
    "111547.725000",
    "111549.725000",
    "111551.725000",
    "111553.725000",
    "111555.725000",
    "111557.725000",
    "111559.725000",
    "111601.725000",
    "111603.725000",
    "111605.725000",
    "111607.725000",
    "111609.725000",
    "111611.725000",
    "111613.725000",
    "111615.725000",
    "111617.725000",
    "111619.725000",
    "111621.725000",
    "111623.725000",
    "111625.725000",
    "111627.725000",
    "111629.725000",
    "111631.725000",
    "111633.725000",
    "111635.725000",
    "111637.725000",
    "111639.725000",
    "111641.725000",
    "111643.725000",
    "111645.725000",
    "111647.725000",
    "111649.725000",
    "111651.725000",
    "111653.725000",
    "111655.725000",
    "111657.725000",
    "111659.725000",
    "111701.725000",
    "111703.725000",
    "111705.725000",
    "111707.725000",
    "111709.725000",
    "111711.725000",
    "111713.725000",
    "111715.725000",
    "111717.725000",
    "111719.725000",
    "111721.725000",
    "111723.725000",
    "111725.725000",
    "111727.725000",
    "111729.725000",
    "111731.725000",
    "111733.725000",
    "111735.725000",
    "111737.725000",
    "111739.725000",
    "111741.725000",
    "111743.725000",
    "111745.725000",
    "111747.725000",
    "111749.725000",
    "111751.725000",
    "111753.725000",
    "111755.725000",
    "111757.725000",
    "111759.725000",
    "111801.725000",
    "111803.725000",
    "111805.725000",
    "111807.725000",
    "111809.725000",
    "111811.725000",
    "111813.725000",
    "111815.725000",
    "111817.725000",
    "111819.725000",
    "111821.725000",
    "111823.725000",
    "111825.725000",
    "111827.725000",
    "111829.725000",
    "111831.725000",
    "111833.725000",
    "111835.725000",
    "111837.725000",
    "111839.725000",
    "111841.725000",
    "111843.725000",
    "111845.725000",
    "111847.725000",
    "111849.725000",
    "111851.725000",
    "111853.725000",
    "111855.725000",
    "111857.725000",
    "111859.725000",
    "111901.725000",
    "111903.725000",
    "111905.725000",
    "111907.725000",
    "111909.725000",
    "111911.725000",
    "111913.725000",
    "111915.725000",
    "111917.725000",
    "111919.725000",
    "111921.725000",
    "111923.725000",
    "111925.725000",
    "111927.725000",
    "111929.725000",
    "111931.725000",
    "111933.725000",
    "111935.725000",
    "111937.725000",
    "111939.725000",
    "111941.725000",
    "111943.725000",
    "111945.725000",
    "111947.725000",
    "111949.725000",
    "111951.725000",
    "111953.725000",
    "111955.725000",
    "111957.725000",
    "111959.725000",
    "112001.725000",
    "112003.725000",
    "112005.725000",
    "112007.725000",
    "112009.725000",
    "112011.725000",
    "112013.725000",
    "112015.725000",
    "112017.725000",
    "112019.725000",
    "112021.725000",
    "112023.725000",
    "112025.725000",
    "112027.725000",
    "112029.725000",
    "112031.725000",
    "112033.725000",
    "112035.725000",
    "112037.725000",
    "112039.725000",
    "112041.725000",
    "112043.725000",
    "112045.725000",
    "112047.725000",
    "112049.725000",
    "112051.725000",
    "112053.725000",
    "112055.725000",
    "112057.725000",
    "112059.725000",
    "112101.725000",
    "112103.725000",
    "112105.725000",
    "112107.725000",
    "112109.725000",
    "112111.725000",
    "112113.725000",
    "112115.725000",
    "112117.725000",
    "112119.725000",
    "112121.725000",
    "112123.725000",
    "112125.725000",
    "112127.725000",
    "112129.725000",
    "112131.725000",
    "112133.725000",
    "112135.725000",
    "112137.725000",
    "112139.725000",
    "112141.725000",
    "112143.725000",
    "112145.725000",
    "112147.725000",
    "112149.725000",
    "112151.725000",
    "112153.725000",
    "112155.725000",
    "112157.725000",
    "112159.725000",
    "112201.725000",
    "112203.725000",
    "112205.725000",
    "112207.725000",
    "112209.725000",
    "112211.725000",
    "112213.725000",
    "112215.725000",
    "112217.725000",
    "112219.725000",
    "112221.725000",
    "112223.725000",
    "112225.725000",
    "112227.725000",
    "112229.725000",
    "112231.725000",
    "112233.725000",
    "112235.725000",
    "112237.725000",
    "112239.725000",
    "112241.725000",
    "112243.725000",
    "112245.725000",
    "112247.725000",
    "112249.725000",
    "112251.725000",
    "112253.725000",
    "112255.725000",
    "112257.725000",
    "112259.725000",
    "112301.725000",
    "112303.725000",
    "112305.725000",
    "112307.725000",
    "112309.725000",
    "112311.725000",
    "112313.725000",
    "112315.725000",
    "112317.725000",
    "112319.725000",
    "112321.725000",
    "112323.725000",
    "112325.725000",
    "112327.725000",
    "112329.725000",
    "112331.725000",
    "112333.725000",
    "112335.725000",
    "112337.725000",
    "112339.725000",
    "112341.725000",
    "112343.725000",
    "112345.725000",
    "112347.725000",
    "112349.725000",
    "112351.725000",
    "112353.725000",
    "112355.725000",
    "112357.725000",
    "112359.725000",
    "112401.725000",
    "112403.725000",
    "112405.725000",
    "112407.725000",
    "112409.725000",
    "112411.725000",
    "112413.725000",
    "112415.725000"
   ],
   "ContentTime": [
    "111547.907000",
    "111549.402000",
    "111551.402000",
    "111553.403000",
    "111555.401000",
    "111557.402000",
    "111559.401000",
    "111601.403000",
    "111603.403000",
    "111605.403000",
    "111607.402000",
    "111609.402000",
    "111611.402000",
    "111613.401000",
    "111615.402000",
    "111617.402000",
    "111619.403000",
    "111621.402000",
    "111623.402000",
    "111625.403000",
    "111627.403000",
    "111629.402000",
    "111631.402000",
    "111633.402000",
    "111635.402000",
    "111637.403000",
    "111639.403000",
    "111641.403000",
    "111643.402000",
    "111645.402000",
    "111647.403000",
    "111649.402000",
    "111651.401000",
    "111653.403000",
    "111655.403000",
    "111657.402000",
    "111659.403000",
    "111701.402000",
    "111703.402000",
    "111705.402000",
    "111707.401000",
    "111709.401000",
    "111711.402000",
    "111713.403000",
    "111715.402000",
    "111717.403000",
    "111719.403000",
    "111721.402000",
    "111723.401000",
    "111725.402000",
    "111727.403000",
    "111729.402000",
    "111731.403000",
    "111733.403000",
    "111735.402000",
    "111737.403000",
    "111739.402000",
    "111741.402000",
    "111743.401000",
    "111745.403000",
    "111747.402000",
    "111749.403000",
    "111751.402000",
    "111753.403000",
    "111755.402000",
    "111757.403000",
    "111759.402000",
    "111801.401000",
    "111803.403000",
    "111805.403000",
    "111807.402000",
    "111809.402000",
    "111811.402000",
    "111813.402000",
    "111815.402000",
    "111817.401000",
    "111819.403000",
    "111821.402000",
    "111823.403000",
    "111825.402000",
    "111827.403000",
    "111829.403000",
    "111831.403000",
    "111833.402000",
    "111835.401000",
    "111837.403000",
    "111839.402000",
    "111841.403000",
    "111843.403000",
    "111845.403000",
    "111847.403000",
    "111849.402000",
    "111851.402000",
    "111853.401000",
    "111855.403000",
    "111857.402000",
    "111859.403000",
    "111901.402000",
    "111903.403000",
    "111905.403000",
    "111907.403000",
    "111909.402000",
    "111911.401000",
    "111913.403000",
    "111915.402000",
    "111917.403000",
    "111919.403000",
    "111921.402000",
    "111923.402000",
    "111925.402000",
    "111927.402000",
    "111929.402000",
    "111931.403000",
    "111933.402000",
    "111935.402000",
    "111937.402000",
    "111939.403000",
    "111941.402000",
    "111943.401000",
    "111945.402000",
    "111947.403000",
    "111949.402000",
    "111951.402000",
    "111953.402000",
    "111955.403000",
    "111957.403000",
    "111959.403000",
    "112001.401000",
    "112003.401000",
    "112005.403000",
    "112007.403000",
    "112009.403000",
    "112011.403000",
    "112013.402000",
    "112015.403000",
    "112017.403000",
    "112019.402000",
    "112021.401000",
    "112023.402000",
    "112025.402000",
    "112027.402000",
    "112029.402000",
    "112031.403000",
    "112033.403000",
    "112035.401000",
    "112037.401000",
    "112039.410000",
    "112041.403000",
    "112043.402000",
    "112045.403000",
    "112047.403000",
    "112049.403000",
    "112051.403000",
    "112053.401000",
    "112055.401000",
    "112057.403000",
    "112059.403000",
    "112101.403000",
    "112103.403000",
    "112105.403000",
    "112107.402000",
    "112109.402000",
    "112111.402000",
    "112113.402000",
    "112115.403000",
    "112117.413000",
    "112119.402000",
    "112121.403000",
    "112123.403000",
    "112125.403000",
    "112127.402000",
    "112129.401000",
    "112131.402000",
    "112133.402000",
    "112135.402000",
    "112137.402000",
    "112139.403000",
    "112141.402000",
    "112143.403000",
    "112145.402000",
    "112147.401000",
    "112149.402000",
    "112151.403000",
    "112153.403000",
    "112155.403000",
    "112157.403000",
    "112159.403000",
    "112201.403000",
    "112203.401000",
    "112205.402000",
    "112207.402000",
    "112209.403000",
    "112211.402000",
    "112213.403000",
    "112215.402000",
    "112217.403000",
    "112219.402000",
    "112221.401000",
    "112223.402000",
    "112225.403000",
    "112227.402000",
    "112229.402000",
    "112231.402000",
    "112233.403000",
    "112235.403000",
    "112237.403000",
    "112239.401000",
    "112241.402000",
    "112243.402000",
    "112245.403000",
    "112247.403000",
    "112249.403000",
    "112251.403000",
    "112253.403000",
    "112255.402000",
    "112257.401000",
    "112259.402000",
    "112301.402000",
    "112303.403000",
    "112305.403000",
    "112307.403000",
    "112309.402000",
    "112311.403000",
    "112313.402000",
    "112315.402000",
    "112317.403000",
    "112319.403000",
    "112321.403000",
    "112323.403000",
    "112325.403000",
    "112327.403000",
    "112329.403000",
    "112331.401000",
    "112333.401000",
    "112335.402000",
    "112337.403000",
    "112339.403000",
    "112341.402000",
    "112343.403000",
    "112345.402000",
    "112347.402000",
    "112349.402000",
    "112351.402000",
    "112353.403000",
    "112355.403000",
    "112357.403000",
    "112359.403000",
    "112401.403000",
    "112403.402000",
    "112405.402000",
    "112407.401000",
    "112409.403000",
    "112411.403000",
    "112413.403000",
    "112415.403000",
    "112417.269000"
   ],
   "InstanceCreationTime": [
    "111547.907000",
    "111549.402000",
    "111551.402000",
    "111553.403000",
    "111555.401000",
    "111557.402000",
    "111559.401000",
    "111601.403000",
    "111603.403000",
    "111605.403000",
    "111607.402000",
    "111609.402000",
    "111611.402000",
    "111613.401000",
    "111615.402000",
    "111617.402000",
    "111619.403000",
    "111621.402000",
    "111623.402000",
    "111625.403000",
    "111627.403000",
    "111629.402000",
    "111631.402000",
    "111633.402000",
    "111635.402000",
    "111637.403000",
    "111639.403000",
    "111641.403000",
    "111643.402000",
    "111645.402000",
    "111647.403000",
    "111649.402000",
    "111651.401000",
    "111653.403000",
    "111655.403000",
    "111657.402000",
    "111659.403000",
    "111701.402000",
    "111703.402000",
    "111705.402000",
    "111707.401000",
    "111709.401000",
    "111711.402000",
    "111713.403000",
    "111715.402000",
    "111717.403000",
    "111719.403000",
    "111721.402000",
    "111723.401000",
    "111725.402000",
    "111727.403000",
    "111729.402000",
    "111731.403000",
    "111733.403000",
    "111735.402000",
    "111737.403000",
    "111739.402000",
    "111741.402000",
    "111743.401000",
    "111745.403000",
    "111747.402000",
    "111749.403000",
    "111751.402000",
    "111753.403000",
    "111755.402000",
    "111757.403000",
    "111759.402000",
    "111801.401000",
    "111803.403000",
    "111805.403000",
    "111807.402000",
    "111809.402000",
    "111811.402000",
    "111813.402000",
    "111815.402000",
    "111817.401000",
    "111819.403000",
    "111821.402000",
    "111823.403000",
    "111825.402000",
    "111827.403000",
    "111829.403000",
    "111831.403000",
    "111833.402000",
    "111835.401000",
    "111837.403000",
    "111839.402000",
    "111841.403000",
    "111843.403000",
    "111845.403000",
    "111847.403000",
    "111849.402000",
    "111851.402000",
    "111853.401000",
    "111855.403000",
    "111857.402000",
    "111859.403000",
    "111901.402000",
    "111903.403000",
    "111905.403000",
    "111907.403000",
    "111909.402000",
    "111911.401000",
    "111913.403000",
    "111915.402000",
    "111917.403000",
    "111919.403000",
    "111921.402000",
    "111923.402000",
    "111925.402000",
    "111927.402000",
    "111929.402000",
    "111931.403000",
    "111933.402000",
    "111935.402000",
    "111937.402000",
    "111939.403000",
    "111941.402000",
    "111943.401000",
    "111945.402000",
    "111947.403000",
    "111949.402000",
    "111951.402000",
    "111953.402000",
    "111955.403000",
    "111957.403000",
    "111959.403000",
    "112001.401000",
    "112003.401000",
    "112005.403000",
    "112007.403000",
    "112009.403000",
    "112011.403000",
    "112013.402000",
    "112015.403000",
    "112017.403000",
    "112019.402000",
    "112021.401000",
    "112023.402000",
    "112025.402000",
    "112027.402000",
    "112029.402000",
    "112031.403000",
    "112033.403000",
    "112035.401000",
    "112037.401000",
    "112039.410000",
    "112041.403000",
    "112043.402000",
    "112045.403000",
    "112047.403000",
    "112049.403000",
    "112051.403000",
    "112053.401000",
    "112055.401000",
    "112057.403000",
    "112059.403000",
    "112101.403000",
    "112103.403000",
    "112105.403000",
    "112107.402000",
    "112109.402000",
    "112111.402000",
    "112113.402000",
    "112115.403000",
    "112117.413000",
    "112119.402000",
    "112121.403000",
    "112123.403000",
    "112125.403000",
    "112127.402000",
    "112129.401000",
    "112131.402000",
    "112133.402000",
    "112135.402000",
    "112137.402000",
    "112139.403000",
    "112141.402000",
    "112143.403000",
    "112145.402000",
    "112147.401000",
    "112149.402000",
    "112151.403000",
    "112153.403000",
    "112155.403000",
    "112157.403000",
    "112159.403000",
    "112201.403000",
    "112203.401000",
    "112205.402000",
    "112207.402000",
    "112209.403000",
    "112211.402000",
    "112213.403000",
    "112215.402000",
    "112217.403000",
    "112219.402000",
    "112221.401000",
    "112223.402000",
    "112225.403000",
    "112227.402000",
    "112229.402000",
    "112231.402000",
    "112233.403000",
    "112235.403000",
    "112237.403000",
    "112239.401000",
    "112241.402000",
    "112243.402000",
    "112245.403000",
    "112247.403000",
    "112249.403000",
    "112251.403000",
    "112253.403000",
    "112255.402000",
    "112257.401000",
    "112259.402000",
    "112301.402000",
    "112303.403000",
    "112305.403000",
    "112307.403000",
    "112309.402000",
    "112311.403000",
    "112313.402000",
    "112315.402000",
    "112317.403000",
    "112319.403000",
    "112321.403000",
    "112323.403000",
    "112325.403000",
    "112327.403000",
    "112329.403000",
    "112331.401000",
    "112333.401000",
    "112335.402000",
    "112337.403000",
    "112339.403000",
    "112341.402000",
    "112343.403000",
    "112345.402000",
    "112347.402000",
    "112349.402000",
    "112351.402000",
    "112353.403000",
    "112355.403000",
    "112357.403000",
    "112359.403000",
    "112401.403000",
    "112403.402000",
    "112405.402000",
    "112407.401000",
    "112409.403000",
    "112411.403000",
    "112413.403000",
    "112415.403000",
    "112417.269000"
   ],
   "InstanceNumber": [
    1,
    2,
    3,
    4,
    5,
    6,
    7,
    8,
    9,
    10,
    11,
    12,
    13,
    14,
    15,
    16,
    17,
    18,
    19,
    20,
    21,
    22,
    23,
    24,
    25,
    26,
    27,
    28,
    29,
    30,
    31,
    32,
    33,
    34,
    35,
    36,
    37,
    38,
    39,
    40,
    41,
    42,
    43,
    44,
    45,
    46,
    47,
    48,
    49,
    50,
    51,
    52,
    53,
    54,
    55,
    56,
    57,
    58,
    59,
    60,
    61,
    62,
    63,
    64,
    65,
    66,
    67,
    68,
    69,
    70,
    71,
    72,
    73,
    74,
    75,
    76,
    77,
    78,
    79,
    80,
    81,
    82,
    83,
    84,
    85,
    86,
    87,
    88,
    89,
    90,
    91,
    92,
    93,
    94,
    95,
    96,
    97,
    98,
    99,
    100,
    101,
    102,
    103,
    104,
    105,
    106,
    107,
    108,
    109,
    110,
    111,
    112,
    113,
    114,
    115,
    116,
    117,
    118,
    119,
    120,
    121,
    122,
    123,
    124,
    125,
    126,
    127,
    128,
    129,
    130,
    131,
    132,
    133,
    134,
    135,
    136,
    137,
    138,
    139,
    140,
    141,
    142,
    143,
    144,
    145,
    146,
    147,
    148,
    149,
    150,
    151,
    152,
    153,
    154,
    155,
    156,
    157,
    158,
    159,
    160,
    161,
    162,
    163,
    164,
    165,
    166,
    167,
    168,
    169,
    170,
    171,
    172,
    173,
    174,
    175,
    176,
    177,
    178,
    179,
    180,
    181,
    182,
    183,
    184,
    185,
    186,
    187,
    188,
    189,
    190,
    191,
    192,
    193,
    194,
    195,
    196,
    197,
    198,
    199,
    200,
    201,
    202,
    203,
    204,
    205,
    206,
    207,
    208,
    209,
    210,
    211,
    212,
    213,
    214,
    215,
    216,
    217,
    218,
    219,
    220,
    221,
    222,
    223,
    224,
    225,
    226,
    227,
    228,
    229,
    230,
    231,
    232,
    233,
    234,
    235,
    236,
    237,
    238,
    239,
    240,
    241,
    242,
    243,
    244,
    245,
    246,
    247,
    248,
    249,
    250,
    251,
    252,
    253,
    254,
    255,
    256
   ],
   "LargestImagePixelValue": [
    3668,
    3626,
    3613,
    3604,
    3575,
    3586,
    3593,
    3538,
    3566,
    3639,
    3628,
    3671,
    3574,
    3612,
    3662,
    3589,
    3563,
    3556,
    3589,
    3562,
    3546,
    3544,
    3534,
    3573,
    3513,
    3564,
    3612,
    3561,
    3596,
    3592,
    3592,
    3552,
    3601,
    3623,
    3547,
    3535,
    3563,
    3612,
    3573,
    3599,
    3533,
    3573,
    3574,
    3613,
    3678,
    3575,
    3535,
    3492,
    3542,
    3534,
    3564,
    3564,
    3611,
    3612,
    3651,
    3675,
    3671,
    3551,
    3535,
    3551,
    3529,
    3548,
    3598,
    3609,
    3608,
    3636,
    3558,
    3553,
    3590,
    3570,
    3564,
    3566,
    3580,
    3573,
    3607,
    3648,
    3549,
    3562,
    3537,
    3580,
    3608,
    3561,
    3547,
    3591,
    3532,
    3574,
    3592,
    3604,
    3617,
    3650,
    3536,
    3603,
    3618,
    3601,
    3598,
    3520,
    3587,
    3688,
    3693,
    3616,
    3610,
    3598,
    3574,
    3586,
    3590,
    3617,
    3658,
    3517,
    3567,
    3618,
    3607,
    3632,
    3658,
    3577,
    3532,
    3563,
    3576,
    3594,
    3502,
    3619,
    3598,
    3597,
    3607,
    3594,
    3625,
    3602,
    3655,
    3658,
    3667,
    3663,
    3695,
    3686,
    3689,
    3685,
    3721,
    3676,
    3679,
    3695,
    3678,
    3667,
    3691,
    3655,
    3651,
    3660,
    3650,
    3627,
    3673,
    3633,
    3583,
    3648,
    3643,
    3621,
    3700,
    3634,
    3696,
    3619,
    3641,
    3631,
    3658,
    3652,
    3623,
    3633,
    3661,
    3629,
    3632,
    3621,
    3593,
    3586,
    3601,
    3601,
    3626,
    3641,
    3666,
    3666,
    3638,
    3618,
    3628,
    3627,
    3632,
    3620,
    3644,
    3614,
    3600,
    3665,
    3636,
    3646,
    3604,
    3632,
    3607,
    3642,
    3631,
    3613,
    3647,
    3678,
    3662,
    3644,
    3634,
    3605,
    3590,
    3605,
    3617,
    3657,
    3685,
    3685,
    3662,
    3663,
    3631,
    3651,
    3629,
    3657,
    3648,
    3662,
    3655,
    3628,
    3634,
    3643,
    3645,
    3613,
    3586,
    3582,
    3603,
    3596,
    3615,
    3614,
    3577,
    3586,
    3593,
    3602,
    3623,
    3651,
    3653,
    3613,
    3642,
    3617,
    3653,
    3627,
    3635,
    3622,
    3611,
    3570,
    3563,
    3597,
    3563,
    3563,
    3588,
    3595,
    3587,
    3591,
    3616,
    3631,
    3616,
    3586,
    3549,
    3545,
    3592,
    3690
   ],
   "WindowCenter": [
    778.0,
    779.0,
    780.0,
    781.0,
    781.0,
    781.0,
    781.0,
    781.0,
    782.0,
    784.0,
    786.0,
    786.0,
    784.0,
    783.0,
    784.0,
    784.0,
    783.0,
    781.0,
    780.0,
    781.0,
    782.0,
    781.0,
    781.0,
    782.0,
    781.0,
    780.0,
    779.0,
    779.0,
    780.0,
    779.0,
    778.0,
    778.0,
    778.0,
    778.0,
    778.0,
    778.0,
    779.0,
    779.0,
    779.0,
    779.0,
    781.0,
    781.0,
    781.0,
    781.0,
    781.0,
    780.0,
    780.0,
    781.0,
    782.0,
    782.0,
    782.0,
    782.0,
    782.0,
    780.0,
    781.0,
    781.0,
    779.0,
    779.0,
    779.0,
    779.0,
    780.0,
    781.0,
    781.0,
    780.0,
    779.0,
    779.0,
    781.0,
    781.0,
    781.0,
    780.0,
    781.0,
    781.0,
    782.0,
    781.0,
    781.0,
    780.0,
    780.0,
    780.0,
    780.0,
    780.0,
    781.0,
    782.0,
    782.0,
    781.0,
    781.0,
    781.0,
    782.0,
    782.0,
    781.0,
    782.0,
    781.0,
    781.0,
    781.0,
    779.0,
    779.0,
    781.0,
    783.0,
    783.0,
    781.0,
    779.0,
    779.0,
    779.0,
    780.0,
    781.0,
    782.0,
    782.0,
    783.0,
    782.0,
    782.0,
    781.0,
    782.0,
    782.0,
    783.0,
    782.0,
    781.0,
    782.0,
    783.0,
    782.0,
    783.0,
    784.0,
    782.0,
    780.0,
    781.0,
    782.0,
    782.0,
