{
  "AcquisitionMatrixPE": 100,
  "AcquisitionNumber": 1,
  "AcquisitionTime": "14:31:32.265000",
  "BandwidthPerPixelPhaseEncode": 18.519,
  "BaseResolution": 100,
  "BodyPartExamined": "BRAIN",
  "ConsistencyInfo": "N4_VE11C_LATEST_20160120",
  "ConversionSoftware": "dcm2niix",
  "ConversionSoftwareVersion": "v1.0.20180622 GCC4.9.2",
  "DerivedVendorReportedEchoSpacing": 0.000539986,
  "DeviceSerialNumber": "166078",
  "DwellTime": 2.1e-06,
  "EchoTime": 0.034,
  "EchoTrainLength": 100,
  "EffectiveEchoSpacing": 0.000539986,
  "FlipAngle": 90,
  "ImageOrientationPatientDICOM": [0.995766, 0.0765874, 0.0508459, -0.0731245, 0.995084, -0.0667914],
  "ImageType": [
    "ORIGINAL",
    "PRIMARY",
    "M",
    "ND",
    "MOSAIC"
],
  "InPlanePhaseEncodingDirectionDICOM": "COL",
  "InstitutionAddress": "Street_StreetNo_Bei_Jing_District_CN_ZIP",
  "InstitutionName": "BeiJing_Normal_University",
  "InstitutionalDepartmentName": "Department",
  "MRAcquisitionType": "2D",
  "MagneticFieldStrength": 3,
  "Manufacturer": "Siemens",
  "ManufacturersModelName": "Prisma",
  "Modality": "MR",
  "MultibandAccelerationFactor": 3,
  "PartialFourier": 1,
  "PatientPosition": "HFS",
  "PercentPhaseFOV": 100,
  "PhaseEncodingDirection": "j-",
  "PhaseEncodingSteps": 100,
  "PhaseResolution": 1,
  "PixelBandwidth": 2380,
  "ProcedureStepDescription": "BNU_P2018_64CH_Zhen.ZongLei",
  "ProtocolName": "bold_100x100_s3_2x2x2_static_256",
  "PulseSequenceDetails": "%SiemensSeq%_ep2d_bold",
  "ReceiveCoilActiveElements": "HC1-7;NC1",
  "ReceiveCoilName": "HeadNeck_64",
  "ReconMatrixPE": 100,
  "RepetitionTime": 2,
  "SAR": 0.0713994,
  "ScanOptions": "FS",
  "ScanningSequence": "EP",
  "SequenceName": "_epfid2d1_100",
  "SequenceVariant": "SK",
  "SeriesDescription": "bold_100x100_s3_2x2x2_static_256",
  "SeriesNumber": 16,
  "ShimSetting": [-5432, -11539, -1231, 343, -89, -397, -65, 3],
  "SliceThickness": 2,
  "SliceTiming": [1.485, 0, 0.99, 0.0825, 1.0725, 0.165, 1.155, 0.2475, 1.2375, 0.33, 1.32, 0.4125, 1.4025, 0.5775, 1.5675, 0.66, 1.65, 0.7425, 1.7325, 0.825, 1.815, 0.9075, 1.8975, 0.495, 1.485, 0, 0.99, 0.0825, 1.0725, 0.165, 1.155, 0.2475, 1.2375, 0.33, 1.32, 0.4125, 1.4025, 0.5775, 1.5675, 0.66, 1.65, 0.7425, 1.7325, 0.825, 1.815, 0.9075, 1.8975, 0.495, 1.485, 0, 0.99, 0.0825, 1.0725, 0.165, 1.155, 0.2475, 1.2375, 0.33, 1.32, 0.4125, 1.4025, 0.5775, 1.5675, 0.66, 1.65, 0.7425, 1.7325, 0.825, 1.815, 0.9075, 1.8975, 0.495],
  "SoftwareVersions": "syngo_MR_E11",
  "SpacingBetweenSlices": 2,
  "StationName": "AWP166078",
  "TaskName": "naturalvision",
  "TotalReadoutTime": 0.0534586,
  "TxRefAmp": 214.632,
  "dcmmeta_affine": [
    [-1.9915311336517334, -0.14624890685081482, 0.11142270267009735, 101.42375183105469],
    [-0.15317481756210327, 1.990167498588562, -0.1255810409784317, -84.0794448852539],
    [0.10169187933206558, 0.13358284533023834, 1.99294114112854, -72.5851821899414],
    [0.0, 0.0, 0.0, 1.0]
],
  "dcmmeta_reorient_transform": [
    [0.0, -1.0, 0.0, 99.0],
    [1.0, 0.0, 0.0, 0.0],
    [0.0, 0.0, 1.0, 0.0],
    [0.0, 0.0, 0.0, 1.0]
],
  "dcmmeta_shape": [100, 100, 72, 256],
  "dcmmeta_slice_dim": 2,
  "dcmmeta_version": 0.6,
  "global": {
    "const": {
      "AcquisitionMatrix": [100, 0, 0, 100],
      "AngioFlag": "N",
      "BitsAllocated": 16,
      "BitsStored": 12,
      "BodyPartExamined": "BRAIN",
      "Columns": 900,
      "EchoNumbers": 1,
      "EchoTime": 34.0,
      "EchoTrainLength": 100,
      "FlipAngle": 90.0,
      "HighBit": 11,
      "ImageOrientationPatient": [0.99576556457761, 0.07658740535927, 0.05084594125165, -0.0731244524102, 0.9950837754182, -0.0667914242937],
      "ImagePositionPatient": [-825.05800166024, -970.28408579771, -46.604089981412],
      "ImageType": [
        "ORIGINAL",
        "PRIMARY",
        "M",
        "ND",
        "MOSAIC"
],
      "ImagedNucleus": "1H",
      "ImagingFrequency": 123.257718,
      "InPlanePhaseEncodingDirection": "COL",
      "MRAcquisitionType": "2D",
      "MagneticFieldStrength": 3.0,
      "Manufacturer": "SIEMENS",
      "ManufacturerModelName": "Prisma",
      "Modality": "MR",
      "NumberOfAverages": 1.0,
      "NumberOfPhaseEncodingSteps": 100,
      "PercentPhaseFieldOfView": 100.0,
      "PercentSampling": 100.0,
      "PerformedProcedureStepStartTime": "130145.255000",
      "PhotometricInterpretation": "MONOCHROME2",
      "PixelBandwidth": 2380.0,
      "PixelRepresentation": 0,
      "PixelSpacing": [2.0, 2.0],
      "ProtocolName": "bold_100x100_s3_2x2x2_static_256",
      "RepetitionTime": 2000.0,
      "Rows": 900,
      "SAR": 0.07139939247102,
      "SamplesPerPixel": 1,
      "ScanOptions": "FS",
      "ScanningSequence": "EP",
      "SequenceName": "*epfid2d1_100",
      "SequenceVariant": "SK",
      "SeriesDescription": "bold_100x100_s3_2x2x2_static_256",
      "SeriesNumber": 16,
      "SeriesTime": "143134.352000",
      "SliceLocation": -61.399147492397,
      "SliceThickness": 2.0,
      "SmallestImagePixelValue": 0,
      "SoftwareVersions": "syngo MR E11",
      "SpacingBetweenSlices": 1.9999999520454,
      "SpecificCharacterSet": "ISO_IR 100",
      "StudyID": "1",
      "StudyTime": "130145.187000",
      "TransmitCoilName": "Body",
      "VariableFlipAngleFlag": "N",
      "WindowCenterWidthExplanation": "Algo1",
      "dBdt": 0.0},
    "slices": {}
  },
  "time": {
    "samples": {
      "AcquisitionNumber": [1, 2, 3, 4, 5, 6, 7, 8, 9, 10, 11, 12, 13, 14, 15, 16, 17, 18, 19, 20, 21, 22, 23, 24, 25, 26, 27, 28, 29, 30, 31, 32, 33, 34, 35, 36, 37, 38, 39, 40, 41, 42, 43, 44, 45, 46, 47, 48, 49, 50, 51, 52, 53, 54, 55, 56, 57, 58, 59, 60, 61, 62, 63, 64, 65, 66, 67, 68, 69, 70, 71, 72, 73, 74, 75, 76, 77, 78, 79, 80, 81, 82, 83, 84, 85, 86, 87, 88, 89, 90, 91, 92, 93, 94, 95, 96, 97, 98, 99, 100, 101, 102, 103, 104, 105, 106, 107, 108, 109, 110, 111, 112, 113, 114, 115, 116, 117, 118, 119, 120, 121, 122, 123, 124, 125, 126, 127, 128, 129, 130, 131, 132, 133, 134, 135, 136, 137, 138, 139, 140, 141, 142, 143, 144, 145, 146, 147, 148, 149, 150, 151, 152, 153, 154, 155, 156, 157, 158, 159, 160, 161, 162, 163, 164, 165, 166, 167, 168, 169, 170, 171, 172, 173, 174, 175, 176, 177, 178, 179, 180, 181, 182, 183, 184, 185, 186, 187, 188, 189, 190, 191, 192, 193, 194, 195, 196, 197, 198, 199, 200, 201, 202, 203, 204, 205, 206, 207, 208, 209, 210, 211, 212, 213, 214, 215, 216, 217, 218, 219, 220, 221, 222, 223, 224, 225, 226, 227, 228, 229, 230, 231, 232, 233, 234, 235, 236, 237, 238, 239, 240, 241, 242, 243, 244, 245, 246, 247, 248, 249, 250, 251, 252, 253, 254, 255, 256],
      "AcquisitionTime": ["143132.265000", "143134.265000", "143136.265000", "143138.265000", "143140.265000", "143142.265000", "143144.265000", "143146.265000", "143148.265000", "143150.265000", "143152.265000", "143154.265000", "143156.265000", "143158.265000", "143200.265000", "143202.265000", "143204.265000", "143206.265000", "143208.265000", "143210.265000", "143212.265000", "143214.265000", "143216.265000", "143218.265000", "143220.265000", "143222.265000", "143224.265000", "143226.265000", "143228.265000", "143230.265000", "143232.265000", "143234.265000", "143236.265000", "143238.265000", "143240.265000", "143242.265000", "143244.265000", "143246.265000", "143248.265000", "143250.265000", "143252.265000", "143254.265000", "143256.265000", "143258.265000", "143300.265000", "143302.265000", "143304.265000", "143306.265000", "143308.265000", "143310.265000", "143312.265000", "143314.265000", "143316.265000", "143318.265000", "143320.265000", "143322.265000", "143324.265000", "143326.265000", "143328.265000", "143330.265000", "143332.265000", "143334.265000", "143336.265000", "143338.265000", "143340.265000", "143342.265000", "143344.265000", "143346.265000", "143348.265000", "143350.265000", "143352.265000", "143354.265000", "143356.265000", "143358.265000", "143400.265000", "143402.265000", "143404.265000", "143406.265000", "143408.265000", "143410.265000", "143412.265000", "143414.265000", "143416.265000", "143418.265000", "143420.265000", "143422.265000", "143424.265000", "143426.265000", "143428.265000", "143430.265000", "143432.265000", "143434.265000", "143436.265000", "143438.265000", "143440.265000", "143442.265000", "143444.265000", "143446.265000", "143448.265000", "143450.265000", "143452.265000", "143454.265000", "143456.265000", "143458.265000", "143500.265000", "143502.265000", "143504.265000", "143506.265000", "143508.265000", "143510.265000", "143512.265000", "143514.265000", "143516.265000", "143518.265000", "143520.265000", "143522.265000", "143524.265000", "143526.265000", "143528.265000", "143530.265000", "143532.265000", "143534.265000", "143536.265000", "143538.265000", "143540.265000", "143542.265000", "143544.265000", "143546.265000", "143548.265000", "143550.265000", "143552.265000", "143554.265000", "143556.265000", "143558.265000", "143600.265000", "143602.265000", "143604.265000", "143606.265000", "143608.265000", "143610.265000", "143612.265000", "143614.265000", "143616.265000", "143618.265000", "143620.265000", "143622.265000", "143624.265000", "143626.265000", "143628.265000", "143630.265000", "143632.265000", "143634.265000", "143636.265000", "143638.265000", "143640.265000", "143642.265000", "143644.265000", "143646.265000", "143648.265000", "143650.265000", "143652.265000", "143654.265000", "143656.265000", "143658.265000", "143700.265000", "143702.265000", "143704.265000", "143706.265000", "143708.265000", "143710.265000", "143712.265000", "143714.265000", "143716.265000", "143718.265000", "143720.265000", "143722.265000", "143724.265000", "143726.265000", "143728.265000", "143730.265000", "143732.265000", "143734.265000", "143736.265000", "143738.265000", "143740.265000", "143742.265000", "143744.265000", "143746.265000", "143748.265000", "143750.265000", "143752.265000", "143754.265000", "143756.265000", "143758.265000", "143800.265000", "143802.265000", "143804.265000", "143806.265000", "143808.265000", "143810.265000", "143812.265000", "143814.265000", "143816.265000", "143818.265000", "143820.265000", "143822.265000", "143824.265000", "143826.265000", "143828.265000", "143830.265000", "143832.265000", "143834.265000", "143836.265000", "143838.265000", "143840.265000", "143842.265000", "143844.265000", "143846.265000", "143848.265000", "143850.265000", "143852.265000", "143854.265000", "143856.265000", "143858.265000", "143900.265000", "143902.265000", "143904.265000", "143906.265000", "143908.265000", "143910.265000", "143912.265000", "143914.265000", "143916.265000", "143918.265000", "143920.265000", "143922.265000", "143924.265000", "143926.265000", "143928.265000", "143930.265000", "143932.265000", "143934.265000", "143936.265000", "143938.265000", "143940.265000", "143942.265000", "143944.265000", "143946.265000", "143948.265000", "143950.265000", "143952.265000", "143954.265000", "143956.265000", "143958.265000", "144000.265000", "144002.265000"],
      "ContentTime": ["143134.355000", "143135.846000", "143137.847000", "143139.847000", "143141.848000", "143143.848000", "143145.848000", "143147.848000", "143149.847000", "143151.847000", "143153.846000", "143155.848000", "143157.847000", "143159.848000", "143201.847000", "143203.847000", "143205.847000", "143207.847000", "143209.846000", "143211.846000", "143213.848000", "143215.848000", "143217.848000", "143219.847000", "143221.847000", "143223.847000", "143225.847000", "143227.846000", "143229.846000", "143231.847000", "143233.848000", "143235.848000", "143237.848000", "143239.848000", "143241.848000", "143243.847000", "143245.846000", "143247.848000", "143249.848000", "143251.847000", "143253.847000", "143255.848000", "143257.848000", "143259.847000", "143301.846000", "143303.847000", "143305.847000", "143307.848000", "143309.848000", "143311.848000", "143313.847000", "143315.847000", "143317.847000", "143319.847000", "143321.846000", "143323.848000", "143325.848000", "143327.848000", "143329.848000", "143331.848000", "143333.847000", "143335.847000", "143337.847000", "143339.847000", "143341.847000", "143343.848000", "143345.848000", "143347.847000", "143349.847000", "143351.848000", "143353.847000", "143355.846000", "143357.847000", "143359.848000", "143401.848000", "143403.847000", "143405.847000", "143407.847000", "143409.847000", "143411.847000", "143413.847000", "143415.848000", "143417.847000", "143419.848000", "143421.847000", "143423.847000", "143425.848000", "143427.848000", "143429.847000", "143431.847000", "143433.847000", "143435.848000", "143437.848000", "143439.848000", "143441.847000", "143443.847000", "143445.847000", "143447.846000", "143449.848000", "143451.848000", "143453.847000", "143455.848000", "143457.848000", "143459.848000", "143501.848000", "143503.846000", "143505.847000", "143507.847000", "143509.848000", "143511.848000", "143513.848000", "143515.848000", "143517.847000", "143519.847000", "143521.847000", "143523.847000", "143525.847000", "143527.848000", "143529.847000", "143531.847000", "143533.847000", "143535.848000", "143537.848000", "143539.847000", "143541.847000", "143543.848000", "143545.847000", "143547.848000", "143549.847000", "143551.848000", "143553.847000", "143555.847000", "143557.847000", "143559.848000", "143601.848000", "143603.847000", "143605.847000", "143607.848000", "143609.848000", "143611.848000", "143613.847000", "143615.847000", "143617.848000", "143619.848000", "143621.848000", "143623.849000", "143625.847000", "143627.847000", "143629.847000", "143631.846000", "143633.847000", "143635.848000", "143637.848000", "143639.847000", "143641.848000", "143643.847000", "143645.848000", "143647.848000", "143649.846000", "143651.847000", "143653.848000", "143655.848000", "143657.847000", "143659.848000", "143701.847000", "143703.848000", "143705.847000", "143707.847000", "143709.848000", "143711.848000", "143713.848000", "143715.848000", "143717.848000", "143719.848000", "143721.848000", "143723.847000", "143725.847000", "143727.848000", "143729.847000", "143731.848000", "143733.848000", "143735.848000", "143737.848000", "143739.848000", "143741.846000", "143743.846000", "143745.847000", "143747.848000", "143749.848000", "143751.848000", "143753.848000", "143755.848000", "143757.848000", "143759.846000", "143801.847000", "143803.847000", "143805.847000", "143807.848000", "143809.868000", "143811.848000", "143813.848000", "143815.847000", "143817.846000", "143819.848000", "143821.848000", "143823.848000", "143825.848000", "143827.848000", "143829.848000", "143831.847000", "143833.847000", "143835.847000", "143837.848000", "143839.848000", "143841.848000", "143843.848000", "143845.848000", "143847.848000", "143849.848000", "143851.847000", "143853.847000", "143855.848000", "143857.848000", "143859.848000", "143901.848000", "143903.848000", "143905.848000", "143907.848000", "143909.846000", "143911.847000", "143913.848000", "143915.848000", "143917.847000", "143919.848000", "143921.847000", "143923.848000", "143925.847000", "143927.847000", "143929.848000", "143931.848000", "143933.848000", "143935.848000", "143937.848000", "143939.848000", "143941.848000", "143943.847000", "143945.847000", "143947.848000", "143949.848000", "143951.848000", "143953.848000", "143955.848000", "143957.848000", "143959.848000", "144001.846000", "144003.645000"],
      "InstanceCreationTime": ["143134.355000", "143135.846000", "143137.847000", "143139.847000", "143141.848000", "143143.848000", "143145.848000", "143147.848000", "143149.847000", "143151.847000", "143153.846000", "143155.848000", "143157.847000", "143159.848000", "143201.847000", "143203.847000", "143205.847000", "143207.847000", "143209.846000", "143211.846000", "143213.848000", "143215.848000", "143217.848000", "143219.847000", "143221.847000", "143223.847000", "143225.847000", "143227.846000", "143229.846000", "143231.847000", "143233.848000", "143235.848000", "143237.848000", "143239.848000", "143241.848000", "143243.847000", "143245.846000", "143247.848000", "143249.848000", "143251.847000", "143253.847000", "143255.848000", "143257.848000", "143259.847000", "143301.846000", "143303.847000", "143305.847000", "143307.848000", "143309.848000", "143311.848000", "143313.847000", "143315.847000", "143317.847000", "143319.847000", "143321.846000", "143323.848000", "143325.848000", "143327.848000", "143329.848000", "143331.848000", "143333.847000", "143335.847000", "143337.847000", "143339.847000", "143341.847000", "143343.848000", "143345.848000", "143347.847000", "143349.847000", "143351.848000", "143353.847000", "143355.846000", "143357.847000", "143359.848000", "143401.848000", "143403.847000", "143405.847000", "143407.847000", "143409.847000", "143411.847000", "143413.847000", "143415.848000", "143417.847000", "143419.848000", "143421.847000", "143423.847000", "143425.848000", "143427.848000", "143429.847000", "143431.847000", "143433.847000", "143435.848000", "143437.848000", "143439.848000", "143441.847000", "143443.847000", "143445.847000", "143447.846000", "143449.848000", "143451.848000", "143453.847000", "143455.848000", "143457.848000", "143459.848000", "143501.848000", "143503.846000", "143505.847000", "143507.847000", "143509.848000", "143511.848000", "143513.848000", "143515.848000", "143517.847000", "143519.847000", "143521.847000", "143523.847000", "143525.847000", "143527.848000", "143529.847000", "143531.847000", "143533.847000", "143535.848000", "143537.848000", "143539.847000", "143541.847000", "143543.848000", "143545.847000", "143547.848000", "143549.847000", "143551.848000", "143553.847000", "143555.847000", "143557.847000", "143559.848000", "143601.848000", "143603.847000", "143605.847000", "143607.848000", "143609.848000", "143611.848000", "143613.847000", "143615.847000", "143617.848000", "143619.848000", "143621.848000", "143623.849000", "143625.847000", "143627.847000", "143629.847000", "143631.846000", "143633.847000", "143635.848000", "143637.848000", "143639.847000", "143641.848000", "143643.847000", "143645.848000", "143647.848000", "143649.846000", "143651.847000", "143653.848000", "143655.848000", "143657.847000", "143659.848000", "143701.847000", "143703.848000", "143705.847000", "143707.847000", "143709.848000", "143711.848000", "143713.848000", "143715.848000", "143717.848000", "143719.848000", "143721.848000", "143723.847000", "143725.847000", "143727.848000", "143729.847000", "143731.848000", "143733.848000", "143735.848000", "143737.848000", "143739.848000", "143741.846000", "143743.846000", "143745.847000", "143747.848000", "143749.848000", "143751.848000", "143753.848000", "143755.848000", "143757.848000", "143759.846000", "143801.847000", "143803.847000", "143805.847000", "143807.848000", "143809.868000", "143811.848000", "143813.848000", "143815.847000", "143817.846000", "143819.848000", "143821.848000", "143823.848000", "143825.848000", "143827.848000", "143829.848000", "143831.847000", "143833.847000", "143835.847000", "143837.848000", "143839.848000", "143841.848000", "143843.848000", "143845.848000", "143847.848000", "143849.848000", "143851.847000", "143853.847000", "143855.848000", "143857.848000", "143859.848000", "143901.848000", "143903.848000", "143905.848000", "143907.848000", "143909.846000", "143911.847000", "143913.848000", "143915.848000", "143917.847000", "143919.848000", "143921.847000", "143923.848000", "143925.847000", "143927.847000", "143929.848000", "143931.848000", "143933.848000", "143935.848000", "143937.848000", "143939.848000", "143941.848000", "143943.847000", "143945.847000", "143947.848000", "143949.848000", "143951.848000", "143953.848000", "143955.848000", "143957.848000", "143959.848000", "144001.846000", "144003.645000"],
      "InstanceNumber": [1, 2, 3, 4, 5, 6, 7, 8, 9, 10, 11, 12, 13, 14, 15, 16, 17, 18, 19, 20, 21, 22, 23, 24, 25, 26, 27, 28, 29, 30, 31, 32, 33, 34, 35, 36, 37, 38, 39, 40, 41, 42, 43, 44, 45, 46, 47, 48, 49, 50, 51, 52, 53, 54, 55, 56, 57, 58, 59, 60, 61, 62, 63, 64, 65, 66, 67, 68, 69, 70, 71, 72, 73, 74, 75, 76, 77, 78, 79, 80, 81, 82, 83, 84, 85, 86, 87, 88, 89, 90, 91, 92, 93, 94, 95, 96, 97, 98, 99, 100, 101, 102, 103, 104, 105, 106, 107, 108, 109, 110, 111, 112, 113, 114, 115, 116, 117, 118, 119, 120, 121, 122, 123, 124, 125, 126, 127, 128, 129, 130, 131, 132, 133, 134, 135, 136, 137, 138, 139, 140, 141, 142, 143, 144, 145, 146, 147, 148, 149, 150, 151, 152, 153, 154, 155, 156, 157, 158, 159, 160, 161, 162, 163, 164, 165, 166, 167, 168, 169, 170, 171, 172, 173, 174, 175, 176, 177, 178, 179, 180, 181, 182, 183, 184, 185, 186, 187, 188, 189, 190, 191, 192, 193, 194, 195, 196, 197, 198, 199, 200, 201, 202, 203, 204, 205, 206, 207, 208, 209, 210, 211, 212, 213, 214, 215, 216, 217, 218, 219, 220, 221, 222, 223, 224, 225, 226, 227, 228, 229, 230, 231, 232, 233, 234, 235, 236, 237, 238, 239, 240, 241, 242, 243, 244, 245, 246, 247, 248, 249, 250, 251, 252, 253, 254, 255, 256],
      "LargestImagePixelValue": [2918, 2822, 2825, 2811, 2833, 2824, 2846, 2788, 2766, 2816, 2793, 2827, 2812, 2840, 2825, 2822, 2825, 2806, 2821, 2821, 2808, 2799, 2776, 2784, 2780, 2780, 2823, 2805, 2821, 2811, 2797, 2815, 2841, 2847, 2815, 2824, 2776, 2807, 2787, 2792, 2818, 2831, 2810, 2789, 2800, 2779, 2874, 2900, 2842, 2812, 2803, 2800, 2788, 2801, 2837, 2832, 2829, 2831, 2844, 2820, 2892, 2819, 2835, 2809, 2824, 2892, 2855, 2844, 2858, 2829, 2825, 2815, 2805, 2937, 2943, 2855, 2847, 2851, 2961, 2877, 2876, 2872, 2878, 2880, 2924, 2884, 2878, 2881, 2908, 2887, 2870, 2869, 2904, 2925, 2899, 2902, 2891, 2881, 2885, 2897, 2870, 2896, 2901, 2878, 2932, 2955, 2886, 2875, 2873, 2872, 2931, 2885, 2952, 2978, 2885, 2945, 2899, 2897, 2878, 2874, 2861, 2883, 2865, 2908, 2883, 2881, 2916, 2890, 2898, 2909, 2917, 2881, 2891, 2894, 2854, 2864, 2865, 2863, 2919, 2888, 2861, 2851, 2908, 2887, 2941, 2929, 2891, 2916, 2893, 2883, 2902, 2870, 2916, 2916, 2949, 2925, 2921, 2940, 2841, 2949, 2945, 2867, 2899, 2938, 2958, 2940, 2883, 2879, 2891, 2923, 2862, 2862, 2860, 2876, 2846, 2885, 2857, 2849, 2867, 2863, 2865, 2878, 2865, 2860, 2846, 2798, 2856, 2906, 2927, 2876, 2861, 2857, 2871, 2847, 2854, 2846, 2805, 2773, 2822, 2804, 2779, 2801, 2850, 2807, 2812, 2868, 2857, 2961, 2905, 2859, 2840, 2810, 2936, 2902, 2903, 2911, 2863, 2865, 2903, 2873, 2912, 2887, 2888, 2920, 2945, 2901, 2931, 2941, 2915, 2849, 2864, 2925, 2889, 2902, 2880, 2893, 2948, 2981, 2889, 2935, 2883, 3075, 2949, 2884, 2905, 2865, 2994, 3001, 2971, 2936, 2911, 2927, 2913, 2917, 2903, 2911],
      "WindowCenter": [755.0, 753.0, 752.0, 752.0, 754.0, 755.0, 754.0, 752.0, 750.0, 751.0, 752.0, 754.0, 756.0, 757.0, 754.0, 752.0, 751.0, 751.0, 752.0, 752.0, 751.0, 752.0, 752.0, 753.0, 753.0, 754.0, 755.0, 754.0, 753.0, 753.0, 754.0, 754.0, 753.0, 752.0, 753.0, 753.0, 754.0, 754.0, 754.0, 754.0, 755.0, 754.0, 752.0, 754.0, 753.0, 754.0, 755.0, 754.0, 753.0, 753.0, 753.0, 752.0, 751.0, 751.0, 752.0, 752.0, 752.0, 752.0, 752.0, 752.0, 754.0, 753.0, 754.0, 753.0, 753.0, 754.0, 754.0, 752.0, 752.0, 752.0, 753.0, 754.0, 754.0, 753.0, 754.0, 755.0, 756.0, 757.0, 754.0, 752.0, 753.0, 754.0, 755.0, 754.0, 753.0, 753.0, 749.0, 755.0, 755.0, 756.0, 755.0, 753.0, 753.0, 753.0, 753.0, 753.0, 753.0, 753.0, 752.0, 752.0, 752.0, 753.0, 755.0, 755.0, 755.0, 755.0, 754.0, 754.0, 754.0, 754.0, 754.0, 751.0, 754.0, 754.0, 749.0, 755.0, 755.0, 757.0, 756.0, 754.0, 753.0, 754.0, 753.0, 754.0, 753.0, 752.0, 752.0, 753.0, 755.0, 757.0, 755.0, 755.0, 754.0, 755.0, 754.0, 753.0, 751.0, 753.0, 756.0, 756.0, 751.0, 748.0, 753.0, 754.0, 756.0, 755.0, 753.0, 753.0, 754.0, 754.0, 754.0, 752.0, 753.0, 751.0, 754.0, 753.0, 756.0, 758.0, 754.0, 750.0, 755.0, 753.0, 754.0, 756.0, 757.0, 756.0, 754.0, 753.0, 754.0, 754.0, 754.0, 754.0, 754.0, 753.0, 752.0, 752.0, 751.0, 752.0, 753.0, 753.0, 753.0, 753.0, 753.0, 751.0, 751.0, 749.0, 751.0, 756.0, 753.0, 753.0, 752.0, 752.0, 752.0, 752.0, 753.0, 752.0, 751.0, 750.0, 752.0, 754.0, 755.0, 756.0, 756.0, 753.0, 750.0, 752.0, 750.0, 751.0, 754.0, 756.0, 757.0, 754.0, 752.0, 751.0, 750.0, 751.0, 751.0, 751.0, 752.0, 752.0, 752.0, 753.0, 754.0, 751.0, 755.0, 754.0, 756.0, 756.0, 754.0, 753.0, 754.0, 755.0, 755.0, 753.0, 752.0, 751.0, 753.0, 753.0, 755.0, 756.0, 752.0, 755.0, 755.0, 752.0, 753.0, 751.0, 758.0, 760.0, 759.0, 756.0, 753.0, 752.0, 752.0, 752.0, 754.0, 754.0],
      "WindowWidth": [1634.0, 1627.0, 1625.0, 1626.0, 1631.0, 1634.0, 1630.0, 1624.0, 1620.0, 1621.0, 1625.0, 1631.0, 1636.0, 1637.0, 1632.0, 1625.0, 1623.0, 1623.0, 1624.0, 1625.0, 1623.0, 1624.0, 1625.0, 1626.0, 1628.0, 1630.0, 1632.0, 1631.0, 1628.0, 1628.0, 1631.0, 1631.0, 1629.0, 1625.0, 1627.0, 1629.0, 1631.0, 1630.0, 1630.0, 1630.0, 1631.0, 1631.0, 1626.0, 1629.0, 1629.0, 1629.0, 1632.0, 1631.0, 1628.0, 1627.0, 1627.0, 1625.0, 1623.0, 1624.0, 1626.0, 1626.0, 1626.0, 1625.0, 1626.0, 1625.0, 1630.0, 1629.0, 1629.0, 1628.0, 1628.0, 1630.0, 1629.0, 1626.0, 1623.0, 1624.0, 1628.0, 1631.0, 1629.0, 1627.0, 1629.0, 1631.0, 1635.0, 1637.0, 1629.0, 1625.0, 1627.0, 1631.0, 1632.0, 1629.0, 1626.0, 1628.0, 1615.0, 1633.0, 1633.0, 1634.0, 1632.0, 1627.0, 1626.0, 1627.0, 1627.0, 1628.0, 1628.0, 1627.0, 1626.0, 1624.0, 1624.0, 1627.0, 1631.0, 1632.0, 1633.0, 1632.0, 1630.0, 1629.0, 1631.0, 1630.0, 1631.0, 1624.0, 1630.0, 1628.0, 1616.0, 1633.0, 1633.0, 1637.0, 1635.0, 1631.0, 1628.0, 1629.0, 1628.0, 1629.0, 1627.0, 1625.0, 1623.0, 1626.0, 1633.0, 1638.0, 1632.0, 1632.0, 1630.0, 1632.0, 1631.0, 1626.0, 1622.0, 1628.0, 1634.0, 1634.0, 1620.0, 1611.0, 1628.0, 1628.0, 1635.0, 1633.0, 1628.0, 1628.0, 1629.0, 1630.0, 1630.0, 1624.0, 1627.0, 1621.0, 1629.0, 1626.0, 1635.0, 1639.0, 1629.0, 1617.0, 1633.0, 1627.0, 1629.0, 1633.0, 1636.0, 1635.0, 1630.0, 1628.0, 1629.0, 1629.0, 1629.0, 1631.0, 1629.0, 1627.0, 1625.0, 1624.0, 1622.0, 1625.0, 1627.0, 1628.0, 1627.0, 1627.0, 1628.0, 1623.0, 1622.0, 1618.0, 1621.0, 1635.0, 1628.0, 1627.0, 1624.0, 1624.0, 1625.0, 1626.0, 1628.0, 1625.0, 1623.0, 1619.0, 1625.0, 1629.0, 1634.0, 1636.0, 1635.0, 1626.0, 1620.0, 1624.0, 1617.0, 1621.0, 1629.0, 1634.0, 1637.0, 1630.0, 1625.0, 1621.0, 1620.0, 1621.0, 1621.0, 1623.0, 1624.0, 1625.0, 1626.0, 1626.0, 1629.0, 1621.0, 1632.0, 1629.0, 1635.0, 1634.0, 1630.0, 1627.0, 1630.0, 1632.0, 1632.0, 1627.0, 1625.0, 1622.0, 1626.0, 1627.0, 1631.0, 1634.0, 1624.0, 1632.0, 1632.0, 1622.0, 1627.0, 1619.0, 1640.0, 1644.0, 1643.0, 1635.0, 1626.0, 1623.0, 1623.0, 1624.0, 1628.0, 1630.0]
    },
    "slices": {}
  }
}