{
  "AcquisitionMatrixPE": 100,
  "AcquisitionNumber": 1,
  "AcquisitionTime": "13:04:40.835000",
  "BandwidthPerPixelPhaseEncode": 18.519,
  "BaseResolution": 100,
  "BodyPartExamined": "BRAIN",
  "ConsistencyInfo": "N4_VE11C_LATEST_20160120",
  "ConversionSoftware": "dcm2niix",
  "ConversionSoftwareVersion": "v1.0.20180622 GCC4.9.2",
  "DerivedVendorReportedEchoSpacing": 0.000539986,
  "DeviceSerialNumber": "166078",
  "DwellTime": 2.1e-06,
  "EchoTime": 0.034,
  "EchoTrainLength": 100,
  "EffectiveEchoSpacing": 0.000539986,
  "FlipAngle": 90,
  "ImageOrientationPatientDICOM": [0.997314, 0.0730936, -0.00459866, -0.0732382, 0.995346, -0.0626219],
  "ImageType": [
    "ORIGINAL",
    "PRIMARY",
    "M",
    "ND",
    "MOSAIC"
],
  "InPlanePhaseEncodingDirectionDICOM": "COL",
  "InstitutionAddress": "Street_StreetNo_Bei_Jing_District_CN_ZIP",
  "InstitutionName": "BeiJing_Normal_University",
  "InstitutionalDepartmentName": "Department",
  "MRAcquisitionType": "2D",
  "MagneticFieldStrength": 3,
  "Manufacturer": "Siemens",
  "ManufacturersModelName": "Prisma",
  "Modality": "MR",
  "MultibandAccelerationFactor": 3,
  "PartialFourier": 1,
  "PatientPosition": "HFS",
  "PercentPhaseFOV": 100,
  "PhaseEncodingDirection": "j-",
  "PhaseEncodingSteps": 100,
  "PhaseResolution": 1,
  "PixelBandwidth": 2380,
  "ProcedureStepDescription": "BNU_P2018_64CH_Zhen.ZongLei",
  "ProtocolName": "bold_100x100_s3_2x2x2_static_256",
  "PulseSequenceDetails": "%SiemensSeq%_ep2d_bold",
  "ReceiveCoilActiveElements": "HC1-7;NC1",
  "ReceiveCoilName": "HeadNeck_64",
  "ReconMatrixPE": 100,
  "RepetitionTime": 2,
  "SAR": 0.0699765,
  "ScanOptions": "FS",
  "ScanningSequence": "EP",
  "SequenceName": "_epfid2d1_100",
  "SequenceVariant": "SK",
  "SeriesDescription": "bold_100x100_s3_2x2x2_static_256",
  "SeriesNumber": 3,
  "ShimSetting": [-5482, -11536, -1236, 366, -90, -476, -69, 85],
  "SliceThickness": 2,
  "SliceTiming": [1.485, 0, 0.99, 0.0825, 1.0725, 0.165, 1.155, 0.2475, 1.2375, 0.33, 1.32, 0.4125, 1.4025, 0.5775, 1.5675, 0.66, 1.65, 0.7425, 1.7325, 0.825, 1.815, 0.9075, 1.8975, 0.495, 1.485, 0, 0.99, 0.0825, 1.0725, 0.165, 1.155, 0.2475, 1.2375, 0.33, 1.32, 0.4125, 1.4025, 0.5775, 1.5675, 0.66, 1.65, 0.7425, 1.7325, 0.825, 1.815, 0.9075, 1.8975, 0.495, 1.485, 0, 0.99, 0.0825, 1.0725, 0.165, 1.155, 0.2475, 1.2375, 0.33, 1.32, 0.4125, 1.4025, 0.5775, 1.5675, 0.66, 1.65, 0.7425, 1.7325, 0.825, 1.815, 0.9075, 1.8975, 0.495],
  "SoftwareVersions": "syngo_MR_E11",
  "SpacingBetweenSlices": 2,
  "StationName": "AWP166078",
  "TaskName": "naturalvision",
  "TotalReadoutTime": 0.0534586,
  "TxRefAmp": 215.227,
  "dcmmeta_affine": [
    [-1.99462890625, -0.14647632837295532, -2.100293938767095e-09, 105.5528564453125],
    [-0.14618729054927826, 1.9906929731369019, -0.1255810409784317, -79.49573516845703],
    [-0.009197327308356762, 0.12524378299713135, 1.9960534572601318, -79.80620574951172],
    [0.0, 0.0, 0.0, 1.0]
],
  "dcmmeta_reorient_transform": [
    [0.0, -1.0, 0.0, 99.0],
    [1.0, 0.0, 0.0, 0.0],
    [0.0, 0.0, 1.0, 0.0],
    [0.0, 0.0, 0.0, 1.0]
],
  "dcmmeta_shape": [100, 100, 72, 256],
  "dcmmeta_slice_dim": 2,
  "dcmmeta_version": 0.6,
  "global": {
    "const": {
      "AcquisitionMatrix": [100, 0, 0, 100],
      "AngioFlag": "N",
      "BitsAllocated": 16,
      "BitsStored": 12,
      "BodyPartExamined": "BRAIN",
      "Columns": 900,
      "EchoNumbers": 1,
      "EchoTime": 34.0,
      "EchoTrainLength": 100,
      "FlipAngle": 90.0,
      "HighBit": 11,
      "ImageOrientationPatient": [0.99731447961034, 0.07309364578567, -0.0045986634275, -0.0732381646381, 0.9953465073257, -0.0626218938949],
      "ImagePositionPatient": [-830.31275123929, -972.33499888421, -13.630625912343],
      "ImageType": [
        "ORIGINAL",
        "PRIMARY",
        "M",
        "ND",
        "MOSAIC"
],
      "ImagedNucleus": "1H",
      "ImagingFrequency": 123.257686,
      "InPlanePhaseEncodingDirection": "COL",
      "MRAcquisitionType": "2D",
      "MagneticFieldStrength": 3.0,
      "Manufacturer": "SIEMENS",
      "ManufacturerModelName": "Prisma",
      "Modality": "MR",
      "NumberOfAverages": 1.0,
      "NumberOfPhaseEncodingSteps": 100,
      "PercentPhaseFieldOfView": 100.0,
      "PercentSampling": 100.0,
      "PerformedProcedureStepStartTime": "130145.255000",
      "PhotometricInterpretation": "MONOCHROME2",
      "PixelBandwidth": 2380.0,
      "PixelRepresentation": 0,
      "PixelSpacing": [2.0, 2.0],
      "ProtocolName": "bold_100x100_s3_2x2x2_static_256",
      "RepetitionTime": 2000.0,
      "Rows": 900,
      "SAR": 0.06997647658602,
      "SamplesPerPixel": 1,
      "ScanOptions": "FS",
      "ScanningSequence": "EP",
      "SequenceName": "*epfid2d1_100",
      "SequenceVariant": "SK",
      "SeriesDescription": "bold_100x100_s3_2x2x2_static_256",
      "SeriesNumber": 3,
      "SeriesTime": "130443.188000",
      "SliceLocation": -74.657149265642,
      "SliceThickness": 2.0,
      "SmallestImagePixelValue": 0,
      "SoftwareVersions": "syngo MR E11",
      "SpacingBetweenSlices": 1.9999999970797,
      "SpecificCharacterSet": "ISO_IR 100",
      "StudyID": "1",
      "StudyTime": "130145.187000",
      "TransmitCoilName": "Body",
      "VariableFlipAngleFlag": "N",
      "WindowCenterWidthExplanation": "Algo1",
      "dBdt": 0.0},
    "slices": {}
  },
  "time": {
    "samples": {
      "AcquisitionNumber": [1, 2, 3, 4, 5, 6, 7, 8, 9, 10, 11, 12, 13, 14, 15, 16, 17, 18, 19, 20, 21, 22, 23, 24, 25, 26, 27, 28, 29, 30, 31, 32, 33, 34, 35, 36, 37, 38, 39, 40, 41, 42, 43, 44, 45, 46, 47, 48, 49, 50, 51, 52, 53, 54, 55, 56, 57, 58, 59, 60, 61, 62, 63, 64, 65, 66, 67, 68, 69, 70, 71, 72, 73, 74, 75, 76, 77, 78, 79, 80, 81, 82, 83, 84, 85, 86, 87, 88, 89, 90, 91, 92, 93, 94, 95, 96, 97, 98, 99, 100, 101, 102, 103, 104, 105, 106, 107, 108, 109, 110, 111, 112, 113, 114, 115, 116, 117, 118, 119, 120, 121, 122, 123, 124, 125, 126, 127, 128, 129, 130, 131, 132, 133, 134, 135, 136, 137, 138, 139, 140, 141, 142, 143, 144, 145, 146, 147, 148, 149, 150, 151, 152, 153, 154, 155, 156, 157, 158, 159, 160, 161, 162, 163, 164, 165, 166, 167, 168, 169, 170, 171, 172, 173, 174, 175, 176, 177, 178, 179, 180, 181, 182, 183, 184, 185, 186, 187, 188, 189, 190, 191, 192, 193, 194, 195, 196, 197, 198, 199, 200, 201, 202, 203, 204, 205, 206, 207, 208, 209, 210, 211, 212, 213, 214, 215, 216, 217, 218, 219, 220, 221, 222, 223, 224, 225, 226, 227, 228, 229, 230, 231, 232, 233, 234, 235, 236, 237, 238, 239, 240, 241, 242, 243, 244, 245, 246, 247, 248, 249, 250, 251, 252, 253, 254, 255, 256],
      "AcquisitionTime": ["130440.835000", "130442.835000", "130444.835000", "130446.835000", "130448.835000", "130450.835000", "130452.835000", "130454.835000", "130456.835000", "130458.835000", "130500.835000", "130502.835000", "130504.835000", "130506.835000", "130508.835000", "130510.835000", "130512.835000", "130514.835000", "130516.835000", "130518.835000", "130520.835000", "130522.835000", "130524.835000", "130526.835000", "130528.835000", "130530.835000", "130532.835000", "130534.835000", "130536.835000", "130538.835000", "130540.835000", "130542.835000", "130544.835000", "130546.835000", "130548.835000", "130550.835000", "130552.835000", "130554.835000", "130556.835000", "130558.835000", "130600.835000", "130602.835000", "130604.835000", "130606.835000", "130608.835000", "130610.835000", "130612.835000", "130614.835000", "130616.835000", "130618.835000", "130620.835000", "130622.835000", "130624.835000", "130626.835000", "130628.835000", "130630.835000", "130632.835000", "130634.835000", "130636.835000", "130638.835000", "130640.835000", "130642.835000", "130644.835000", "130646.835000", "130648.835000", "130650.835000", "130652.835000", "130654.835000", "130656.835000", "130658.835000", "130700.835000", "130702.835000", "130704.835000", "130706.835000", "130708.835000", "130710.835000", "130712.835000", "130714.835000", "130716.835000", "130718.835000", "130720.835000", "130722.835000", "130724.835000", "130726.835000", "130728.835000", "130730.835000", "130732.835000", "130734.835000", "130736.835000", "130738.835000", "130740.835000", "130742.835000", "130744.835000", "130746.835000", "130748.835000", "130750.835000", "130752.835000", "130754.835000", "130756.835000", "130758.835000", "130800.835000", "130802.835000", "130804.835000", "130806.835000", "130808.835000", "130810.835000", "130812.835000", "130814.835000", "130816.835000", "130818.835000", "130820.835000", "130822.835000", "130824.835000", "130826.835000", "130828.835000", "130830.835000", "130832.835000", "130834.835000", "130836.835000", "130838.835000", "130840.835000", "130842.835000", "130844.835000", "130846.835000", "130848.835000", "130850.835000", "130852.835000", "130854.835000", "130856.835000", "130858.835000", "130900.835000", "130902.835000", "130904.835000", "130906.835000", "130908.835000", "130910.835000", "130912.835000", "130914.835000", "130916.835000", "130918.835000", "130920.835000", "130922.835000", "130924.835000", "130926.835000", "130928.835000", "130930.835000", "130932.835000", "130934.835000", "130936.835000", "130938.835000", "130940.835000", "130942.835000", "130944.835000", "130946.835000", "130948.835000", "130950.835000", "130952.835000", "130954.835000", "130956.835000", "130958.835000", "131000.835000", "131002.835000", "131004.835000", "131006.835000", "131008.835000", "131010.835000", "131012.835000", "131014.835000", "131016.835000", "131018.835000", "131020.835000", "131022.835000", "131024.835000", "131026.835000", "131028.835000", "131030.835000", "131032.835000", "131034.835000", "131036.835000", "131038.835000", "131040.835000", "131042.835000", "131044.835000", "131046.835000", "131048.835000", "131050.835000", "131052.835000", "131054.835000", "131056.835000", "131058.835000", "131100.835000", "131102.835000", "131104.835000", "131106.835000", "131108.835000", "131110.835000", "131112.835000", "131114.835000", "131116.835000", "131118.835000", "131120.835000", "131122.835000", "131124.835000", "131126.835000", "131128.835000", "131130.835000", "131132.835000", "131134.835000", "131136.835000", "131138.835000", "131140.835000", "131142.835000", "131144.835000", "131146.835000", "131148.835000", "131150.835000", "131152.835000", "131154.835000", "131156.835000", "131158.835000", "131200.835000", "131202.835000", "131204.835000", "131206.835000", "131208.835000", "131210.835000", "131212.835000", "131214.835000", "131216.835000", "131218.835000", "131220.835000", "131222.835000", "131224.835000", "131226.835000", "131228.835000", "131230.835000", "131232.835000", "131234.835000", "131236.835000", "131238.835000", "131240.835000", "131242.835000", "131244.835000", "131246.835000", "131248.835000", "131250.835000", "131252.835000", "131254.835000", "131256.835000", "131258.835000", "131300.835000", "131302.835000", "131304.835000", "131306.835000", "131308.835000", "131310.835000"],
      "ContentTime": ["130443.192000", "130444.687000", "130446.687000", "130448.689000", "130450.688000", "130452.688000", "130454.687000", "130456.688000", "130458.687000", "130500.688000", "130502.688000", "130504.688000", "130506.688000", "130508.688000", "130510.688000", "130512.687000", "130514.688000", "130516.687000", "130518.688000", "130520.688000", "130522.689000", "130524.687000", "130526.687000", "130528.687000", "130530.687000", "130532.688000", "130534.687000", "130536.688000", "130538.688000", "130540.689000", "130542.687000", "130544.687000", "130546.688000", "130548.688000", "130550.688000", "130552.688000", "130554.687000", "130556.688000", "130558.689000", "130600.688000", "130602.687000", "130604.688000", "130606.688000", "130608.688000", "130610.688000", "130612.687000", "130614.688000", "130616.688000", "130618.687000", "130620.688000", "130622.687000", "130624.688000", "130626.687000", "130628.688000", "130630.687000", "130632.688000", "130634.688000", "130636.687000", "130638.688000", "130640.688000", "130642.687000", "130644.687000", "130646.688000", "130648.687000", "130650.689000", "130652.688000", "130654.688000", "130656.687000", "130658.687000", "130700.687000", "130702.688000", "130704.688000", "130706.688000", "130708.689000", "130710.687000", "130712.688000", "130714.687000", "130716.687000", "130718.688000", "130720.688000", "130722.687000", "130724.687000", "130726.689000", "130728.687000", "130730.688000", "130732.687000", "130734.688000", "130736.688000", "130738.687000", "130740.688000", "130742.689000", "130744.688000", "130746.688000", "130748.688000", "130750.688000", "130752.688000", "130754.688000", "130756.707000", "130758.687000", "130800.689000", "130802.687000", "130804.688000", "130806.688000", "130808.688000", "130810.688000", "130812.688000", "130814.688000", "130816.688000", "130818.688000", "130820.688000", "130822.688000", "130824.688000", "130826.688000", "130828.687000", "130830.688000", "130832.688000", "130834.688000", "130836.688000", "130838.688000", "130840.688000", "130842.687000", "130844.688000", "130846.687000", "130848.687000", "130850.688000", "130852.689000", "130854.687000", "130856.688000", "130858.688000", "130900.687000", "130902.688000", "130904.688000", "130906.687000", "130908.688000", "130910.689000", "130912.687000", "130914.688000", "130916.687000", "130918.688000", "130920.688000", "130922.688000", "130924.688000", "130926.688000", "130928.689000", "130930.688000", "130932.688000", "130934.688000", "130936.688000", "130938.687000", "130940.688000", "130942.688000", "130944.688000", "130946.689000", "130948.688000", "130950.701000", "130952.688000", "130954.687000", "130956.687000", "130958.687000", "131000.688000", "131002.689000", "131004.687000", "131006.688000", "131008.688000", "131010.688000", "131012.688000", "131014.688000", "131016.688000", "131018.687000", "131020.689000", "131022.688000", "131024.688000", "131026.687000", "131028.687000", "131030.687000", "131032.688000", "131034.688000", "131036.687000", "131038.689000", "131040.688000", "131042.687000", "131044.688000", "131046.688000", "131048.688000", "131050.688000", "131052.687000", "131054.689000", "131056.689000", "131058.688000", "131100.688000", "131102.689000", "131104.689000", "131106.688000", "131108.689000", "131110.688000", "131112.688000", "131114.688000", "131116.688000", "131118.688000", "131120.688000", "131122.687000", "131124.688000", "131126.688000", "131128.687000", "131130.689000", "131132.687000", "131134.688000", "131136.688000", "131138.687000", "131140.687000", "131142.687000", "131144.687000", "131146.687000", "131148.689000", "131150.688000", "131152.688000", "131154.688000", "131156.688000", "131158.688000", "131200.688000", "131202.688000", "131204.688000", "131206.688000", "131208.687000", "131210.688000", "131212.687000", "131214.688000", "131216.688000", "131218.688000", "131220.687000", "131222.689000", "131224.688000", "131226.688000", "131228.688000", "131230.688000", "131232.688000", "131234.688000", "131236.688000", "131238.688000", "131240.689000", "131242.688000", "131244.688000", "131246.687000", "131248.688000", "131250.688000", "131252.688000", "131254.688000", "131256.688000", "131258.689000", "131300.687000", "131302.688000", "131304.688000", "131306.688000", "131308.688000", "131310.688000", "131312.446000"],
      "InstanceCreationTime": ["130443.192000", "130444.687000", "130446.687000", "130448.689000", "130450.688000", "130452.688000", "130454.687000", "130456.688000", "130458.687000", "130500.688000", "130502.688000", "130504.688000", "130506.688000", "130508.688000", "130510.688000", "130512.687000", "130514.688000", "130516.687000", "130518.688000", "130520.688000", "130522.689000", "130524.687000", "130526.687000", "130528.687000", "130530.687000", "130532.688000", "130534.687000", "130536.688000", "130538.688000", "130540.689000", "130542.687000", "130544.687000", "130546.688000", "130548.688000", "130550.688000", "130552.688000", "130554.687000", "130556.688000", "130558.689000", "130600.688000", "130602.687000", "130604.688000", "130606.688000", "130608.688000", "130610.688000", "130612.687000", "130614.688000", "130616.688000", "130618.687000", "130620.688000", "130622.687000", "130624.688000", "130626.687000", "130628.688000", "130630.687000", "130632.688000", "130634.688000", "130636.687000", "130638.688000", "130640.688000", "130642.687000", "130644.687000", "130646.688000", "130648.687000", "130650.689000", "130652.688000", "130654.688000", "130656.687000", "130658.687000", "130700.687000", "130702.688000", "130704.688000", "130706.688000", "130708.689000", "130710.687000", "130712.688000", "130714.687000", "130716.687000", "130718.688000", "130720.688000", "130722.687000", "130724.687000", "130726.689000", "130728.687000", "130730.688000", "130732.687000", "130734.688000", "130736.688000", "130738.687000", "130740.688000", "130742.689000", "130744.688000", "130746.688000", "130748.688000", "130750.688000", "130752.688000", "130754.688000", "130756.707000", "130758.687000", "130800.689000", "130802.687000", "130804.688000", "130806.688000", "130808.688000", "130810.688000", "130812.688000", "130814.688000", "130816.688000", "130818.688000", "130820.688000", "130822.688000", "130824.688000", "130826.688000", "130828.687000", "130830.688000", "130832.688000", "130834.688000", "130836.688000", "130838.688000", "130840.688000", "130842.687000", "130844.688000", "130846.687000", "130848.687000", "130850.688000", "130852.689000", "130854.687000", "130856.688000", "130858.688000", "130900.687000", "130902.688000", "130904.688000", "130906.687000", "130908.688000", "130910.689000", "130912.687000", "130914.688000", "130916.687000", "130918.688000", "130920.688000", "130922.688000", "130924.688000", "130926.688000", "130928.689000", "130930.688000", "130932.688000", "130934.688000", "130936.688000", "130938.687000", "130940.688000", "130942.688000", "130944.688000", "130946.689000", "130948.688000", "130950.701000", "130952.688000", "130954.687000", "130956.687000", "130958.687000", "131000.688000", "131002.689000", "131004.687000", "131006.688000", "131008.688000", "131010.688000", "131012.688000", "131014.688000", "131016.688000", "131018.687000", "131020.689000", "131022.688000", "131024.688000", "131026.687000", "131028.687000", "131030.687000", "131032.688000", "131034.688000", "131036.687000", "131038.689000", "131040.688000", "131042.687000", "131044.688000", "131046.688000", "131048.688000", "131050.688000", "131052.687000", "131054.689000", "131056.689000", "131058.688000", "131100.688000", "131102.689000", "131104.689000", "131106.688000", "131108.689000", "131110.688000", "131112.688000", "131114.688000", "131116.688000", "131118.688000", "131120.688000", "131122.687000", "131124.688000", "131126.688000", "131128.687000", "131130.689000", "131132.687000", "131134.688000", "131136.688000", "131138.687000", "131140.687000", "131142.687000", "131144.687000", "131146.687000", "131148.689000", "131150.688000", "131152.688000", "131154.688000", "131156.688000", "131158.688000", "131200.688000", "131202.688000", "131204.688000", "131206.688000", "131208.687000", "131210.688000", "131212.687000", "131214.688000", "131216.688000", "131218.688000", "131220.687000", "131222.689000", "131224.688000", "131226.688000", "131228.688000", "131230.688000", "131232.688000", "131234.688000", "131236.688000", "131238.688000", "131240.689000", "131242.688000", "131244.688000", "131246.687000", "131248.688000", "131250.688000", "131252.688000", "131254.688000", "131256.688000", "131258.689000", "131300.687000", "131302.688000", "131304.688000", "131306.688000", "131308.688000", "131310.688000", "131312.446000"],
      "InstanceNumber": [1, 2, 3, 4, 5, 6, 7, 8, 9, 10, 11, 12, 13, 14, 15, 16, 17, 18, 19, 20, 21, 22, 23, 24, 25, 26, 27, 28, 29, 30, 31, 32, 33, 34, 35, 36, 37, 38, 39, 40, 41, 42, 43, 44, 45, 46, 47, 48, 49, 50, 51, 52, 53, 54, 55, 56, 57, 58, 59, 60, 61, 62, 63, 64, 65, 66, 67, 68, 69, 70, 71, 72, 73, 74, 75, 76, 77, 78, 79, 80, 81, 82, 83, 84, 85, 86, 87, 88, 89, 90, 91, 92, 93, 94, 95, 96, 97, 98, 99, 100, 101, 102, 103, 104, 105, 106, 107, 108, 109, 110, 111, 112, 113, 114, 115, 116, 117, 118, 119, 120, 121, 122, 123, 124, 125, 126, 127, 128, 129, 130, 131, 132, 133, 134, 135, 136, 137, 138, 139, 140, 141, 142, 143, 144, 145, 146, 147, 148, 149, 150, 151, 152, 153, 154, 155, 156, 157, 158, 159, 160, 161, 162, 163, 164, 165, 166, 167, 168, 169, 170, 171, 172, 173, 174, 175, 176, 177, 178, 179, 180, 181, 182, 183, 184, 185, 186, 187, 188, 189, 190, 191, 192, 193, 194, 195, 196, 197, 198, 199, 200, 201, 202, 203, 204, 205, 206, 207, 208, 209, 210, 211, 212, 213, 214, 215, 216, 217, 218, 219, 220, 221, 222, 223, 224, 225, 226, 227, 228, 229, 230, 231, 232, 233, 234, 235, 236, 237, 238, 239, 240, 241, 242, 243, 244, 245, 246, 247, 248, 249, 250, 251, 252, 253, 254, 255, 256],
      "LargestImagePixelValue": [3382, 3399, 3226, 3254, 3209, 3183, 3439, 3208, 3224, 3198, 3395, 3223, 3216, 3193, 3341, 3404, 3201, 3218, 3237, 3396, 3465, 3198, 3207, 3449, 3423, 3153, 3238, 3217, 3281, 3436, 3271, 3203, 3194, 3191, 3425, 3181, 3161, 3163, 3410, 3407, 3112, 3180, 3173, 3277, 3505, 3351, 3173, 3222, 3387, 3414, 3174, 3155, 3155, 3312, 3362, 3166, 3144, 3282, 3407, 3139, 3197, 3220, 3409, 3117, 3173, 3215, 3289, 3115, 3159, 3145, 3128, 3114, 3271, 3092, 3109, 3073, 3311, 3134, 3115, 3087, 3279, 3328, 3107, 3115, 3378, 3322, 3243, 3109, 3135, 3346, 3440, 3241, 3156, 3118, 3194, 3319, 3129, 3139, 3172, 3291, 3128, 3220, 3242, 3132, 3148, 3175, 3272, 3178, 3147, 3105, 3145, 3304, 3152, 3171, 3151, 3096, 3118, 3094, 3064, 3084, 3092, 3110, 3233, 3113, 3163, 3198, 3074, 3058, 3114, 3202, 3147, 3116, 3237, 3115, 3179, 3179, 3150, 3188, 3257, 3385, 3285, 3149, 3208, 3305, 3339, 3184, 3210, 3197, 3213, 3282, 3267, 3239, 3233, 3345, 3167, 3240, 3252, 3235, 3229, 3255, 3155, 3144, 3209, 3232, 3195, 3235, 3175, 3144, 3164, 3179, 3167, 3196, 3190, 3204, 3156, 3114, 3169, 3140, 3137, 3114, 3117, 3175, 3143, 3171, 3245, 3232, 3256, 3171, 3207, 3182, 3258, 3279, 3152, 3176, 3157, 3210, 3195, 3179, 3126, 3139, 3152, 3123, 3122, 3154, 3298, 3177, 3157, 3207, 3212, 3154, 3136, 3149, 3143, 3127, 3113, 3133, 3115, 3115, 3123, 3125, 3194, 3177, 3136, 3168, 3145, 3139, 3107, 3125, 3157, 3155, 3117, 3107, 3148, 3130, 3120, 3119, 3134, 3171, 3216, 3181, 3178, 3190, 3163, 3131, 3191, 3165, 3169, 3124, 3801, 3574, 3237, 3222, 3123, 3160, 3189, 3229],
      "WindowCenter": [760.0, 759.0, 758.0, 758.0, 757.0, 758.0, 760.0, 758.0, 758.0, 758.0, 760.0, 760.0, 759.0, 758.0, 760.0, 760.0, 759.0, 759.0, 760.0, 760.0, 760.0, 758.0, 758.0, 761.0, 761.0, 758.0, 758.0, 758.0, 759.0, 760.0, 759.0, 758.0, 757.0, 757.0, 759.0, 758.0, 758.0, 757.0, 759.0, 760.0, 758.0, 757.0, 757.0, 758.0, 759.0, 759.0, 759.0, 759.0, 760.0, 760.0, 758.0, 758.0, 758.0, 760.0, 761.0, 759.0, 758.0, 759.0, 760.0, 758.0, 759.0, 759.0, 761.0, 759.0, 758.0, 758.0, 759.0, 758.0, 757.0, 756.0, 756.0, 757.0, 758.0, 757.0, 757.0, 757.0, 759.0, 758.0, 759.0, 758.0, 759.0, 759.0, 758.0, 759.0, 761.0, 760.0, 759.0, 758.0, 759.0, 761.0, 762.0, 760.0, 759.0, 758.0, 758.0, 760.0, 759.0, 759.0, 759.0, 760.0, 759.0, 759.0, 759.0, 758.0, 758.0, 759.0, 760.0, 759.0, 758.0, 758.0, 759.0, 760.0, 758.0, 758.0, 758.0, 757.0, 756.0, 756.0, 756.0, 756.0, 756.0, 757.0, 759.0, 758.0, 758.0, 758.0, 757.0, 756.0, 759.0, 760.0, 759.0, 758.0, 759.0, 759.0, 760.0, 760.0, 760.0, 759.0, 761.0, 762.0, 760.0, 759.0, 759.0, 760.0, 761.0, 760.0, 760.0, 760.0, 760.0, 760.0, 760.0, 760.0, 759.0, 760.0, 760.0, 761.0, 761.0, 761.0, 761.0, 761.0, 760.0, 759.0, 760.0, 760.0, 760.0, 760.0, 760.0, 759.0, 759.0, 760.0, 760.0, 760.0, 760.0, 760.0, 759.0, 759.0, 759.0, 759.0, 760.0, 759.0, 759.0, 760.0, 760.0, 760.0, 761.0, 760.0, 760.0, 759.0, 759.0, 759.0, 761.0, 762.0, 760.0, 760.0, 760.0, 760.0, 761.0, 760.0, 759.0, 760.0, 759.0, 759.0, 760.0, 762.0, 762.0, 760.0, 760.0, 760.0, 760.0, 760.0, 760.0, 760.0, 759.0, 759.0, 759.0, 759.0, 759.0, 759.0, 760.0, 759.0, 760.0, 761.0, 762.0, 761.0, 759.0, 759.0, 758.0, 758.0, 759.0, 760.0, 759.0, 760.0, 760.0, 760.0, 758.0, 758.0, 759.0, 761.0, 761.0, 761.0, 761.0, 761.0, 759.0, 760.0, 762.0, 761.0, 760.0, 758.0, 747.0, 770.0, 763.0, 762.0, 760.0, 760.0, 760.0, 762.0],
      "WindowWidth": [1644.0, 1640.0, 1637.0, 1636.0, 1635.0, 1636.0, 1641.0, 1637.0, 1637.0, 1636.0, 1643.0, 1642.0, 1641.0, 1638.0, 1641.0, 1641.0, 1639.0, 1640.0, 1642.0, 1642.0, 1641.0, 1636.0, 1637.0, 1645.0, 1644.0, 1638.0, 1638.0, 1637.0, 1639.0, 1642.0, 1639.0, 1637.0, 1635.0, 1634.0, 1640.0, 1636.0, 1635.0, 1634.0, 1640.0, 1642.0, 1636.0, 1634.0, 1633.0, 1636.0, 1640.0, 1640.0, 1638.0, 1640.0, 1642.0, 1641.0, 1637.0, 1636.0, 1636.0, 1641.0, 1643.0, 1638.0, 1636.0, 1639.0, 1641.0, 1638.0, 1639.0, 1640.0, 1644.0, 1638.0, 1637.0, 1637.0, 1639.0, 1635.0, 1632.0, 1630.0, 1631.0, 1633.0, 1637.0, 1634.0, 1632.0, 1632.0, 1638.0, 1637.0, 1639.0, 1636.0, 1639.0, 1640.0, 1637.0, 1638.0, 1645.0, 1642.0, 1639.0, 1636.0, 1638.0, 1645.0, 1647.0, 1641.0, 1638.0, 1636.0, 1637.0, 1641.0, 1639.0, 1638.0, 1639.0, 1641.0, 1638.0, 1639.0, 1639.0, 1635.0, 1636.0, 1640.0, 1642.0, 1639.0, 1637.0, 1636.0, 1638.0, 1641.0, 1637.0, 1637.0, 1635.0, 1633.0, 1631.0, 1631.0, 1632.0, 1631.0, 1631.0, 1634.0, 1639.0, 1636.0, 1636.0, 1636.0, 1633.0, 1631.0, 1638.0, 1641.0, 1638.0, 1635.0, 1638.0, 1638.0, 1641.0, 1642.0, 1640.0, 1640.0, 1643.0, 1647.0, 1642.0, 1637.0, 1638.0, 1642.0, 1644.0, 1642.0, 1641.0, 1641.0, 1641.0, 1643.0, 1642.0, 1641.0, 1640.0, 1641.0, 1641.0, 1643.0, 1645.0, 1644.0, 1643.0, 1643.0, 1641.0, 1639.0, 1640.0, 1641.0, 1641.0, 1642.0, 1641.0, 1638.0, 1639.0, 1640.0, 1640.0, 1642.0, 1640.0, 1640.0, 1639.0, 1638.0, 1639.0, 1639.0, 1640.0, 1639.0, 1640.0, 1641.0, 1641.0, 1642.0, 1643.0, 1642.0, 1642.0, 1639.0, 1638.0, 1639.0, 1645.0, 1646.0, 1641.0, 1641.0, 1640.0, 1642.0, 1643.0, 1640.0, 1640.0, 1640.0, 1639.0, 1639.0, 1641.0, 1646.0, 1647.0, 1641.0, 1641.0, 1642.0, 1642.0, 1641.0, 1641.0, 1640.0, 1638.0, 1638.0, 1640.0, 1640.0, 1639.0, 1640.0, 1642.0, 1638.0, 1640.0, 1643.0, 1646.0, 1645.0, 1639.0, 1637.0, 1635.0, 1636.0, 1639.0, 1640.0, 1638.0, 1641.0, 1642.0, 1640.0, 1637.0, 1637.0, 1639.0, 1644.0, 1644.0, 1644.0, 1643.0, 1643.0, 1639.0, 1641.0, 1647.0, 1643.0, 1640.0, 1636.0, 1605.0, 1669.0, 1651.0, 1648.0, 1641.0, 1640.0, 1642.0, 1645.0]
    },
    "slices": {}
  }
}