{
 "AcquisitionMatrixPE": 100,
 "AcquisitionNumber": 1,
 "AcquisitionTime": "09:27:35.602500",
 "BandwidthPerPixelPhaseEncode": 18.519,
 "BaseResolution": 100,
 "BodyPartExamined": "BRAIN",
 "ConsistencyInfo": "N4_VE11C_LATEST_20160120",
 "ConversionSoftware": "dcm2niix",
 "ConversionSoftwareVersion": "v1.0.20180622 GCC4.9.2",
 "DerivedVendorReportedEchoSpacing": 0.000539986,
 "DeviceSerialNumber": "166078",
 "DwellTime": 2.1e-06,
 "EchoTime": 0.034,
 "EchoTrainLength": 100,
 "EffectiveEchoSpacing": 0.000539986,
 "FlipAngle": 90,
 "ImageOrientationPatientDICOM": [
  1,
  0,
  0,
  0,
  0.973179,
  -0.23005
 ],
 "ImageType": [
  "ORIGINAL",
  "PRIMARY",
  "M",
  "ND",
  "MOSAIC"
 ],
 "InPlanePhaseEncodingDirectionDICOM": "COL",
 "InstitutionAddress": "Street_StreetNo_Bei_Jing_District_CN_ZIP",
 "InstitutionName": "BeiJing_Normal_University",
 "InstitutionalDepartmentName": "Department",
 "MRAcquisitionType": "2D",
 "MagneticFieldStrength": 3,
 "Manufacturer": "Siemens",
 "ManufacturersModelName": "Prisma",
 "Modality": "MR",
 "MultibandAccelerationFactor": 3,
 "PartialFourier": 1,
 "PatientPosition": "HFS",
 "PercentPhaseFOV": 100,
 "PhaseEncodingDirection": "j-",
 "PhaseEncodingSteps": 100,
 "PhaseResolution": 1,
 "PixelBandwidth": 2380,
 "ProcedureStepDescription": "BNU_P2018_64CH_Zhen.ZongLei",
 "ProtocolName": "bold_100x100_s3_2x2x2_static_256",
 "PulseSequenceDetails": "%SiemensSeq%_ep2d_bold",
 "ReceiveCoilActiveElements": "HC1-7;NC1",
 "ReceiveCoilName": "HeadNeck_64",
 "ReconMatrixPE": 100,
 "RepetitionTime": 2,
 "SAR": 0.0663103,
 "ScanOptions": "FS",
 "ScanningSequence": "EP",
 "SequenceName": "_epfid2d1_100",
 "SequenceVariant": "SK",
 "SeriesDescription": "bold_100x100_s3_2x2x2_static_256",
 "SeriesNumber": 5,
 "ShimSetting": [
  -5447,
  -11477,
  -1275,
  328,
  42,
  -124,
  -173,
  51
 ],
 "SliceThickness": 2,
 "SliceTiming": [
  1.485,
  0,
  0.99,
  0.0825,
  1.0725,
  0.165,
  1.155,
  0.2475,
  1.2375,
  0.33,
  1.32,
  0.4125,
  1.4025,
  0.5775,
  1.5675,
  0.66,
  1.65,
  0.7425,
  1.7325,
  0.825,
  1.815,
  0.9075,
  1.8975,
  0.495,
  1.485,
  0,
  0.99,
  0.0825,
  1.0725,
  0.165,
  1.155,
  0.2475,
  1.2375,
  0.33,
  1.32,
  0.4125,
  1.4025,
  0.5775,
  1.5675,
  0.66,
  1.65,
  0.7425,
  1.7325,
  0.825,
  1.815,
  0.9075,
  1.8975,
  0.495,
  1.485,
  0,
  0.99,
  0.0825,
  1.0725,
  0.165,
  1.155,
  0.2475,
  1.2375,
  0.33,
  1.32,
  0.4125,
  1.4025,
  0.5775,
  1.5675,
  0.66,
  1.65,
  0.7425,
  1.7325,
  0.825,
  1.815,
  0.9075,
  1.8975,
  0.495
 ],
 "SoftwareVersions": "syngo_MR_E11",
 "SpacingBetweenSlices": 2,
 "StationName": "AWP166078",
 "TaskName": "imagenet",
 "TotalReadoutTime": 0.0534586,
 "TxRefAmp": 221.315,
 "dcmmeta_affine": [
  [
   -2.0,
   0.0,
   0.0,
   102.69879150390625
  ],
  [
   0.0,
   1.9463577270507812,
   -0.4600994884967804,
   -80.37294006347656
  ],
  [
   0.0,
   0.4600994884967804,
   1.9463577270507812,
   -85.62611389160156
  ],
  [
   0.0,
   0.0,
   0.0,
   1.0
  ]
 ],
 "dcmmeta_reorient_transform": [
  [
   0.0,
   -1.0,
   0.0,
   99.0
  ],
  [
   1.0,
   0.0,
   0.0,
   0.0
  ],
  [
   0.0,
   0.0,
   1.0,
   0.0
  ],
  [
   0.0,
   0.0,
   0.0,
   1.0
  ]
 ],
 "dcmmeta_shape": [
  100,
  100,
  72,
  256
 ],
 "dcmmeta_slice_dim": 2,
 "dcmmeta_version": 0.6,
 "global": {
  "const": {
   "AcquisitionMatrix": [
    100,
    0,
    0,
    100
   ],
   "AngioFlag": "N",
   "BitsAllocated": 16,
   "BitsStored": 12,
   "BodyPartExamined": "BRAIN",
   "Columns": 900,
   "EchoNumbers": 1,
   "EchoTime": 34.0,
   "EchoTrainLength": 100,
   "FlipAngle": 90.0,
   "HighBit": 11,
   "ImageOrientationPatient": [
    1.0,
    0.0,
    0.0,
    0.0,
    0.973178872716,
    -0.2300497374466
   ],
   "ImagePositionPatient": [
    -902.69879508018,
    -890.85957686743,
    143.96352209423
   ],
   "ImageType": [
    "ORIGINAL",
    "PRIMARY",
    "M",
    "ND",
    "MOSAIC"
   ],
   "ImagedNucleus": "1H",
   "ImagingFrequency": 123.257729,
   "InPlanePhaseEncodingDirection": "COL",
   "MRAcquisitionType": "2D",
   "MagneticFieldStrength": 3.0,
   "Manufacturer": "SIEMENS",
   "ManufacturerModelName": "Prisma",
   "Modality": "MR",
   "NumberOfAverages": 1.0,
   "NumberOfPhaseEncodingSteps": 100,
   "PercentPhaseFieldOfView": 100.0,
   "PercentSampling": 100.0,
   "PerformedProcedureStepStartTime": "085258.449000",
   "PhotometricInterpretation": "MONOCHROME2",
   "PixelBandwidth": 2380.0,
   "PixelRepresentation": 0,
   "PixelSpacing": [
    2.0,
    2.0
   ],
   "ProtocolName": "bold_100x100_s3_2x2x2_static_256",
   "RepetitionTime": 2000.0,
   "Rows": 900,
   "SAR": 0.06631033914613,
   "SamplesPerPixel": 1,
   "ScanOptions": "FS",
   "ScanningSequence": "EP",
   "SequenceName": "*epfid2d1_100",
   "SequenceVariant": "SK",
   "SeriesDescription": "bold_100x100_s3_2x2x2_static_256",
   "SeriesNumber": 5,
   "SeriesTime": "092738.155000",
   "SliceLocation": -64.839753616211,
   "SliceThickness": 2.0,
   "SmallestImagePixelValue": 0,
   "SoftwareVersions": "syngo MR E11",
   "SpacingBetweenSlices": 2.0000000314449,
   "SpecificCharacterSet": "ISO_IR 100",
   "StudyID": "1",
   "StudyTime": "085258.378000",
   "TransmitCoilName": "Body",
   "VariableFlipAngleFlag": "N",
   "WindowCenterWidthExplanation": "Algo1",
   "dBdt": 0.0
  },
  "slices": {}
 },
 "time": {
  "samples": {
   "AcquisitionNumber": [
    1,
    2,
    3,
    4,
    5,
    6,
    7,
    8,
    9,
    10,
    11,
    12,
    13,
    14,
    15,
    16,
    17,
    18,
    19,
    20,
    21,
    22,
    23,
    24,
    25,
    26,
    27,
    28,
    29,
    30,
    31,
    32,
    33,
    34,
    35,
    36,
    37,
    38,
    39,
    40,
    41,
    42,
    43,
    44,
    45,
    46,
    47,
    48,
    49,
    50,
    51,
    52,
    53,
    54,
    55,
    56,
    57,
    58,
    59,
    60,
    61,
    62,
    63,
    64,
    65,
    66,
    67,
    68,
    69,
    70,
    71,
    72,
    73,
    74,
    75,
    76,
    77,
    78,
    79,
    80,
    81,
    82,
    83,
    84,
    85,
    86,
    87,
    88,
    89,
    90,
    91,
    92,
    93,
    94,
    95,
    96,
    97,
    98,
    99,
    100,
    101,
    102,
    103,
    104,
    105,
    106,
    107,
    108,
    109,
    110,
    111,
    112,
    113,
    114,
    115,
    116,
    117,
    118,
    119,
    120,
    121,
    122,
    123,
    124,
    125,
    126,
    127,
    128,
    129,
    130,
    131,
    132,
    133,
    134,
    135,
    136,
    137,
    138,
    139,
    140,
    141,
    142,
    143,
    144,
    145,
    146,
    147,
    148,
    149,
    150,
    151,
    152,
    153,
    154,
    155,
    156,
    157,
    158,
    159,
    160,
    161,
    162,
    163,
    164,
    165,
    166,
    167,
    168,
    169,
    170,
    171,
    172,
    173,
    174,
    175,
    176,
    177,
    178,
    179,
    180,
    181,
    182,
    183,
    184,
    185,
    186,
    187,
    188,
    189,
    190,
    191,
    192,
    193,
    194,
    195,
    196,
    197,
    198,
    199,
    200,
    201,
    202,
    203,
    204,
    205,
    206,
    207,
    208,
    209,
    210,
    211,
    212,
    213,
    214,
    215,
    216,
    217,
    218,
    219,
    220,
    221,
    222,
    223,
    224,
    225,
    226,
    227,
    228,
    229,
    230,
    231,
    232,
    233,
    234,
    235,
    236,
    237,
    238,
    239,
    240,
    241,
    242,
    243,
    244,
    245,
    246,
    247,
    248,
    249,
    250,
    251,
    252,
    253,
    254,
    255,
    256
   ],
   "AcquisitionTime": [
    "092735.602500",
    "092737.602500",
    "092739.602500",
    "092741.602500",
    "092743.602500",
    "092745.602500",
    "092747.602500",
    "092749.602500",
    "092751.602500",
    "092753.602500",
    "092755.602500",
    "092757.602500",
    "092759.602500",
    "092801.602500",
    "092803.602500",
    "092805.602500",
    "092807.602500",
    "092809.602500",
    "092811.602500",
    "092813.602500",
    "092815.602500",
    "092817.602500",
    "092819.602500",
    "092821.602500",
    "092823.602500",
    "092825.602500",
    "092827.602500",
    "092829.602500",
    "092831.602500",
    "092833.602500",
    "092835.602500",
    "092837.602500",
    "092839.602500",
    "092841.602500",
    "092843.602500",
    "092845.602500",
    "092847.602500",
    "092849.602500",
    "092851.602500",
    "092853.602500",
    "092855.602500",
    "092857.602500",
    "092859.602500",
    "092901.602500",
    "092903.602500",
    "092905.602500",
    "092907.602500",
    "092909.602500",
    "092911.602500",
    "092913.602500",
    "092915.602500",
    "092917.602500",
    "092919.602500",
    "092921.602500",
    "092923.602500",
    "092925.602500",
    "092927.602500",
    "092929.602500",
    "092931.602500",
    "092933.602500",
    "092935.602500",
    "092937.602500",
    "092939.602500",
    "092941.602500",
    "092943.602500",
    "092945.602500",
    "092947.602500",
    "092949.602500",
    "092951.602500",
    "092953.602500",
    "092955.602500",
    "092957.602500",
    "092959.602500",
    "093001.602500",
    "093003.602500",
    "093005.602500",
    "093007.602500",
    "093009.602500",
    "093011.602500",
    "093013.602500",
    "093015.602500",
    "093017.602500",
    "093019.602500",
    "093021.602500",
    "093023.602500",
    "093025.602500",
    "093027.602500",
    "093029.602500",
    "093031.602500",
    "093033.602500",
    "093035.602500",
    "093037.602500",
    "093039.602500",
    "093041.602500",
    "093043.602500",
    "093045.602500",
    "093047.602500",
    "093049.602500",
    "093051.602500",
    "093053.602500",
    "093055.602500",
    "093057.602500",
    "093059.602500",
    "093101.602500",
    "093103.602500",
    "093105.602500",
    "093107.602500",
    "093109.602500",
    "093111.602500",
    "093113.602500",
    "093115.602500",
    "093117.602500",
    "093119.602500",
    "093121.602500",
    "093123.602500",
    "093125.602500",
    "093127.602500",
    "093129.602500",
    "093131.602500",
    "093133.602500",
    "093135.602500",
    "093137.602500",
    "093139.602500",
    "093141.602500",
    "093143.602500",
    "093145.602500",
    "093147.602500",
    "093149.602500",
    "093151.602500",
    "093153.602500",
    "093155.602500",
    "093157.602500",
    "093159.602500",
    "093201.602500",
    "093203.602500",
    "093205.602500",
    "093207.602500",
    "093209.602500",
    "093211.602500",
    "093213.602500",
    "093215.602500",
    "093217.602500",
    "093219.602500",
    "093221.602500",
    "093223.602500",
    "093225.602500",
    "093227.602500",
    "093229.602500",
    "093231.602500",
    "093233.602500",
    "093235.602500",
    "093237.602500",
    "093239.602500",
    "093241.602500",
    "093243.602500",
    "093245.602500",
    "093247.602500",
    "093249.602500",
    "093251.602500",
    "093253.602500",
    "093255.602500",
    "093257.602500",
    "093259.602500",
    "093301.602500",
    "093303.602500",
    "093305.602500",
    "093307.602500",
    "093309.602500",
    "093311.602500",
    "093313.602500",
    "093315.602500",
    "093317.602500",
    "093319.602500",
    "093321.602500",
    "093323.602500",
    "093325.602500",
    "093327.602500",
    "093329.602500",
    "093331.602500",
    "093333.602500",
    "093335.602500",
    "093337.602500",
    "093339.602500",
    "093341.602500",
    "093343.602500",
    "093345.602500",
    "093347.602500",
    "093349.602500",
    "093351.602500",
    "093353.602500",
    "093355.602500",
    "093357.602500",
    "093359.602500",
    "093401.602500",
    "093403.602500",
    "093405.602500",
    "093407.602500",
    "093409.602500",
    "093411.602500",
    "093413.602500",
    "093415.602500",
    "093417.602500",
    "093419.602500",
    "093421.602500",
    "093423.602500",
    "093425.602500",
    "093427.602500",
    "093429.602500",
    "093431.602500",
    "093433.602500",
    "093435.602500",
    "093437.602500",
    "093439.602500",
    "093441.602500",
    "093443.602500",
    "093445.602500",
    "093447.602500",
    "093449.602500",
    "093451.602500",
    "093453.602500",
    "093455.602500",
    "093457.602500",
    "093459.602500",
    "093501.602500",
    "093503.602500",
    "093505.602500",
    "093507.602500",
    "093509.602500",
    "093511.602500",
    "093513.602500",
    "093515.602500",
    "093517.602500",
    "093519.602500",
    "093521.602500",
    "093523.602500",
    "093525.602500",
    "093527.602500",
    "093529.602500",
    "093531.602500",
    "093533.602500",
    "093535.602500",
    "093537.602500",
    "093539.602500",
    "093541.602500",
    "093543.602500",
    "093545.602500",
    "093547.602500",
    "093549.602500",
    "093551.602500",
    "093553.602500",
    "093555.602500",
    "093557.602500",
    "093559.602500",
    "093601.602500",
    "093603.602500",
    "093605.602500"
   ],
   "ContentTime": [
    "092738.164000",
    "092739.655000",
    "092741.655000",
    "092743.655000",
    "092745.654000",
    "092747.653000",
    "092749.653000",
    "092751.653000",
    "092753.654000",
    "092755.655000",
    "092757.655000",
    "092759.655000",
    "092801.655000",
    "092803.653000",
    "092805.653000",
    "092807.653000",
    "092809.653000",
    "092811.655000",
    "092813.654000",
    "092815.654000",
    "092817.654000",
    "092819.655000",
    "092821.654000",
    "092823.654000",
    "092825.653000",
    "092827.654000",
    "092829.655000",
    "092831.654000",
    "092833.655000",
    "092835.654000",
    "092837.654000",
    "092839.654000",
    "092841.654000",
    "092843.653000",
    "092845.655000",
    "092847.654000",
    "092849.654000",
    "092851.654000",
    "092853.654000",
    "092855.653000",
    "092857.653000",
    "092859.654000",
    "092901.654000",
    "092903.655000",
    "092905.655000",
    "092907.655000",
    "092909.655000",
    "092911.655000",
    "092913.653000",
    "092915.654000",
    "092917.654000",
    "092919.654000",
    "092921.654000",
    "092923.655000",
    "092925.654000",
    "092927.655000",
    "092929.654000",
    "092931.653000",
    "092933.654000",
    "092935.653000",
    "092937.653000",
    "092939.654000",
    "092941.654000",
    "092943.654000",
    "092945.654000",
    "092947.654000",
    "092949.653000",
    "092951.654000",
    "092953.653000",
    "092955.654000",
    "092957.655000",
    "092959.655000",
    "093001.654000",
    "093003.654000",
    "093005.653000",
    "093007.654000",
    "093009.653000",
    "093011.654000",
    "093013.655000",
    "093015.655000",
    "093017.655000",
    "093019.654000",
    "093021.654000",
    "093023.653000",
    "093025.653000",
    "093027.654000",
    "093029.653000",
    "093031.654000",
    "093033.654000",
    "093035.654000",
    "093037.654000",
    "093039.654000",
    "093041.653000",
    "093043.654000",
    "093045.653000",
    "093047.654000",
    "093049.654000",
    "093051.654000",
    "093053.654000",
    "093055.654000",
    "093057.654000",
    "093059.653000",
    "093101.654000",
    "093103.653000",
    "093105.655000",
    "093107.654000",
    "093109.654000",
    "093111.654000",
    "093113.655000",
    "093115.654000",
    "093117.654000",
    "093119.654000",
    "093121.654000",
    "093123.655000",
    "093125.654000",
    "093127.654000",
    "093129.655000",
    "093131.655000",
    "093133.653000",
    "093135.653000",
    "093137.654000",
    "093139.654000",
    "093141.655000",
    "093143.655000",
    "093145.655000",
    "093147.655000",
    "093149.654000",
    "093151.654000",
    "093153.654000",
    "093155.653000",
    "093157.655000",
    "093159.655000",
    "093201.655000",
    "093203.655000",
    "093205.655000",
    "093207.653000",
    "093209.654000",
    "093211.654000",
    "093213.654000",
    "093215.654000",
    "093217.655000",
    "093219.655000",
    "093221.655000",
    "093223.655000",
    "093225.653000",
    "093227.654000",
    "093229.654000",
    "093231.654000",
    "093233.655000",
    "093235.656000",
    "093237.655000",
    "093239.655000",
    "093241.656000",
    "093243.654000",
    "093245.654000",
    "093247.654000",
    "093249.654000",
    "093251.655000",
    "093253.654000",
    "093255.655000",
    "093257.655000",
    "093259.654000",
    "093301.653000",
    "093303.653000",
    "093305.654000",
    "093307.655000",
    "093309.655000",
    "093311.655000",
    "093313.654000",
    "093315.654000",
    "093317.653000",
    "093319.653000",
    "093321.654000",
    "093323.654000",
    "093325.655000",
    "093327.654000",
    "093329.655000",
    "093331.655000",
    "093333.655000",
    "093335.654000",
    "093337.653000",
    "093339.653000",
    "093341.654000",
    "093343.655000",
    "093345.655000",
    "093347.655000",
    "093349.655000",
    "093351.655000",
    "093353.654000",
    "093355.653000",
    "093357.654000",
    "093359.653000",
    "093401.655000",
    "093403.655000",
    "093405.654000",
    "093407.654000",
    "093409.655000",
    "093411.654000",
    "093413.654000",
    "093415.654000",
    "093417.655000",
    "093419.655000",
    "093421.655000",
    "093423.655000",
    "093425.654000",
    "093427.653000",
    "093429.653000",
    "093431.653000",
    "093433.653000",
    "093435.655000",
    "093437.655000",
    "093439.654000",
    "093441.654000",
    "093443.655000",
    "093445.653000",
    "093447.653000",
    "093449.654000",
    "093451.654000",
    "093453.655000",
    "093455.655000",
    "093457.655000",
    "093459.654000",
    "093501.655000",
    "093503.653000",
    "093505.653000",
    "093507.654000",
    "093509.654000",
    "093511.655000",
    "093513.655000",
    "093515.655000",
    "093517.654000",
    "093519.653000",
    "093521.654000",
    "093523.654000",
    "093525.653000",
    "093527.655000",
    "093529.655000",
    "093531.654000",
    "093533.654000",
    "093535.654000",
    "093537.654000",
    "093539.654000",
    "093541.654000",
    "093543.654000",
    "093545.655000",
    "093547.655000",
    "093549.655000",
    "093551.655000",
    "093553.655000",
    "093555.654000",
    "093557.653000",
    "093559.653000",
    "093601.654000",
    "093603.655000",
    "093605.655000",
    "093607.174000"
   ],
   "InstanceCreationTime": [
    "092738.164000",
    "092739.655000",
    "092741.655000",
    "092743.655000",
    "092745.654000",
    "092747.653000",
    "092749.653000",
    "092751.653000",
    "092753.654000",
    "092755.655000",
    "092757.655000",
    "092759.655000",
    "092801.655000",
    "092803.653000",
    "092805.653000",
    "092807.653000",
    "092809.653000",
    "092811.655000",
    "092813.654000",
    "092815.654000",
    "092817.654000",
    "092819.655000",
    "092821.654000",
    "092823.654000",
    "092825.653000",
    "092827.654000",
    "092829.655000",
    "092831.654000",
    "092833.655000",
    "092835.654000",
    "092837.654000",
    "092839.654000",
    "092841.654000",
    "092843.653000",
    "092845.655000",
    "092847.654000",
    "092849.654000",
    "092851.654000",
    "092853.654000",
    "092855.653000",
    "092857.653000",
    "092859.654000",
    "092901.654000",
    "092903.655000",
    "092905.655000",
    "092907.655000",
    "092909.655000",
    "092911.655000",
    "092913.653000",
    "092915.654000",
    "092917.654000",
    "092919.654000",
    "092921.654000",
    "092923.655000",
    "092925.654000",
    "092927.655000",
    "092929.654000",
    "092931.653000",
    "092933.654000",
    "092935.653000",
    "092937.653000",
    "092939.654000",
    "092941.654000",
    "092943.654000",
    "092945.654000",
    "092947.654000",
    "092949.653000",
    "092951.654000",
    "092953.653000",
    "092955.654000",
    "092957.655000",
    "092959.655000",
    "093001.654000",
    "093003.654000",
    "093005.653000",
    "093007.654000",
    "093009.653000",
    "093011.654000",
    "093013.655000",
    "093015.655000",
    "093017.655000",
    "093019.654000",
    "093021.654000",
    "093023.653000",
    "093025.653000",
    "093027.654000",
    "093029.653000",
    "093031.654000",
    "093033.654000",
    "093035.654000",
    "093037.654000",
    "093039.654000",
    "093041.653000",
    "093043.654000",
    "093045.653000",
    "093047.654000",
    "093049.654000",
    "093051.654000",
    "093053.654000",
    "093055.654000",
    "093057.654000",
    "093059.653000",
    "093101.654000",
    "093103.653000",
    "093105.655000",
    "093107.654000",
    "093109.654000",
    "093111.654000",
    "093113.655000",
    "093115.654000",
    "093117.654000",
    "093119.654000",
    "093121.654000",
    "093123.655000",
    "093125.654000",
    "093127.654000",
    "093129.655000",
    "093131.655000",
    "093133.653000",
    "093135.653000",
    "093137.654000",
    "093139.654000",
    "093141.655000",
    "093143.655000",
    "093145.655000",
    "093147.655000",
    "093149.654000",
    "093151.654000",
    "093153.654000",
    "093155.653000",
    "093157.655000",
    "093159.655000",
    "093201.655000",
    "093203.655000",
    "093205.655000",
    "093207.653000",
    "093209.654000",
    "093211.654000",
    "093213.654000",
    "093215.654000",
    "093217.655000",
    "093219.655000",
    "093221.655000",
    "093223.655000",
    "093225.653000",
    "093227.654000",
    "093229.654000",
    "093231.654000",
    "093233.655000",
    "093235.656000",
    "093237.655000",
    "093239.655000",
    "093241.656000",
    "093243.654000",
    "093245.654000",
    "093247.654000",
    "093249.654000",
    "093251.655000",
    "093253.654000",
    "093255.655000",
    "093257.655000",
    "093259.654000",
    "093301.653000",
    "093303.653000",
    "093305.654000",
    "093307.655000",
    "093309.655000",
    "093311.655000",
    "093313.654000",
    "093315.654000",
    "093317.653000",
    "093319.653000",
    "093321.654000",
    "093323.654000",
    "093325.655000",
    "093327.654000",
    "093329.655000",
    "093331.655000",
    "093333.655000",
    "093335.654000",
    "093337.653000",
    "093339.653000",
    "093341.654000",
    "093343.655000",
    "093345.655000",
    "093347.655000",
    "093349.655000",
    "093351.655000",
    "093353.654000",
    "093355.653000",
    "093357.654000",
    "093359.653000",
    "093401.655000",
    "093403.655000",
    "093405.654000",
    "093407.654000",
    "093409.655000",
    "093411.654000",
    "093413.654000",
    "093415.654000",
    "093417.655000",
    "093419.655000",
    "093421.655000",
    "093423.655000",
    "093425.654000",
    "093427.653000",
    "093429.653000",
    "093431.653000",
    "093433.653000",
    "093435.655000",
    "093437.655000",
    "093439.654000",
    "093441.654000",
    "093443.655000",
    "093445.653000",
    "093447.653000",
    "093449.654000",
    "093451.654000",
    "093453.655000",
    "093455.655000",
    "093457.655000",
    "093459.654000",
    "093501.655000",
    "093503.653000",
    "093505.653000",
    "093507.654000",
    "093509.654000",
    "093511.655000",
    "093513.655000",
    "093515.655000",
    "093517.654000",
    "093519.653000",
    "093521.654000",
    "093523.654000",
    "093525.653000",
    "093527.655000",
    "093529.655000",
    "093531.654000",
    "093533.654000",
    "093535.654000",
    "093537.654000",
    "093539.654000",
    "093541.654000",
    "093543.654000",
    "093545.655000",
    "093547.655000",
    "093549.655000",
    "093551.655000",
    "093553.655000",
    "093555.654000",
    "093557.653000",
    "093559.653000",
    "093601.654000",
    "093603.655000",
    "093605.655000",
    "093607.174000"
   ],
   "InstanceNumber": [
    1,
    2,
    3,
    4,
    5,
    6,
    7,
    8,
    9,
    10,
    11,
    12,
    13,
    14,
    15,
    16,
    17,
    18,
    19,
    20,
    21,
    22,
    23,
    24,
    25,
    26,
    27,
    28,
    29,
    30,
    31,
    32,
    33,
    34,
    35,
    36,
    37,
    38,
    39,
    40,
    41,
    42,
    43,
    44,
    45,
    46,
    47,
    48,
    49,
    50,
    51,
    52,
    53,
    54,
    55,
    56,
    57,
    58,
    59,
    60,
    61,
    62,
    63,
    64,
    65,
    66,
    67,
    68,
    69,
    70,
    71,
    72,
    73,
    74,
    75,
    76,
    77,
    78,
    79,
    80,
    81,
    82,
    83,
    84,
    85,
    86,
    87,
    88,
    89,
    90,
    91,
    92,
    93,
    94,
    95,
    96,
    97,
    98,
    99,
    100,
    101,
    102,
    103,
    104,
    105,
    106,
    107,
    108,
    109,
    110,
    111,
    112,
    113,
    114,
    115,
    116,
    117,
    118,
    119,
    120,
    121,
    122,
    123,
    124,
    125,
    126,
    127,
    128,
    129,
    130,
    131,
    132,
    133,
    134,
    135,
    136,
    137,
    138,
    139,
    140,
    141,
    142,
    143,
    144,
    145,
    146,
    147,
    148,
    149,
    150,
    151,
    152,
    153,
    154,
    155,
    156,
    157,
    158,
    159,
    160,
    161,
    162,
    163,
    164,
    165,
    166,
    167,
    168,
    169,
    170,
    171,
    172,
    173,
    174,
    175,
    176,
    177,
    178,
    179,
    180,
    181,
    182,
    183,
    184,
    185,
    186,
    187,
    188,
    189,
    190,
    191,
    192,
    193,
    194,
    195,
    196,
    197,
    198,
    199,
    200,
    201,
    202,
    203,
    204,
    205,
    206,
    207,
    208,
    209,
    210,
    211,
    212,
    213,
    214,
    215,
    216,
    217,
    218,
    219,
    220,
    221,
    222,
    223,
    224,
    225,
    226,
    227,
    228,
    229,
    230,
    231,
    232,
    233,
    234,
    235,
    236,
    237,
    238,
    239,
    240,
    241,
    242,
    243,
    244,
    245,
    246,
    247,
    248,
    249,
    250,
    251,
    252,
    253,
    254,
    255,
    256
   ],
   "LargestImagePixelValue": [
    3696,
    3662,
    3663,
    3652,
    3674,
    3701,
    3683,
    3732,
    3664,
    3707,
    3686,
    3710,
    3682,
    3760,
    3719,
    3736,
    3738,
    3766,
    3761,
    3779,
    3762,
    3766,
    3754,
    3775,
    3743,
    3746,
    3737,
    3729,
    3748,
    3764,
    3731,
    3751,
    3753,
    3801,
    3766,
    3769,
    3763,
    3769,
    3743,
    3771,
    3764,
    3791,
    3768,
    3774,
    3809,
    3802,
    3795,
    3781,
    3778,
    3771,
    3758,
    3752,
    3729,
    3769,
    3786,
    3774,
    3784,
    3822,
    3782,
    3804,
    3789,
    3769,
    3772,
    3784,
    3784,
    3788,
    3788,
    3801,
    3791,
    3769,
    3781,
    3797,
    3800,
    3872,
    3811,
    3847,
    3815,
    3780,
    3828,
    3842,
    3819,
    3836,
    3811,
    3797,
    3789,
    3789,
    3819,
    3825,
    3795,
    3824,
    3807,
    3831,
    3848,
    3815,
    3840,
    3793,
    3817,
    3780,
    3818,
    3808,
    3814,
    3812,
    3787,
    3812,
    3813,
    3801,
    3809,
    3821,
    3824,
    3816,
    3808,
    3829,
    3819,
    3776,
    3801,
    3785,
    3791,
    3790,
    3752,
    3696,
    3788,
    3652,
    3757,
    3648,
    3727,
    3656,
    3740,
    3595,
    3699,
    3603,
    3674,
    3576,
    3673,
    3470,
    3652,
    3493,
    3574,
    3514,
    3573,
    3570,
    3544,
    3584,
    3465,
    3504,
    3456,
    3466,
    3500,
    3518,
    3519,
    3513,
    3517,
    3487,
    3526,
    3508,
    3535,
    3512,
    3519,
    3519,
    3501,
    3564,
    3545,
    3466,
    3479,
    3440,
    3439,
    3441,
    3438,
    3433,
    3459,
    3472,
    3501,
    3518,
    3494,
    3480,
    3495,
    3531,
    3424,
    3461,
    3451,
    3463,
    3440,
    3485,
    3399,
    3510,
    3447,
    3505,
    3439,
    3558,
    3469,
    3573,
    3452,
    3503,
    3466,
    3582,
    3431,
    3529,
    3454,
    3526,
    3443,
    3526,
    3452,
    3547,
    3468,
    3488,
    3460,
    3567,
    3472,
    3561,
    3437,
    3605,
    3414,
    3609,
    3476,
    3554,
    3476,
    3501,
    3413,
    3578,
    3469,
    3524,
    3482,
    3551,
    3448,
    3514,
    3454,
    3475,
    3520,
    3440,
    3489,
    3426,
    3524,
    3448,
    3528,
    3422,
    3589,
    3515,
    3511,
    3514,
    3493,
    3528,
    3460,
    3487,
    3520,
    3564,
    3500,
    3458,
    3521,
    3492,
    3537,
    3489,
    3519,
    3513,
    3548,
    3526,
    3510,
    3512
   ],
   "WindowCenter": [
    834.0,
    832.0,
    831.0,
    831.0,
    832.0,
    832.0,
    832.0,
    832.0,
    831.0,
    832.0,
    833.0,
    833.0,
    831.0,
    830.0,
    829.0,
    830.0,
    831.0,
    831.0,
    831.0,
    831.0,
    830.0,
    829.0,
    832.0,
    832.0,
    830.0,
    829.0,
    828.0,
    828.0,
    830.0,
    831.0,
    832.0,
    831.0,
    829.0,
    829.0,
    829.0,
    829.0,
    829.0,
    829.0,
    830.0,
    830.0,
    830.0,
    830.0,
    830.0,
    830.0,
    830.0,
    830.0,
    830.0,
    829.0,
    830.0,
    830.0,
    830.0,
    831.0,
    830.0,
    830.0,
    830.0,
    830.0,
    830.0,
    830.0,
    830.0,
    830.0,
    829.0,
    829.0,
    830.0,
    829.0,
    829.0,
    829.0,
    829.0,
    829.0,
    829.0,
    830.0,
    832.0,
    831.0,
    830.0,
    829.0,
    828.0,
    829.0,
    831.0,
    830.0,
    830.0,
    829.0,
    829.0,
    830.0,
    831.0,
    830.0,
    830.0,
    829.0,
    828.0,
    829.0,
    830.0,
    830.0,
    830.0,
    829.0,
    828.0,
    827.0,
    827.0,
    828.0,
    830.0,
    829.0,
    828.0,
    827.0,
    827.0,
    828.0,
    828.0,
    828.0,
    828.0,
    827.0,
    828.0,
    828.0,
    829.0,
    829.0,
    829.0,
    828.0,
    830.0,
    830.0,
    829.0,
    827.0,
    825.0,
    825.0,
    828.0,
    828.0,
    829.0,
    828.0,
    829.0,
    828.0,
    829.0,
