{
 "AcquisitionMatrixPE": 100,
 "AcquisitionNumber": 1,
 "AcquisitionTime": "10:20:40.195000",
 "BandwidthPerPixelPhaseEncode": 18.519,
 "BaseResolution": 100,
 "BodyPartExamined": "BRAIN",
 "ConsistencyInfo": "N4_VE11C_LATEST_20160120",
 "ConversionSoftware": "dcm2niix",
 "ConversionSoftwareVersion": "v1.0.20180622 GCC4.9.2",
 "DerivedVendorReportedEchoSpacing": 0.000539986,
 "DeviceSerialNumber": "166078",
 "DwellTime": 2.1e-06,
 "EchoTime": 0.034,
 "EchoTrainLength": 100,
 "EffectiveEchoSpacing": 0.000539986,
 "FlipAngle": 90,
 "ImageOrientationPatientDICOM": [
  1,
  0,
  0,
  0,
  0.973179,
  -0.23005
 ],
 "ImageType": [
  "ORIGINAL",
  "PRIMARY",
  "M",
  "ND",
  "MOSAIC"
 ],
 "InPlanePhaseEncodingDirectionDICOM": "COL",
 "InstitutionAddress": "Street_StreetNo_Bei_Jing_District_CN_ZIP",
 "InstitutionName": "BeiJing_Normal_University",
 "InstitutionalDepartmentName": "Department",
 "MRAcquisitionType": "2D",
 "MagneticFieldStrength": 3,
 "Manufacturer": "Siemens",
 "ManufacturersModelName": "Prisma",
 "Modality": "MR",
 "MultibandAccelerationFactor": 3,
 "PartialFourier": 1,
 "PatientPosition": "HFS",
 "PercentPhaseFOV": 100,
 "PhaseEncodingDirection": "j-",
 "PhaseEncodingSteps": 100,
 "PhaseResolution": 1,
 "PixelBandwidth": 2380,
 "ProcedureStepDescription": "BNU_P2018_64CH_Zhen.ZongLei",
 "ProtocolName": "bold_100x100_s3_2x2x2_static_256",
 "PulseSequenceDetails": "%SiemensSeq%_ep2d_bold",
 "ReceiveCoilActiveElements": "HC1-7;NC1",
 "ReceiveCoilName": "HeadNeck_64",
 "ReconMatrixPE": 100,
 "RepetitionTime": 2,
 "SAR": 0.0663103,
 "ScanOptions": "FS",
 "ScanningSequence": "EP",
 "SequenceName": "_epfid2d1_100",
 "SequenceVariant": "SK",
 "SeriesDescription": "bold_100x100_s3_2x2x2_static_256",
 "SeriesNumber": 12,
 "ShimSetting": [
  -5447,
  -11477,
  -1275,
  328,
  42,
  -124,
  -173,
  51
 ],
 "SliceThickness": 2,
 "SliceTiming": [
  1.485,
  0,
  0.99,
  0.0825,
  1.0725,
  0.165,
  1.155,
  0.2475,
  1.2375,
  0.33,
  1.32,
  0.4125,
  1.4025,
  0.5775,
  1.5675,
  0.66,
  1.65,
  0.7425,
  1.7325,
  0.825,
  1.815,
  0.9075,
  1.8975,
  0.495,
  1.485,
  0,
  0.99,
  0.0825,
  1.0725,
  0.165,
  1.155,
  0.2475,
  1.2375,
  0.33,
  1.32,
  0.4125,
  1.4025,
  0.5775,
  1.5675,
  0.66,
  1.65,
  0.7425,
  1.7325,
  0.825,
  1.815,
  0.9075,
  1.8975,
  0.495,
  1.485,
  0,
  0.99,
  0.0825,
  1.0725,
  0.165,
  1.155,
  0.2475,
  1.2375,
  0.33,
  1.32,
  0.4125,
  1.4025,
  0.5775,
  1.5675,
  0.66,
  1.65,
  0.7425,
  1.7325,
  0.825,
  1.815,
  0.9075,
  1.8975,
  0.495
 ],
 "SoftwareVersions": "syngo_MR_E11",
 "SpacingBetweenSlices": 2,
 "StationName": "AWP166078",
 "TaskName": "imagenet",
 "TotalReadoutTime": 0.0534586,
 "TxRefAmp": 221.315,
 "dcmmeta_affine": [
  [
   -2.0,
   0.0,
   0.0,
   102.69879150390625
  ],
  [
   0.0,
   1.9463577270507812,
   -0.4600994884967804,
   -80.37294006347656
  ],
  [
   0.0,
   0.4600994884967804,
   1.9463577270507812,
   -85.62611389160156
  ],
  [
   0.0,
   0.0,
   0.0,
   1.0
  ]
 ],
 "dcmmeta_reorient_transform": [
  [
   0.0,
   -1.0,
   0.0,
   99.0
  ],
  [
   1.0,
   0.0,
   0.0,
   0.0
  ],
  [
   0.0,
   0.0,
   1.0,
   0.0
  ],
  [
   0.0,
   0.0,
   0.0,
   1.0
  ]
 ],
 "dcmmeta_shape": [
  100,
  100,
  72,
  256
 ],
 "dcmmeta_slice_dim": 2,
 "dcmmeta_version": 0.6,
 "global": {
  "const": {
   "AcquisitionMatrix": [
    100,
    0,
    0,
    100
   ],
   "AngioFlag": "N",
   "BitsAllocated": 16,
   "BitsStored": 12,
   "BodyPartExamined": "BRAIN",
   "Columns": 900,
   "EchoNumbers": 1,
   "EchoTime": 34.0,
   "EchoTrainLength": 100,
   "FlipAngle": 90.0,
   "HighBit": 11,
   "ImageOrientationPatient": [
    1.0,
    0.0,
    0.0,
    0.0,
    0.973178872716,
    -0.2300497374466
   ],
   "ImagePositionPatient": [
    -902.69879508018,
    -890.85957686743,
    143.96352209423
   ],
   "ImageType": [
    "ORIGINAL",
    "PRIMARY",
    "M",
    "ND",
    "MOSAIC"
   ],
   "ImagedNucleus": "1H",
   "ImagingFrequency": 123.257744,
   "InPlanePhaseEncodingDirection": "COL",
   "MRAcquisitionType": "2D",
   "MagneticFieldStrength": 3.0,
   "Manufacturer": "SIEMENS",
   "ManufacturerModelName": "Prisma",
   "Modality": "MR",
   "NumberOfAverages": 1.0,
   "NumberOfPhaseEncodingSteps": 100,
   "PercentPhaseFieldOfView": 100.0,
   "PercentSampling": 100.0,
   "PerformedProcedureStepStartTime": "085258.449000",
   "PhotometricInterpretation": "MONOCHROME2",
   "PixelBandwidth": 2380.0,
   "PixelRepresentation": 0,
   "PixelSpacing": [
    2.0,
    2.0
   ],
   "ProtocolName": "bold_100x100_s3_2x2x2_static_256",
   "RepetitionTime": 2000.0,
   "Rows": 900,
   "SAR": 0.06631033914613,
   "SamplesPerPixel": 1,
   "ScanOptions": "FS",
   "ScanningSequence": "EP",
   "SequenceName": "*epfid2d1_100",
   "SequenceVariant": "SK",
   "SeriesDescription": "bold_100x100_s3_2x2x2_static_256",
   "SeriesNumber": 12,
   "SeriesTime": "102042.749000",
   "SliceLocation": -64.839753616211,
   "SliceThickness": 2.0,
   "SmallestImagePixelValue": 0,
   "SoftwareVersions": "syngo MR E11",
   "SpacingBetweenSlices": 2.0000000314449,
   "SpecificCharacterSet": "ISO_IR 100",
   "StudyID": "1",
   "StudyTime": "085258.378000",
   "TransmitCoilName": "Body",
   "VariableFlipAngleFlag": "N",
   "WindowCenterWidthExplanation": "Algo1",
   "dBdt": 0.0
  },
  "slices": {}
 },
 "time": {
  "samples": {
   "AcquisitionNumber": [
    1,
    2,
    3,
    4,
    5,
    6,
    7,
    8,
    9,
    10,
    11,
    12,
    13,
    14,
    15,
    16,
    17,
    18,
    19,
    20,
    21,
    22,
    23,
    24,
    25,
    26,
    27,
    28,
    29,
    30,
    31,
    32,
    33,
    34,
    35,
    36,
    37,
    38,
    39,
    40,
    41,
    42,
    43,
    44,
    45,
    46,
    47,
    48,
    49,
    50,
    51,
    52,
    53,
    54,
    55,
    56,
    57,
    58,
    59,
    60,
    61,
    62,
    63,
    64,
    65,
    66,
    67,
    68,
    69,
    70,
    71,
    72,
    73,
    74,
    75,
    76,
    77,
    78,
    79,
    80,
    81,
    82,
    83,
    84,
    85,
    86,
    87,
    88,
    89,
    90,
    91,
    92,
    93,
    94,
    95,
    96,
    97,
    98,
    99,
    100,
    101,
    102,
    103,
    104,
    105,
    106,
    107,
    108,
    109,
    110,
    111,
    112,
    113,
    114,
    115,
    116,
    117,
    118,
    119,
    120,
    121,
    122,
    123,
    124,
    125,
    126,
    127,
    128,
    129,
    130,
    131,
    132,
    133,
    134,
    135,
    136,
    137,
    138,
    139,
    140,
    141,
    142,
    143,
    144,
    145,
    146,
    147,
    148,
    149,
    150,
    151,
    152,
    153,
    154,
    155,
    156,
    157,
    158,
    159,
    160,
    161,
    162,
    163,
    164,
    165,
    166,
    167,
    168,
    169,
    170,
    171,
    172,
    173,
    174,
    175,
    176,
    177,
    178,
    179,
    180,
    181,
    182,
    183,
    184,
    185,
    186,
    187,
    188,
    189,
    190,
    191,
    192,
    193,
    194,
    195,
    196,
    197,
    198,
    199,
    200,
    201,
    202,
    203,
    204,
    205,
    206,
    207,
    208,
    209,
    210,
    211,
    212,
    213,
    214,
    215,
    216,
    217,
    218,
    219,
    220,
    221,
    222,
    223,
    224,
    225,
    226,
    227,
    228,
    229,
    230,
    231,
    232,
    233,
    234,
    235,
    236,
    237,
    238,
    239,
    240,
    241,
    242,
    243,
    244,
    245,
    246,
    247,
    248,
    249,
    250,
    251,
    252,
    253,
    254,
    255,
    256
   ],
   "AcquisitionTime": [
    "102040.195000",
    "102042.195000",
    "102044.195000",
    "102046.195000",
    "102048.195000",
    "102050.195000",
    "102052.195000",
    "102054.195000",
    "102056.195000",
    "102058.195000",
    "102100.195000",
    "102102.195000",
    "102104.195000",
    "102106.195000",
    "102108.195000",
    "102110.195000",
    "102112.195000",
    "102114.195000",
    "102116.195000",
    "102118.195000",
    "102120.195000",
    "102122.195000",
    "102124.195000",
    "102126.195000",
    "102128.195000",
    "102130.195000",
    "102132.195000",
    "102134.195000",
    "102136.195000",
    "102138.195000",
    "102140.195000",
    "102142.195000",
    "102144.195000",
    "102146.195000",
    "102148.195000",
    "102150.195000",
    "102152.195000",
    "102154.195000",
    "102156.195000",
    "102158.195000",
    "102200.195000",
    "102202.195000",
    "102204.195000",
    "102206.195000",
    "102208.195000",
    "102210.195000",
    "102212.195000",
    "102214.195000",
    "102216.195000",
    "102218.195000",
    "102220.195000",
    "102222.195000",
    "102224.195000",
    "102226.195000",
    "102228.195000",
    "102230.195000",
    "102232.195000",
    "102234.195000",
    "102236.195000",
    "102238.195000",
    "102240.195000",
    "102242.195000",
    "102244.195000",
    "102246.195000",
    "102248.195000",
    "102250.195000",
    "102252.195000",
    "102254.195000",
    "102256.195000",
    "102258.195000",
    "102300.195000",
    "102302.195000",
    "102304.195000",
    "102306.195000",
    "102308.195000",
    "102310.195000",
    "102312.195000",
    "102314.195000",
    "102316.195000",
    "102318.195000",
    "102320.195000",
    "102322.195000",
    "102324.195000",
    "102326.195000",
    "102328.195000",
    "102330.195000",
    "102332.195000",
    "102334.195000",
    "102336.195000",
    "102338.195000",
    "102340.195000",
    "102342.195000",
    "102344.195000",
    "102346.195000",
    "102348.195000",
    "102350.195000",
    "102352.195000",
    "102354.195000",
    "102356.195000",
    "102358.195000",
    "102400.195000",
    "102402.195000",
    "102404.195000",
    "102406.195000",
    "102408.195000",
    "102410.195000",
    "102412.195000",
    "102414.195000",
    "102416.195000",
    "102418.195000",
    "102420.195000",
    "102422.195000",
    "102424.195000",
    "102426.195000",
    "102428.195000",
    "102430.195000",
    "102432.195000",
    "102434.195000",
    "102436.195000",
    "102438.195000",
    "102440.195000",
    "102442.195000",
    "102444.195000",
    "102446.195000",
    "102448.195000",
    "102450.195000",
    "102452.195000",
    "102454.195000",
    "102456.195000",
    "102458.195000",
    "102500.195000",
    "102502.195000",
    "102504.195000",
    "102506.195000",
    "102508.195000",
    "102510.195000",
    "102512.195000",
    "102514.195000",
    "102516.195000",
    "102518.195000",
    "102520.195000",
    "102522.195000",
    "102524.195000",
    "102526.195000",
    "102528.195000",
    "102530.195000",
    "102532.195000",
    "102534.195000",
    "102536.195000",
    "102538.195000",
    "102540.195000",
    "102542.195000",
    "102544.195000",
    "102546.195000",
    "102548.195000",
    "102550.195000",
    "102552.195000",
    "102554.195000",
    "102556.195000",
    "102558.195000",
    "102600.195000",
    "102602.195000",
    "102604.195000",
    "102606.195000",
    "102608.195000",
    "102610.195000",
    "102612.195000",
    "102614.195000",
    "102616.195000",
    "102618.195000",
    "102620.195000",
    "102622.195000",
    "102624.195000",
    "102626.195000",
    "102628.195000",
    "102630.195000",
    "102632.195000",
    "102634.195000",
    "102636.195000",
    "102638.195000",
    "102640.195000",
    "102642.195000",
    "102644.195000",
    "102646.195000",
    "102648.195000",
    "102650.195000",
    "102652.195000",
    "102654.195000",
    "102656.195000",
    "102658.195000",
    "102700.195000",
    "102702.195000",
    "102704.195000",
    "102706.195000",
    "102708.195000",
    "102710.195000",
    "102712.195000",
    "102714.195000",
    "102716.195000",
    "102718.195000",
    "102720.195000",
    "102722.195000",
    "102724.195000",
    "102726.195000",
    "102728.195000",
    "102730.195000",
    "102732.195000",
    "102734.195000",
    "102736.195000",
    "102738.195000",
    "102740.195000",
    "102742.195000",
    "102744.195000",
    "102746.195000",
    "102748.195000",
    "102750.195000",
    "102752.195000",
    "102754.195000",
    "102756.195000",
    "102758.195000",
    "102800.195000",
    "102802.195000",
    "102804.195000",
    "102806.195000",
    "102808.195000",
    "102810.195000",
    "102812.195000",
    "102814.195000",
    "102816.195000",
    "102818.195000",
    "102820.195000",
    "102822.195000",
    "102824.195000",
    "102826.195000",
    "102828.195000",
    "102830.195000",
    "102832.195000",
    "102834.195000",
    "102836.195000",
    "102838.195000",
    "102840.195000",
    "102842.195000",
    "102844.195000",
    "102846.195000",
    "102848.195000",
    "102850.195000",
    "102852.195000",
    "102854.195000",
    "102856.195000",
    "102858.195000",
    "102900.195000",
    "102902.195000",
    "102904.195000",
    "102906.195000",
    "102908.195000",
    "102910.195000"
   ],
   "ContentTime": [
    "102042.752000",
    "102044.247000",
    "102046.247000",
    "102048.246000",
    "102050.246000",
    "102052.246000",
    "102054.246000",
    "102056.247000",
    "102058.248000",
    "102100.248000",
    "102102.247000",
    "102104.248000",
    "102106.246000",
    "102108.247000",
    "102110.246000",
    "102112.246000",
    "102114.248000",
    "102116.248000",
    "102118.247000",
    "102120.248000",
    "102122.246000",
    "102124.246000",
    "102126.247000",
    "102128.246000",
    "102130.248000",
    "102132.247000",
    "102134.248000",
    "102136.248000",
    "102138.248000",
    "102140.246000",
    "102142.247000",
    "102144.247000",
    "102146.247000",
    "102148.247000",
    "102150.247000",
    "102152.247000",
    "102154.248000",
    "102156.247000",
    "102158.247000",
    "102200.246000",
    "102202.246000",
    "102204.247000",
    "102206.247000",
    "102208.247000",
    "102210.248000",
    "102212.247000",
    "102214.248000",
    "102216.247000",
    "102218.247000",
    "102220.246000",
    "102222.247000",
    "102224.248000",
    "102226.248000",
    "102228.247000",
    "102230.248000",
    "102232.247000",
    "102234.246000",
    "102236.247000",
    "102238.246000",
    "102240.248000",
    "102242.248000",
    "102244.248000",
    "102246.247000",
    "102248.248000",
    "102250.247000",
    "102252.246000",
    "102254.247000",
    "102256.247000",
    "102258.248000",
    "102300.247000",
    "102302.248000",
    "102304.247000",
    "102306.248000",
    "102308.246000",
    "102310.246000",
    "102312.247000",
    "102314.246000",
    "102316.247000",
    "102318.247000",
    "102320.247000",
    "102322.248000",
    "102324.248000",
    "102326.247000",
    "102328.246000",
    "102330.246000",
    "102332.247000",
    "102334.247000",
    "102336.247000",
    "102338.248000",
    "102340.247000",
    "102342.246000",
    "102344.246000",
    "102346.246000",
    "102348.246000",
    "102350.247000",
    "102352.248000",
    "102354.247000",
    "102356.247000",
    "102358.247000",
    "102400.246000",
    "102402.247000",
    "102404.246000",
    "102406.247000",
    "102408.248000",
    "102410.248000",
    "102412.247000",
    "102414.248000",
    "102416.248000",
    "102418.247000",
    "102420.246000",
    "102422.246000",
    "102424.247000",
    "102426.247000",
    "102428.247000",
    "102430.248000",
    "102432.248000",
    "102434.248000",
    "102436.247000",
    "102438.247000",
    "102440.247000",
    "102442.248000",
    "102444.248000",
    "102446.248000",
    "102448.248000",
    "102450.248000",
    "102452.246000",
    "102454.246000",
    "102456.247000",
    "102458.247000",
    "102500.248000",
    "102502.248000",
    "102504.248000",
    "102506.247000",
    "102508.248000",
    "102510.246000",
    "102512.246000",
    "102514.247000",
    "102516.246000",
    "102518.248000",
    "102520.248000",
    "102522.248000",
    "102524.248000",
    "102526.248000",
    "102528.246000",
    "102530.246000",
    "102532.247000",
    "102534.247000",
    "102536.248000",
    "102538.247000",
    "102540.247000",
    "102542.247000",
    "102544.247000",
    "102546.247000",
    "102548.246000",
    "102550.247000",
    "102552.248000",
    "102554.248000",
    "102556.248000",
    "102558.248000",
    "102600.248000",
    "102602.247000",
    "102604.247000",
    "102606.247000",
    "102608.247000",
    "102610.248000",
    "102612.248000",
    "102614.248000",
    "102616.248000",
    "102618.248000",
    "102620.247000",
    "102622.247000",
    "102624.247000",
    "102626.247000",
    "102628.248000",
    "102630.248000",
    "102632.248000",
    "102634.248000",
    "102636.247000",
    "102638.247000",
    "102640.246000",
    "102642.247000",
    "102644.247000",
    "102646.248000",
    "102648.247000",
    "102650.248000",
    "102652.248000",
    "102654.249000",
    "102656.247000",
    "102658.246000",
    "102700.247000",
    "102702.248000",
    "102704.248000",
    "102706.248000",
    "102708.248000",
    "102710.247000",
    "102712.247000",
    "102714.247000",
    "102716.247000",
    "102718.246000",
    "102720.248000",
    "102722.247000",
    "102724.248000",
    "102726.248000",
    "102728.248000",
    "102730.247000",
    "102732.246000",
    "102734.247000",
    "102736.246000",
    "102738.248000",
    "102740.247000",
    "102742.248000",
    "102744.247000",
    "102746.248000",
    "102748.247000",
    "102750.247000",
    "102752.247000",
    "102754.247000",
    "102756.248000",
    "102758.248000",
    "102800.248000",
    "102802.248000",
    "102804.247000",
    "102806.247000",
    "102808.247000",
    "102810.247000",
    "102812.248000",
    "102814.247000",
    "102816.247000",
    "102818.248000",
    "102820.248000",
    "102822.247000",
    "102824.247000",
    "102826.247000",
    "102828.247000",
    "102830.248000",
    "102832.247000",
    "102834.248000",
    "102836.248000",
    "102838.247000",
    "102840.247000",
    "102842.247000",
    "102844.247000",
    "102846.247000",
    "102848.248000",
    "102850.248000",
    "102852.248000",
    "102854.248000",
    "102856.248000",
    "102858.247000",
    "102900.247000",
    "102902.246000",
    "102904.247000",
    "102906.248000",
    "102908.256000",
    "102910.248000",
    "102911.973000"
   ],
   "InstanceCreationTime": [
    "102042.752000",
    "102044.247000",
    "102046.247000",
    "102048.246000",
    "102050.246000",
    "102052.246000",
    "102054.246000",
    "102056.247000",
    "102058.248000",
    "102100.248000",
    "102102.247000",
    "102104.248000",
    "102106.246000",
    "102108.247000",
    "102110.246000",
    "102112.246000",
    "102114.248000",
    "102116.248000",
    "102118.247000",
    "102120.248000",
    "102122.246000",
    "102124.246000",
    "102126.247000",
    "102128.246000",
    "102130.248000",
    "102132.247000",
    "102134.248000",
    "102136.248000",
    "102138.248000",
    "102140.246000",
    "102142.247000",
    "102144.247000",
    "102146.247000",
    "102148.247000",
    "102150.247000",
    "102152.247000",
    "102154.248000",
    "102156.247000",
    "102158.247000",
    "102200.246000",
    "102202.246000",
    "102204.247000",
    "102206.247000",
    "102208.247000",
    "102210.248000",
    "102212.247000",
    "102214.248000",
    "102216.247000",
    "102218.247000",
    "102220.246000",
    "102222.247000",
    "102224.248000",
    "102226.248000",
    "102228.247000",
    "102230.248000",
    "102232.247000",
    "102234.246000",
    "102236.247000",
    "102238.246000",
    "102240.248000",
    "102242.248000",
    "102244.248000",
    "102246.247000",
    "102248.248000",
    "102250.247000",
    "102252.246000",
    "102254.247000",
    "102256.247000",
    "102258.248000",
    "102300.247000",
    "102302.248000",
    "102304.247000",
    "102306.248000",
    "102308.246000",
    "102310.246000",
    "102312.247000",
    "102314.246000",
    "102316.247000",
    "102318.247000",
    "102320.247000",
    "102322.248000",
    "102324.248000",
    "102326.247000",
    "102328.246000",
    "102330.246000",
    "102332.247000",
    "102334.247000",
    "102336.247000",
    "102338.248000",
    "102340.247000",
    "102342.246000",
    "102344.246000",
    "102346.246000",
    "102348.246000",
    "102350.247000",
    "102352.248000",
    "102354.247000",
    "102356.247000",
    "102358.247000",
    "102400.246000",
    "102402.247000",
    "102404.246000",
    "102406.247000",
    "102408.248000",
    "102410.248000",
    "102412.247000",
    "102414.248000",
    "102416.248000",
    "102418.247000",
    "102420.246000",
    "102422.246000",
    "102424.247000",
    "102426.247000",
    "102428.247000",
    "102430.248000",
    "102432.248000",
    "102434.248000",
    "102436.247000",
    "102438.247000",
    "102440.247000",
    "102442.248000",
    "102444.248000",
    "102446.248000",
    "102448.248000",
    "102450.248000",
    "102452.246000",
    "102454.246000",
    "102456.247000",
    "102458.247000",
    "102500.248000",
    "102502.248000",
    "102504.248000",
    "102506.247000",
    "102508.248000",
    "102510.246000",
    "102512.246000",
    "102514.247000",
    "102516.246000",
    "102518.248000",
    "102520.248000",
    "102522.248000",
    "102524.248000",
    "102526.248000",
    "102528.246000",
    "102530.246000",
    "102532.247000",
    "102534.247000",
    "102536.248000",
    "102538.247000",
    "102540.247000",
    "102542.247000",
    "102544.247000",
    "102546.247000",
    "102548.246000",
    "102550.247000",
    "102552.248000",
    "102554.248000",
    "102556.248000",
    "102558.248000",
    "102600.248000",
    "102602.247000",
    "102604.247000",
    "102606.247000",
    "102608.247000",
    "102610.248000",
    "102612.248000",
    "102614.248000",
    "102616.248000",
    "102618.248000",
    "102620.247000",
    "102622.247000",
    "102624.247000",
    "102626.247000",
    "102628.248000",
    "102630.248000",
    "102632.248000",
    "102634.248000",
    "102636.247000",
    "102638.247000",
    "102640.246000",
    "102642.247000",
    "102644.247000",
    "102646.248000",
    "102648.247000",
    "102650.248000",
    "102652.248000",
    "102654.249000",
    "102656.247000",
    "102658.246000",
    "102700.247000",
    "102702.248000",
    "102704.248000",
    "102706.248000",
    "102708.248000",
    "102710.247000",
    "102712.247000",
    "102714.247000",
    "102716.247000",
    "102718.246000",
    "102720.248000",
    "102722.247000",
    "102724.248000",
    "102726.248000",
    "102728.248000",
    "102730.247000",
    "102732.246000",
    "102734.247000",
    "102736.246000",
    "102738.248000",
    "102740.247000",
    "102742.248000",
    "102744.247000",
    "102746.248000",
    "102748.247000",
    "102750.247000",
    "102752.247000",
    "102754.247000",
    "102756.248000",
    "102758.248000",
    "102800.248000",
    "102802.248000",
    "102804.247000",
    "102806.247000",
    "102808.247000",
    "102810.247000",
    "102812.248000",
    "102814.247000",
    "102816.247000",
    "102818.248000",
    "102820.248000",
    "102822.247000",
    "102824.247000",
    "102826.247000",
    "102828.247000",
    "102830.248000",
    "102832.247000",
    "102834.248000",
    "102836.248000",
    "102838.247000",
    "102840.247000",
    "102842.247000",
    "102844.247000",
    "102846.247000",
    "102848.248000",
    "102850.248000",
    "102852.248000",
    "102854.248000",
    "102856.248000",
    "102858.247000",
    "102900.247000",
    "102902.246000",
    "102904.247000",
    "102906.248000",
    "102908.256000",
    "102910.248000",
    "102911.973000"
   ],
   "InstanceNumber": [
    1,
    2,
    3,
    4,
    5,
    6,
    7,
    8,
    9,
    10,
    11,
    12,
    13,
    14,
    15,
    16,
    17,
    18,
    19,
    20,
    21,
    22,
    23,
    24,
    25,
    26,
    27,
    28,
    29,
    30,
    31,
    32,
    33,
    34,
    35,
    36,
    37,
    38,
    39,
    40,
    41,
    42,
    43,
    44,
    45,
    46,
    47,
    48,
    49,
    50,
    51,
    52,
    53,
    54,
    55,
    56,
    57,
    58,
    59,
    60,
    61,
    62,
    63,
    64,
    65,
    66,
    67,
    68,
    69,
    70,
    71,
    72,
    73,
    74,
    75,
    76,
    77,
    78,
    79,
    80,
    81,
    82,
    83,
    84,
    85,
    86,
    87,
    88,
    89,
    90,
    91,
    92,
    93,
    94,
    95,
    96,
    97,
    98,
    99,
    100,
    101,
    102,
    103,
    104,
    105,
    106,
    107,
    108,
    109,
    110,
    111,
    112,
    113,
    114,
    115,
    116,
    117,
    118,
    119,
    120,
    121,
    122,
    123,
    124,
    125,
    126,
    127,
    128,
    129,
    130,
    131,
    132,
    133,
    134,
    135,
    136,
    137,
    138,
    139,
    140,
    141,
    142,
    143,
    144,
    145,
    146,
    147,
    148,
    149,
    150,
    151,
    152,
    153,
    154,
    155,
    156,
    157,
    158,
    159,
    160,
    161,
    162,
    163,
    164,
    165,
    166,
    167,
    168,
    169,
    170,
    171,
    172,
    173,
    174,
    175,
    176,
    177,
    178,
    179,
    180,
    181,
    182,
    183,
    184,
    185,
    186,
    187,
    188,
    189,
    190,
    191,
    192,
    193,
    194,
    195,
    196,
    197,
    198,
    199,
    200,
    201,
    202,
    203,
    204,
    205,
    206,
    207,
    208,
    209,
    210,
    211,
    212,
    213,
    214,
    215,
    216,
    217,
    218,
    219,
    220,
    221,
    222,
    223,
    224,
    225,
    226,
    227,
    228,
    229,
    230,
    231,
    232,
    233,
    234,
    235,
    236,
    237,
    238,
    239,
    240,
    241,
    242,
    243,
    244,
    245,
    246,
    247,
    248,
    249,
    250,
    251,
    252,
    253,
    254,
    255,
    256
   ],
   "LargestImagePixelValue": [
    3446,
    3331,
    3312,
    3314,
    3318,
    3341,
    3300,
    3324,
    3330,
    3332,
    3340,
    3311,
    3298,
    3282,
    3295,
    3277,
    3287,
    3328,
    3287,
    3302,
    3311,
    3299,
    3311,
    3330,
    3309,
    3316,
    3320,
    3401,
    3316,
    3322,
    3319,
    3327,
    3333,
    3319,
    3321,
    3346,
    3323,
    3303,
    3320,
    3334,
    3322,
    3326,
    3325,
    3362,
    3319,
    3340,
    3323,
    3315,
    3284,
    3315,
    3334,
    3342,
    3316,
    3332,
    3323,
    3331,
    3309,
    3300,
    3281,
    3313,
    3328,
    3352,
    3381,
    3398,
    3351,
    3343,
    3354,
    3336,
    3325,
    3351,
    3358,
    3333,
    3308,
    3346,
    3353,
    3400,
    3368,
    3337,
    3322,
    3335,
    3350,
    3365,
    3345,
    3344,
    3342,
    3361,
    3394,
    3351,
    3334,
    3333,
    3328,
    3317,
    3337,
    3323,
    3318,
    3329,
    3349,
    3289,
    3318,
    3289,
    3313,
    3311,
    3301,
    3336,
    3343,
    3344,
    3337,
    3361,
    3304,
    3338,
    3322,
    3349,
    3347,
    3334,
    3347,
    3350,
    3371,
    3364,
    3355,
    3373,
    3367,
    3402,
    3307,
    3298,
    3346,
    3360,
    3366,
    3358,
    3361,
    3348,
    3348,
    3364,
    3326,
    3339,
    3312,
    3368,
    3315,
    3373,
    3327,
    3385,
    3348,
    3337,
    3339,
    3322,
    3333,
    3344,
    3340,
    3325,
    3299,
    3338,
    3326,
    3319,
    3343,
    3291,
    3342,
    3278,
    3350,
    3316,
    3291,
    3270,
    3292,
    3311,
    3308,
    3299,
    3319,
    3301,
    3293,
    3314,
    3335,
    3338,
    3312,
    3302,
    3299,
    3312,
    3342,
    3321,
    3353,
    3335,
    3335,
    3319,
    3337,
    3352,
    3348,
    3363,
    3338,
    3339,
    3330,
    3352,
    3345,
    3378,
    3368,
    3270,
    3276,
    3275,
    3252,
    3321,
    3263,
    3272,
    3299,
    3293,
    3287,
    3279,
    3272,
    3308,
    3286,
    3279,
    3308,
    3306,
    3299,
    3301,
    3307,
    3303,
    3309,
    3309,
    3326,
    3339,
    3359,
    3343,
    3303,
    3364,
    3355,
    3310,
    3329,
    3284,
    3389,
    3346,
    3319,
    3268,
    3312,
    3276,
    3349,
    3320,
    3301,
    3325,
    3315,
    3332,
    3292,
    3302,
    3342,
    3342,
    3327,
    3348,
    3380,
    3339,
    3365,
    3339,
    3319,
    3294,
    3344,
    3320,
    3301,
    3293,
    3319,
    3298,
    3285,
    3269
   ],
   "WindowCenter": [
    814.0,
    812.0,
    811.0,
    810.0,
    810.0,
    810.0,
    811.0,
    811.0,
    811.0,
    813.0,
    814.0,
    815.0,
    815.0,
    814.0,
    813.0,
    812.0,
    812.0,
    812.0,
    813.0,
    814.0,
    814.0,
    813.0,
    813.0,
    814.0,
    814.0,
    814.0,
    814.0,
    815.0,
    815.0,
    816.0,
    815.0,
    814.0,
    814.0,
    814.0,
    815.0,
    814.0,
    813.0,
    813.0,
    814.0,
    813.0,
    812.0,
    811.0,
    813.0,
    815.0,
    814.0,
    813.0,
    813.0,
    812.0,
    812.0,
    812.0,
    814.0,
    813.0,
    812.0,
    813.0,
    814.0,
    814.0,
    814.0,
    813.0,
    812.0,
    812.0,
    814.0,
    816.0,
    815.0,
    814.0,
    813.0,
    813.0,
    813.0,
    814.0,
    816.0,
    818.0,
    817.0,
    814.0,
    813.0,
    812.0,
    812.0,
    812.0,
    812.0,
    810.0,
    809.0,
    810.0,
    811.0,
    812.0,
    813.0,
    814.0,
    814.0,
    814.0,
    815.0,
    815.0,
    818.0,
    819.0,
    819.0,
    816.0,
    813.0,
    812.0,
    813.0,
    813.0,
    813.0,
    812.0,
    812.0,
    811.0,
    811.0,
    811.0,
    811.0,
    811.0,
    810.0,
    811.0,
    814.0,
    816.0,
    816.0,
    814.0,
    813.0,
    812.0,
    813.0,
    813.0,
    813.0,
    813.0,
    812.0,
    811.0,
    813.0,
    815.0,
    816.0,
    814.0,
    813.0,
    814.0,
    815.0,
