{
 "AcquisitionMatrixPE": 100,
 "AcquisitionNumber": 1,
 "AcquisitionTime": "10:16:33.085000",
 "BandwidthPerPixelPhaseEncode": 18.519,
 "BaseResolution": 100,
 "BodyPartExamined": "BRAIN",
 "ConsistencyInfo": "N4_VE11C_LATEST_20160120",
 "ConversionSoftware": "dcm2niix",
 "ConversionSoftwareVersion": "v1.0.20180622 GCC4.9.2",
 "DerivedVendorReportedEchoSpacing": 0.000539986,
 "DeviceSerialNumber": "166078",
 "DwellTime": 2.1e-06,
 "EchoTime": 0.034,
 "EchoTrainLength": 100,
 "EffectiveEchoSpacing": 0.000539986,
 "FlipAngle": 90,
 "ImageOrientationPatientDICOM": [
  1,
  0,
  0,
  0,
  0.994338,
  -0.106264
 ],
 "ImageType": [
  "ORIGINAL",
  "PRIMARY",
  "M",
  "ND",
  "MOSAIC"
 ],
 "InPlanePhaseEncodingDirectionDICOM": "COL",
 "InstitutionAddress": "Street_StreetNo_Bei_Jing_District_CN_ZIP",
 "InstitutionName": "BeiJing_Normal_University",
 "InstitutionalDepartmentName": "Department",
 "MRAcquisitionType": "2D",
 "MagneticFieldStrength": 3,
 "Manufacturer": "Siemens",
 "ManufacturersModelName": "Prisma",
 "Modality": "MR",
 "MultibandAccelerationFactor": 3,
 "PartialFourier": 1,
 "PatientPosition": "HFS",
 "PercentPhaseFOV": 100,
 "PhaseEncodingDirection": "j-",
 "PhaseEncodingSteps": 100,
 "PhaseResolution": 1,
 "PixelBandwidth": 2380,
 "ProcedureStepDescription": "BNU_P2018_64CH_Zhen.ZongLei",
 "ProtocolName": "bold_100x100_s3_2x2x2_static_256",
 "PulseSequenceDetails": "%SiemensSeq%_ep2d_bold",
 "ReceiveCoilActiveElements": "HC1-7;NC1",
 "ReceiveCoilName": "HeadNeck_64",
 "ReconMatrixPE": 100,
 "RepetitionTime": 2,
 "SAR": 0.0628815,
 "ScanOptions": "FS",
 "ScanningSequence": "EP",
 "SequenceName": "_epfid2d1_100",
 "SequenceVariant": "SK",
 "SeriesDescription": "bold_100x100_s3_2x2x2_static_256",
 "SeriesNumber": 11,
 "ShimSetting": [
  -5474,
  -11488,
  -1252,
  433,
  -26,
  -116,
  -135,
  81
 ],
 "SliceThickness": 2,
 "SliceTiming": [
  1.485,
  0,
  0.99,
  0.0825,
  1.0725,
  0.165,
  1.155,
  0.2475,
  1.2375,
  0.33,
  1.32,
  0.4125,
  1.4025,
  0.5775,
  1.5675,
  0.66,
  1.65,
  0.7425,
  1.7325,
  0.825,
  1.815,
  0.9075,
  1.8975,
  0.495,
  1.485,
  0,
  0.99,
  0.0825,
  1.0725,
  0.165,
  1.155,
  0.2475,
  1.2375,
  0.33,
  1.32,
  0.4125,
  1.4025,
  0.5775,
  1.5675,
  0.66,
  1.65,
  0.7425,
  1.7325,
  0.825,
  1.815,
  0.9075,
  1.8975,
  0.495,
  1.485,
  0,
  0.99,
  0.0825,
  1.0725,
  0.165,
  1.155,
  0.2475,
  1.2375,
  0.33,
  1.32,
  0.4125,
  1.4025,
  0.5775,
  1.5675,
  0.66,
  1.65,
  0.7425,
  1.7325,
  0.825,
  1.815,
  0.9075,
  1.8975,
  0.495
 ],
 "SoftwareVersions": "syngo_MR_E11",
 "SpacingBetweenSlices": 2,
 "StationName": "AWP166078",
 "TaskName": "imagenet",
 "TotalReadoutTime": 0.0534586,
 "TxRefAmp": 203.771,
 "dcmmeta_affine": [
  [
   -2.0,
   0.0,
   0.0,
   100.0
  ],
  [
   0.0,
   1.988675832748413,
   -0.21252812445163727,
   -84.83531188964844
  ],
  [
   0.0,
   0.21252813935279846,
   1.988675832748413,
   -72.37572479248047
  ],
  [
   0.0,
   0.0,
   0.0,
   1.0
  ]
 ],
 "dcmmeta_reorient_transform": [
  [
   0.0,
   -1.0,
   0.0,
   99.0
  ],
  [
   1.0,
   0.0,
   0.0,
   0.0
  ],
  [
   0.0,
   0.0,
   1.0,
   0.0
  ],
  [
   0.0,
   0.0,
   0.0,
   1.0
  ]
 ],
 "dcmmeta_shape": [
  100,
  100,
  72,
  256
 ],
 "dcmmeta_slice_dim": 2,
 "dcmmeta_version": 0.6,
 "global": {
  "const": {
   "AcquisitionMatrix": [
    100,
    0,
    0,
    100
   ],
   "AngioFlag": "N",
   "BitsAllocated": 16,
   "BitsStored": 12,
   "BodyPartExamined": "BRAIN",
   "Columns": 900,
   "EchoNumbers": 1,
   "EchoTime": 34.0,
   "EchoTrainLength": 100,
   "FlipAngle": 90.0,
   "HighBit": 11,
   "ImageOrientationPatient": [
    1.0,
    0.0,
    0.0,
    0.0,
    0.99433794468309,
    -0.1062640661908
   ],
   "ImagePositionPatient": [
    -900.0,
    -907.51395913659,
    33.675810359092
   ],
   "ImageType": [
    "ORIGINAL",
    "PRIMARY",
    "M",
    "ND",
    "MOSAIC"
   ],
   "ImagedNucleus": "1H",
   "ImagingFrequency": 123.257769,
   "InPlanePhaseEncodingDirection": "COL",
   "MRAcquisitionType": "2D",
   "MagneticFieldStrength": 3.0,
   "Manufacturer": "SIEMENS",
   "ManufacturerModelName": "Prisma",
   "Modality": "MR",
   "NumberOfAverages": 1.0,
   "NumberOfPhaseEncodingSteps": 100,
   "PercentPhaseFieldOfView": 100.0,
   "PercentSampling": 100.0,
   "PerformedProcedureStepStartTime": "090547.909000",
   "PhotometricInterpretation": "MONOCHROME2",
   "PixelBandwidth": 2380.0,
   "PixelRepresentation": 0,
   "PixelSpacing": [
    2.0,
    2.0
   ],
   "ProtocolName": "bold_100x100_s3_2x2x2_static_256",
   "RepetitionTime": 2000.0,
   "Rows": 900,
   "SAR": 0.06288150204988,
   "SamplesPerPixel": 1,
   "ScanOptions": "FS",
   "ScanningSequence": "EP",
   "SequenceName": "*epfid2d1_100",
   "SequenceVariant": "SK",
   "SeriesDescription": "bold_100x100_s3_2x2x2_static_256",
   "SeriesNumber": 11,
   "SeriesTime": "101635.335000",
   "SliceLocation": -62.950987364788,
   "SliceThickness": 2.0,
   "SmallestImagePixelValue": 0,
   "SoftwareVersions": "syngo MR E11",
   "SpacingBetweenSlices": 1.9999999943947,
   "SpecificCharacterSet": "ISO_IR 100",
   "StudyID": "1",
   "StudyTime": "090547.818000",
   "TransmitCoilName": "Body",
   "VariableFlipAngleFlag": "N",
   "WindowCenterWidthExplanation": "Algo1",
   "dBdt": 0.0
  },
  "slices": {}
 },
 "time": {
  "samples": {
   "AcquisitionNumber": [
    1,
    2,
    3,
    4,
    5,
    6,
    7,
    8,
    9,
    10,
    11,
    12,
    13,
    14,
    15,
    16,
    17,
    18,
    19,
    20,
    21,
    22,
    23,
    24,
    25,
    26,
    27,
    28,
    29,
    30,
    31,
    32,
    33,
    34,
    35,
    36,
    37,
    38,
    39,
    40,
    41,
    42,
    43,
    44,
    45,
    46,
    47,
    48,
    49,
    50,
    51,
    52,
    53,
    54,
    55,
    56,
    57,
    58,
    59,
    60,
    61,
    62,
    63,
    64,
    65,
    66,
    67,
    68,
    69,
    70,
    71,
    72,
    73,
    74,
    75,
    76,
    77,
    78,
    79,
    80,
    81,
    82,
    83,
    84,
    85,
    86,
    87,
    88,
    89,
    90,
    91,
    92,
    93,
    94,
    95,
    96,
    97,
    98,
    99,
    100,
    101,
    102,
    103,
    104,
    105,
    106,
    107,
    108,
    109,
    110,
    111,
    112,
    113,
    114,
    115,
    116,
    117,
    118,
    119,
    120,
    121,
    122,
    123,
    124,
    125,
    126,
    127,
    128,
    129,
    130,
    131,
    132,
    133,
    134,
    135,
    136,
    137,
    138,
    139,
    140,
    141,
    142,
    143,
    144,
    145,
    146,
    147,
    148,
    149,
    150,
    151,
    152,
    153,
    154,
    155,
    156,
    157,
    158,
    159,
    160,
    161,
    162,
    163,
    164,
    165,
    166,
    167,
    168,
    169,
    170,
    171,
    172,
    173,
    174,
    175,
    176,
    177,
    178,
    179,
    180,
    181,
    182,
    183,
    184,
    185,
    186,
    187,
    188,
    189,
    190,
    191,
    192,
    193,
    194,
    195,
    196,
    197,
    198,
    199,
    200,
    201,
    202,
    203,
    204,
    205,
    206,
    207,
    208,
    209,
    210,
    211,
    212,
    213,
    214,
    215,
    216,
    217,
    218,
    219,
    220,
    221,
    222,
    223,
    224,
    225,
    226,
    227,
    228,
    229,
    230,
    231,
    232,
    233,
    234,
    235,
    236,
    237,
    238,
    239,
    240,
    241,
    242,
    243,
    244,
    245,
    246,
    247,
    248,
    249,
    250,
    251,
    252,
    253,
    254,
    255,
    256
   ],
   "AcquisitionTime": [
    "101633.085000",
    "101635.085000",
    "101637.085000",
    "101639.085000",
    "101641.085000",
    "101643.085000",
    "101645.085000",
    "101647.085000",
    "101649.085000",
    "101651.085000",
    "101653.085000",
    "101655.085000",
    "101657.085000",
    "101659.085000",
    "101701.085000",
    "101703.085000",
    "101705.085000",
    "101707.085000",
    "101709.085000",
    "101711.085000",
    "101713.085000",
    "101715.085000",
    "101717.085000",
    "101719.085000",
    "101721.085000",
    "101723.085000",
    "101725.085000",
    "101727.085000",
    "101729.085000",
    "101731.085000",
    "101733.085000",
    "101735.085000",
    "101737.085000",
    "101739.085000",
    "101741.085000",
    "101743.085000",
    "101745.085000",
    "101747.085000",
    "101749.085000",
    "101751.085000",
    "101753.085000",
    "101755.085000",
    "101757.085000",
    "101759.085000",
    "101801.085000",
    "101803.085000",
    "101805.085000",
    "101807.085000",
    "101809.085000",
    "101811.085000",
    "101813.085000",
    "101815.085000",
    "101817.085000",
    "101819.085000",
    "101821.085000",
    "101823.085000",
    "101825.085000",
    "101827.085000",
    "101829.085000",
    "101831.085000",
    "101833.085000",
    "101835.085000",
    "101837.085000",
    "101839.085000",
    "101841.085000",
    "101843.085000",
    "101845.085000",
    "101847.085000",
    "101849.085000",
    "101851.085000",
    "101853.085000",
    "101855.085000",
    "101857.085000",
    "101859.085000",
    "101901.085000",
    "101903.085000",
    "101905.085000",
    "101907.085000",
    "101909.085000",
    "101911.085000",
    "101913.085000",
    "101915.085000",
    "101917.085000",
    "101919.085000",
    "101921.085000",
    "101923.085000",
    "101925.085000",
    "101927.085000",
    "101929.085000",
    "101931.085000",
    "101933.085000",
    "101935.085000",
    "101937.085000",
    "101939.085000",
    "101941.085000",
    "101943.085000",
    "101945.085000",
    "101947.085000",
    "101949.085000",
    "101951.085000",
    "101953.085000",
    "101955.085000",
    "101957.085000",
    "101959.085000",
    "102001.085000",
    "102003.085000",
    "102005.085000",
    "102007.085000",
    "102009.085000",
    "102011.085000",
    "102013.085000",
    "102015.085000",
    "102017.085000",
    "102019.085000",
    "102021.085000",
    "102023.085000",
    "102025.085000",
    "102027.085000",
    "102029.085000",
    "102031.085000",
    "102033.085000",
    "102035.085000",
    "102037.085000",
    "102039.085000",
    "102041.085000",
    "102043.085000",
    "102045.085000",
    "102047.085000",
    "102049.085000",
    "102051.085000",
    "102053.085000",
    "102055.085000",
    "102057.085000",
    "102059.085000",
    "102101.085000",
    "102103.085000",
    "102105.085000",
    "102107.085000",
    "102109.085000",
    "102111.085000",
    "102113.085000",
    "102115.085000",
    "102117.085000",
    "102119.085000",
    "102121.085000",
    "102123.085000",
    "102125.085000",
    "102127.085000",
    "102129.085000",
    "102131.085000",
    "102133.085000",
    "102135.085000",
    "102137.085000",
    "102139.085000",
    "102141.085000",
    "102143.085000",
    "102145.085000",
    "102147.085000",
    "102149.085000",
    "102151.085000",
    "102153.085000",
    "102155.085000",
    "102157.085000",
    "102159.085000",
    "102201.085000",
    "102203.085000",
    "102205.085000",
    "102207.085000",
    "102209.085000",
    "102211.085000",
    "102213.085000",
    "102215.085000",
    "102217.085000",
    "102219.085000",
    "102221.085000",
    "102223.085000",
    "102225.085000",
    "102227.085000",
    "102229.085000",
    "102231.085000",
    "102233.085000",
    "102235.085000",
    "102237.085000",
    "102239.085000",
    "102241.085000",
    "102243.085000",
    "102245.085000",
    "102247.085000",
    "102249.085000",
    "102251.085000",
    "102253.085000",
    "102255.085000",
    "102257.085000",
    "102259.085000",
    "102301.085000",
    "102303.085000",
    "102305.085000",
    "102307.085000",
    "102309.085000",
    "102311.085000",
    "102313.085000",
    "102315.085000",
    "102317.085000",
    "102319.085000",
    "102321.085000",
    "102323.085000",
    "102325.085000",
    "102327.085000",
    "102329.085000",
    "102331.085000",
    "102333.085000",
    "102335.085000",
    "102337.085000",
    "102339.085000",
    "102341.085000",
    "102343.085000",
    "102345.085000",
    "102347.085000",
    "102349.085000",
    "102351.085000",
    "102353.085000",
    "102355.085000",
    "102357.085000",
    "102359.085000",
    "102401.085000",
    "102403.085000",
    "102405.085000",
    "102407.085000",
    "102409.085000",
    "102411.085000",
    "102413.085000",
    "102415.085000",
    "102417.085000",
    "102419.085000",
    "102421.085000",
    "102423.085000",
    "102425.085000",
    "102427.085000",
    "102429.085000",
    "102431.085000",
    "102433.085000",
    "102435.085000",
    "102437.085000",
    "102439.085000",
    "102441.085000",
    "102443.085000",
    "102445.085000",
    "102447.085000",
    "102449.085000",
    "102451.085000",
    "102453.085000",
    "102455.085000",
    "102457.085000",
    "102459.085000",
    "102501.085000",
    "102503.085000"
   ],
   "ContentTime": [
    "101635.338000",
    "101636.834000",
    "101638.833000",
    "101640.835000",
    "101642.834000",
    "101644.833000",
    "101646.834000",
    "101648.833000",
    "101650.833000",
    "101652.834000",
    "101654.834000",
    "101656.833000",
    "101658.834000",
    "101700.834000",
    "101702.833000",
    "101704.833000",
    "101706.834000",
    "101708.833000",
    "101710.834000",
    "101712.833000",
    "101714.833000",
    "101716.834000",
    "101718.835000",
    "101720.833000",
    "101722.834000",
    "101724.833000",
    "101726.834000",
    "101728.834000",
    "101730.834000",
    "101732.834000",
    "101734.834000",
    "101736.834000",
    "101738.834000",
    "101740.834000",
    "101742.833000",
    "101744.834000",
    "101746.833000",
    "101748.833000",
    "101750.835000",
    "101752.835000",
    "101754.833000",
    "101756.833000",
    "101758.833000",
    "101800.833000",
    "101802.834000",
    "101804.834000",
    "101806.834000",
    "101808.835000",
    "101810.835000",
    "101812.833000",
    "101814.833000",
    "101816.833000",
    "101818.834000",
    "101820.834000",
    "101822.833000",
    "101824.833000",
    "101826.834000",
    "101828.834000",
    "101830.833000",
    "101832.833000",
    "101834.833000",
    "101836.834000",
    "101838.833000",
    "101840.834000",
    "101842.834000",
    "101844.835000",
    "101846.834000",
    "101848.834000",
    "101850.833000",
    "101852.834000",
    "101854.833000",
    "101856.833000",
    "101858.833000",
    "101900.834000",
    "101902.835000",
    "101904.833000",
    "101906.833000",
    "101908.834000",
    "101910.833000",
    "101912.833000",
    "101914.834000",
    "101916.833000",
    "101918.835000",
    "101920.835000",
    "101922.833000",
    "101924.833000",
    "101926.833000",
    "101928.833000",
    "101930.834000",
    "101932.833000",
    "101934.833000",
    "101936.834000",
    "101938.835000",
    "101940.833000",
    "101942.833000",
    "101944.834000",
    "101946.834000",
    "101948.833000",
    "101950.834000",
    "101952.904000",
    "101954.834000",
    "101956.835000",
    "101958.833000",
    "102000.834000",
    "102002.834000",
    "102004.834000",
    "102006.833000",
    "102008.834000",
    "102010.835000",
    "102012.834000",
    "102014.834000",
    "102016.833000",
    "102018.833000",
    "102020.833000",
    "102022.833000",
    "102024.834000",
    "102026.833000",
    "102028.835000",
    "102030.834000",
    "102032.833000",
    "102034.834000",
    "102036.841000",
    "102038.834000",
    "102040.833000",
    "102042.833000",
    "102044.833000",
    "102046.834000",
    "102048.834000",
    "102050.833000",
    "102052.833000",
    "102054.833000",
    "102056.834000",
    "102058.834000",
    "102100.833000",
    "102102.834000",
    "102104.835000",
    "102106.834000",
    "102108.833000",
    "102110.834000",
    "102112.833000",
    "102114.834000",
    "102116.834000",
    "102118.833000",
    "102120.835000",
    "102122.834000",
    "102124.834000",
    "102126.833000",
    "102128.834000",
    "102130.833000",
    "102132.834000",
    "102134.833000",
    "102136.833000",
    "102138.834000",
    "102140.835000",
    "102142.834000",
    "102144.833000",
    "102146.833000",
    "102148.833000",
    "102150.833000",
    "102152.834000",
    "102154.834000",
    "102156.835000",
    "102158.835000",
    "102200.834000",
    "102202.834000",
    "102204.833000",
    "102206.833000",
    "102208.833000",
    "102210.834000",
    "102212.835000",
    "102214.835000",
    "102216.834000",
    "102218.834000",
    "102220.833000",
    "102222.833000",
    "102224.833000",
    "102226.834000",
    "102228.834000",
    "102230.835000",
    "102232.835000",
    "102234.833000",
    "102236.834000",
    "102238.833000",
    "102240.834000",
    "102242.833000",
    "102244.834000",
    "102246.833000",
    "102248.834000",
    "102250.835000",
    "102252.834000",
    "102254.834000",
    "102256.833000",
    "102258.834000",
    "102300.834000",
    "102302.834000",
    "102304.834000",
    "102306.834000",
    "102308.835000",
    "102310.833000",
    "102312.834000",
    "102314.833000",
    "102316.834000",
    "102318.834000",
    "102320.834000",
    "102322.834000",
    "102324.835000",
    "102326.835000",
    "102328.834000",
    "102330.833000",
    "102332.833000",
    "102334.834000",
    "102336.833000",
    "102338.834000",
    "102340.835000",
    "102342.835000",
    "102344.834000",
    "102346.834000",
    "102348.833000",
    "102350.833000",
    "102352.833000",
    "102354.834000",
    "102356.834000",
    "102358.834000",
    "102400.834000",
    "102402.833000",
    "102404.834000",
    "102406.834000",
    "102408.834000",
    "102410.834000",
    "102412.834000",
    "102414.834000",
    "102416.834000",
    "102418.835000",
    "102420.833000",
    "102422.834000",
    "102424.834000",
    "102426.834000",
    "102428.834000",
    "102430.834000",
    "102432.835000",
    "102434.834000",
    "102436.834000",
    "102438.834000",
    "102440.834000",
    "102442.833000",
    "102444.834000",
    "102446.834000",
    "102448.833000",
    "102450.834000",
    "102452.835000",
    "102454.834000",
    "102456.833000",
    "102458.834000",
    "102500.834000",
    "102502.834000",
    "102504.463000"
   ],
   "InstanceCreationTime": [
    "101635.338000",
    "101636.834000",
    "101638.833000",
    "101640.835000",
    "101642.834000",
    "101644.833000",
    "101646.834000",
    "101648.833000",
    "101650.833000",
    "101652.834000",
    "101654.834000",
    "101656.833000",
    "101658.834000",
    "101700.834000",
    "101702.833000",
    "101704.833000",
    "101706.834000",
    "101708.833000",
    "101710.834000",
    "101712.833000",
    "101714.833000",
    "101716.834000",
    "101718.835000",
    "101720.833000",
    "101722.834000",
    "101724.833000",
    "101726.834000",
    "101728.834000",
    "101730.834000",
    "101732.834000",
    "101734.834000",
    "101736.834000",
    "101738.834000",
    "101740.834000",
    "101742.833000",
    "101744.834000",
    "101746.833000",
    "101748.833000",
    "101750.835000",
    "101752.835000",
    "101754.833000",
    "101756.833000",
    "101758.833000",
    "101800.833000",
    "101802.834000",
    "101804.834000",
    "101806.834000",
    "101808.835000",
    "101810.835000",
    "101812.833000",
    "101814.833000",
    "101816.833000",
    "101818.834000",
    "101820.834000",
    "101822.833000",
    "101824.833000",
    "101826.834000",
    "101828.834000",
    "101830.833000",
    "101832.833000",
    "101834.833000",
    "101836.834000",
    "101838.833000",
    "101840.834000",
    "101842.834000",
    "101844.835000",
    "101846.834000",
    "101848.834000",
    "101850.833000",
    "101852.834000",
    "101854.833000",
    "101856.833000",
    "101858.833000",
    "101900.834000",
    "101902.835000",
    "101904.833000",
    "101906.833000",
    "101908.834000",
    "101910.833000",
    "101912.833000",
    "101914.834000",
    "101916.833000",
    "101918.835000",
    "101920.835000",
    "101922.833000",
    "101924.833000",
    "101926.833000",
    "101928.833000",
    "101930.834000",
    "101932.833000",
    "101934.833000",
    "101936.834000",
    "101938.835000",
    "101940.833000",
    "101942.833000",
    "101944.834000",
    "101946.834000",
    "101948.833000",
    "101950.834000",
    "101952.904000",
    "101954.834000",
    "101956.835000",
    "101958.833000",
    "102000.834000",
    "102002.834000",
    "102004.834000",
    "102006.833000",
    "102008.834000",
    "102010.835000",
    "102012.834000",
    "102014.834000",
    "102016.833000",
    "102018.833000",
    "102020.833000",
    "102022.833000",
    "102024.834000",
    "102026.833000",
    "102028.835000",
    "102030.834000",
    "102032.833000",
    "102034.834000",
    "102036.841000",
    "102038.834000",
    "102040.833000",
    "102042.833000",
    "102044.833000",
    "102046.834000",
    "102048.834000",
    "102050.833000",
    "102052.833000",
    "102054.833000",
    "102056.834000",
    "102058.834000",
    "102100.833000",
    "102102.834000",
    "102104.835000",
    "102106.834000",
    "102108.833000",
    "102110.834000",
    "102112.833000",
    "102114.834000",
    "102116.834000",
    "102118.833000",
    "102120.835000",
    "102122.834000",
    "102124.834000",
    "102126.833000",
    "102128.834000",
    "102130.833000",
    "102132.834000",
    "102134.833000",
    "102136.833000",
    "102138.834000",
    "102140.835000",
    "102142.834000",
    "102144.833000",
    "102146.833000",
    "102148.833000",
    "102150.833000",
    "102152.834000",
    "102154.834000",
    "102156.835000",
    "102158.835000",
    "102200.834000",
    "102202.834000",
    "102204.833000",
    "102206.833000",
    "102208.833000",
    "102210.834000",
    "102212.835000",
    "102214.835000",
    "102216.834000",
    "102218.834000",
    "102220.833000",
    "102222.833000",
    "102224.833000",
    "102226.834000",
    "102228.834000",
    "102230.835000",
    "102232.835000",
    "102234.833000",
    "102236.834000",
    "102238.833000",
    "102240.834000",
    "102242.833000",
    "102244.834000",
    "102246.833000",
    "102248.834000",
    "102250.835000",
    "102252.834000",
    "102254.834000",
    "102256.833000",
    "102258.834000",
    "102300.834000",
    "102302.834000",
    "102304.834000",
    "102306.834000",
    "102308.835000",
    "102310.833000",
    "102312.834000",
    "102314.833000",
    "102316.834000",
    "102318.834000",
    "102320.834000",
    "102322.834000",
    "102324.835000",
    "102326.835000",
    "102328.834000",
    "102330.833000",
    "102332.833000",
    "102334.834000",
    "102336.833000",
    "102338.834000",
    "102340.835000",
    "102342.835000",
    "102344.834000",
    "102346.834000",
    "102348.833000",
    "102350.833000",
    "102352.833000",
    "102354.834000",
    "102356.834000",
    "102358.834000",
    "102400.834000",
    "102402.833000",
    "102404.834000",
    "102406.834000",
    "102408.834000",
    "102410.834000",
    "102412.834000",
    "102414.834000",
    "102416.834000",
    "102418.835000",
    "102420.833000",
    "102422.834000",
    "102424.834000",
    "102426.834000",
    "102428.834000",
    "102430.834000",
    "102432.835000",
    "102434.834000",
    "102436.834000",
    "102438.834000",
    "102440.834000",
    "102442.833000",
    "102444.834000",
    "102446.834000",
    "102448.833000",
    "102450.834000",
    "102452.835000",
    "102454.834000",
    "102456.833000",
    "102458.834000",
    "102500.834000",
    "102502.834000",
    "102504.463000"
   ],
   "InstanceNumber": [
    1,
    2,
    3,
    4,
    5,
    6,
    7,
    8,
    9,
    10,
    11,
    12,
    13,
    14,
    15,
    16,
    17,
    18,
    19,
    20,
    21,
    22,
    23,
    24,
    25,
    26,
    27,
    28,
    29,
    30,
    31,
    32,
    33,
    34,
    35,
    36,
    37,
    38,
    39,
    40,
    41,
    42,
    43,
    44,
    45,
    46,
    47,
    48,
    49,
    50,
    51,
    52,
    53,
    54,
    55,
    56,
    57,
    58,
    59,
    60,
    61,
    62,
    63,
    64,
    65,
    66,
    67,
    68,
    69,
    70,
    71,
    72,
    73,
    74,
    75,
    76,
    77,
    78,
    79,
    80,
    81,
    82,
    83,
    84,
    85,
    86,
    87,
    88,
    89,
    90,
    91,
    92,
    93,
    94,
    95,
    96,
    97,
    98,
    99,
    100,
    101,
    102,
    103,
    104,
    105,
    106,
    107,
    108,
    109,
    110,
    111,
    112,
    113,
    114,
    115,
    116,
    117,
    118,
    119,
    120,
    121,
    122,
    123,
    124,
    125,
    126,
    127,
    128,
    129,
    130,
    131,
    132,
    133,
    134,
    135,
    136,
    137,
    138,
    139,
    140,
    141,
    142,
    143,
    144,
    145,
    146,
    147,
    148,
    149,
    150,
    151,
    152,
    153,
    154,
    155,
    156,
    157,
    158,
    159,
    160,
    161,
    162,
    163,
    164,
    165,
    166,
    167,
    168,
    169,
    170,
    171,
    172,
    173,
    174,
    175,
    176,
    177,
    178,
    179,
    180,
    181,
    182,
    183,
    184,
    185,
    186,
    187,
    188,
    189,
    190,
    191,
    192,
    193,
    194,
    195,
    196,
    197,
    198,
    199,
    200,
    201,
    202,
    203,
    204,
    205,
    206,
    207,
    208,
    209,
    210,
    211,
    212,
    213,
    214,
    215,
    216,
    217,
    218,
    219,
    220,
    221,
    222,
    223,
    224,
    225,
    226,
    227,
    228,
    229,
    230,
    231,
    232,
    233,
    234,
    235,
    236,
    237,
    238,
    239,
    240,
    241,
    242,
    243,
    244,
    245,
    246,
    247,
    248,
    249,
    250,
    251,
    252,
    253,
    254,
    255,
    256
   ],
   "LargestImagePixelValue": [
    3387,
    3281,
    3500,
    3543,
    3586,
    3593,
    3509,
    3588,
    3439,
    3641,
    3491,
    3539,
    3614,
    3411,
    3482,
    3436,
    3370,
    3389,
    3475,
    3574,
    3543,
    3337,
    3343,
    3356,
    3367,
    3471,
    3483,
    3664,
    3510,
    3395,
    3451,
    3562,
    3439,
    3497,
    3479,
    3395,
    3472,
    3700,
    3500,
    3328,
    3770,
    3642,
    3463,
    3550,
    3613,
    3526,
    3402,
    3598,
    3477,
    3609,
    3484,
    3631,
    3503,
    3534,
    3604,
    3539,
    3499,
    3521,
    3540,
    3397,
    3470,
    3406,
    3518,
    3419,
    3490,
    3449,
    3497,
    3366,
    3453,
    3503,
    3506,
    3380,
    3501,
    3384,
    3644,
    3436,
    3541,
    3519,
    3621,
    3496,
    3462,
    3532,
    3521,
    3552,
    3530,
    3543,
    3449,
    3411,
    3477,
    3544,
    3624,
    3596,
    3598,
    3573,
    3392,
    3579,
    3328,
    3464,
    3566,
    3592,
    3456,
    3536,
    3547,
    3572,
    3472,
    3542,
    3422,
    3501,
    3400,
    3427,
    3479,
    3556,
    3522,
    3573,
    3567,
    3743,
    3459,
    3453,
    3524,
    3531,
    3580,
    3431,
    3760,
    3443,
    3407,
    3698,
    3461,
    3693,
    3650,
    3395,
    3556,
    3444,
    3499,
    3557,
    3428,
    3440,
    3532,
    3383,
    3607,
    3370,
    3412,
    3373,
    3422,
    3429,
    3486,
    3441,
    3467,
    3409,
    3460,
    3398,
    3457,
    3633,
    3534,
    3605,
    3527,
    3537,
    3509,
    3516,
    3669,
    3565,
    3601,
    3452,
    3598,
    3691,
    3537,
    3511,
    3403,
    3545,
    3464,
    3640,
    3414,
    3466,
    3436,
    3490,
    3369,
    3672,
    3394,
    3592,
    3625,
    3535,
    3392,
    3566,
    3467,
    3686,
    3425,
    3551,
    3577,
    3570,
    3543,
    3576,
    3499,
    3367,
    3502,
    3447,
    3724,
    3550,
    3671,
    3427,
    3712,
    3600,
    3492,
    3503,
    3490,
    3560,
    3492,
    3541,
    3532,
    3512,
    3526,
    3525,
    3549,
    3534,
    3482,
    3537,
    3479,
    3619,
    3798,
    3513,
    3546,
    3545,
    3531,
    3422,
    3543,
    3590,
    3557,
    3552,
    3527,
    3386,
    3481,
    3489,
    3653,
    3622,
    3528,
    3488,
    3509,
    3434,
    3422,
    3487,
    3484,
    3440,
    3711,
    3462,
    3559,
    3622,
    3374,
    3387,
    3517,
    3531,
    3558,
    3541,
    3544,
    3457,
    3549,
    3504,
    3530,
    3448
   ],
   "WindowCenter": [
    777.0,
    777.0,
    780.0,
    782.0,
    782.0,
    782.0,
    781.0,
    781.0,
    781.0,
    784.0,
    783.0,
    784.0,
    783.0,
    782.0,
    783.0,
    783.0,
    783.0,
    783.0,
    784.0,
    785.0,
    784.0,
    782.0,
    782.0,
    783.0,
    786.0,
    786.0,
    785.0,
    785.0,
    783.0,
    783.0,
    784.0,
    785.0,
    784.0,
    784.0,
    784.0,
    784.0,
    785.0,
    786.0,
    785.0,
    783.0,
    786.0,
    786.0,
    786.0,
    787.0,
    786.0,
    784.0,
    783.0,
    785.0,
    785.0,
    786.0,
    785.0,
    785.0,
    784.0,
    785.0,
    785.0,
    786.0,
    785.0,
    783.0,
    783.0,
    783.0,
    784.0,
    785.0,
    786.0,
    785.0,
    785.0,
    785.0,
    786.0,
    785.0,
    785.0,
    784.0,
    784.0,
    784.0,
    785.0,
    785.0,
    787.0,
    786.0,
    786.0,
    786.0,
    787.0,
    786.0,
    786.0,
    785.0,
    785.0,
    786.0,
    786.0,
    786.0,
    785.0,
    786.0,
    787.0,
    787.0,
    786.0,
    786.0,
    786.0,
    786.0,
    785.0,
    785.0,
    784.0,
    786.0,
    787.0,
    786.0,
    785.0,
    786.0,
    786.0,
    785.0,
    785.0,
    785.0,
    785.0,
    786.0,
    785.0,
    786.0,
    787.0,
    787.0,
    787.0,
    786.0,
    785.0,
    786.0,
    786.0,
    785.0,
    785.0,
    784.0,
    784.0,
    784.0,
    787.0,
    787.0,
    787.0,
    788.0,
