{
  "AcquisitionMatrixPE": 100,
  "AcquisitionNumber": 1,
  "AcquisitionTime": "09:12:37.575000",
  "BandwidthPerPixelPhaseEncode": 18.519,
  "BaseResolution": 100,
  "BodyPartExamined": "BRAIN",
  "ConsistencyInfo": "N4_VE11C_LATEST_20160120",
  "ConversionSoftware": "dcm2niix",
  "ConversionSoftwareVersion": "v1.0.20180622 GCC4.9.2",
  "DerivedVendorReportedEchoSpacing": 0.000539986,
  "DeviceSerialNumber": "166078",
  "DwellTime": 2.1e-06,
  "EchoTime": 0.034,
  "EchoTrainLength": 100,
  "EffectiveEchoSpacing": 0.000539986,
  "FlipAngle": 90,
  "ImageOrientationPatientDICOM": [1, 0, 0, 0, 0.994338, -0.106264],
  "ImageType": [
    "ORIGINAL",
    "PRIMARY",
    "M",
    "ND",
    "MOSAIC"
],
  "InPlanePhaseEncodingDirectionDICOM": "COL",
  "InstitutionAddress": "Street_StreetNo_Bei_Jing_District_CN_ZIP",
  "InstitutionName": "BeiJing_Normal_University",
  "InstitutionalDepartmentName": "Department",
  "MRAcquisitionType": "2D",
  "MagneticFieldStrength": 3,
  "Manufacturer": "Siemens",
  "ManufacturersModelName": "Prisma",
  "Modality": "MR",
  "MultibandAccelerationFactor": 3,
  "PartialFourier": 1,
  "PatientPosition": "HFS",
  "PercentPhaseFOV": 100,
  "PhaseEncodingDirection": "j-",
  "PhaseEncodingSteps": 100,
  "PhaseResolution": 1,
  "PixelBandwidth": 2380,
  "ProcedureStepDescription": "BNU_P2018_64CH_Zhen.ZongLei",
  "ProtocolName": "bold_100x100_s3_2x2x2_static_256",
  "PulseSequenceDetails": "%SiemensSeq%_ep2d_bold",
  "ReceiveCoilActiveElements": "HC1-7;NC1",
  "ReceiveCoilName": "HeadNeck_64",
  "ReconMatrixPE": 100,
  "RepetitionTime": 2,
  "SAR": 0.0628815,
  "ScanOptions": "FS",
  "ScanningSequence": "EP",
  "SequenceName": "_epfid2d1_100",
  "SequenceVariant": "SK",
  "SeriesDescription": "bold_100x100_s3_2x2x2_static_256",
  "SeriesNumber": 3,
  "ShimSetting": [-5474, -11488, -1252, 433, -26, -116, -135, 81],
  "SliceThickness": 2,
  "SliceTiming": [1.485, 0, 0.99, 0.0825, 1.0725, 0.165, 1.155, 0.2475, 1.2375, 0.33, 1.32, 0.4125, 1.4025, 0.5775, 1.5675, 0.66, 1.65, 0.7425, 1.7325, 0.825, 1.815, 0.9075, 1.8975, 0.495, 1.485, 0, 0.99, 0.0825, 1.0725, 0.165, 1.155, 0.2475, 1.2375, 0.33, 1.32, 0.4125, 1.4025, 0.5775, 1.5675, 0.66, 1.65, 0.7425, 1.7325, 0.825, 1.815, 0.9075, 1.8975, 0.495, 1.485, 0, 0.99, 0.0825, 1.0725, 0.165, 1.155, 0.2475, 1.2375, 0.33, 1.32, 0.4125, 1.4025, 0.5775, 1.5675, 0.66, 1.65, 0.7425, 1.7325, 0.825, 1.815, 0.9075, 1.8975, 0.495],
  "SoftwareVersions": "syngo_MR_E11",
  "SpacingBetweenSlices": 2,
  "StationName": "AWP166078",
  "TaskName": "naturalvision",
  "TotalReadoutTime": 0.0534586,
  "TxRefAmp": 203.771,
  "dcmmeta_affine": [
    [-2.0, 0.0, 0.0, 100.0],
    [0.0, 1.988675832748413, -0.21252812445163727, -84.83531188964844],
    [0.0, 0.21252813935279846, 1.988675832748413, -72.37572479248047],
    [0.0, 0.0, 0.0, 1.0]
],
  "dcmmeta_reorient_transform": [
    [0.0, -1.0, 0.0, 99.0],
    [1.0, 0.0, 0.0, 0.0],
    [0.0, 0.0, 1.0, 0.0],
    [0.0, 0.0, 0.0, 1.0]
],
  "dcmmeta_shape": [100, 100, 72, 256],
  "dcmmeta_slice_dim": 2,
  "dcmmeta_version": 0.6,
  "global": {
    "const": {
      "AcquisitionMatrix": [100, 0, 0, 100],
      "AngioFlag": "N",
      "BitsAllocated": 16,
      "BitsStored": 12,
      "BodyPartExamined": "BRAIN",
      "Columns": 900,
      "EchoNumbers": 1,
      "EchoTime": 34.0,
      "EchoTrainLength": 100,
      "FlipAngle": 90.0,
      "HighBit": 11,
      "ImageOrientationPatient": [1.0, 0.0, 0.0, 0.0, 0.99433794468309, -0.1062640661908],
      "ImagePositionPatient": [-900.0, -907.51395913659, 33.675810359092],
      "ImageType": [
        "ORIGINAL",
        "PRIMARY",
        "M",
        "ND",
        "MOSAIC"
],
      "ImagedNucleus": "1H",
      "ImagingFrequency": 123.257742,
      "InPlanePhaseEncodingDirection": "COL",
      "MRAcquisitionType": "2D",
      "MagneticFieldStrength": 3.0,
      "Manufacturer": "SIEMENS",
      "ManufacturerModelName": "Prisma",
      "Modality": "MR",
      "NumberOfAverages": 1.0,
      "NumberOfPhaseEncodingSteps": 100,
      "PercentPhaseFieldOfView": 100.0,
      "PercentSampling": 100.0,
      "PerformedProcedureStepStartTime": "090547.909000",
      "PhotometricInterpretation": "MONOCHROME2",
      "PixelBandwidth": 2380.0,
      "PixelRepresentation": 0,
      "PixelSpacing": [2.0, 2.0],
      "ProtocolName": "bold_100x100_s3_2x2x2_static_256",
      "RepetitionTime": 2000.0,
      "Rows": 900,
      "SAR": 0.06288150204988,
      "SamplesPerPixel": 1,
      "ScanOptions": "FS",
      "ScanningSequence": "EP",
      "SequenceName": "*epfid2d1_100",
      "SequenceVariant": "SK",
      "SeriesDescription": "bold_100x100_s3_2x2x2_static_256",
      "SeriesNumber": 3,
      "SeriesTime": "091239.921000",
      "SliceLocation": -62.950987364788,
      "SliceThickness": 2.0,
      "SmallestImagePixelValue": 0,
      "SoftwareVersions": "syngo MR E11",
      "SpacingBetweenSlices": 1.9999999943947,
      "SpecificCharacterSet": "ISO_IR 100",
      "StudyID": "1",
      "StudyTime": "090547.818000",
      "TransmitCoilName": "Body",
      "VariableFlipAngleFlag": "N",
      "WindowCenterWidthExplanation": "Algo1",
      "dBdt": 0.0},
    "slices": {}
  },
  "time": {
    "samples": {
      "AcquisitionNumber": [1, 2, 3, 4, 5, 6, 7, 8, 9, 10, 11, 12, 13, 14, 15, 16, 17, 18, 19, 20, 21, 22, 23, 24, 25, 26, 27, 28, 29, 30, 31, 32, 33, 34, 35, 36, 37, 38, 39, 40, 41, 42, 43, 44, 45, 46, 47, 48, 49, 50, 51, 52, 53, 54, 55, 56, 57, 58, 59, 60, 61, 62, 63, 64, 65, 66, 67, 68, 69, 70, 71, 72, 73, 74, 75, 76, 77, 78, 79, 80, 81, 82, 83, 84, 85, 86, 87, 88, 89, 90, 91, 92, 93, 94, 95, 96, 97, 98, 99, 100, 101, 102, 103, 104, 105, 106, 107, 108, 109, 110, 111, 112, 113, 114, 115, 116, 117, 118, 119, 120, 121, 122, 123, 124, 125, 126, 127, 128, 129, 130, 131, 132, 133, 134, 135, 136, 137, 138, 139, 140, 141, 142, 143, 144, 145, 146, 147, 148, 149, 150, 151, 152, 153, 154, 155, 156, 157, 158, 159, 160, 161, 162, 163, 164, 165, 166, 167, 168, 169, 170, 171, 172, 173, 174, 175, 176, 177, 178, 179, 180, 181, 182, 183, 184, 185, 186, 187, 188, 189, 190, 191, 192, 193, 194, 195, 196, 197, 198, 199, 200, 201, 202, 203, 204, 205, 206, 207, 208, 209, 210, 211, 212, 213, 214, 215, 216, 217, 218, 219, 220, 221, 222, 223, 224, 225, 226, 227, 228, 229, 230, 231, 232, 233, 234, 235, 236, 237, 238, 239, 240, 241, 242, 243, 244, 245, 246, 247, 248, 249, 250, 251, 252, 253, 254, 255, 256],
      "AcquisitionTime": ["091237.575000", "091239.575000", "091241.575000", "091243.575000", "091245.575000", "091247.575000", "091249.575000", "091251.575000", "091253.575000", "091255.575000", "091257.575000", "091259.575000", "091301.575000", "091303.575000", "091305.575000", "091307.575000", "091309.575000", "091311.575000", "091313.575000", "091315.575000", "091317.575000", "091319.575000", "091321.575000", "091323.575000", "091325.575000", "091327.575000", "091329.575000", "091331.575000", "091333.575000", "091335.575000", "091337.575000", "091339.575000", "091341.575000", "091343.575000", "091345.575000", "091347.575000", "091349.575000", "091351.575000", "091353.575000", "091355.575000", "091357.575000", "091359.575000", "091401.575000", "091403.575000", "091405.575000", "091407.575000", "091409.575000", "091411.575000", "091413.575000", "091415.575000", "091417.575000", "091419.575000", "091421.575000", "091423.575000", "091425.575000", "091427.575000", "091429.575000", "091431.575000", "091433.575000", "091435.575000", "091437.575000", "091439.575000", "091441.575000", "091443.575000", "091445.575000", "091447.575000", "091449.575000", "091451.575000", "091453.575000", "091455.575000", "091457.575000", "091459.575000", "091501.575000", "091503.575000", "091505.575000", "091507.575000", "091509.575000", "091511.575000", "091513.575000", "091515.575000", "091517.575000", "091519.575000", "091521.575000", "091523.575000", "091525.575000", "091527.575000", "091529.575000", "091531.575000", "091533.575000", "091535.575000", "091537.575000", "091539.575000", "091541.575000", "091543.575000", "091545.575000", "091547.575000", "091549.575000", "091551.575000", "091553.575000", "091555.575000", "091557.575000", "091559.575000", "091601.575000", "091603.575000", "091605.575000", "091607.575000", "091609.575000", "091611.575000", "091613.575000", "091615.575000", "091617.575000", "091619.575000", "091621.575000", "091623.575000", "091625.575000", "091627.575000", "091629.575000", "091631.575000", "091633.575000", "091635.575000", "091637.575000", "091639.575000", "091641.575000", "091643.575000", "091645.575000", "091647.575000", "091649.575000", "091651.575000", "091653.575000", "091655.575000", "091657.575000", "091659.575000", "091701.575000", "091703.575000", "091705.575000", "091707.575000", "091709.575000", "091711.575000", "091713.575000", "091715.575000", "091717.575000", "091719.575000", "091721.575000", "091723.575000", "091725.575000", "091727.575000", "091729.575000", "091731.575000", "091733.575000", "091735.575000", "091737.575000", "091739.575000", "091741.575000", "091743.575000", "091745.575000", "091747.575000", "091749.575000", "091751.575000", "091753.575000", "091755.575000", "091757.575000", "091759.575000", "091801.575000", "091803.575000", "091805.575000", "091807.575000", "091809.575000", "091811.575000", "091813.575000", "091815.575000", "091817.575000", "091819.575000", "091821.575000", "091823.575000", "091825.575000", "091827.575000", "091829.575000", "091831.575000", "091833.575000", "091835.575000", "091837.575000", "091839.575000", "091841.575000", "091843.575000", "091845.575000", "091847.575000", "091849.575000", "091851.575000", "091853.575000", "091855.575000", "091857.575000", "091859.575000", "091901.575000", "091903.575000", "091905.575000", "091907.575000", "091909.575000", "091911.575000", "091913.575000", "091915.575000", "091917.575000", "091919.575000", "091921.575000", "091923.575000", "091925.575000", "091927.575000", "091929.575000", "091931.575000", "091933.575000", "091935.575000", "091937.575000", "091939.575000", "091941.575000", "091943.575000", "091945.575000", "091947.575000", "091949.575000", "091951.575000", "091953.575000", "091955.575000", "091957.575000", "091959.575000", "092001.575000", "092003.575000", "092005.575000", "092007.575000", "092009.575000", "092011.575000", "092013.575000", "092015.575000", "092017.575000", "092019.575000", "092021.575000", "092023.575000", "092025.575000", "092027.575000", "092029.575000", "092031.575000", "092033.575000", "092035.575000", "092037.575000", "092039.575000", "092041.575000", "092043.575000", "092045.575000", "092047.575000", "092049.575000", "092051.575000", "092053.575000", "092055.575000", "092057.575000", "092059.575000", "092101.575000", "092103.575000", "092105.575000", "092107.575000"],
      "ContentTime": ["091239.925000", "091241.421000", "091243.420000", "091245.419000", "091247.419000", "091249.420000", "091251.421000", "091253.421000", "091255.420000", "091257.420000", "091259.420000", "091301.419000", "091303.419000", "091305.420000", "091307.419000", "091309.421000", "091311.421000", "091313.420000", "091315.420000", "091317.419000", "091319.420000", "091321.420000", "091323.419000", "091325.419000", "091327.420000", "091329.421000", "091331.420000", "091333.420000", "091335.419000", "091337.420000", "091339.420000", "091341.419000", "091343.419000", "091345.421000", "091347.420000", "091349.421000", "091351.420000", "091353.420000", "091355.419000", "091357.419000", "091359.420000", "091401.420000", "091403.420000", "091405.420000", "091407.420000", "091409.420000", "091411.419000", "091413.419000", "091415.420000", "091417.420000", "091419.420000", "091421.420000", "091423.420000", "091425.421000", "091427.420000", "091429.420000", "091431.419000", "091433.419000", "091435.419000", "091437.420000", "091439.420000", "091441.420000", "091443.420000", "091445.420000", "091447.420000", "091449.419000", "091451.419000", "091453.420000", "091455.421000", "091457.421000", "091459.420000", "091501.421000", "091503.420000", "091505.420000", "091507.419000", "091509.419000", "091511.420000", "091513.420000", "091515.420000", "091517.421000", "091519.420000", "091521.419000", "091523.420000", "091525.420000", "091527.419000", "091529.420000", "091531.420000", "091533.420000", "091535.421000", "091537.419000", "091539.419000", "091541.420000", "091543.420000", "091545.419000", "091547.420000", "091549.421000", "091551.420000", "091553.420000", "091555.419000", "091557.419000", "091559.420000", "091601.420000", "091603.420000", "091605.420000", "091607.420000", "091609.421000", "091611.420000", "091613.420000", "091615.419000", "091617.419000", "091619.420000", "091621.421000", "091623.420000", "091625.421000", "091627.420000", "091629.421000", "091631.420000", "091633.419000", "091635.420000", "091637.420000", "091639.420000", "091641.420000", "091643.421000", "091645.420000", "091647.419000", "091649.420000", "091651.420000", "091653.419000", "091655.420000", "091657.421000", "091659.420000", "091701.420000", "091703.421000", "091705.419000", "091707.420000", "091709.420000", "091711.420000", "091713.419000", "091715.420000", "091717.421000", "091719.421000", "091721.420000", "091723.419000", "091725.420000", "091727.420000", "091729.419000", "091731.421000", "091733.420000", "091735.421000", "091737.421000", "091739.420000", "091741.419000", "091743.420000", "091745.419000", "091747.429000", "091749.421000", "091751.420000", "091753.420000", "091755.420000", "091757.420000", "091759.420000", "091801.419000", "091803.419000", "091805.419000", "091807.420000", "091809.420000", "091811.421000", "091813.421000", "091815.419000", "091817.419000", "091819.419000", "091821.419000", "091823.419000", "091825.420000", "091827.420000", "091829.421000", "091831.421000", "091833.419000", "091835.419000", "091837.419000", "091839.419000", "091841.421000", "091843.420000", "091845.420000", "091847.421000", "091849.420000", "091851.419000", "091853.420000", "091855.419000", "091857.420000", "091859.421000", "091901.421000", "091903.420000", "091905.421000", "091907.420000", "091909.420000", "091911.420000", "091913.420000", "091915.419000", "091917.420000", "091919.421000", "091921.420000", "091923.421000", "091925.419000", "091927.419000", "091929.420000", "091931.419000", "091933.421000", "091935.421000", "091937.421000", "091939.421000", "091941.421000", "091943.419000", "091945.420000", "091947.419000", "091949.420000", "091951.421000", "091953.421000", "091955.421000", "091957.421000", "091959.421000", "092001.420000", "092003.420000", "092005.420000", "092007.420000", "092009.420000", "092011.421000", "092013.421000", "092015.421000", "092017.419000", "092019.420000", "092021.420000", "092023.420000", "092025.420000", "092027.420000", "092029.420000", "092031.421000", "092033.420000", "092035.420000", "092037.420000", "092039.420000", "092041.420000", "092043.420000", "092045.420000", "092047.421000", "092049.420000", "092051.421000", "092053.420000", "092055.419000", "092057.419000", "092059.420000", "092101.420000", "092103.421000", "092105.421000", "092107.421000", "092108.952000"],
      "InstanceCreationTime": ["091239.925000", "091241.421000", "091243.420000", "091245.419000", "091247.419000", "091249.420000", "091251.421000", "091253.421000", "091255.420000", "091257.420000", "091259.420000", "091301.419000", "091303.419000", "091305.420000", "091307.419000", "091309.421000", "091311.421000", "091313.420000", "091315.420000", "091317.419000", "091319.420000", "091321.420000", "091323.419000", "091325.419000", "091327.420000", "091329.421000", "091331.420000", "091333.420000", "091335.419000", "091337.420000", "091339.420000", "091341.419000", "091343.419000", "091345.421000", "091347.420000", "091349.421000", "091351.420000", "091353.420000", "091355.419000", "091357.419000", "091359.420000", "091401.420000", "091403.420000", "091405.420000", "091407.420000", "091409.420000", "091411.419000", "091413.419000", "091415.420000", "091417.420000", "091419.420000", "091421.420000", "091423.420000", "091425.421000", "091427.420000", "091429.420000", "091431.419000", "091433.419000", "091435.419000", "091437.420000", "091439.420000", "091441.420000", "091443.420000", "091445.420000", "091447.420000", "091449.419000", "091451.419000", "091453.420000", "091455.421000", "091457.421000", "091459.420000", "091501.421000", "091503.420000", "091505.420000", "091507.419000", "091509.419000", "091511.420000", "091513.420000", "091515.420000", "091517.421000", "091519.420000", "091521.419000", "091523.420000", "091525.420000", "091527.419000", "091529.420000", "091531.420000", "091533.420000", "091535.421000", "091537.419000", "091539.419000", "091541.420000", "091543.420000", "091545.419000", "091547.420000", "091549.421000", "091551.420000", "091553.420000", "091555.419000", "091557.419000", "091559.420000", "091601.420000", "091603.420000", "091605.420000", "091607.420000", "091609.421000", "091611.420000", "091613.420000", "091615.419000", "091617.419000", "091619.420000", "091621.421000", "091623.420000", "091625.421000", "091627.420000", "091629.421000", "091631.420000", "091633.419000", "091635.420000", "091637.420000", "091639.420000", "091641.420000", "091643.421000", "091645.420000", "091647.419000", "091649.420000", "091651.420000", "091653.419000", "091655.420000", "091657.421000", "091659.420000", "091701.420000", "091703.421000", "091705.419000", "091707.420000", "091709.420000", "091711.420000", "091713.419000", "091715.420000", "091717.421000", "091719.421000", "091721.420000", "091723.419000", "091725.420000", "091727.420000", "091729.419000", "091731.421000", "091733.420000", "091735.421000", "091737.421000", "091739.420000", "091741.419000", "091743.420000", "091745.419000", "091747.429000", "091749.421000", "091751.420000", "091753.420000", "091755.420000", "091757.420000", "091759.420000", "091801.419000", "091803.419000", "091805.419000", "091807.420000", "091809.420000", "091811.421000", "091813.421000", "091815.419000", "091817.419000", "091819.419000", "091821.419000", "091823.419000", "091825.420000", "091827.420000", "091829.421000", "091831.421000", "091833.419000", "091835.419000", "091837.419000", "091839.419000", "091841.421000", "091843.420000", "091845.420000", "091847.421000", "091849.420000", "091851.419000", "091853.420000", "091855.419000", "091857.420000", "091859.421000", "091901.421000", "091903.420000", "091905.421000", "091907.420000", "091909.420000", "091911.420000", "091913.420000", "091915.419000", "091917.420000", "091919.421000", "091921.420000", "091923.421000", "091925.419000", "091927.419000", "091929.420000", "091931.419000", "091933.421000", "091935.421000", "091937.421000", "091939.421000", "091941.421000", "091943.419000", "091945.420000", "091947.419000", "091949.420000", "091951.421000", "091953.421000", "091955.421000", "091957.421000", "091959.421000", "092001.420000", "092003.420000", "092005.420000", "092007.420000", "092009.420000", "092011.421000", "092013.421000", "092015.421000", "092017.419000", "092019.420000", "092021.420000", "092023.420000", "092025.420000", "092027.420000", "092029.420000", "092031.421000", "092033.420000", "092035.420000", "092037.420000", "092039.420000", "092041.420000", "092043.420000", "092045.420000", "092047.421000", "092049.420000", "092051.421000", "092053.420000", "092055.419000", "092057.419000", "092059.420000", "092101.420000", "092103.421000", "092105.421000", "092107.421000", "092108.952000"],
      "InstanceNumber": [1, 2, 3, 4, 5, 6, 7, 8, 9, 10, 11, 12, 13, 14, 15, 16, 17, 18, 19, 20, 21, 22, 23, 24, 25, 26, 27, 28, 29, 30, 31, 32, 33, 34, 35, 36, 37, 38, 39, 40, 41, 42, 43, 44, 45, 46, 47, 48, 49, 50, 51, 52, 53, 54, 55, 56, 57, 58, 59, 60, 61, 62, 63, 64, 65, 66, 67, 68, 69, 70, 71, 72, 73, 74, 75, 76, 77, 78, 79, 80, 81, 82, 83, 84, 85, 86, 87, 88, 89, 90, 91, 92, 93, 94, 95, 96, 97, 98, 99, 100, 101, 102, 103, 104, 105, 106, 107, 108, 109, 110, 111, 112, 113, 114, 115, 116, 117, 118, 119, 120, 121, 122, 123, 124, 125, 126, 127, 128, 129, 130, 131, 132, 133, 134, 135, 136, 137, 138, 139, 140, 141, 142, 143, 144, 145, 146, 147, 148, 149, 150, 151, 152, 153, 154, 155, 156, 157, 158, 159, 160, 161, 162, 163, 164, 165, 166, 167, 168, 169, 170, 171, 172, 173, 174, 175, 176, 177, 178, 179, 180, 181, 182, 183, 184, 185, 186, 187, 188, 189, 190, 191, 192, 193, 194, 195, 196, 197, 198, 199, 200, 201, 202, 203, 204, 205, 206, 207, 208, 209, 210, 211, 212, 213, 214, 215, 216, 217, 218, 219, 220, 221, 222, 223, 224, 225, 226, 227, 228, 229, 230, 231, 232, 233, 234, 235, 236, 237, 238, 239, 240, 241, 242, 243, 244, 245, 246, 247, 248, 249, 250, 251, 252, 253, 254, 255, 256],
      "LargestImagePixelValue": [3595, 3600, 3481, 3467, 3475, 3555, 3520, 3524, 3570, 3571, 3583, 3597, 3575, 3621, 3585, 3646, 3517, 3645, 3577, 3599, 3619, 3589, 3638, 3549, 3644, 3532, 3540, 3589, 3526, 3608, 3549, 3630, 3577, 3608, 3581, 3535, 3617, 3575, 3607, 3564, 3587, 3646, 3583, 3647, 3606, 3646, 3594, 3664, 3603, 3654, 3632, 3607, 3621, 3620, 3662, 3617, 3666, 3652, 3605, 3644, 3581, 3656, 3609, 3635, 3644, 3610, 3658, 3617, 3601, 3660, 3592, 3677, 3602, 3671, 3682, 3659, 3706, 3628, 3698, 3594, 3636, 3569, 3587, 3612, 3614, 3620, 3593, 3688, 3630, 3685, 3650, 3690, 3671, 3664, 3680, 3614, 3673, 3603, 3655, 3650, 3660, 3714, 3669, 3689, 3623, 3687, 3649, 3717, 3686, 3668, 3695, 3639, 3677, 3665, 3643, 3633, 3600, 3636, 3595, 3667, 3615, 3680, 3638, 3659, 3621, 3697, 3670, 3661, 3727, 3694, 3731, 3632, 3686, 3684, 3750, 3719, 3719, 3695, 3729, 3698, 3755, 3682, 3659, 3708, 3710, 3760, 3686, 3657, 3686, 3705, 3711, 3699, 3724, 3697, 3668, 3583, 3652, 3624, 3677, 3667, 3727, 3710, 3779, 3720, 3773, 3724, 3692, 3755, 3718, 3737, 3718, 3741, 3728, 3783, 3751, 3729, 3746, 3718, 3690, 3719, 3756, 3728, 3725, 3718, 3728, 3766, 3722, 3725, 3750, 3761, 3749, 3707, 3736, 3732, 3757, 3737, 3762, 3752, 3754, 3788, 3759, 3774, 3763, 3766, 3752, 3721, 3735, 3746, 3737, 3730, 3771, 3806, 3768, 3731, 3717, 3764, 3785, 3757, 3761, 3750, 3771, 3745, 3748, 3739, 3792, 3773, 3737, 3719, 3708, 3672, 3707, 3686, 3661, 3676, 3688, 3741, 3740, 3765, 3762, 3774, 3764, 3742, 3766, 3763, 3794, 3769, 3713, 3756, 3776, 3774, 3758, 3725, 3735, 3726, 3738, 3779],
      "WindowCenter": [794.0, 794.0, 794.0, 795.0, 796.0, 795.0, 795.0, 796.0, 797.0, 797.0, 797.0, 797.0, 798.0, 798.0, 797.0, 796.0, 795.0, 796.0, 797.0, 797.0, 797.0, 796.0, 796.0, 795.0, 796.0, 795.0, 795.0, 795.0, 795.0, 796.0, 796.0, 797.0, 796.0, 795.0, 795.0, 795.0, 796.0, 796.0, 796.0, 795.0, 796.0, 796.0, 796.0, 796.0, 796.0, 796.0, 795.0, 795.0, 795.0, 795.0, 796.0, 797.0, 796.0, 795.0, 795.0, 794.0, 794.0, 794.0, 794.0, 795.0, 795.0, 796.0, 796.0, 796.0, 796.0, 796.0, 796.0, 795.0, 794.0, 795.0, 795.0, 796.0, 796.0, 797.0, 797.0, 796.0, 796.0, 795.0, 796.0, 796.0, 795.0, 794.0, 795.0, 795.0, 795.0, 795.0, 795.0, 796.0, 796.0, 796.0, 796.0, 795.0, 795.0, 796.0, 796.0, 795.0, 796.0, 795.0, 795.0, 796.0, 796.0, 796.0, 796.0, 796.0, 796.0, 797.0, 797.0, 797.0, 797.0, 797.0, 798.0, 798.0, 798.0, 797.0, 796.0, 795.0, 793.0, 794.0, 794.0, 795.0, 795.0, 796.0, 796.0, 796.0, 796.0, 796.0, 796.0, 796.0, 797.0, 796.0, 796.0, 795.0, 796.0, 796.0, 797.0, 796.0, 796.0, 796.0, 797.0, 798.0, 798.0, 797.0, 796.0, 796.0, 796.0, 795.0, 795.0, 795.0, 796.0, 797.0, 796.0, 796.0, 796.0, 795.0, 795.0, 794.0, 794.0, 794.0, 795.0, 796.0, 797.0, 798.0, 798.0, 797.0, 797.0, 796.0, 796.0, 796.0, 796.0, 797.0, 797.0, 797.0, 796.0, 797.0, 798.0, 798.0, 797.0, 796.0, 796.0, 796.0, 796.0, 796.0, 796.0, 796.0, 795.0, 796.0, 796.0, 798.0, 798.0, 797.0, 797.0, 796.0, 797.0, 797.0, 796.0, 796.0, 796.0, 796.0, 795.0, 796.0, 796.0, 797.0, 797.0, 797.0, 797.0, 796.0, 796.0, 796.0, 797.0, 796.0, 797.0, 798.0, 797.0, 797.0, 797.0, 796.0, 797.0, 796.0, 797.0, 797.0, 798.0, 798.0, 797.0, 797.0, 797.0, 796.0, 797.0, 797.0, 796.0, 795.0, 794.0, 793.0, 793.0, 793.0, 794.0, 795.0, 796.0, 796.0, 796.0, 796.0, 796.0, 796.0, 797.0, 797.0, 797.0, 798.0, 798.0, 797.0, 796.0, 796.0, 795.0, 795.0, 795.0, 795.0, 795.0, 796.0],
      "WindowWidth": [1727.0, 1726.0, 1727.0, 1730.0, 1731.0, 1730.0, 1730.0, 1732.0, 1735.0, 1735.0, 1737.0, 1737.0, 1737.0, 1737.0, 1735.0, 1733.0, 1729.0, 1733.0, 1735.0, 1737.0, 1737.0, 1732.0, 1733.0, 1731.0, 1732.0, 1731.0, 1730.0, 1730.0, 1729.0, 1733.0, 1733.0, 1735.0, 1731.0, 1729.0, 1729.0, 1730.0, 1733.0, 1733.0, 1733.0, 1731.0, 1732.0, 1733.0, 1732.0, 1733.0, 1733.0, 1733.0, 1731.0, 1730.0, 1729.0, 1731.0, 1733.0, 1735.0, 1733.0, 1730.0, 1730.0, 1728.0, 1727.0, 1728.0, 1728.0, 1729.0, 1729.0, 1732.0, 1734.0, 1733.0, 1732.0, 1732.0, 1732.0, 1730.0, 1727.0, 1730.0, 1731.0, 1734.0, 1734.0, 1736.0, 1736.0, 1733.0, 1731.0, 1730.0, 1734.0, 1731.0, 1730.0, 1728.0, 1729.0, 1731.0, 1730.0, 1730.0, 1728.0, 1731.0, 1731.0, 1732.0, 1731.0, 1730.0, 1730.0, 1731.0, 1732.0, 1730.0, 1731.0, 1728.0, 1730.0, 1732.0, 1733.0, 1734.0, 1731.0, 1732.0, 1731.0, 1734.0, 1734.0, 1736.0, 1735.0, 1735.0, 1738.0, 1738.0, 1738.0, 1735.0, 1731.0, 1729.0, 1724.0, 1725.0, 1725.0, 1728.0, 1729.0, 1732.0, 1730.0, 1732.0, 1731.0, 1732.0, 1732.0, 1733.0, 1734.0, 1732.0, 1732.0, 1729.0, 1730.0, 1731.0, 1734.0, 1733.0, 1732.0, 1733.0, 1735.0, 1738.0, 1737.0, 1734.0, 1732.0, 1731.0, 1731.0, 1730.0, 1729.0, 1729.0, 1733.0, 1733.0, 1732.0, 1731.0, 1731.0, 1730.0, 1729.0, 1725.0, 1726.0, 1726.0, 1728.0, 1731.0, 1735.0, 1737.0, 1738.0, 1735.0, 1733.0, 1731.0, 1730.0, 1731.0, 1732.0, 1735.0, 1734.0, 1733.0, 1732.0, 1735.0, 1737.0, 1738.0, 1735.0, 1732.0, 1732.0, 1732.0, 1732.0, 1731.0, 1731.0, 1730.0, 1729.0, 1731.0, 1732.0, 1737.0, 1738.0, 1735.0, 1733.0, 1732.0, 1734.0, 1734.0, 1733.0, 1732.0, 1731.0, 1731.0, 1730.0, 1733.0, 1733.0, 1734.0, 1734.0, 1734.0, 1734.0, 1732.0, 1732.0, 1732.0, 1733.0, 1732.0, 1733.0, 1736.0, 1735.0, 1734.0, 1732.0, 1732.0, 1732.0, 1732.0, 1733.0, 1735.0, 1736.0, 1735.0, 1734.0, 1732.0, 1733.0, 1731.0, 1734.0, 1733.0, 1731.0, 1727.0, 1725.0, 1723.0, 1722.0, 1723.0, 1725.0, 1729.0, 1730.0, 1732.0, 1732.0, 1732.0, 1731.0, 1731.0, 1733.0, 1733.0, 1734.0, 1736.0, 1735.0, 1734.0, 1730.0, 1730.0, 1729.0, 1728.0, 1728.0, 1727.0, 1728.0, 1730.0]
    },
    "slices": {}
  }
}