{
  "AcquisitionMatrixPE": 100,
  "AcquisitionNumber": 1,
  "AcquisitionTime": "09:44:5.797500",
  "BandwidthPerPixelPhaseEncode": 18.519,
  "BaseResolution": 100,
  "BodyPartExamined": "BRAIN",
  "ConsistencyInfo": "N4_VE11C_LATEST_20160120",
  "ConversionSoftware": "dcm2niix",
  "ConversionSoftwareVersion": "v1.0.20180622 GCC4.9.2",
  "DerivedVendorReportedEchoSpacing": 0.000539986,
  "DeviceSerialNumber": "166078",
  "DwellTime": 2.1e-06,
  "EchoTime": 0.034,
  "EchoTrainLength": 100,
  "EffectiveEchoSpacing": 0.000539986,
  "FlipAngle": 90,
  "ImageOrientationPatientDICOM": [1, 0, 0, 0, 0.994338, -0.106264],
  "ImageType": [
    "ORIGINAL",
    "PRIMARY",
    "M",
    "ND",
    "MOSAIC"
],
  "InPlanePhaseEncodingDirectionDICOM": "COL",
  "InstitutionAddress": "Street_StreetNo_Bei_Jing_District_CN_ZIP",
  "InstitutionName": "BeiJing_Normal_University",
  "InstitutionalDepartmentName": "Department",
  "MRAcquisitionType": "2D",
  "MagneticFieldStrength": 3,
  "Manufacturer": "Siemens",
  "ManufacturersModelName": "Prisma",
  "Modality": "MR",
  "MultibandAccelerationFactor": 3,
  "PartialFourier": 1,
  "PatientPosition": "HFS",
  "PercentPhaseFOV": 100,
  "PhaseEncodingDirection": "j-",
  "PhaseEncodingSteps": 100,
  "PhaseResolution": 1,
  "PixelBandwidth": 2380,
  "ProcedureStepDescription": "BNU_P2018_64CH_Zhen.ZongLei",
  "ProtocolName": "bold_100x100_s3_2x2x2_static_256",
  "PulseSequenceDetails": "%SiemensSeq%_ep2d_bold",
  "ReceiveCoilActiveElements": "HC1-7;NC1",
  "ReceiveCoilName": "HeadNeck_64",
  "ReconMatrixPE": 100,
  "RepetitionTime": 2,
  "SAR": 0.0628815,
  "ScanOptions": "FS",
  "ScanningSequence": "EP",
  "SequenceName": "_epfid2d1_100",
  "SequenceVariant": "SK",
  "SeriesDescription": "bold_100x100_s3_2x2x2_static_256",
  "SeriesNumber": 6,
  "ShimSetting": [-5474, -11488, -1252, 433, -26, -116, -135, 81],
  "SliceThickness": 2,
  "SliceTiming": [1.485, 0, 0.99, 0.0825, 1.0725, 0.165, 1.155, 0.2475, 1.2375, 0.33, 1.32, 0.4125, 1.4025, 0.5775, 1.5675, 0.66, 1.65, 0.7425, 1.7325, 0.825, 1.815, 0.9075, 1.8975, 0.495, 1.485, 0, 0.99, 0.0825, 1.0725, 0.165, 1.155, 0.2475, 1.2375, 0.33, 1.32, 0.4125, 1.4025, 0.5775, 1.5675, 0.66, 1.65, 0.7425, 1.7325, 0.825, 1.815, 0.9075, 1.8975, 0.495, 1.485, 0, 0.99, 0.0825, 1.0725, 0.165, 1.155, 0.2475, 1.2375, 0.33, 1.32, 0.4125, 1.4025, 0.5775, 1.5675, 0.66, 1.65, 0.7425, 1.7325, 0.825, 1.815, 0.9075, 1.8975, 0.495],
  "SoftwareVersions": "syngo_MR_E11",
  "SpacingBetweenSlices": 2,
  "StationName": "AWP166078",
  "TaskName": "naturalvision",
  "TotalReadoutTime": 0.0534586,
  "TxRefAmp": 203.771,
  "dcmmeta_affine": [
    [-2.0, 0.0, 0.0, 100.0],
    [0.0, 1.988675832748413, -0.21252812445163727, -84.83531188964844],
    [0.0, 0.21252813935279846, 1.988675832748413, -72.37572479248047],
    [0.0, 0.0, 0.0, 1.0]
],
  "dcmmeta_reorient_transform": [
    [0.0, -1.0, 0.0, 99.0],
    [1.0, 0.0, 0.0, 0.0],
    [0.0, 0.0, 1.0, 0.0],
    [0.0, 0.0, 0.0, 1.0]
],
  "dcmmeta_shape": [100, 100, 72, 256],
  "dcmmeta_slice_dim": 2,
  "dcmmeta_version": 0.6,
  "global": {
    "const": {
      "AcquisitionMatrix": [100, 0, 0, 100],
      "AngioFlag": "N",
      "BitsAllocated": 16,
      "BitsStored": 12,
      "BodyPartExamined": "BRAIN",
      "Columns": 900,
      "EchoNumbers": 1,
      "EchoTime": 34.0,
      "EchoTrainLength": 100,
      "FlipAngle": 90.0,
      "HighBit": 11,
      "ImageOrientationPatient": [1.0, 0.0, 0.0, 0.0, 0.99433794468309, -0.1062640661908],
      "ImagePositionPatient": [-900.0, -907.51395913659, 33.675810359092],
      "ImageType": [
        "ORIGINAL",
        "PRIMARY",
        "M",
        "ND",
        "MOSAIC"
],
      "ImagedNucleus": "1H",
      "ImagingFrequency": 123.257763,
      "InPlanePhaseEncodingDirection": "COL",
      "MRAcquisitionType": "2D",
      "MagneticFieldStrength": 3.0,
      "Manufacturer": "SIEMENS",
      "ManufacturerModelName": "Prisma",
      "Modality": "MR",
      "NumberOfAverages": 1.0,
      "NumberOfPhaseEncodingSteps": 100,
      "PercentPhaseFieldOfView": 100.0,
      "PercentSampling": 100.0,
      "PerformedProcedureStepStartTime": "090547.909000",
      "PhotometricInterpretation": "MONOCHROME2",
      "PixelBandwidth": 2380.0,
      "PixelRepresentation": 0,
      "PixelSpacing": [2.0, 2.0],
      "ProtocolName": "bold_100x100_s3_2x2x2_static_256",
      "RepetitionTime": 2000.0,
      "Rows": 900,
      "SAR": 0.06288150204988,
      "SamplesPerPixel": 1,
      "ScanOptions": "FS",
      "ScanningSequence": "EP",
      "SequenceName": "*epfid2d1_100",
      "SequenceVariant": "SK",
      "SeriesDescription": "bold_100x100_s3_2x2x2_static_256",
      "SeriesNumber": 6,
      "SeriesTime": "094408.248000",
      "SliceLocation": -62.950987364788,
      "SliceThickness": 2.0,
      "SmallestImagePixelValue": 0,
      "SoftwareVersions": "syngo MR E11",
      "SpacingBetweenSlices": 1.9999999943947,
      "SpecificCharacterSet": "ISO_IR 100",
      "StudyID": "1",
      "StudyTime": "090547.818000",
      "TransmitCoilName": "Body",
      "VariableFlipAngleFlag": "N",
      "WindowCenterWidthExplanation": "Algo1",
      "dBdt": 0.0},
    "slices": {}
  },
  "time": {
    "samples": {
      "AcquisitionNumber": [1, 2, 3, 4, 5, 6, 7, 8, 9, 10, 11, 12, 13, 14, 15, 16, 17, 18, 19, 20, 21, 22, 23, 24, 25, 26, 27, 28, 29, 30, 31, 32, 33, 34, 35, 36, 37, 38, 39, 40, 41, 42, 43, 44, 45, 46, 47, 48, 49, 50, 51, 52, 53, 54, 55, 56, 57, 58, 59, 60, 61, 62, 63, 64, 65, 66, 67, 68, 69, 70, 71, 72, 73, 74, 75, 76, 77, 78, 79, 80, 81, 82, 83, 84, 85, 86, 87, 88, 89, 90, 91, 92, 93, 94, 95, 96, 97, 98, 99, 100, 101, 102, 103, 104, 105, 106, 107, 108, 109, 110, 111, 112, 113, 114, 115, 116, 117, 118, 119, 120, 121, 122, 123, 124, 125, 126, 127, 128, 129, 130, 131, 132, 133, 134, 135, 136, 137, 138, 139, 140, 141, 142, 143, 144, 145, 146, 147, 148, 149, 150, 151, 152, 153, 154, 155, 156, 157, 158, 159, 160, 161, 162, 163, 164, 165, 166, 167, 168, 169, 170, 171, 172, 173, 174, 175, 176, 177, 178, 179, 180, 181, 182, 183, 184, 185, 186, 187, 188, 189, 190, 191, 192, 193, 194, 195, 196, 197, 198, 199, 200, 201, 202, 203, 204, 205, 206, 207, 208, 209, 210, 211, 212, 213, 214, 215, 216, 217, 218, 219, 220, 221, 222, 223, 224, 225, 226, 227, 228, 229, 230, 231, 232, 233, 234, 235, 236, 237, 238, 239, 240, 241, 242, 243, 244, 245, 246, 247, 248, 249, 250, 251, 252, 253, 254, 255, 256],
      "AcquisitionTime": ["094405.797500", "094407.797500", "094409.797500", "094411.797500", "094413.797500", "094415.797500", "094417.797500", "094419.797500", "094421.797500", "094423.797500", "094425.797500", "094427.797500", "094429.797500", "094431.797500", "094433.797500", "094435.797500", "094437.797500", "094439.797500", "094441.797500", "094443.797500", "094445.797500", "094447.797500", "094449.797500", "094451.797500", "094453.797500", "094455.797500", "094457.797500", "094459.797500", "094501.797500", "094503.797500", "094505.797500", "094507.797500", "094509.797500", "094511.797500", "094513.797500", "094515.797500", "094517.797500", "094519.797500", "094521.797500", "094523.797500", "094525.797500", "094527.797500", "094529.797500", "094531.797500", "094533.797500", "094535.797500", "094537.797500", "094539.797500", "094541.797500", "094543.797500", "094545.797500", "094547.797500", "094549.797500", "094551.797500", "094553.797500", "094555.797500", "094557.797500", "094559.797500", "094601.797500", "094603.797500", "094605.797500", "094607.797500", "094609.797500", "094611.797500", "094613.797500", "094615.797500", "094617.797500", "094619.797500", "094621.797500", "094623.797500", "094625.797500", "094627.797500", "094629.797500", "094631.797500", "094633.797500", "094635.797500", "094637.797500", "094639.797500", "094641.797500", "094643.797500", "094645.797500", "094647.797500", "094649.797500", "094651.797500", "094653.797500", "094655.797500", "094657.797500", "094659.797500", "094701.797500", "094703.797500", "094705.797500", "094707.797500", "094709.797500", "094711.797500", "094713.797500", "094715.797500", "094717.797500", "094719.797500", "094721.797500", "094723.797500", "094725.797500", "094727.797500", "094729.797500", "094731.797500", "094733.797500", "094735.797500", "094737.797500", "094739.797500", "094741.797500", "094743.797500", "094745.797500", "094747.797500", "094749.797500", "094751.797500", "094753.797500", "094755.797500", "094757.797500", "094759.797500", "094801.797500", "094803.797500", "094805.797500", "094807.797500", "094809.797500", "094811.797500", "094813.797500", "094815.797500", "094817.797500", "094819.797500", "094821.797500", "094823.797500", "094825.797500", "094827.797500", "094829.797500", "094831.797500", "094833.797500", "094835.797500", "094837.797500", "094839.797500", "094841.797500", "094843.797500", "094845.797500", "094847.797500", "094849.797500", "094851.797500", "094853.797500", "094855.797500", "094857.797500", "094859.797500", "094901.797500", "094903.797500", "094905.797500", "094907.797500", "094909.797500", "094911.797500", "094913.797500", "094915.797500", "094917.797500", "094919.797500", "094921.797500", "094923.797500", "094925.797500", "094927.797500", "094929.797500", "094931.797500", "094933.797500", "094935.797500", "094937.797500", "094939.797500", "094941.797500", "094943.797500", "094945.797500", "094947.797500", "094949.797500", "094951.797500", "094953.797500", "094955.797500", "094957.797500", "094959.797500", "095001.797500", "095003.797500", "095005.797500", "095007.797500", "095009.797500", "095011.797500", "095013.797500", "095015.797500", "095017.797500", "095019.797500", "095021.797500", "095023.797500", "095025.797500", "095027.797500", "095029.797500", "095031.797500", "095033.797500", "095035.797500", "095037.797500", "095039.797500", "095041.797500", "095043.797500", "095045.797500", "095047.797500", "095049.797500", "095051.797500", "095053.797500", "095055.797500", "095057.797500", "095059.797500", "095101.797500", "095103.797500", "095105.797500", "095107.797500", "095109.797500", "095111.797500", "095113.797500", "095115.797500", "095117.797500", "095119.797500", "095121.797500", "095123.797500", "095125.797500", "095127.797500", "095129.797500", "095131.797500", "095133.797500", "095135.797500", "095137.797500", "095139.797500", "095141.797500", "095143.797500", "095145.797500", "095147.797500", "095149.797500", "095151.797500", "095153.797500", "095155.797500", "095157.797500", "095159.797500", "095201.797500", "095203.797500", "095205.797500", "095207.797500", "095209.797500", "095211.797500", "095213.797500", "095215.797500", "095217.797500", "095219.797500", "095221.797500", "095223.797500", "095225.797500", "095227.797500", "095229.797500", "095231.797500", "095233.797500", "095235.797500"],
      "ContentTime": ["094408.252000", "094409.748000", "094411.748000", "094413.747000", "094415.747000", "094417.748000", "094419.748000", "094421.749000", "094423.747000", "094425.747000", "094427.747000", "094429.747000", "094431.747000", "094433.748000", "094435.748000", "094437.749000", "094439.748000", "094441.748000", "094443.747000", "094445.747000", "094447.748000", "094449.747000", "094451.747000", "094453.747000", "094455.748000", "094457.748000", "094459.747000", "094501.748000", "094503.748000", "094505.747000", "094507.747000", "094509.747000", "094511.748000", "094513.748000", "094515.748000", "094517.748000", "094519.747000", "094521.747000", "094523.747000", "094525.747000", "094527.767000", "094529.749000", "094531.749000", "094533.747000", "094535.747000", "094537.748000", "094539.747000", "094541.747000", "094543.747000", "094545.747000", "094547.748000", "094549.749000", "094551.747000", "094553.748000", "094555.747000", "094557.747000", "094559.747000", "094601.748000", "094603.747000", "094605.749000", "094607.748000", "094609.747000", "094611.747000", "094613.748000", "094615.747000", "094617.747000", "094619.747000", "094621.747000", "094623.748000", "094625.749000", "094627.747000", "094629.748000", "094631.747000", "094633.747000", "094635.747000", "094637.747000", "094639.748000", "094641.748000", "094643.768000", "094645.748000", "094647.748000", "094649.748000", "094651.768000", "094653.748000", "094655.747000", "094657.749000", "094659.749000", "094701.747000", "094703.747000", "094705.747000", "094707.747000", "094709.748000", "094711.748000", "094713.747000", "094715.749000", "094717.748000", "094719.748000", "094721.747000", "094723.748000", "094725.748000", "094727.748000", "094729.748000", "094731.747000", "094733.749000", "094735.749000", "094737.747000", "094739.747000", "094741.747000", "094743.748000", "094745.747000", "094747.747000", "094749.748000", "094751.748000", "094753.748000", "094755.748000", "094757.747000", "094759.747000", "094801.747000", "094803.747000", "094805.767000", "094807.748000", "094809.749000", "094811.748000", "094813.747000", "094815.748000", "094817.747000", "094819.748000", "094821.748000", "094823.747000", "094825.749000", "094827.748000", "094829.747000", "094831.748000", "094833.748000", "094835.747000", "094837.747000", "094839.748000", "094841.748000", "094843.748000", "094845.749000", "094847.748000", "094849.747000", "094851.748000", "094853.748000", "094855.747000", "094857.748000", "094859.748000", "094901.749000", "094903.747000", "094905.747000", "094907.748000", "094909.748000", "094911.747000", "094913.748000", "094915.747000", "094917.748000", "094919.749000", "094921.747000", "094923.747000", "094925.748000", "094927.748000", "094929.748000", "094931.747000", "094933.748000", "094935.749000", "094937.749000", "094939.747000", "094941.748000", "094943.748000", "094945.748000", "094947.748000", "094949.747000", "094951.749000", "094953.749000", "094955.749000", "094957.747000", "094959.747000", "095001.747000", "095003.748000", "095005.747000", "095007.747000", "095009.749000", "095011.749000", "095013.747000", "095015.748000", "095017.748000", "095019.747000", "095021.748000", "095023.747000", "095025.747000", "095027.748000", "095029.748000", "095031.747000", "095033.748000", "095035.747000", "095037.747000", "095039.747000", "095041.748000", "095043.761000", "095045.749000", "095047.748000", "095049.748000", "095051.748000", "095053.747000", "095055.748000", "095057.748000", "095059.748000", "095101.749000", "095103.749000", "095105.748000", "095107.747000", "095109.747000", "095111.747000", "095113.748000", "095115.747000", "095117.748000", "095119.748000", "095121.748000", "095123.748000", "095125.748000", "095127.748000", "095129.748000", "095131.747000", "095133.748000", "095135.748000", "095137.749000", "095139.749000", "095141.748000", "095143.747000", "095145.748000", "095147.748000", "095149.748000", "095151.748000", "095153.748000", "095155.749000", "095157.748000", "095159.747000", "095201.748000", "095203.747000", "095205.747000", "095207.748000", "095209.748000", "095211.749000", "095213.750000", "095215.747000", "095217.747000", "095219.748000", "095221.748000", "095223.748000", "095225.748000", "095227.747000", "095229.748000", "095231.749000", "095233.747000", "095235.747000", "095237.463000"],
      "InstanceCreationTime": ["094408.252000", "094409.748000", "094411.748000", "094413.747000", "094415.747000", "094417.748000", "094419.748000", "094421.749000", "094423.747000", "094425.747000", "094427.747000", "094429.747000", "094431.747000", "094433.748000", "094435.748000", "094437.749000", "094439.748000", "094441.748000", "094443.747000", "094445.747000", "094447.748000", "094449.747000", "094451.747000", "094453.747000", "094455.748000", "094457.748000", "094459.747000", "094501.748000", "094503.748000", "094505.747000", "094507.747000", "094509.747000", "094511.748000", "094513.748000", "094515.748000", "094517.748000", "094519.747000", "094521.747000", "094523.747000", "094525.747000", "094527.767000", "094529.749000", "094531.749000", "094533.747000", "094535.747000", "094537.748000", "094539.747000", "094541.747000", "094543.747000", "094545.747000", "094547.748000", "094549.749000", "094551.747000", "094553.748000", "094555.747000", "094557.747000", "094559.747000", "094601.748000", "094603.747000", "094605.749000", "094607.748000", "094609.747000", "094611.747000", "094613.748000", "094615.747000", "094617.747000", "094619.747000", "094621.747000", "094623.748000", "094625.749000", "094627.747000", "094629.748000", "094631.747000", "094633.747000", "094635.747000", "094637.747000", "094639.748000", "094641.748000", "094643.768000", "094645.748000", "094647.748000", "094649.748000", "094651.768000", "094653.748000", "094655.747000", "094657.749000", "094659.749000", "094701.747000", "094703.747000", "094705.747000", "094707.747000", "094709.748000", "094711.748000", "094713.747000", "094715.749000", "094717.748000", "094719.748000", "094721.747000", "094723.748000", "094725.748000", "094727.748000", "094729.748000", "094731.747000", "094733.749000", "094735.749000", "094737.747000", "094739.747000", "094741.747000", "094743.748000", "094745.747000", "094747.747000", "094749.748000", "094751.748000", "094753.748000", "094755.748000", "094757.747000", "094759.747000", "094801.747000", "094803.747000", "094805.767000", "094807.748000", "094809.749000", "094811.748000", "094813.747000", "094815.748000", "094817.747000", "094819.748000", "094821.748000", "094823.747000", "094825.749000", "094827.748000", "094829.747000", "094831.748000", "094833.748000", "094835.747000", "094837.747000", "094839.748000", "094841.748000", "094843.748000", "094845.749000", "094847.748000", "094849.747000", "094851.748000", "094853.748000", "094855.747000", "094857.748000", "094859.748000", "094901.749000", "094903.747000", "094905.747000", "094907.748000", "094909.748000", "094911.747000", "094913.748000", "094915.747000", "094917.748000", "094919.749000", "094921.747000", "094923.747000", "094925.748000", "094927.748000", "094929.748000", "094931.747000", "094933.748000", "094935.749000", "094937.749000", "094939.747000", "094941.748000", "094943.748000", "094945.748000", "094947.748000", "094949.747000", "094951.749000", "094953.749000", "094955.749000", "094957.747000", "094959.747000", "095001.747000", "095003.748000", "095005.747000", "095007.747000", "095009.749000", "095011.749000", "095013.747000", "095015.748000", "095017.748000", "095019.747000", "095021.748000", "095023.747000", "095025.747000", "095027.748000", "095029.748000", "095031.747000", "095033.748000", "095035.747000", "095037.747000", "095039.747000", "095041.748000", "095043.761000", "095045.749000", "095047.748000", "095049.748000", "095051.748000", "095053.747000", "095055.748000", "095057.748000", "095059.748000", "095101.749000", "095103.749000", "095105.748000", "095107.747000", "095109.747000", "095111.747000", "095113.748000", "095115.747000", "095117.748000", "095119.748000", "095121.748000", "095123.748000", "095125.748000", "095127.748000", "095129.748000", "095131.747000", "095133.748000", "095135.748000", "095137.749000", "095139.749000", "095141.748000", "095143.747000", "095145.748000", "095147.748000", "095149.748000", "095151.748000", "095153.748000", "095155.749000", "095157.748000", "095159.747000", "095201.748000", "095203.747000", "095205.747000", "095207.748000", "095209.748000", "095211.749000", "095213.750000", "095215.747000", "095217.747000", "095219.748000", "095221.748000", "095223.748000", "095225.748000", "095227.747000", "095229.748000", "095231.749000", "095233.747000", "095235.747000", "095237.463000"],
      "InstanceNumber": [1, 2, 3, 4, 5, 6, 7, 8, 9, 10, 11, 12, 13, 14, 15, 16, 17, 18, 19, 20, 21, 22, 23, 24, 25, 26, 27, 28, 29, 30, 31, 32, 33, 34, 35, 36, 37, 38, 39, 40, 41, 42, 43, 44, 45, 46, 47, 48, 49, 50, 51, 52, 53, 54, 55, 56, 57, 58, 59, 60, 61, 62, 63, 64, 65, 66, 67, 68, 69, 70, 71, 72, 73, 74, 75, 76, 77, 78, 79, 80, 81, 82, 83, 84, 85, 86, 87, 88, 89, 90, 91, 92, 93, 94, 95, 96, 97, 98, 99, 100, 101, 102, 103, 104, 105, 106, 107, 108, 109, 110, 111, 112, 113, 114, 115, 116, 117, 118, 119, 120, 121, 122, 123, 124, 125, 126, 127, 128, 129, 130, 131, 132, 133, 134, 135, 136, 137, 138, 139, 140, 141, 142, 143, 144, 145, 146, 147, 148, 149, 150, 151, 152, 153, 154, 155, 156, 157, 158, 159, 160, 161, 162, 163, 164, 165, 166, 167, 168, 169, 170, 171, 172, 173, 174, 175, 176, 177, 178, 179, 180, 181, 182, 183, 184, 185, 186, 187, 188, 189, 190, 191, 192, 193, 194, 195, 196, 197, 198, 199, 200, 201, 202, 203, 204, 205, 206, 207, 208, 209, 210, 211, 212, 213, 214, 215, 216, 217, 218, 219, 220, 221, 222, 223, 224, 225, 226, 227, 228, 229, 230, 231, 232, 233, 234, 235, 236, 237, 238, 239, 240, 241, 242, 243, 244, 245, 246, 247, 248, 249, 250, 251, 252, 253, 254, 255, 256],
      "LargestImagePixelValue": [3658, 3609, 3595, 3595, 3612, 3531, 3691, 3514, 3564, 3563, 3589, 3571, 3611, 3568, 3529, 3537, 3514, 3499, 3517, 3568, 3555, 3574, 3555, 3591, 3565, 3565, 3561, 3562, 3570, 3611, 3615, 3590, 3590, 3603, 3601, 3611, 3580, 3566, 3515, 3526, 3569, 3569, 3554, 3565, 3505, 3543, 3557, 3552, 3577, 3568, 3581, 3572, 3521, 3523, 3555, 3576, 3590, 3589, 3597, 3615, 3601, 3612, 3594, 3595, 3581, 3587, 3573, 3559, 3576, 3584, 3578, 3586, 3579, 3585, 3565, 3562, 3586, 3583, 3570, 3602, 3542, 3576, 3572, 3573, 3606, 3612, 3582, 3591, 3565, 3559, 3587, 3593, 3547, 3572, 3554, 3570, 3575, 3613, 3591, 3578, 3590, 3621, 3574, 3614, 3594, 3628, 3593, 3610, 3576, 3558, 3561, 3598, 3589, 3603, 3586, 3622, 3579, 3587, 3583, 3555, 3474, 3603, 3517, 3507, 3551, 3606, 3638, 3580, 3563, 3540, 3543, 3564, 3676, 3715, 3614, 3614, 3520, 3516, 3539, 3584, 3603, 3546, 3721, 3547, 3515, 3540, 3566, 3621, 3545, 3517, 3518, 3541, 3555, 3595, 3628, 3587, 3568, 3511, 3547, 3527, 3578, 3568, 3573, 3548, 3552, 3512, 3531, 3558, 3561, 3594, 3606, 3645, 3606, 3575, 3607, 3554, 3584, 3587, 3620, 3675, 3540, 3535, 3559, 3560, 3672, 3592, 3621, 3583, 3661, 3706, 3596, 3497, 3580, 3536, 3658, 3705, 3715, 3698, 3782, 3751, 3586, 3745, 3612, 3550, 3568, 3676, 3721, 3742, 3746, 3663, 3639, 3571, 3609, 3726, 3705, 3706, 3707, 3666, 3736, 3818, 3783, 3737, 3701, 3605, 3599, 3544, 3661, 3691, 3723, 3592, 3660, 3576, 3597, 3573, 3601, 3678, 3671, 3663, 3661, 3710, 3758, 3674, 3715, 3666, 3646, 3724, 3733, 3770, 3820, 3809, 3834, 3795, 3645, 3697, 3713, 3682],
      "WindowCenter": [784.0, 784.0, 785.0, 785.0, 786.0, 785.0, 787.0, 786.0, 785.0, 785.0, 786.0, 787.0, 788.0, 788.0, 787.0, 786.0, 785.0, 784.0, 785.0, 785.0, 785.0, 785.0, 785.0, 785.0, 785.0, 785.0, 786.0, 786.0, 786.0, 788.0, 788.0, 787.0, 787.0, 786.0, 786.0, 786.0, 786.0, 787.0, 787.0, 788.0, 788.0, 787.0, 786.0, 785.0, 785.0, 786.0, 786.0, 787.0, 787.0, 787.0, 788.0, 788.0, 787.0, 786.0, 786.0, 786.0, 786.0, 788.0, 789.0, 789.0, 788.0, 787.0, 786.0, 786.0, 786.0, 786.0, 786.0, 786.0, 787.0, 787.0, 787.0, 787.0, 787.0, 787.0, 787.0, 789.0, 790.0, 790.0, 789.0, 789.0, 787.0, 785.0, 785.0, 784.0, 785.0, 785.0, 785.0, 786.0, 787.0, 787.0, 787.0, 787.0, 786.0, 785.0, 785.0, 786.0, 786.0, 786.0, 787.0, 788.0, 788.0, 789.0, 790.0, 790.0, 789.0, 788.0, 787.0, 787.0, 787.0, 786.0, 786.0, 788.0, 788.0, 788.0, 787.0, 787.0, 786.0, 787.0, 786.0, 785.0, 784.0, 782.0, 781.0, 781.0, 781.0, 781.0, 783.0, 783.0, 783.0, 784.0, 784.0, 785.0, 787.0, 787.0, 786.0, 786.0, 785.0, 784.0, 785.0, 787.0, 788.0, 789.0, 789.0, 787.0, 788.0, 788.0, 787.0, 785.0, 784.0, 785.0, 785.0, 786.0, 787.0, 788.0, 790.0, 790.0, 788.0, 786.0, 786.0, 785.0, 786.0, 786.0, 786.0, 786.0, 786.0, 785.0, 787.0, 789.0, 790.0, 791.0, 790.0, 788.0, 787.0, 786.0, 788.0, 787.0, 786.0, 787.0, 788.0, 789.0, 788.0, 788.0, 787.0, 787.0, 789.0, 790.0, 789.0, 788.0, 788.0, 787.0, 786.0, 786.0, 786.0, 786.0, 787.0, 790.0, 791.0, 791.0, 790.0, 788.0, 787.0, 787.0, 787.0, 787.0, 787.0, 788.0, 791.0, 792.0, 791.0, 789.0, 787.0, 787.0, 788.0, 790.0, 790.0, 788.0, 788.0, 787.0, 787.0, 789.0, 789.0, 789.0, 788.0, 787.0, 787.0, 787.0, 789.0, 790.0, 792.0, 791.0, 791.0, 791.0, 791.0, 792.0, 793.0, 794.0, 793.0, 791.0, 790.0, 790.0, 789.0, 788.0, 788.0, 787.0, 787.0, 786.0, 787.0, 788.0, 788.0, 788.0, 787.0, 787.0, 786.0, 787.0, 787.0, 790.0],
      "WindowWidth": [1699.0, 1699.0, 1700.0, 1702.0, 1704.0, 1702.0, 1706.0, 1703.0, 1700.0, 1702.0, 1703.0, 1706.0, 1709.0, 1709.0, 1705.0, 1703.0, 1699.0, 1698.0, 1699.0, 1701.0, 1701.0, 1700.0, 1701.0, 1701.0, 1701.0, 1701.0, 1704.0, 1704.0, 1705.0, 1709.0, 1709.0, 1708.0, 1706.0, 1705.0, 1704.0, 1704.0, 1703.0, 1706.0, 1706.0, 1708.0, 1708.0, 1706.0, 1703.0, 1700.0, 1700.0, 1703.0, 1705.0, 1705.0, 1706.0, 1708.0, 1709.0, 1709.0, 1706.0, 1703.0, 1703.0, 1704.0, 1705.0, 1708.0, 1712.0, 1713.0, 1709.0, 1707.0, 1704.0, 1704.0, 1704.0, 1704.0, 1703.0, 1704.0, 1706.0, 1707.0, 1707.0, 1707.0, 1707.0, 1706.0, 1706.0, 1713.0, 1715.0, 1714.0, 1712.0, 1711.0, 1706.0, 1701.0, 1700.0, 1699.0, 1700.0, 1701.0, 1701.0, 1704.0, 1705.0, 1707.0, 1705.0, 1705.0, 1702.0, 1701.0, 1701.0, 1703.0, 1702.0, 1704.0, 1706.0, 1707.0, 1708.0, 1711.0, 1713.0, 1715.0, 1711.0, 1708.0, 1706.0, 1705.0, 1704.0, 1703.0, 1704.0, 1707.0, 1708.0, 1707.0, 1705.0, 1706.0, 1703.0, 1704.0, 1703.0, 1701.0, 1696.0, 1693.0, 1687.0, 1687.0, 1689.0, 1690.0, 1694.0, 1695.0, 1695.0, 1697.0, 1698.0, 1701.0, 1705.0, 1706.0, 1703.0, 1702.0, 1699.0, 1698.0, 1700.0, 1704.0, 1709.0, 1710.0, 1712.0, 1706.0, 1707.0, 1706.0, 1704.0, 1701.0, 1697.0, 1698.0, 1698.0, 1701.0, 1705.0, 1709.0, 1714.0, 1712.0, 1708.0, 1703.0, 1701.0, 1700.0, 1701.0, 1703.0, 1702.0, 1702.0, 1702.0, 1701.0, 1705.0, 1711.0, 1715.0, 1715.0, 1713.0, 1708.0, 1704.0, 1704.0, 1707.0, 1705.0, 1704.0, 1706.0, 1709.0, 1711.0, 1709.0, 1706.0, 1704.0, 1705.0, 1710.0, 1713.0, 1712.0, 1708.0, 1707.0, 1705.0, 1703.0, 1703.0, 1703.0, 1701.0, 1706.0, 1713.0, 1716.0, 1715.0, 1714.0, 1709.0, 1704.0, 1707.0, 1706.0, 1704.0, 1705.0, 1709.0, 1716.0, 1719.0, 1716.0, 1709.0, 1705.0, 1704.0, 1707.0, 1713.0, 1712.0, 1708.0, 1707.0, 1704.0, 1706.0, 1710.0, 1711.0, 1709.0, 1707.0, 1704.0, 1704.0, 1704.0, 1711.0, 1714.0, 1718.0, 1717.0, 1717.0, 1715.0, 1715.0, 1718.0, 1723.0, 1725.0, 1723.0, 1717.0, 1712.0, 1712.0, 1711.0, 1707.0, 1706.0, 1705.0, 1704.0, 1702.0, 1706.0, 1708.0, 1708.0, 1706.0, 1706.0, 1704.0, 1702.0, 1704.0, 1706.0, 1713.0]
    },
    "slices": {}
  }
}