{
  "AcquisitionMatrixPE": 100,
  "AcquisitionNumber": 1,
  "AcquisitionTime": "10:35:24.982500",
  "BandwidthPerPixelPhaseEncode": 18.519,
  "BaseResolution": 100,
  "BodyPartExamined": "BRAIN",
  "ConsistencyInfo": "N4_VE11C_LATEST_20160120",
  "ConversionSoftware": "dcm2niix",
  "ConversionSoftwareVersion": "v1.0.20180622 GCC4.9.2",
  "DerivedVendorReportedEchoSpacing": 0.000539986,
  "DeviceSerialNumber": "166078",
  "DwellTime": 2.1e-06,
  "EchoTime": 0.034,
  "EchoTrainLength": 100,
  "EffectiveEchoSpacing": 0.000539986,
  "FlipAngle": 90,
  "ImageOrientationPatientDICOM": [1, 0, 0, 0, 0.994338, -0.106264],
  "ImageType": [
    "ORIGINAL",
    "PRIMARY",
    "M",
    "ND",
    "MOSAIC"
],
  "InPlanePhaseEncodingDirectionDICOM": "COL",
  "InstitutionAddress": "Street_StreetNo_Bei_Jing_District_CN_ZIP",
  "InstitutionName": "BeiJing_Normal_University",
  "InstitutionalDepartmentName": "Department",
  "MRAcquisitionType": "2D",
  "MagneticFieldStrength": 3,
  "Manufacturer": "Siemens",
  "ManufacturersModelName": "Prisma",
  "Modality": "MR",
  "MultibandAccelerationFactor": 3,
  "PartialFourier": 1,
  "PatientPosition": "HFS",
  "PercentPhaseFOV": 100,
  "PhaseEncodingDirection": "j-",
  "PhaseEncodingSteps": 100,
  "PhaseResolution": 1,
  "PixelBandwidth": 2380,
  "ProcedureStepDescription": "BNU_P2018_64CH_Zhen.ZongLei",
  "ProtocolName": "bold_100x100_s3_2x2x2_static_256",
  "PulseSequenceDetails": "%SiemensSeq%_ep2d_bold",
  "ReceiveCoilActiveElements": "HC1-7;NC1",
  "ReceiveCoilName": "HeadNeck_64",
  "ReconMatrixPE": 100,
  "RepetitionTime": 2,
  "SAR": 0.0628815,
  "ScanOptions": "FS",
  "ScanningSequence": "EP",
  "SequenceName": "_epfid2d1_100",
  "SequenceVariant": "SK",
  "SeriesDescription": "bold_100x100_s3_2x2x2_static_256",
  "SeriesNumber": 13,
  "ShimSetting": [-5474, -11488, -1252, 433, -26, -116, -135, 81],
  "SliceThickness": 2,
  "SliceTiming": [1.485, 0, 0.99, 0.0825, 1.0725, 0.165, 1.155, 0.2475, 1.2375, 0.33, 1.32, 0.4125, 1.4025, 0.5775, 1.5675, 0.66, 1.65, 0.7425, 1.7325, 0.825, 1.815, 0.9075, 1.8975, 0.495, 1.485, 0, 0.99, 0.0825, 1.0725, 0.165, 1.155, 0.2475, 1.2375, 0.33, 1.32, 0.4125, 1.4025, 0.5775, 1.5675, 0.66, 1.65, 0.7425, 1.7325, 0.825, 1.815, 0.9075, 1.8975, 0.495, 1.485, 0, 0.99, 0.0825, 1.0725, 0.165, 1.155, 0.2475, 1.2375, 0.33, 1.32, 0.4125, 1.4025, 0.5775, 1.5675, 0.66, 1.65, 0.7425, 1.7325, 0.825, 1.815, 0.9075, 1.8975, 0.495],
  "SoftwareVersions": "syngo_MR_E11",
  "SpacingBetweenSlices": 2,
  "StationName": "AWP166078",
  "TaskName": "naturalvision",
  "TotalReadoutTime": 0.0534586,
  "TxRefAmp": 203.771,
  "dcmmeta_affine": [
    [-2.0, 0.0, 0.0, 100.0],
    [0.0, 1.988675832748413, -0.21252812445163727, -84.83531188964844],
    [0.0, 0.21252813935279846, 1.988675832748413, -72.37572479248047],
    [0.0, 0.0, 0.0, 1.0]
],
  "dcmmeta_reorient_transform": [
    [0.0, -1.0, 0.0, 99.0],
    [1.0, 0.0, 0.0, 0.0],
    [0.0, 0.0, 1.0, 0.0],
    [0.0, 0.0, 0.0, 1.0]
],
  "dcmmeta_shape": [100, 100, 72, 256],
  "dcmmeta_slice_dim": 2,
  "dcmmeta_version": 0.6,
  "global": {
    "const": {
      "AcquisitionMatrix": [100, 0, 0, 100],
      "AngioFlag": "N",
      "BitsAllocated": 16,
      "BitsStored": 12,
      "BodyPartExamined": "BRAIN",
      "Columns": 900,
      "EchoNumbers": 1,
      "EchoTime": 34.0,
      "EchoTrainLength": 100,
      "FlipAngle": 90.0,
      "HighBit": 11,
      "ImageOrientationPatient": [1.0, 0.0, 0.0, 0.0, 0.99433794468309, -0.1062640661908],
      "ImagePositionPatient": [-900.0, -907.51395913659, 33.675810359092],
      "ImageType": [
        "ORIGINAL",
        "PRIMARY",
        "M",
        "ND",
        "MOSAIC"
],
      "ImagedNucleus": "1H",
      "ImagingFrequency": 123.257773,
      "InPlanePhaseEncodingDirection": "COL",
      "MRAcquisitionType": "2D",
      "MagneticFieldStrength": 3.0,
      "Manufacturer": "SIEMENS",
      "ManufacturerModelName": "Prisma",
      "Modality": "MR",
      "NumberOfAverages": 1.0,
      "NumberOfPhaseEncodingSteps": 100,
      "PercentPhaseFieldOfView": 100.0,
      "PercentSampling": 100.0,
      "PerformedProcedureStepStartTime": "090547.909000",
      "PhotometricInterpretation": "MONOCHROME2",
      "PixelBandwidth": 2380.0,
      "PixelRepresentation": 0,
      "PixelSpacing": [2.0, 2.0],
      "ProtocolName": "bold_100x100_s3_2x2x2_static_256",
      "RepetitionTime": 2000.0,
      "Rows": 900,
      "SAR": 0.06288150204988,
      "SamplesPerPixel": 1,
      "ScanOptions": "FS",
      "ScanningSequence": "EP",
      "SequenceName": "*epfid2d1_100",
      "SequenceVariant": "SK",
      "SeriesDescription": "bold_100x100_s3_2x2x2_static_256",
      "SeriesNumber": 13,
      "SeriesTime": "103527.519000",
      "SliceLocation": -62.950987364788,
      "SliceThickness": 2.0,
      "SmallestImagePixelValue": 0,
      "SoftwareVersions": "syngo MR E11",
      "SpacingBetweenSlices": 1.9999999943947,
      "SpecificCharacterSet": "ISO_IR 100",
      "StudyID": "1",
      "StudyTime": "090547.818000",
      "TransmitCoilName": "Body",
      "VariableFlipAngleFlag": "N",
      "WindowCenterWidthExplanation": "Algo1",
      "dBdt": 0.0},
    "slices": {}
  },
  "time": {
    "samples": {
      "AcquisitionNumber": [1, 2, 3, 4, 5, 6, 7, 8, 9, 10, 11, 12, 13, 14, 15, 16, 17, 18, 19, 20, 21, 22, 23, 24, 25, 26, 27, 28, 29, 30, 31, 32, 33, 34, 35, 36, 37, 38, 39, 40, 41, 42, 43, 44, 45, 46, 47, 48, 49, 50, 51, 52, 53, 54, 55, 56, 57, 58, 59, 60, 61, 62, 63, 64, 65, 66, 67, 68, 69, 70, 71, 72, 73, 74, 75, 76, 77, 78, 79, 80, 81, 82, 83, 84, 85, 86, 87, 88, 89, 90, 91, 92, 93, 94, 95, 96, 97, 98, 99, 100, 101, 102, 103, 104, 105, 106, 107, 108, 109, 110, 111, 112, 113, 114, 115, 116, 117, 118, 119, 120, 121, 122, 123, 124, 125, 126, 127, 128, 129, 130, 131, 132, 133, 134, 135, 136, 137, 138, 139, 140, 141, 142, 143, 144, 145, 146, 147, 148, 149, 150, 151, 152, 153, 154, 155, 156, 157, 158, 159, 160, 161, 162, 163, 164, 165, 166, 167, 168, 169, 170, 171, 172, 173, 174, 175, 176, 177, 178, 179, 180, 181, 182, 183, 184, 185, 186, 187, 188, 189, 190, 191, 192, 193, 194, 195, 196, 197, 198, 199, 200, 201, 202, 203, 204, 205, 206, 207, 208, 209, 210, 211, 212, 213, 214, 215, 216, 217, 218, 219, 220, 221, 222, 223, 224, 225, 226, 227, 228, 229, 230, 231, 232, 233, 234, 235, 236, 237, 238, 239, 240, 241, 242, 243, 244, 245, 246, 247, 248, 249, 250, 251, 252, 253, 254, 255, 256],
      "AcquisitionTime": ["103524.982500", "103526.982500", "103528.982500", "103530.982500", "103532.982500", "103534.982500", "103536.982500", "103538.982500", "103540.982500", "103542.982500", "103544.982500", "103546.982500", "103548.982500", "103550.982500", "103552.982500", "103554.982500", "103556.982500", "103558.982500", "103600.982500", "103602.982500", "103604.982500", "103606.982500", "103608.982500", "103610.982500", "103612.982500", "103614.982500", "103616.982500", "103618.982500", "103620.982500", "103622.982500", "103624.982500", "103626.982500", "103628.982500", "103630.982500", "103632.982500", "103634.982500", "103636.982500", "103638.982500", "103640.982500", "103642.982500", "103644.982500", "103646.982500", "103648.982500", "103650.982500", "103652.982500", "103654.982500", "103656.982500", "103658.982500", "103700.982500", "103702.982500", "103704.982500", "103706.982500", "103708.982500", "103710.982500", "103712.982500", "103714.982500", "103716.982500", "103718.982500", "103720.982500", "103722.982500", "103724.982500", "103726.982500", "103728.982500", "103730.982500", "103732.982500", "103734.982500", "103736.982500", "103738.982500", "103740.982500", "103742.982500", "103744.982500", "103746.982500", "103748.982500", "103750.982500", "103752.982500", "103754.982500", "103756.982500", "103758.982500", "103800.982500", "103802.982500", "103804.982500", "103806.982500", "103808.982500", "103810.982500", "103812.982500", "103814.982500", "103816.982500", "103818.982500", "103820.982500", "103822.982500", "103824.982500", "103826.982500", "103828.982500", "103830.982500", "103832.982500", "103834.982500", "103836.982500", "103838.982500", "103840.982500", "103842.982500", "103844.982500", "103846.982500", "103848.982500", "103850.982500", "103852.982500", "103854.982500", "103856.982500", "103858.982500", "103900.982500", "103902.982500", "103904.982500", "103906.982500", "103908.982500", "103910.982500", "103912.982500", "103914.982500", "103916.982500", "103918.982500", "103920.982500", "103922.982500", "103924.982500", "103926.982500", "103928.982500", "103930.982500", "103932.982500", "103934.982500", "103936.982500", "103938.982500", "103940.982500", "103942.982500", "103944.982500", "103946.982500", "103948.982500", "103950.982500", "103952.982500", "103954.982500", "103956.982500", "103958.982500", "104000.982500", "104002.982500", "104004.982500", "104006.982500", "104008.982500", "104010.982500", "104012.982500", "104014.982500", "104016.982500", "104018.982500", "104020.982500", "104022.982500", "104024.982500", "104026.982500", "104028.982500", "104030.982500", "104032.982500", "104034.982500", "104036.982500", "104038.982500", "104040.982500", "104042.982500", "104044.982500", "104046.982500", "104048.982500", "104050.982500", "104052.982500", "104054.982500", "104056.982500", "104058.982500", "104100.982500", "104102.982500", "104104.982500", "104106.982500", "104108.982500", "104110.982500", "104112.982500", "104114.982500", "104116.982500", "104118.982500", "104120.982500", "104122.982500", "104124.982500", "104126.982500", "104128.982500", "104130.982500", "104132.982500", "104134.982500", "104136.982500", "104138.982500", "104140.982500", "104142.982500", "104144.982500", "104146.982500", "104148.982500", "104150.982500", "104152.982500", "104154.982500", "104156.982500", "104158.982500", "104200.982500", "104202.982500", "104204.982500", "104206.982500", "104208.982500", "104210.982500", "104212.982500", "104214.982500", "104216.982500", "104218.982500", "104220.982500", "104222.982500", "104224.982500", "104226.982500", "104228.982500", "104230.982500", "104232.982500", "104234.982500", "104236.982500", "104238.982500", "104240.982500", "104242.982500", "104244.982500", "104246.982500", "104248.982500", "104250.982500", "104252.982500", "104254.982500", "104256.982500", "104258.982500", "104300.982500", "104302.982500", "104304.982500", "104306.982500", "104308.982500", "104310.982500", "104312.982500", "104314.982500", "104316.982500", "104318.982500", "104320.982500", "104322.982500", "104324.982500", "104326.982500", "104328.982500", "104330.982500", "104332.982500", "104334.982500", "104336.982500", "104338.982500", "104340.982500", "104342.982500", "104344.982500", "104346.982500", "104348.982500", "104350.982500", "104352.982500", "104354.982500"],
      "ContentTime": ["103527.523000", "103529.005000", "103531.005000", "103533.505000", "103535.006000", "103537.007000", "103539.007000", "103541.006000", "103543.007000", "103545.007000", "103547.505000", "103549.506000", "103551.005000", "103553.505000", "103555.007000", "103557.007000", "103559.007000", "103601.006000", "103603.006000", "103605.506000", "103607.505000", "103609.005000", "103611.506000", "103613.506000", "103615.006000", "103617.006000", "103619.007000", "103621.006000", "103623.506000", "103625.505000", "103627.006000", "103629.006000", "103631.507000", "103633.507000", "103635.506000", "103637.507000", "103639.506000", "103641.005000", "103643.005000", "103645.005000", "103647.006000", "103649.507000", "103651.007000", "103653.006000", "103655.007000", "103657.005000", "103659.006000", "103701.006000", "103703.005000", "103705.006000", "103707.007000", "103709.006000", "103711.007000", "103713.007000", "103715.006000", "103717.006000", "103719.006000", "103721.006000", "103723.007000", "103725.006000", "103727.506000", "103729.506000", "103731.005000", "103733.506000", "103735.005000", "103737.005000", "103739.006000", "103741.007000", "103743.006000", "103745.007000", "103747.007000", "103749.005000", "103751.005000", "103753.505000", "103755.506000", "103757.506000", "103759.506000", "103801.507000", "103803.006000", "103805.007000", "103807.506000", "103809.006000", "103811.005000", "103813.506000", "103815.007000", "103817.007000", "103819.006000", "103821.507000", "103823.506000", "103825.006000", "103827.006000", "103829.005000", "103831.006000", "103833.007000", "103835.007000", "103837.507000", "103839.006000", "103841.005000", "103843.005000", "103845.006000", "103847.505000", "103849.007000", "103851.007000", "103853.507000", "103855.506000", "103857.506000", "103859.006000", "103901.506000", "103903.005000", "103905.506000", "103907.507000", "103909.006000", "103911.007000", "103913.506000", "103915.006000", "103917.006000", "103919.005000", "103921.006000", "103923.006000", "103925.507000", "103927.006000", "103929.007000", "103931.006000", "103933.007000", "103935.005000", "103937.006000", "103939.006000", "103941.507000", "103943.006000", "103945.506000", "103947.007000", "103949.007000", "103951.505000", "103953.506000", "103955.006000", "103957.505000", "103959.007000", "104001.007000", "104003.507000", "104005.007000", "104007.007000", "104009.505000", "104011.506000", "104013.005000", "104015.505000", "104017.007000", "104019.007000", "104021.006000", "104023.007000", "104025.007000", "104027.506000", "104029.006000", "104031.505000", "104033.006000", "104035.007000", "104037.007000", "104039.007000", "104041.007000", "104043.505000", "104045.005000", "104047.005000", "104049.506000", "104051.005000", "104053.007000", "104055.006000", "104057.007000", "104059.507000", "104101.006000", "104103.006000", "104105.006000", "104107.006000", "104109.007000", "104111.007000", "104113.007000", "104115.007000", "104117.007000", "104119.518000", "104121.006000", "104123.505000", "104125.506000", "104127.507000", "104129.007000", "104131.006000", "104133.506000", "104135.007000", "104137.506000", "104139.005000", "104141.006000", "104143.006000", "104145.506000", "104147.507000", "104149.007000", "104151.006000", "104153.006000", "104155.006000", "104157.006000", "104159.505000", "104201.026000", "104203.507000", "104205.507000", "104207.507000", "104209.506000", "104211.006000", "104213.006000", "104215.505000", "104217.006000", "104219.507000", "104221.006000", "104223.007000", "104225.506000", "104227.007000", "104229.506000", "104231.005000", "104233.006000", "104235.506000", "104237.006000", "104239.507000", "104241.007000", "104243.006000", "104245.007000", "104247.005000", "104249.006000", "104251.006000", "104253.005000", "104255.007000", "104257.507000", "104259.007000", "104301.507000", "104303.007000", "104305.006000", "104307.006000", "104309.006000", "104311.507000", "104313.007000", "104315.006000", "104317.007000", "104319.007000", "104321.506000", "104323.505000", "104325.506000", "104327.006000", "104329.506000", "104331.007000", "104333.007000", "104335.527000", "104337.507000", "104339.006000", "104341.006000", "104343.506000", "104345.505000", "104347.507000", "104349.007000", "104351.006000", "104353.507000", "104355.007000", "104356.966000"],
      "InstanceCreationTime": ["103527.523000", "103529.005000", "103531.005000", "103533.505000", "103535.006000", "103537.007000", "103539.007000", "103541.006000", "103543.007000", "103545.007000", "103547.505000", "103549.506000", "103551.005000", "103553.505000", "103555.007000", "103557.007000", "103559.007000", "103601.006000", "103603.006000", "103605.506000", "103607.505000", "103609.005000", "103611.506000", "103613.506000", "103615.006000", "103617.006000", "103619.007000", "103621.006000", "103623.506000", "103625.505000", "103627.006000", "103629.006000", "103631.507000", "103633.507000", "103635.506000", "103637.507000", "103639.506000", "103641.005000", "103643.005000", "103645.005000", "103647.006000", "103649.507000", "103651.007000", "103653.006000", "103655.007000", "103657.005000", "103659.006000", "103701.006000", "103703.005000", "103705.006000", "103707.007000", "103709.006000", "103711.007000", "103713.007000", "103715.006000", "103717.006000", "103719.006000", "103721.006000", "103723.007000", "103725.006000", "103727.506000", "103729.506000", "103731.005000", "103733.506000", "103735.005000", "103737.005000", "103739.006000", "103741.007000", "103743.006000", "103745.007000", "103747.007000", "103749.005000", "103751.005000", "103753.505000", "103755.506000", "103757.506000", "103759.506000", "103801.507000", "103803.006000", "103805.007000", "103807.506000", "103809.006000", "103811.005000", "103813.506000", "103815.007000", "103817.007000", "103819.006000", "103821.507000", "103823.506000", "103825.006000", "103827.006000", "103829.005000", "103831.006000", "103833.007000", "103835.007000", "103837.507000", "103839.006000", "103841.005000", "103843.005000", "103845.006000", "103847.505000", "103849.007000", "103851.007000", "103853.507000", "103855.506000", "103857.506000", "103859.006000", "103901.506000", "103903.005000", "103905.506000", "103907.507000", "103909.006000", "103911.007000", "103913.506000", "103915.006000", "103917.006000", "103919.005000", "103921.006000", "103923.006000", "103925.507000", "103927.006000", "103929.007000", "103931.006000", "103933.007000", "103935.005000", "103937.006000", "103939.006000", "103941.507000", "103943.006000", "103945.506000", "103947.007000", "103949.007000", "103951.505000", "103953.506000", "103955.006000", "103957.505000", "103959.007000", "104001.007000", "104003.507000", "104005.007000", "104007.007000", "104009.505000", "104011.506000", "104013.005000", "104015.505000", "104017.007000", "104019.007000", "104021.006000", "104023.007000", "104025.007000", "104027.506000", "104029.006000", "104031.505000", "104033.006000", "104035.007000", "104037.007000", "104039.007000", "104041.007000", "104043.505000", "104045.005000", "104047.005000", "104049.506000", "104051.005000", "104053.007000", "104055.006000", "104057.007000", "104059.507000", "104101.006000", "104103.006000", "104105.006000", "104107.006000", "104109.007000", "104111.007000", "104113.007000", "104115.007000", "104117.007000", "104119.518000", "104121.006000", "104123.505000", "104125.506000", "104127.507000", "104129.007000", "104131.006000", "104133.506000", "104135.007000", "104137.506000", "104139.005000", "104141.006000", "104143.006000", "104145.506000", "104147.507000", "104149.007000", "104151.006000", "104153.006000", "104155.006000", "104157.006000", "104159.505000", "104201.026000", "104203.507000", "104205.507000", "104207.507000", "104209.506000", "104211.006000", "104213.006000", "104215.505000", "104217.006000", "104219.507000", "104221.006000", "104223.007000", "104225.506000", "104227.007000", "104229.506000", "104231.005000", "104233.006000", "104235.506000", "104237.006000", "104239.507000", "104241.007000", "104243.006000", "104245.007000", "104247.005000", "104249.006000", "104251.006000", "104253.005000", "104255.007000", "104257.507000", "104259.007000", "104301.507000", "104303.007000", "104305.006000", "104307.006000", "104309.006000", "104311.507000", "104313.007000", "104315.006000", "104317.007000", "104319.007000", "104321.506000", "104323.505000", "104325.506000", "104327.006000", "104329.506000", "104331.007000", "104333.007000", "104335.527000", "104337.507000", "104339.006000", "104341.006000", "104343.506000", "104345.505000", "104347.507000", "104349.007000", "104351.006000", "104353.507000", "104355.007000", "104356.966000"],
      "InstanceNumber": [1, 2, 3, 4, 5, 6, 7, 8, 9, 10, 11, 12, 13, 14, 15, 16, 17, 18, 19, 20, 21, 22, 23, 24, 25, 26, 27, 28, 29, 30, 31, 32, 33, 34, 35, 36, 37, 38, 39, 40, 41, 42, 43, 44, 45, 46, 47, 48, 49, 50, 51, 52, 53, 54, 55, 56, 57, 58, 59, 60, 61, 62, 63, 64, 65, 66, 67, 68, 69, 70, 71, 72, 73, 74, 75, 76, 77, 78, 79, 80, 81, 82, 83, 84, 85, 86, 87, 88, 89, 90, 91, 92, 93, 94, 95, 96, 97, 98, 99, 100, 101, 102, 103, 104, 105, 106, 107, 108, 109, 110, 111, 112, 113, 114, 115, 116, 117, 118, 119, 120, 121, 122, 123, 124, 125, 126, 127, 128, 129, 130, 131, 132, 133, 134, 135, 136, 137, 138, 139, 140, 141, 142, 143, 144, 145, 146, 147, 148, 149, 150, 151, 152, 153, 154, 155, 156, 157, 158, 159, 160, 161, 162, 163, 164, 165, 166, 167, 168, 169, 170, 171, 172, 173, 174, 175, 176, 177, 178, 179, 180, 181, 182, 183, 184, 185, 186, 187, 188, 189, 190, 191, 192, 193, 194, 195, 196, 197, 198, 199, 200, 201, 202, 203, 204, 205, 206, 207, 208, 209, 210, 211, 212, 213, 214, 215, 216, 217, 218, 219, 220, 221, 222, 223, 224, 225, 226, 227, 228, 229, 230, 231, 232, 233, 234, 235, 236, 237, 238, 239, 240, 241, 242, 243, 244, 245, 246, 247, 248, 249, 250, 251, 252, 253, 254, 255, 256],
      "LargestImagePixelValue": [3541, 3423, 3493, 3818, 3686, 3489, 3473, 3587, 3350, 3431, 3415, 3527, 3429, 3657, 3538, 3533, 3343, 3576, 3373, 3612, 3343, 3606, 3450, 3609, 3293, 3471, 3377, 3528, 3521, 3496, 3541, 3525, 3547, 3520, 3419, 3551, 3523, 3405, 3555, 3528, 3538, 3501, 3519, 3540, 3651, 3558, 3544, 3536, 3588, 3568, 3511, 3589, 3514, 3469, 3481, 3620, 3458, 3603, 3491, 3649, 3558, 3399, 3403, 3558, 3639, 3611, 3376, 3703, 3419, 3632, 3373, 3495, 3460, 3520, 3630, 3547, 3474, 3451, 3796, 3415, 3452, 3475, 3556, 3479, 3558, 3462, 3534, 3448, 3473, 3434, 3521, 3431, 3374, 3416, 3424, 3377, 3528, 3460, 3431, 3558, 3548, 3572, 3605, 3493, 3526, 3513, 3594, 3447, 3521, 3566, 3518, 3526, 3523, 3452, 3518, 3538, 3552, 3526, 3589, 3431, 3565, 3430, 3395, 3615, 3657, 3638, 3403, 3429, 3372, 3671, 3429, 3436, 3439, 3697, 3605, 3623, 3663, 3537, 3495, 3379, 3426, 3389, 3547, 3446, 3583, 3518, 3567, 3462, 3564, 3572, 3371, 3696, 3468, 3590, 3331, 3509, 3608, 3603, 3396, 3511, 3465, 3525, 3530, 3662, 3429, 3535, 3654, 3378, 3791, 3452, 3605, 3676, 3557, 3512, 3592, 3642, 3588, 3479, 3640, 3552, 3539, 3453, 3628, 3525, 3547, 3624, 3401, 3540, 3471, 3516, 3388, 3551, 3616, 3592, 3492, 3627, 3333, 3660, 3581, 3566, 3531, 3438, 3543, 3408, 3518, 3533, 3560, 3529, 3602, 3578, 3495, 3568, 3476, 3874, 3510, 3460, 3596, 3607, 3562, 3457, 3679, 3571, 3587, 3638, 3550, 3596, 3640, 3578, 3618, 3671, 3622, 3587, 3634, 3393, 3631, 3614, 3605, 3597, 3668, 3634, 3621, 3631, 3501, 3437, 3757, 3800, 3660, 3470, 3567, 3494, 3563, 3621, 3542, 3445, 3756, 3417],
      "WindowCenter": [788.0, 787.0, 787.0, 787.0, 787.0, 785.0, 784.0, 786.0, 786.0, 787.0, 786.0, 787.0, 786.0, 787.0, 786.0, 786.0, 785.0, 786.0, 785.0, 787.0, 785.0, 786.0, 785.0, 786.0, 784.0, 785.0, 785.0, 785.0, 785.0, 786.0, 787.0, 787.0, 786.0, 786.0, 785.0, 786.0, 785.0, 785.0, 785.0, 785.0, 785.0, 786.0, 787.0, 787.0, 787.0, 786.0, 785.0, 786.0, 786.0, 786.0, 786.0, 785.0, 785.0, 783.0, 784.0, 784.0, 784.0, 786.0, 786.0, 788.0, 788.0, 787.0, 787.0, 787.0, 787.0, 786.0, 784.0, 785.0, 783.0, 784.0, 783.0, 785.0, 785.0, 787.0, 786.0, 786.0, 785.0, 785.0, 786.0, 784.0, 784.0, 785.0, 786.0, 786.0, 786.0, 786.0, 785.0, 785.0, 784.0, 784.0, 784.0, 783.0, 783.0, 783.0, 783.0, 784.0, 785.0, 786.0, 786.0, 786.0, 785.0, 786.0, 785.0, 784.0, 784.0, 783.0, 784.0, 784.0, 785.0, 785.0, 785.0, 785.0, 786.0, 786.0, 788.0, 788.0, 788.0, 786.0, 785.0, 785.0, 786.0, 786.0, 785.0, 786.0, 786.0, 786.0, 785.0, 787.0, 786.0, 787.0, 785.0, 785.0, 784.0, 785.0, 785.0, 784.0, 785.0, 785.0, 785.0, 785.0, 786.0, 786.0, 789.0, 789.0, 788.0, 787.0, 786.0, 785.0, 785.0, 785.0, 784.0, 785.0, 783.0, 785.0, 783.0, 785.0, 785.0, 785.0, 784.0, 786.0, 788.0, 789.0, 789.0, 789.0, 787.0, 787.0, 788.0, 786.0, 787.0, 784.0, 785.0, 785.0, 785.0, 785.0, 787.0, 787.0, 788.0, 787.0, 787.0, 787.0, 788.0, 788.0, 788.0, 787.0, 786.0, 786.0, 784.0, 785.0, 785.0, 787.0, 786.0, 788.0, 788.0, 787.0, 786.0, 787.0, 786.0, 787.0, 786.0, 786.0, 786.0, 787.0, 787.0, 789.0, 791.0, 791.0, 789.0, 786.0, 785.0, 784.0, 783.0, 784.0, 783.0, 786.0, 784.0, 783.0, 784.0, 785.0, 786.0, 786.0, 788.0, 786.0, 785.0, 786.0, 785.0, 786.0, 787.0, 787.0, 787.0, 786.0, 786.0, 785.0, 786.0, 786.0, 789.0, 789.0, 786.0, 786.0, 787.0, 786.0, 786.0, 786.0, 784.0, 784.0, 785.0, 785.0, 785.0, 786.0, 788.0, 788.0, 787.0, 786.0, 784.0, 784.0, 785.0, 783.0],
      "WindowWidth": [1706.0, 1702.0, 1703.0, 1705.0, 1703.0, 1698.0, 1697.0, 1702.0, 1700.0, 1703.0, 1701.0, 1704.0, 1700.0, 1705.0, 1702.0, 1701.0, 1698.0, 1702.0, 1699.0, 1703.0, 1697.0, 1700.0, 1697.0, 1700.0, 1696.0, 1699.0, 1698.0, 1699.0, 1699.0, 1700.0, 1703.0, 1703.0, 1703.0, 1700.0, 1698.0, 1702.0, 1700.0, 1698.0, 1700.0, 1700.0, 1700.0, 1700.0, 1703.0, 1704.0, 1704.0, 1701.0, 1700.0, 1700.0, 1702.0, 1702.0, 1701.0, 1699.0, 1697.0, 1694.0, 1695.0, 1697.0, 1696.0, 1701.0, 1700.0, 1708.0, 1708.0, 1705.0, 1703.0, 1704.0, 1704.0, 1701.0, 1695.0, 1698.0, 1693.0, 1694.0, 1692.0, 1697.0, 1699.0, 1703.0, 1701.0, 1701.0, 1699.0, 1697.0, 1701.0, 1697.0, 1697.0, 1698.0, 1701.0, 1701.0, 1702.0, 1700.0, 1699.0, 1698.0, 1697.0, 1696.0, 1696.0, 1694.0, 1692.0, 1692.0, 1693.0, 1694.0, 1700.0, 1701.0, 1702.0, 1703.0, 1700.0, 1701.0, 1699.0, 1697.0, 1696.0, 1694.0, 1697.0, 1695.0, 1699.0, 1698.0, 1698.0, 1700.0, 1701.0, 1702.0, 1706.0, 1708.0, 1707.0, 1701.0, 1699.0, 1698.0, 1701.0, 1700.0, 1699.0, 1702.0, 1700.0, 1701.0, 1699.0, 1703.0, 1702.0, 1703.0, 1698.0, 1697.0, 1696.0, 1699.0, 1698.0, 1697.0, 1699.0, 1697.0, 1698.0, 1697.0, 1700.0, 1702.0, 1709.0, 1708.0, 1707.0, 1703.0, 1702.0, 1698.0, 1699.0, 1699.0, 1696.0, 1699.0, 1693.0, 1697.0, 1692.0, 1698.0, 1699.0, 1698.0, 1695.0, 1701.0, 1706.0, 1710.0, 1710.0, 1709.0, 1703.0, 1705.0, 1707.0, 1700.0, 1704.0, 1694.0, 1698.0, 1698.0, 1697.0, 1698.0, 1703.0, 1704.0, 1706.0, 1703.0, 1705.0, 1705.0, 1708.0, 1708.0, 1708.0, 1704.0, 1701.0, 1701.0, 1696.0, 1698.0, 1699.0, 1703.0, 1702.0, 1706.0, 1707.0, 1705.0, 1700.0, 1703.0, 1699.0, 1703.0, 1701.0, 1701.0, 1702.0, 1703.0, 1705.0, 1708.0, 1716.0, 1715.0, 1711.0, 1702.0, 1699.0, 1695.0, 1694.0, 1695.0, 1694.0, 1701.0, 1694.0, 1693.0, 1696.0, 1697.0, 1700.0, 1701.0, 1705.0, 1702.0, 1699.0, 1700.0, 1697.0, 1701.0, 1704.0, 1704.0, 1704.0, 1701.0, 1700.0, 1698.0, 1701.0, 1702.0, 1711.0, 1708.0, 1702.0, 1700.0, 1702.0, 1702.0, 1701.0, 1701.0, 1696.0, 1695.0, 1698.0, 1698.0, 1698.0, 1700.0, 1706.0, 1706.0, 1704.0, 1701.0, 1697.0, 1695.0, 1700.0, 1693.0]
    },
    "slices": {}
  }
}