{
  "AcquisitionMatrixPE": 100,
  "AcquisitionNumber": 1,
  "AcquisitionTime": "09:33:29.705000",
  "BandwidthPerPixelPhaseEncode": 18.519,
  "BaseResolution": 100,
  "BodyPartExamined": "BRAIN",
  "ConsistencyInfo": "N4_VE11C_LATEST_20160120",
  "ConversionSoftware": "dcm2niix",
  "ConversionSoftwareVersion": "v1.0.20180622 GCC4.9.2",
  "DerivedVendorReportedEchoSpacing": 0.000539986,
  "DeviceSerialNumber": "166078",
  "DwellTime": 2.1e-06,
  "EchoTime": 0.034,
  "EchoTrainLength": 100,
  "EffectiveEchoSpacing": 0.000539986,
  "FlipAngle": 90,
  "ImageOrientationPatientDICOM": [1, 0, 0, 0, 0.994338, -0.106264],
  "ImageType": [
    "ORIGINAL",
    "PRIMARY",
    "M",
    "ND",
    "MOSAIC"
],
  "InPlanePhaseEncodingDirectionDICOM": "COL",
  "InstitutionAddress": "Street_StreetNo_Bei_Jing_District_CN_ZIP",
  "InstitutionName": "BeiJing_Normal_University",
  "InstitutionalDepartmentName": "Department",
  "MRAcquisitionType": "2D",
  "MagneticFieldStrength": 3,
  "Manufacturer": "Siemens",
  "ManufacturersModelName": "Prisma",
  "Modality": "MR",
  "MultibandAccelerationFactor": 3,
  "PartialFourier": 1,
  "PatientPosition": "HFS",
  "PercentPhaseFOV": 100,
  "PhaseEncodingDirection": "j-",
  "PhaseEncodingSteps": 100,
  "PhaseResolution": 1,
  "PixelBandwidth": 2380,
  "ProcedureStepDescription": "BNU_P2018_64CH_Zhen.ZongLei",
  "ProtocolName": "bold_100x100_s3_2x2x2_static_256",
  "PulseSequenceDetails": "%SiemensSeq%_ep2d_bold",
  "ReceiveCoilActiveElements": "HC1-7;NC1",
  "ReceiveCoilName": "HeadNeck_64",
  "ReconMatrixPE": 100,
  "RepetitionTime": 2,
  "SAR": 0.0628815,
  "ScanOptions": "FS",
  "ScanningSequence": "EP",
  "SequenceName": "_epfid2d1_100",
  "SequenceVariant": "SK",
  "SeriesDescription": "bold_100x100_s3_2x2x2_static_256",
  "SeriesNumber": 5,
  "ShimSetting": [-5474, -11488, -1252, 433, -26, -116, -135, 81],
  "SliceThickness": 2,
  "SliceTiming": [1.485, 0, 0.99, 0.0825, 1.0725, 0.165, 1.155, 0.2475, 1.2375, 0.33, 1.32, 0.4125, 1.4025, 0.5775, 1.5675, 0.66, 1.65, 0.7425, 1.7325, 0.825, 1.815, 0.9075, 1.8975, 0.495, 1.485, 0, 0.99, 0.0825, 1.0725, 0.165, 1.155, 0.2475, 1.2375, 0.33, 1.32, 0.4125, 1.4025, 0.5775, 1.5675, 0.66, 1.65, 0.7425, 1.7325, 0.825, 1.815, 0.9075, 1.8975, 0.495, 1.485, 0, 0.99, 0.0825, 1.0725, 0.165, 1.155, 0.2475, 1.2375, 0.33, 1.32, 0.4125, 1.4025, 0.5775, 1.5675, 0.66, 1.65, 0.7425, 1.7325, 0.825, 1.815, 0.9075, 1.8975, 0.495],
  "SoftwareVersions": "syngo_MR_E11",
  "SpacingBetweenSlices": 2,
  "StationName": "AWP166078",
  "TaskName": "naturalvision",
  "TotalReadoutTime": 0.0534586,
  "TxRefAmp": 203.771,
  "dcmmeta_affine": [
    [-2.0, 0.0, 0.0, 100.0],
    [0.0, 1.988675832748413, -0.21252812445163727, -84.83531188964844],
    [0.0, 0.21252813935279846, 1.988675832748413, -72.37572479248047],
    [0.0, 0.0, 0.0, 1.0]
],
  "dcmmeta_reorient_transform": [
    [0.0, -1.0, 0.0, 99.0],
    [1.0, 0.0, 0.0, 0.0],
    [0.0, 0.0, 1.0, 0.0],
    [0.0, 0.0, 0.0, 1.0]
],
  "dcmmeta_shape": [100, 100, 72, 256],
  "dcmmeta_slice_dim": 2,
  "dcmmeta_version": 0.6,
  "global": {
    "const": {
      "AcquisitionMatrix": [100, 0, 0, 100],
      "AngioFlag": "N",
      "BitsAllocated": 16,
      "BitsStored": 12,
      "BodyPartExamined": "BRAIN",
      "Columns": 900,
      "EchoNumbers": 1,
      "EchoTime": 34.0,
      "EchoTrainLength": 100,
      "FlipAngle": 90.0,
      "HighBit": 11,
      "ImageOrientationPatient": [1.0, 0.0, 0.0, 0.0, 0.99433794468309, -0.1062640661908],
      "ImagePositionPatient": [-900.0, -907.51395913659, 33.675810359092],
      "ImageType": [
        "ORIGINAL",
        "PRIMARY",
        "M",
        "ND",
        "MOSAIC"
],
      "ImagedNucleus": "1H",
      "ImagingFrequency": 123.257754,
      "InPlanePhaseEncodingDirection": "COL",
      "MRAcquisitionType": "2D",
      "MagneticFieldStrength": 3.0,
      "Manufacturer": "SIEMENS",
      "ManufacturerModelName": "Prisma",
      "Modality": "MR",
      "NumberOfAverages": 1.0,
      "NumberOfPhaseEncodingSteps": 100,
      "PercentPhaseFieldOfView": 100.0,
      "PercentSampling": 100.0,
      "PerformedProcedureStepStartTime": "090547.909000",
      "PhotometricInterpretation": "MONOCHROME2",
      "PixelBandwidth": 2380.0,
      "PixelRepresentation": 0,
      "PixelSpacing": [2.0, 2.0],
      "ProtocolName": "bold_100x100_s3_2x2x2_static_256",
      "RepetitionTime": 2000.0,
      "Rows": 900,
      "SAR": 0.06288150204988,
      "SamplesPerPixel": 1,
      "ScanOptions": "FS",
      "ScanningSequence": "EP",
      "SequenceName": "*epfid2d1_100",
      "SequenceVariant": "SK",
      "SeriesDescription": "bold_100x100_s3_2x2x2_static_256",
      "SeriesNumber": 5,
      "SeriesTime": "093332.363000",
      "SliceLocation": -62.950987364788,
      "SliceThickness": 2.0,
      "SmallestImagePixelValue": 0,
      "SoftwareVersions": "syngo MR E11",
      "SpacingBetweenSlices": 1.9999999943947,
      "SpecificCharacterSet": "ISO_IR 100",
      "StudyID": "1",
      "StudyTime": "090547.818000",
      "TransmitCoilName": "Body",
      "VariableFlipAngleFlag": "N",
      "WindowCenterWidthExplanation": "Algo1",
      "dBdt": 0.0},
    "slices": {}
  },
  "time": {
    "samples": {
      "AcquisitionNumber": [1, 2, 3, 4, 5, 6, 7, 8, 9, 10, 11, 12, 13, 14, 15, 16, 17, 18, 19, 20, 21, 22, 23, 24, 25, 26, 27, 28, 29, 30, 31, 32, 33, 34, 35, 36, 37, 38, 39, 40, 41, 42, 43, 44, 45, 46, 47, 48, 49, 50, 51, 52, 53, 54, 55, 56, 57, 58, 59, 60, 61, 62, 63, 64, 65, 66, 67, 68, 69, 70, 71, 72, 73, 74, 75, 76, 77, 78, 79, 80, 81, 82, 83, 84, 85, 86, 87, 88, 89, 90, 91, 92, 93, 94, 95, 96, 97, 98, 99, 100, 101, 102, 103, 104, 105, 106, 107, 108, 109, 110, 111, 112, 113, 114, 115, 116, 117, 118, 119, 120, 121, 122, 123, 124, 125, 126, 127, 128, 129, 130, 131, 132, 133, 134, 135, 136, 137, 138, 139, 140, 141, 142, 143, 144, 145, 146, 147, 148, 149, 150, 151, 152, 153, 154, 155, 156, 157, 158, 159, 160, 161, 162, 163, 164, 165, 166, 167, 168, 169, 170, 171, 172, 173, 174, 175, 176, 177, 178, 179, 180, 181, 182, 183, 184, 185, 186, 187, 188, 189, 190, 191, 192, 193, 194, 195, 196, 197, 198, 199, 200, 201, 202, 203, 204, 205, 206, 207, 208, 209, 210, 211, 212, 213, 214, 215, 216, 217, 218, 219, 220, 221, 222, 223, 224, 225, 226, 227, 228, 229, 230, 231, 232, 233, 234, 235, 236, 237, 238, 239, 240, 241, 242, 243, 244, 245, 246, 247, 248, 249, 250, 251, 252, 253, 254, 255, 256],
      "AcquisitionTime": ["093329.705000", "093331.705000", "093333.705000", "093335.705000", "093337.705000", "093339.705000", "093341.705000", "093343.705000", "093345.705000", "093347.705000", "093349.705000", "093351.705000", "093353.705000", "093355.705000", "093357.705000", "093359.705000", "093401.705000", "093403.705000", "093405.705000", "093407.705000", "093409.705000", "093411.705000", "093413.705000", "093415.705000", "093417.705000", "093419.705000", "093421.705000", "093423.705000", "093425.705000", "093427.705000", "093429.705000", "093431.705000", "093433.705000", "093435.705000", "093437.705000", "093439.705000", "093441.705000", "093443.705000", "093445.705000", "093447.705000", "093449.705000", "093451.705000", "093453.705000", "093455.705000", "093457.705000", "093459.705000", "093501.705000", "093503.705000", "093505.705000", "093507.705000", "093509.705000", "093511.705000", "093513.705000", "093515.705000", "093517.705000", "093519.705000", "093521.705000", "093523.705000", "093525.705000", "093527.705000", "093529.705000", "093531.705000", "093533.705000", "093535.705000", "093537.705000", "093539.705000", "093541.705000", "093543.705000", "093545.705000", "093547.705000", "093549.705000", "093551.705000", "093553.705000", "093555.705000", "093557.705000", "093559.705000", "093601.705000", "093603.705000", "093605.705000", "093607.705000", "093609.705000", "093611.705000", "093613.705000", "093615.705000", "093617.705000", "093619.705000", "093621.705000", "093623.705000", "093625.705000", "093627.705000", "093629.705000", "093631.705000", "093633.705000", "093635.705000", "093637.705000", "093639.705000", "093641.705000", "093643.705000", "093645.705000", "093647.705000", "093649.705000", "093651.705000", "093653.705000", "093655.705000", "093657.705000", "093659.705000", "093701.705000", "093703.705000", "093705.705000", "093707.705000", "093709.705000", "093711.705000", "093713.705000", "093715.705000", "093717.705000", "093719.705000", "093721.705000", "093723.705000", "093725.705000", "093727.705000", "093729.705000", "093731.705000", "093733.705000", "093735.705000", "093737.705000", "093739.705000", "093741.705000", "093743.705000", "093745.705000", "093747.705000", "093749.705000", "093751.705000", "093753.705000", "093755.705000", "093757.705000", "093759.705000", "093801.705000", "093803.705000", "093805.705000", "093807.705000", "093809.705000", "093811.705000", "093813.705000", "093815.705000", "093817.705000", "093819.705000", "093821.705000", "093823.705000", "093825.705000", "093827.705000", "093829.705000", "093831.705000", "093833.705000", "093835.705000", "093837.705000", "093839.705000", "093841.705000", "093843.705000", "093845.705000", "093847.705000", "093849.705000", "093851.705000", "093853.705000", "093855.705000", "093857.705000", "093859.705000", "093901.705000", "093903.705000", "093905.705000", "093907.705000", "093909.705000", "093911.705000", "093913.705000", "093915.705000", "093917.705000", "093919.705000", "093921.705000", "093923.705000", "093925.705000", "093927.705000", "093929.705000", "093931.705000", "093933.705000", "093935.705000", "093937.705000", "093939.705000", "093941.705000", "093943.705000", "093945.705000", "093947.705000", "093949.705000", "093951.705000", "093953.705000", "093955.705000", "093957.705000", "093959.705000", "094001.705000", "094003.705000", "094005.705000", "094007.705000", "094009.705000", "094011.705000", "094013.705000", "094015.705000", "094017.705000", "094019.705000", "094021.705000", "094023.705000", "094025.705000", "094027.705000", "094029.705000", "094031.705000", "094033.705000", "094035.705000", "094037.705000", "094039.705000", "094041.705000", "094043.705000", "094045.705000", "094047.705000", "094049.705000", "094051.705000", "094053.705000", "094055.705000", "094057.705000", "094059.705000", "094101.705000", "094103.705000", "094105.705000", "094107.705000", "094109.705000", "094111.705000", "094113.705000", "094115.705000", "094117.705000", "094119.705000", "094121.705000", "094123.705000", "094125.705000", "094127.705000", "094129.705000", "094131.705000", "094133.705000", "094135.705000", "094137.705000", "094139.705000", "094141.705000", "094143.705000", "094145.705000", "094147.705000", "094149.705000", "094151.705000", "094153.705000", "094155.705000", "094157.705000", "094159.705000"],
      "ContentTime": ["093332.366000", "093333.854000", "093335.854000", "093337.855000", "093339.854000", "093341.855000", "093343.853000", "093345.854000", "093347.853000", "093349.853000", "093351.854000", "093353.854000", "093355.854000", "093357.854000", "093359.854000", "093401.853000", "093403.854000", "093405.854000", "093407.854000", "093409.854000", "093411.855000", "093413.855000", "093415.854000", "093417.853000", "093419.854000", "093421.854000", "093423.854000", "093425.855000", "093427.854000", "093429.854000", "093431.855000", "093433.854000", "093435.854000", "093437.853000", "093439.854000", "093441.853000", "093443.855000", "093445.854000", "093447.855000", "093449.854000", "093451.854000", "093453.854000", "093455.853000", "093457.853000", "093459.854000", "093501.855000", "093503.855000", "093505.855000", "093507.854000", "093509.854000", "093511.853000", "093513.854000", "093515.854000", "093517.855000", "093519.854000", "093521.854000", "093523.854000", "093525.854000", "093527.854000", "093529.853000", "093531.854000", "093533.853000", "093535.855000", "093537.855000", "093539.854000", "093541.855000", "093543.854000", "093545.853000", "093547.853000", "093549.854000", "093551.854000", "093553.854000", "093555.854000", "093557.854000", "093559.855000", "093601.855000", "093603.853000", "093605.853000", "093607.853000", "093609.854000", "093611.855000", "093613.874000", "093615.854000", "093617.854000", "093619.854000", "093621.854000", "093623.853000", "093625.854000", "093627.855000", "093629.854000", "093631.854000", "093633.854000", "093635.855000", "093637.854000", "093639.853000", "093641.853000", "093643.853000", "093645.855000", "093647.855000", "093649.854000", "093651.854000", "093653.854000", "093655.853000", "093657.854000", "093659.854000", "093701.853000", "093703.854000", "093705.855000", "093707.855000", "093709.854000", "093711.855000", "093713.854000", "093715.853000", "093717.853000", "093719.853000", "093721.854000", "093723.854000", "093725.855000", "093727.854000", "093729.854000", "093731.853000", "093733.854000", "093735.854000", "093737.855000", "093739.854000", "093741.855000", "093743.854000", "093745.854000", "093747.854000", "093749.853000", "093751.853000", "093753.854000", "093755.854000", "093757.854000", "093759.854000", "093801.854000", "093803.855000", "093805.854000", "093807.854000", "093809.853000", "093811.854000", "093813.855000", "093815.855000", "093817.854000", "093819.855000", "093821.854000", "093823.853000", "093825.853000", "093827.854000", "093829.855000", "093831.854000", "093833.854000", "093835.854000", "093837.854000", "093839.854000", "093841.853000", "093843.853000", "093845.854000", "093847.855000", "093849.855000", "093851.854000", "093853.854000", "093855.855000", "093857.853000", "093859.853000", "093901.853000", "093903.853000", "093905.855000", "093907.854000", "093909.855000", "093911.855000", "093913.855000", "093915.854000", "093917.854000", "093919.854000", "093921.854000", "093923.866000", "093925.854000", "093927.854000", "093929.855000", "093931.854000", "093933.853000", "093935.854000", "093937.853000", "093939.854000", "093941.855000", "093943.855000", "093945.855000", "093947.855000", "093949.853000", "093951.854000", "093953.854000", "093955.854000", "093957.855000", "093959.855000", "094001.855000", "094003.855000", "094005.854000", "094007.854000", "094009.854000", "094011.854000", "094013.854000", "094015.855000", "094017.855000", "094019.854000", "094021.855000", "094023.854000", "094025.854000", "094027.853000", "094029.854000", "094031.853000", "094033.855000", "094035.854000", "094037.854000", "094039.855000", "094041.854000", "094043.853000", "094045.853000", "094047.853000", "094049.854000", "094051.854000", "094053.855000", "094055.854000", "094057.855000", "094059.854000", "094101.853000", "094103.853000", "094105.854000", "094107.855000", "094109.855000", "094111.855000", "094113.854000", "094115.854000", "094117.853000", "094119.854000", "094121.853000", "094123.853000", "094125.855000", "094127.855000", "094129.855000", "094131.855000", "094133.854000", "094135.853000", "094137.854000", "094139.853000", "094141.853000", "094143.855000", "094145.855000", "094147.854000", "094149.854000", "094151.854000", "094153.854000", "094155.853000", "094157.854000", "094159.855000", "094201.526000"],
      "InstanceCreationTime": ["093332.366000", "093333.854000", "093335.854000", "093337.855000", "093339.854000", "093341.855000", "093343.853000", "093345.854000", "093347.853000", "093349.853000", "093351.854000", "093353.854000", "093355.854000", "093357.854000", "093359.854000", "093401.853000", "093403.854000", "093405.854000", "093407.854000", "093409.854000", "093411.855000", "093413.855000", "093415.854000", "093417.853000", "093419.854000", "093421.854000", "093423.854000", "093425.855000", "093427.854000", "093429.854000", "093431.855000", "093433.854000", "093435.854000", "093437.853000", "093439.854000", "093441.853000", "093443.855000", "093445.854000", "093447.855000", "093449.854000", "093451.854000", "093453.854000", "093455.853000", "093457.853000", "093459.854000", "093501.855000", "093503.855000", "093505.855000", "093507.854000", "093509.854000", "093511.853000", "093513.854000", "093515.854000", "093517.855000", "093519.854000", "093521.854000", "093523.854000", "093525.854000", "093527.854000", "093529.853000", "093531.854000", "093533.853000", "093535.855000", "093537.855000", "093539.854000", "093541.855000", "093543.854000", "093545.853000", "093547.853000", "093549.854000", "093551.854000", "093553.854000", "093555.854000", "093557.854000", "093559.855000", "093601.855000", "093603.853000", "093605.853000", "093607.853000", "093609.854000", "093611.855000", "093613.874000", "093615.854000", "093617.854000", "093619.854000", "093621.854000", "093623.853000", "093625.854000", "093627.855000", "093629.854000", "093631.854000", "093633.854000", "093635.855000", "093637.854000", "093639.853000", "093641.853000", "093643.853000", "093645.855000", "093647.855000", "093649.854000", "093651.854000", "093653.854000", "093655.853000", "093657.854000", "093659.854000", "093701.853000", "093703.854000", "093705.855000", "093707.855000", "093709.854000", "093711.855000", "093713.854000", "093715.853000", "093717.853000", "093719.853000", "093721.854000", "093723.854000", "093725.855000", "093727.854000", "093729.854000", "093731.853000", "093733.854000", "093735.854000", "093737.855000", "093739.854000", "093741.855000", "093743.854000", "093745.854000", "093747.854000", "093749.853000", "093751.853000", "093753.854000", "093755.854000", "093757.854000", "093759.854000", "093801.854000", "093803.855000", "093805.854000", "093807.854000", "093809.853000", "093811.854000", "093813.855000", "093815.855000", "093817.854000", "093819.855000", "093821.854000", "093823.853000", "093825.853000", "093827.854000", "093829.855000", "093831.854000", "093833.854000", "093835.854000", "093837.854000", "093839.854000", "093841.853000", "093843.853000", "093845.854000", "093847.855000", "093849.855000", "093851.854000", "093853.854000", "093855.855000", "093857.853000", "093859.853000", "093901.853000", "093903.853000", "093905.855000", "093907.854000", "093909.855000", "093911.855000", "093913.855000", "093915.854000", "093917.854000", "093919.854000", "093921.854000", "093923.866000", "093925.854000", "093927.854000", "093929.855000", "093931.854000", "093933.853000", "093935.854000", "093937.853000", "093939.854000", "093941.855000", "093943.855000", "093945.855000", "093947.855000", "093949.853000", "093951.854000", "093953.854000", "093955.854000", "093957.855000", "093959.855000", "094001.855000", "094003.855000", "094005.854000", "094007.854000", "094009.854000", "094011.854000", "094013.854000", "094015.855000", "094017.855000", "094019.854000", "094021.855000", "094023.854000", "094025.854000", "094027.853000", "094029.854000", "094031.853000", "094033.855000", "094035.854000", "094037.854000", "094039.855000", "094041.854000", "094043.853000", "094045.853000", "094047.853000", "094049.854000", "094051.854000", "094053.855000", "094055.854000", "094057.855000", "094059.854000", "094101.853000", "094103.853000", "094105.854000", "094107.855000", "094109.855000", "094111.855000", "094113.854000", "094115.854000", "094117.853000", "094119.854000", "094121.853000", "094123.853000", "094125.855000", "094127.855000", "094129.855000", "094131.855000", "094133.854000", "094135.853000", "094137.854000", "094139.853000", "094141.853000", "094143.855000", "094145.855000", "094147.854000", "094149.854000", "094151.854000", "094153.854000", "094155.853000", "094157.854000", "094159.855000", "094201.526000"],
      "InstanceNumber": [1, 2, 3, 4, 5, 6, 7, 8, 9, 10, 11, 12, 13, 14, 15, 16, 17, 18, 19, 20, 21, 22, 23, 24, 25, 26, 27, 28, 29, 30, 31, 32, 33, 34, 35, 36, 37, 38, 39, 40, 41, 42, 43, 44, 45, 46, 47, 48, 49, 50, 51, 52, 53, 54, 55, 56, 57, 58, 59, 60, 61, 62, 63, 64, 65, 66, 67, 68, 69, 70, 71, 72, 73, 74, 75, 76, 77, 78, 79, 80, 81, 82, 83, 84, 85, 86, 87, 88, 89, 90, 91, 92, 93, 94, 95, 96, 97, 98, 99, 100, 101, 102, 103, 104, 105, 106, 107, 108, 109, 110, 111, 112, 113, 114, 115, 116, 117, 118, 119, 120, 121, 122, 123, 124, 125, 126, 127, 128, 129, 130, 131, 132, 133, 134, 135, 136, 137, 138, 139, 140, 141, 142, 143, 144, 145, 146, 147, 148, 149, 150, 151, 152, 153, 154, 155, 156, 157, 158, 159, 160, 161, 162, 163, 164, 165, 166, 167, 168, 169, 170, 171, 172, 173, 174, 175, 176, 177, 178, 179, 180, 181, 182, 183, 184, 185, 186, 187, 188, 189, 190, 191, 192, 193, 194, 195, 196, 197, 198, 199, 200, 201, 202, 203, 204, 205, 206, 207, 208, 209, 210, 211, 212, 213, 214, 215, 216, 217, 218, 219, 220, 221, 222, 223, 224, 225, 226, 227, 228, 229, 230, 231, 232, 233, 234, 235, 236, 237, 238, 239, 240, 241, 242, 243, 244, 245, 246, 247, 248, 249, 250, 251, 252, 253, 254, 255, 256],
      "LargestImagePixelValue": [3185, 3178, 3141, 3114, 3174, 3156, 3152, 3132, 3140, 3141, 3135, 3140, 3154, 3164, 3175, 3218, 3120, 3117, 3165, 3131, 3183, 3218, 3191, 3192, 3233, 3161, 3206, 3083, 3115, 3199, 3112, 3209, 3198, 3252, 3226, 3232, 3183, 3104, 3197, 3212, 3153, 3197, 3190, 3247, 3175, 3201, 3111, 3242, 3122, 3073, 3277, 3196, 3236, 3138, 3177, 3220, 3187, 3179, 3264, 3106, 3258, 3126, 3136, 3067, 3264, 3251, 3130, 3211, 3295, 3264, 3165, 3232, 3157, 3187, 3222, 3070, 3227, 3215, 3274, 3250, 3200, 3246, 3274, 3113, 3236, 3171, 3238, 3092, 3124, 3210, 3261, 3190, 3185, 3286, 3126, 3249, 3283, 3265, 3287, 3269, 3310, 3179, 3290, 3074, 3237, 3295, 3298, 3275, 3308, 3197, 3294, 3279, 3286, 3122, 3133, 3118, 3259, 3307, 3186, 3290, 3303, 3323, 3323, 3312, 3266, 3317, 3188, 3255, 3134, 3280, 3296, 3360, 3309, 3288, 3354, 3271, 3121, 3321, 3318, 3300, 3221, 3236, 3150, 3196, 3154, 3331, 3163, 3300, 3367, 3263, 3321, 3364, 3157, 3309, 3124, 3320, 3358, 3297, 3339, 3225, 3283, 3189, 3333, 3150, 3351, 3297, 3302, 3271, 3335, 3322, 3340, 3335, 3290, 3344, 3317, 3377, 3275, 3163, 3159, 3142, 3146, 3176, 3183, 3302, 3388, 3382, 3205, 3182, 3147, 3182, 3223, 3198, 3271, 3400, 3387, 3413, 3438, 3272, 3413, 3266, 3363, 3354, 3252, 3386, 3362, 3348, 3315, 3389, 3383, 3322, 3163, 3213, 3380, 3354, 3194, 3186, 3115, 3169, 3154, 3211, 3346, 3427, 3467, 3346, 3302, 3295, 3204, 3324, 3220, 3082, 3338, 3175, 3338, 3147, 3416, 3364, 3429, 3260, 3365, 3248, 3210, 3233, 3164, 3163, 3222, 3190, 3315, 3261, 3356, 3198, 3194, 3279, 3239, 3280, 3208, 3207],
      "WindowCenter": [778.0, 777.0, 777.0, 776.0, 778.0, 777.0, 777.0, 776.0, 776.0, 777.0, 778.0, 778.0, 778.0, 778.0, 778.0, 778.0, 777.0, 777.0, 778.0, 778.0, 778.0, 777.0, 778.0, 777.0, 778.0, 777.0, 778.0, 777.0, 777.0, 778.0, 777.0, 778.0, 778.0, 778.0, 778.0, 778.0, 778.0, 778.0, 778.0, 777.0, 777.0, 777.0, 778.0, 778.0, 777.0, 777.0, 778.0, 779.0, 778.0, 778.0, 778.0, 777.0, 778.0, 778.0, 779.0, 778.0, 777.0, 777.0, 779.0, 779.0, 780.0, 779.0, 778.0, 777.0, 778.0, 779.0, 779.0, 779.0, 779.0, 778.0, 778.0, 779.0, 779.0, 779.0, 778.0, 777.0, 778.0, 778.0, 777.0, 776.0, 775.0, 776.0, 778.0, 778.0, 778.0, 777.0, 777.0, 776.0, 777.0, 778.0, 778.0, 778.0, 777.0, 778.0, 777.0, 779.0, 779.0, 778.0, 778.0, 779.0, 779.0, 779.0, 780.0, 779.0, 779.0, 778.0, 778.0, 778.0, 778.0, 779.0, 780.0, 780.0, 780.0, 779.0, 778.0, 778.0, 778.0, 778.0, 777.0, 778.0, 778.0, 780.0, 779.0, 779.0, 779.0, 780.0, 778.0, 779.0, 778.0, 779.0, 778.0, 778.0, 778.0, 780.0, 780.0, 779.0, 777.0, 778.0, 777.0, 778.0, 779.0, 780.0, 780.0, 778.0, 777.0, 778.0, 778.0, 778.0, 779.0, 779.0, 779.0, 780.0, 779.0, 780.0, 779.0, 779.0, 779.0, 779.0, 779.0, 780.0, 782.0, 780.0, 780.0, 779.0, 779.0, 778.0, 779.0, 779.0, 781.0, 781.0, 780.0, 779.0, 778.0, 778.0, 779.0, 779.0, 779.0, 781.0, 782.0, 781.0, 778.0, 778.0, 779.0, 779.0, 778.0, 778.0, 779.0, 781.0, 780.0, 779.0, 777.0, 776.0, 777.0, 778.0, 779.0, 778.0, 779.0, 779.0, 781.0, 780.0, 780.0, 780.0, 779.0, 780.0, 780.0, 781.0, 781.0, 781.0, 781.0, 782.0, 781.0, 781.0, 780.0, 780.0, 779.0, 780.0, 779.0, 779.0, 778.0, 778.0, 778.0, 778.0, 779.0, 780.0, 782.0, 782.0, 780.0, 780.0, 778.0, 777.0, 778.0, 777.0, 779.0, 777.0, 779.0, 779.0, 780.0, 779.0, 781.0, 782.0, 782.0, 781.0, 779.0, 778.0, 777.0, 778.0, 781.0, 782.0, 783.0, 781.0, 779.0, 779.0, 780.0, 780.0, 779.0, 778.0],
      "WindowWidth": [1681.0, 1678.0, 1677.0, 1676.0, 1679.0, 1678.0, 1677.0, 1675.0, 1676.0, 1679.0, 1680.0, 1679.0, 1680.0, 1681.0, 1680.0, 1680.0, 1678.0, 1678.0, 1681.0, 1681.0, 1680.0, 1679.0, 1681.0, 1679.0, 1681.0, 1678.0, 1680.0, 1677.0, 1677.0, 1680.0, 1677.0, 1680.0, 1681.0, 1680.0, 1679.0, 1680.0, 1681.0, 1682.0, 1682.0, 1678.0, 1677.0, 1679.0, 1680.0, 1681.0, 1679.0, 1678.0, 1681.0, 1683.0, 1682.0, 1680.0, 1681.0, 1678.0, 1681.0, 1681.0, 1683.0, 1681.0, 1678.0, 1677.0, 1682.0, 1683.0, 1687.0, 1683.0, 1681.0, 1678.0, 1682.0, 1683.0, 1683.0, 1683.0, 1682.0, 1681.0, 1680.0, 1684.0, 1684.0, 1683.0, 1681.0, 1679.0, 1679.0, 1679.0, 1677.0, 1675.0, 1673.0, 1676.0, 1680.0, 1679.0, 1681.0, 1678.0, 1676.0, 1675.0, 1677.0, 1680.0, 1681.0, 1680.0, 1678.0, 1679.0, 1678.0, 1682.0, 1683.0, 1681.0, 1681.0, 1682.0, 1682.0, 1682.0, 1686.0, 1682.0, 1682.0, 1682.0, 1679.0, 1679.0, 1680.0, 1683.0, 1686.0, 1686.0, 1684.0, 1681.0, 1681.0, 1680.0, 1680.0, 1681.0, 1677.0, 1679.0, 1681.0, 1684.0, 1684.0, 1682.0, 1683.0, 1685.0, 1680.0, 1683.0, 1681.0, 1683.0, 1680.0, 1680.0, 1681.0, 1685.0, 1686.0, 1683.0, 1678.0, 1679.0, 1677.0, 1679.0, 1682.0, 1686.0, 1684.0, 1680.0, 1676.0, 1680.0, 1679.0, 1681.0, 1682.0, 1683.0, 1683.0, 1684.0, 1681.0, 1684.0, 1681.0, 1683.0, 1683.0, 1682.0, 1683.0, 1685.0, 1689.0, 1685.0, 1686.0, 1682.0, 1683.0, 1680.0, 1682.0, 1684.0, 1687.0, 1688.0, 1686.0, 1684.0, 1680.0, 1680.0, 1681.0, 1683.0, 1682.0, 1686.0, 1690.0, 1686.0, 1680.0, 1680.0, 1681.0, 1681.0, 1679.0, 1679.0, 1682.0, 1688.0, 1686.0, 1681.0, 1676.0, 1674.0, 1677.0, 1681.0, 1681.0, 1679.0, 1683.0, 1683.0, 1688.0, 1686.0, 1686.0, 1685.0, 1682.0, 1686.0, 1686.0, 1687.0, 1689.0, 1688.0, 1689.0, 1689.0, 1688.0, 1687.0, 1686.0, 1686.0, 1683.0, 1685.0, 1682.0, 1681.0, 1679.0, 1678.0, 1680.0, 1680.0, 1682.0, 1684.0, 1689.0, 1689.0, 1683.0, 1684.0, 1680.0, 1675.0, 1678.0, 1676.0, 1680.0, 1677.0, 1682.0, 1683.0, 1683.0, 1681.0, 1687.0, 1690.0, 1690.0, 1688.0, 1683.0, 1679.0, 1677.0, 1679.0, 1687.0, 1690.0, 1692.0, 1686.0, 1682.0, 1683.0, 1684.0, 1685.0, 1682.0, 1679.0]
    },
    "slices": {}
  }
}