{
 "AcquisitionMatrixPE": 100,
 "AcquisitionNumber": 1,
 "AcquisitionTime": "10:44:54.760000",
 "BandwidthPerPixelPhaseEncode": 18.519,
 "BaseResolution": 100,
 "BodyPartExamined": "BRAIN",
 "ConsistencyInfo": "N4_VE11C_LATEST_20160120",
 "ConversionSoftware": "dcm2niix",
 "ConversionSoftwareVersion": "v1.0.20180622 GCC4.9.2",
 "DerivedVendorReportedEchoSpacing": 0.000539986,
 "DeviceSerialNumber": "166078",
 "DwellTime": 2.1e-06,
 "EchoTime": 0.034,
 "EchoTrainLength": 100,
 "EffectiveEchoSpacing": 0.000539986,
 "FlipAngle": 90,
 "ImageOrientationPatientDICOM": [
  1,
  0,
  0,
  0,
  0.994338,
  -0.106264
 ],
 "ImageType": [
  "ORIGINAL",
  "PRIMARY",
  "M",
  "ND",
  "MOSAIC"
 ],
 "InPlanePhaseEncodingDirectionDICOM": "COL",
 "InstitutionAddress": "Street_StreetNo_Bei_Jing_District_CN_ZIP",
 "InstitutionName": "BeiJing_Normal_University",
 "InstitutionalDepartmentName": "Department",
 "MRAcquisitionType": "2D",
 "MagneticFieldStrength": 3,
 "Manufacturer": "Siemens",
 "ManufacturersModelName": "Prisma",
 "Modality": "MR",
 "MultibandAccelerationFactor": 3,
 "PartialFourier": 1,
 "PatientPosition": "HFS",
 "PercentPhaseFOV": 100,
 "PhaseEncodingDirection": "j-",
 "PhaseEncodingSteps": 100,
 "PhaseResolution": 1,
 "PixelBandwidth": 2380,
 "ProcedureStepDescription": "BNU_P2018_64CH_Zhen.ZongLei",
 "ProtocolName": "bold_100x100_s3_2x2x2_static_256",
 "PulseSequenceDetails": "%SiemensSeq%_ep2d_bold",
 "ReceiveCoilActiveElements": "HC1-7;NC1",
 "ReceiveCoilName": "HeadNeck_64",
 "ReconMatrixPE": 100,
 "RepetitionTime": 2,
 "SAR": 0.0628815,
 "ScanOptions": "FS",
 "ScanningSequence": "EP",
 "SequenceName": "_epfid2d1_100",
 "SequenceVariant": "SK",
 "SeriesDescription": "bold_100x100_s3_2x2x2_static_256",
 "SeriesNumber": 14,
 "ShimSetting": [
  -5474,
  -11488,
  -1252,
  433,
  -26,
  -116,
  -135,
  81
 ],
 "SliceThickness": 2,
 "SliceTiming": [
  1.485,
  0,
  0.99,
  0.0825,
  1.0725,
  0.165,
  1.155,
  0.2475,
  1.2375,
  0.33,
  1.32,
  0.4125,
  1.4025,
  0.5775,
  1.5675,
  0.66,
  1.65,
  0.7425,
  1.7325,
  0.825,
  1.815,
  0.9075,
  1.8975,
  0.495,
  1.485,
  0,
  0.99,
  0.0825,
  1.0725,
  0.165,
  1.155,
  0.2475,
  1.2375,
  0.33,
  1.32,
  0.4125,
  1.4025,
  0.5775,
  1.5675,
  0.66,
  1.65,
  0.7425,
  1.7325,
  0.825,
  1.815,
  0.9075,
  1.8975,
  0.495,
  1.485,
  0,
  0.99,
  0.0825,
  1.0725,
  0.165,
  1.155,
  0.2475,
  1.2375,
  0.33,
  1.32,
  0.4125,
  1.4025,
  0.5775,
  1.5675,
  0.66,
  1.65,
  0.7425,
  1.7325,
  0.825,
  1.815,
  0.9075,
  1.8975,
  0.495
 ],
 "SoftwareVersions": "syngo_MR_E11",
 "SpacingBetweenSlices": 2,
 "StationName": "AWP166078",
 "TaskName": "imagenet",
 "TotalReadoutTime": 0.0534586,
 "TxRefAmp": 203.771,
 "dcmmeta_affine": [
  [
   -2.0,
   0.0,
   0.0,
   100.0
  ],
  [
   0.0,
   1.988675832748413,
   -0.21252812445163727,
   -84.83531188964844
  ],
  [
   0.0,
   0.21252813935279846,
   1.988675832748413,
   -72.37572479248047
  ],
  [
   0.0,
   0.0,
   0.0,
   1.0
  ]
 ],
 "dcmmeta_reorient_transform": [
  [
   0.0,
   -1.0,
   0.0,
   99.0
  ],
  [
   1.0,
   0.0,
   0.0,
   0.0
  ],
  [
   0.0,
   0.0,
   1.0,
   0.0
  ],
  [
   0.0,
   0.0,
   0.0,
   1.0
  ]
 ],
 "dcmmeta_shape": [
  100,
  100,
  72,
  256
 ],
 "dcmmeta_slice_dim": 2,
 "dcmmeta_version": 0.6,
 "global": {
  "const": {
   "AcquisitionMatrix": [
    100,
    0,
    0,
    100
   ],
   "AngioFlag": "N",
   "BitsAllocated": 16,
   "BitsStored": 12,
   "BodyPartExamined": "BRAIN",
   "Columns": 900,
   "EchoNumbers": 1,
   "EchoTime": 34.0,
   "EchoTrainLength": 100,
   "FlipAngle": 90.0,
   "HighBit": 11,
   "ImageOrientationPatient": [
    1.0,
    0.0,
    0.0,
    0.0,
    0.99433794468309,
    -0.1062640661908
   ],
   "ImagePositionPatient": [
    -900.0,
    -907.51395913659,
    33.675810359092
   ],
   "ImageType": [
    "ORIGINAL",
    "PRIMARY",
    "M",
    "ND",
    "MOSAIC"
   ],
   "ImagedNucleus": "1H",
   "ImagingFrequency": 123.257773,
   "InPlanePhaseEncodingDirection": "COL",
   "MRAcquisitionType": "2D",
   "MagneticFieldStrength": 3.0,
   "Manufacturer": "SIEMENS",
   "ManufacturerModelName": "Prisma",
   "Modality": "MR",
   "NumberOfAverages": 1.0,
   "NumberOfPhaseEncodingSteps": 100,
   "PercentPhaseFieldOfView": 100.0,
   "PercentSampling": 100.0,
   "PerformedProcedureStepStartTime": "090547.909000",
   "PhotometricInterpretation": "MONOCHROME2",
   "PixelBandwidth": 2380.0,
   "PixelRepresentation": 0,
   "PixelSpacing": [
    2.0,
    2.0
   ],
   "ProtocolName": "bold_100x100_s3_2x2x2_static_256",
   "RepetitionTime": 2000.0,
   "Rows": 900,
   "SAR": 0.06288150204988,
   "SamplesPerPixel": 1,
   "ScanOptions": "FS",
   "ScanningSequence": "EP",
   "SequenceName": "*epfid2d1_100",
   "SequenceVariant": "SK",
   "SeriesDescription": "bold_100x100_s3_2x2x2_static_256",
   "SeriesNumber": 14,
   "SeriesTime": "104457.793000",
   "SliceLocation": -62.950987364788,
   "SliceThickness": 2.0,
   "SmallestImagePixelValue": 0,
   "SoftwareVersions": "syngo MR E11",
   "SpacingBetweenSlices": 1.9999999943947,
   "SpecificCharacterSet": "ISO_IR 100",
   "StudyID": "1",
   "StudyTime": "090547.818000",
   "TransmitCoilName": "Body",
   "VariableFlipAngleFlag": "N",
   "WindowCenterWidthExplanation": "Algo1",
   "dBdt": 0.0
  },
  "slices": {}
 },
 "time": {
  "samples": {
   "AcquisitionNumber": [
    1,
    2,
    3,
    4,
    5,
    6,
    7,
    8,
    9,
    10,
    11,
    12,
    13,
    14,
    15,
    16,
    17,
    18,
    19,
    20,
    21,
    22,
    23,
    24,
    25,
    26,
    27,
    28,
    29,
    30,
    31,
    32,
    33,
    34,
    35,
    36,
    37,
    38,
    39,
    40,
    41,
    42,
    43,
    44,
    45,
    46,
    47,
    48,
    49,
    50,
    51,
    52,
    53,
    54,
    55,
    56,
    57,
    58,
    59,
    60,
    61,
    62,
    63,
    64,
    65,
    66,
    67,
    68,
    69,
    70,
    71,
    72,
    73,
    74,
    75,
    76,
    77,
    78,
    79,
    80,
    81,
    82,
    83,
    84,
    85,
    86,
    87,
    88,
    89,
    90,
    91,
    92,
    93,
    94,
    95,
    96,
    97,
    98,
    99,
    100,
    101,
    102,
    103,
    104,
    105,
    106,
    107,
    108,
    109,
    110,
    111,
    112,
    113,
    114,
    115,
    116,
    117,
    118,
    119,
    120,
    121,
    122,
    123,
    124,
    125,
    126,
    127,
    128,
    129,
    130,
    131,
    132,
    133,
    134,
    135,
    136,
    137,
    138,
    139,
    140,
    141,
    142,
    143,
    144,
    145,
    146,
    147,
    148,
    149,
    150,
    151,
    152,
    153,
    154,
    155,
    156,
    157,
    158,
    159,
    160,
    161,
    162,
    163,
    164,
    165,
    166,
    167,
    168,
    169,
    170,
    171,
    172,
    173,
    174,
    175,
    176,
    177,
    178,
    179,
    180,
    181,
    182,
    183,
    184,
    185,
    186,
    187,
    188,
    189,
    190,
    191,
    192,
    193,
    194,
    195,
    196,
    197,
    198,
    199,
    200,
    201,
    202,
    203,
    204,
    205,
    206,
    207,
    208,
    209,
    210,
    211,
    212,
    213,
    214,
    215,
    216,
    217,
    218,
    219,
    220,
    221,
    222,
    223,
    224,
    225,
    226,
    227,
    228,
    229,
    230,
    231,
    232,
    233,
    234,
    235,
    236,
    237,
    238,
    239,
    240,
    241,
    242,
    243,
    244,
    245,
    246,
    247,
    248,
    249,
    250,
    251,
    252,
    253,
    254,
    255,
    256
   ],
   "AcquisitionTime": [
    "104454.760000",
    "104456.760000",
    "104458.760000",
    "104500.760000",
    "104502.760000",
    "104504.760000",
    "104506.760000",
    "104508.760000",
    "104510.760000",
    "104512.760000",
    "104514.760000",
    "104516.760000",
    "104518.760000",
    "104520.760000",
    "104522.760000",
    "104524.760000",
    "104526.760000",
    "104528.760000",
    "104530.760000",
    "104532.760000",
    "104534.760000",
    "104536.760000",
    "104538.760000",
    "104540.760000",
    "104542.760000",
    "104544.760000",
    "104546.760000",
    "104548.760000",
    "104550.760000",
    "104552.760000",
    "104554.760000",
    "104556.760000",
    "104558.760000",
    "104600.760000",
    "104602.760000",
    "104604.760000",
    "104606.760000",
    "104608.760000",
    "104610.760000",
    "104612.760000",
    "104614.760000",
    "104616.760000",
    "104618.760000",
    "104620.760000",
    "104622.760000",
    "104624.760000",
    "104626.760000",
    "104628.760000",
    "104630.760000",
    "104632.760000",
    "104634.760000",
    "104636.760000",
    "104638.760000",
    "104640.760000",
    "104642.760000",
    "104644.760000",
    "104646.760000",
    "104648.760000",
    "104650.760000",
    "104652.760000",
    "104654.760000",
    "104656.760000",
    "104658.760000",
    "104700.760000",
    "104702.760000",
    "104704.760000",
    "104706.760000",
    "104708.760000",
    "104710.760000",
    "104712.760000",
    "104714.760000",
    "104716.760000",
    "104718.760000",
    "104720.760000",
    "104722.760000",
    "104724.760000",
    "104726.760000",
    "104728.760000",
    "104730.760000",
    "104732.760000",
    "104734.760000",
    "104736.760000",
    "104738.760000",
    "104740.760000",
    "104742.760000",
    "104744.760000",
    "104746.760000",
    "104748.760000",
    "104750.760000",
    "104752.760000",
    "104754.760000",
    "104756.760000",
    "104758.760000",
    "104800.760000",
    "104802.760000",
    "104804.760000",
    "104806.760000",
    "104808.760000",
    "104810.760000",
    "104812.760000",
    "104814.760000",
    "104816.760000",
    "104818.760000",
    "104820.760000",
    "104822.760000",
    "104824.760000",
    "104826.760000",
    "104828.760000",
    "104830.760000",
    "104832.760000",
    "104834.760000",
    "104836.760000",
    "104838.760000",
    "104840.760000",
    "104842.760000",
    "104844.760000",
    "104846.760000",
    "104848.760000",
    "104850.760000",
    "104852.760000",
    "104854.760000",
    "104856.760000",
    "104858.760000",
    "104900.760000",
    "104902.760000",
    "104904.760000",
    "104906.760000",
    "104908.760000",
    "104910.760000",
    "104912.760000",
    "104914.760000",
    "104916.760000",
    "104918.760000",
    "104920.760000",
    "104922.760000",
    "104924.760000",
    "104926.760000",
    "104928.760000",
    "104930.760000",
    "104932.760000",
    "104934.760000",
    "104936.760000",
    "104938.760000",
    "104940.760000",
    "104942.760000",
    "104944.760000",
    "104946.760000",
    "104948.760000",
    "104950.760000",
    "104952.760000",
    "104954.760000",
    "104956.760000",
    "104958.760000",
    "105000.760000",
    "105002.760000",
    "105004.760000",
    "105006.760000",
    "105008.760000",
    "105010.760000",
    "105012.760000",
    "105014.760000",
    "105016.760000",
    "105018.760000",
    "105020.760000",
    "105022.760000",
    "105024.760000",
    "105026.760000",
    "105028.760000",
    "105030.760000",
    "105032.760000",
    "105034.760000",
    "105036.760000",
    "105038.760000",
    "105040.760000",
    "105042.760000",
    "105044.760000",
    "105046.760000",
    "105048.760000",
    "105050.760000",
    "105052.760000",
    "105054.760000",
    "105056.760000",
    "105058.760000",
    "105100.760000",
    "105102.760000",
    "105104.760000",
    "105106.760000",
    "105108.760000",
    "105110.760000",
    "105112.760000",
    "105114.760000",
    "105116.760000",
    "105118.760000",
    "105120.760000",
    "105122.760000",
    "105124.760000",
    "105126.760000",
    "105128.760000",
    "105130.760000",
    "105132.760000",
    "105134.760000",
    "105136.760000",
    "105138.760000",
    "105140.760000",
    "105142.760000",
    "105144.760000",
    "105146.760000",
    "105148.760000",
    "105150.760000",
    "105152.760000",
    "105154.760000",
    "105156.760000",
    "105158.760000",
    "105200.760000",
    "105202.760000",
    "105204.760000",
    "105206.760000",
    "105208.760000",
    "105210.760000",
    "105212.760000",
    "105214.760000",
    "105216.760000",
    "105218.760000",
    "105220.760000",
    "105222.760000",
    "105224.760000",
    "105226.760000",
    "105228.760000",
    "105230.760000",
    "105232.760000",
    "105234.760000",
    "105236.760000",
    "105238.760000",
    "105240.760000",
    "105242.760000",
    "105244.760000",
    "105246.760000",
    "105248.760000",
    "105250.760000",
    "105252.760000",
    "105254.760000",
    "105256.760000",
    "105258.760000",
    "105300.760000",
    "105302.760000",
    "105304.760000",
    "105306.760000",
    "105308.760000",
    "105310.760000",
    "105312.760000",
    "105314.760000",
    "105316.760000",
    "105318.760000",
    "105320.760000",
    "105322.760000",
    "105324.760000"
   ],
   "ContentTime": [
    "104457.797000",
    "104459.293000",
    "104501.292000",
    "104503.293000",
    "104505.292000",
    "104507.292000",
    "104509.291000",
    "104511.291000",
    "104513.291000",
    "104515.292000",
    "104517.292000",
    "104519.292000",
    "104521.292000",
    "104523.292000",
    "104525.292000",
    "104527.291000",
    "104529.292000",
    "104531.293000",
    "104533.293000",
    "104535.293000",
    "104537.292000",
    "104539.292000",
    "104541.293000",
    "104543.291000",
    "104545.291000",
    "104547.291000",
    "104549.292000",
    "104551.292000",
    "104553.293000",
    "104555.293000",
    "104557.293000",
    "104559.293000",
    "104601.291000",
    "104603.291000",
    "104605.291000",
    "104607.292000",
    "104609.292000",
    "104611.293000",
    "104613.293000",
    "104615.292000",
    "104617.292000",
    "104619.292000",
    "104621.291000",
    "104623.292000",
    "104625.292000",
    "104627.292000",
    "104629.292000",
    "104631.293000",
    "104633.293000",
    "104635.293000",
    "104637.291000",
    "104639.291000",
    "104641.292000",
    "104643.293000",
    "104645.293000",
    "104647.292000",
    "104649.293000",
    "104651.292000",
    "104653.291000",
    "104655.291000",
    "104657.292000",
    "104659.293000",
    "104701.293000",
    "104703.293000",
    "104705.293000",
    "104707.293000",
    "104709.293000",
    "104711.291000",
    "104713.291000",
    "104715.292000",
    "104717.293000",
    "104719.292000",
    "104721.293000",
    "104723.293000",
    "104725.293000",
    "104727.292000",
    "104729.291000",
    "104731.292000",
    "104733.292000",
    "104735.292000",
    "104737.292000",
    "104739.292000",
    "104741.292000",
    "104743.292000",
    "104745.292000",
    "104747.291000",
    "104749.291000",
    "104751.292000",
    "104753.293000",
    "104755.293000",
    "104757.292000",
    "104759.292000",
    "104801.292000",
    "104803.291000",
    "104805.292000",
    "104807.292000",
    "104809.293000",
    "104811.293000",
    "104813.293000",
    "104815.293000",
    "104817.293000",
    "104819.292000",
    "104821.291000",
    "104823.292000",
    "104825.291000",
    "104827.292000",
    "104829.292000",
    "104831.293000",
    "104833.292000",
    "104835.293000",
    "104837.292000",
    "104839.291000",
    "104841.291000",
    "104843.291000",
    "104845.292000",
    "104847.293000",
    "104849.293000",
    "104851.292000",
    "104853.292000",
    "104855.292000",
    "104857.292000",
    "104859.292000",
    "104901.293000",
    "104903.293000",
    "104905.293000",
    "104907.293000",
    "104909.293000",
    "104911.293000",
    "104913.291000",
    "104915.291000",
    "104917.292000",
    "104919.292000",
    "104921.292000",
    "104923.293000",
    "104925.293000",
    "104927.293000",
    "104929.292000",
    "104931.292000",
    "104933.292000",
    "104935.291000",
    "104937.293000",
    "104939.293000",
    "104941.293000",
    "104943.293000",
    "104945.292000",
    "104947.792000",
    "104949.291000",
    "104951.292000",
    "104953.293000",
    "104955.292000",
    "104957.293000",
    "104959.293000",
    "105001.293000",
    "105003.292000",
    "105005.293000",
    "105007.292000",
    "105009.292000",
    "105011.292000",
    "105013.292000",
    "105015.292000",
    "105017.293000",
    "105019.293000",
    "105021.293000",
    "105023.292000",
    "105025.292000",
    "105027.292000",
    "105029.292000",
    "105031.292000",
    "105033.293000",
    "105035.293000",
    "105037.293000",
    "105039.293000",
    "105041.292000",
    "105043.292000",
    "105045.292000",
    "105047.293000",
    "105049.293000",
    "105051.293000",
    "105053.292000",
    "105055.293000",
    "105057.293000",
    "105059.292000",
    "105101.291000",
    "105103.293000",
    "105105.293000",
    "105107.293000",
    "105109.292000",
    "105111.293000",
    "105113.293000",
    "105115.293000",
    "105117.291000",
    "105119.292000",
    "105121.293000",
    "105123.293000",
    "105125.293000",
    "105127.293000",
    "105129.292000",
    "105131.293000",
    "105133.292000",
    "105135.291000",
    "105137.292000",
    "105139.292000",
    "105141.292000",
    "105143.293000",
    "105145.293000",
    "105147.293000",
    "105149.293000",
    "105151.292000",
    "105153.291000",
    "105155.301000",
    "105157.293000",
    "105159.293000",
    "105201.293000",
    "105203.293000",
    "105205.293000",
    "105207.292000",
    "105209.292000",
    "105211.292000",
    "105213.293000",
    "105215.293000",
    "105217.292000",
    "105219.293000",
    "105221.293000",
    "105223.293000",
    "105225.292000",
    "105227.292000",
    "105229.292000",
    "105231.293000",
    "105233.293000",
    "105235.292000",
    "105237.293000",
    "105239.293000",
    "105241.292000",
    "105243.292000",
    "105245.291000",
    "105247.292000",
    "105249.293000",
    "105251.293000",
    "105253.293000",
    "105255.293000",
    "105257.292000",
    "105259.293000",
    "105301.292000",
    "105303.292000",
    "105305.292000",
    "105307.293000",
    "105309.292000",
    "105311.293000",
    "105313.293000",
    "105315.293000",
    "105317.292000",
    "105319.292000",
    "105321.292000",
    "105323.293000",
    "105325.293000",
    "105327.028000"
   ],
   "InstanceCreationTime": [
    "104457.797000",
    "104459.293000",
    "104501.292000",
    "104503.293000",
    "104505.292000",
    "104507.292000",
    "104509.291000",
    "104511.291000",
    "104513.291000",
    "104515.292000",
    "104517.292000",
    "104519.292000",
    "104521.292000",
    "104523.292000",
    "104525.292000",
    "104527.291000",
    "104529.292000",
    "104531.293000",
    "104533.293000",
    "104535.293000",
    "104537.292000",
    "104539.292000",
    "104541.293000",
    "104543.291000",
    "104545.291000",
    "104547.291000",
    "104549.292000",
    "104551.292000",
    "104553.293000",
    "104555.293000",
    "104557.293000",
    "104559.293000",
    "104601.291000",
    "104603.291000",
    "104605.291000",
    "104607.292000",
    "104609.292000",
    "104611.293000",
    "104613.293000",
    "104615.292000",
    "104617.292000",
    "104619.292000",
    "104621.291000",
    "104623.292000",
    "104625.292000",
    "104627.292000",
    "104629.292000",
    "104631.293000",
    "104633.293000",
    "104635.293000",
    "104637.291000",
    "104639.291000",
    "104641.292000",
    "104643.293000",
    "104645.293000",
    "104647.292000",
    "104649.293000",
    "104651.292000",
    "104653.291000",
    "104655.291000",
    "104657.292000",
    "104659.293000",
    "104701.293000",
    "104703.293000",
    "104705.293000",
    "104707.293000",
    "104709.293000",
    "104711.291000",
    "104713.291000",
    "104715.292000",
    "104717.293000",
    "104719.292000",
    "104721.293000",
    "104723.293000",
    "104725.293000",
    "104727.292000",
    "104729.291000",
    "104731.292000",
    "104733.292000",
    "104735.292000",
    "104737.292000",
    "104739.292000",
    "104741.292000",
    "104743.292000",
    "104745.292000",
    "104747.291000",
    "104749.291000",
    "104751.292000",
    "104753.293000",
    "104755.293000",
    "104757.292000",
    "104759.292000",
    "104801.292000",
    "104803.291000",
    "104805.292000",
    "104807.292000",
    "104809.293000",
    "104811.293000",
    "104813.293000",
    "104815.293000",
    "104817.293000",
    "104819.292000",
    "104821.291000",
    "104823.292000",
    "104825.291000",
    "104827.292000",
    "104829.292000",
    "104831.293000",
    "104833.292000",
    "104835.293000",
    "104837.292000",
    "104839.291000",
    "104841.291000",
    "104843.291000",
    "104845.292000",
    "104847.293000",
    "104849.293000",
    "104851.292000",
    "104853.292000",
    "104855.292000",
    "104857.292000",
    "104859.292000",
    "104901.293000",
    "104903.293000",
    "104905.293000",
    "104907.293000",
    "104909.293000",
    "104911.293000",
    "104913.291000",
    "104915.291000",
    "104917.292000",
    "104919.292000",
    "104921.292000",
    "104923.293000",
    "104925.293000",
    "104927.293000",
    "104929.292000",
    "104931.292000",
    "104933.292000",
    "104935.291000",
    "104937.293000",
    "104939.293000",
    "104941.293000",
    "104943.293000",
    "104945.292000",
    "104947.792000",
    "104949.291000",
    "104951.292000",
    "104953.293000",
    "104955.292000",
    "104957.293000",
    "104959.293000",
    "105001.293000",
    "105003.292000",
    "105005.293000",
    "105007.292000",
    "105009.292000",
    "105011.292000",
    "105013.292000",
    "105015.292000",
    "105017.293000",
    "105019.293000",
    "105021.293000",
    "105023.292000",
    "105025.292000",
    "105027.292000",
    "105029.292000",
    "105031.292000",
    "105033.293000",
    "105035.293000",
    "105037.293000",
    "105039.293000",
    "105041.292000",
    "105043.292000",
    "105045.292000",
    "105047.293000",
    "105049.293000",
    "105051.293000",
    "105053.292000",
    "105055.293000",
    "105057.293000",
    "105059.292000",
    "105101.291000",
    "105103.293000",
    "105105.293000",
    "105107.293000",
    "105109.292000",
    "105111.293000",
    "105113.293000",
    "105115.293000",
    "105117.291000",
    "105119.292000",
    "105121.293000",
    "105123.293000",
    "105125.293000",
    "105127.293000",
    "105129.292000",
    "105131.293000",
    "105133.292000",
    "105135.291000",
    "105137.292000",
    "105139.292000",
    "105141.292000",
    "105143.293000",
    "105145.293000",
    "105147.293000",
    "105149.293000",
    "105151.292000",
    "105153.291000",
    "105155.301000",
    "105157.293000",
    "105159.293000",
    "105201.293000",
    "105203.293000",
    "105205.293000",
    "105207.292000",
    "105209.292000",
    "105211.292000",
    "105213.293000",
    "105215.293000",
    "105217.292000",
    "105219.293000",
    "105221.293000",
    "105223.293000",
    "105225.292000",
    "105227.292000",
    "105229.292000",
    "105231.293000",
    "105233.293000",
    "105235.292000",
    "105237.293000",
    "105239.293000",
    "105241.292000",
    "105243.292000",
    "105245.291000",
    "105247.292000",
    "105249.293000",
    "105251.293000",
    "105253.293000",
    "105255.293000",
    "105257.292000",
    "105259.293000",
    "105301.292000",
    "105303.292000",
    "105305.292000",
    "105307.293000",
    "105309.292000",
    "105311.293000",
    "105313.293000",
    "105315.293000",
    "105317.292000",
    "105319.292000",
    "105321.292000",
    "105323.293000",
    "105325.293000",
    "105327.028000"
   ],
   "InstanceNumber": [
    1,
    2,
    3,
    4,
    5,
    6,
    7,
    8,
    9,
    10,
    11,
    12,
    13,
    14,
    15,
    16,
    17,
    18,
    19,
    20,
    21,
    22,
    23,
    24,
    25,
    26,
    27,
    28,
    29,
    30,
    31,
    32,
    33,
    34,
    35,
    36,
    37,
    38,
    39,
    40,
    41,
    42,
    43,
    44,
    45,
    46,
    47,
    48,
    49,
    50,
    51,
    52,
    53,
    54,
    55,
    56,
    57,
    58,
    59,
    60,
    61,
    62,
    63,
    64,
    65,
    66,
    67,
    68,
    69,
    70,
    71,
    72,
    73,
    74,
    75,
    76,
    77,
    78,
    79,
    80,
    81,
    82,
    83,
    84,
    85,
    86,
    87,
    88,
    89,
    90,
    91,
    92,
    93,
    94,
    95,
    96,
    97,
    98,
    99,
    100,
    101,
    102,
    103,
    104,
    105,
    106,
    107,
    108,
    109,
    110,
    111,
    112,
    113,
    114,
    115,
    116,
    117,
    118,
    119,
    120,
    121,
    122,
    123,
    124,
    125,
    126,
    127,
    128,
    129,
    130,
    131,
    132,
    133,
    134,
    135,
    136,
    137,
    138,
    139,
    140,
    141,
    142,
    143,
    144,
    145,
    146,
    147,
    148,
    149,
    150,
    151,
    152,
    153,
    154,
    155,
    156,
    157,
    158,
    159,
    160,
    161,
    162,
    163,
    164,
    165,
    166,
    167,
    168,
    169,
    170,
    171,
    172,
    173,
    174,
    175,
    176,
    177,
    178,
    179,
    180,
    181,
    182,
    183,
    184,
    185,
    186,
    187,
    188,
    189,
    190,
    191,
    192,
    193,
    194,
    195,
    196,
    197,
    198,
    199,
    200,
    201,
    202,
    203,
    204,
    205,
    206,
    207,
    208,
    209,
    210,
    211,
    212,
    213,
    214,
    215,
    216,
    217,
    218,
    219,
    220,
    221,
    222,
    223,
    224,
    225,
    226,
    227,
    228,
    229,
    230,
    231,
    232,
    233,
    234,
    235,
    236,
    237,
    238,
    239,
    240,
    241,
    242,
    243,
    244,
    245,
    246,
    247,
    248,
    249,
    250,
    251,
    252,
    253,
    254,
    255,
    256
   ],
   "LargestImagePixelValue": [
    3932,
    4021,
    3957,
    3851,
    3925,
    3935,
    4061,
    3905,
    3947,
    3995,
    3967,
    4095,
    4069,
    3977,
    3993,
    4073,
    3998,
    4028,
    3990,
    4045,
    4009,
    4024,
    4042,
    4019,
    4045,
    4059,
    4069,
    4054,
    4075,
    4055,
    4040,
    4016,
    4062,
    4034,
    4008,
    4095,
    4059,
    4095,
    4029,
    4095,
    4095,
    4078,
    4036,
    4020,
    4073,
    4025,
    4095,
    4095,
    4095,
    4026,
    4024,
    4079,
    4075,
    4057,
    4057,
    4085,
    4070,
    4095,
    4095,
    4095,
    4078,
    4061,
    4095,
    4053,
    4058,
    4035,
    3966,
    3965,
    3989,
    4015,
    4095,
    4066,
    4033,
    4035,
    3998,
    4062,
    4060,
    4084,
    4041,
    3962,
    4045,
    4095,
    4095,
    3937,
    4029,
    4081,
    4062,
    4014,
    3976,
    4015,
    4091,
    4095,
    4094,
    4091,
    4095,
    4095,
    4095,
    4067,
    4066,
    4056,
    4074,
    4054,
    4067,
    4095,
    4069,
    4095,
    4034,
    4075,
    4052,
    4050,
    4084,
    4095,
    4049,
    4095,
    4045,
    4088,
    4016,
    4058,
    4082,
    4071,
    4035,
    4095,
    4095,
    4013,
    4021,
    3971,
    4027,
    4061,
    4095,
    4084,
    4047,
    3986,
    4095,
    4095,
    4093,
    4070,
    4036,
    4072,
    4092,
    4095,
    4095,
    4082,
    4095,
    4095,
    4095,
    4095,
    4095,
    4095,
    4095,
    4095,
    4095,
    4095,
    4095,
    4095,
    4095,
    4095,
    4095,
    4095,
    4082,
    4072,
    4095,
    4095,
    4095,
    4095,
    4095,
    4095,
    4095,
    4095,
    4095,
    4095,
    4095,
    4095,
    4095,
    4095,
    4037,
    4095,
    4095,
    4095,
    4095,
    4095,
    4095,
    4095,
    4095,
    4095,
    4095,
    4095,
    4095,
    4095,
    4095,
    4095,
    4070,
    4072,
    4095,
    4095,
    4095,
    4095,
    4084,
    4092,
    4095,
    4095,
    4022,
    4068,
    4095,
    4095,
    4095,
    3983,
    4095,
    4095,
    4095,
    4095,
    4085,
    4095,
    4095,
    4095,
    4095,
    4095,
    4095,
    4095,
    4001,
    4094,
    4095,
    4095,
    4095,
    4095,
    4095,
    4095,
    4095,
    4095,
    4095,
    4095,
    4095,
    4022,
    4095,
    4095,
    4095,
    4080,
    4095,
    4095,
    4034,
    4057,
    4095,
    4095,
    4088,
    4094,
    4090,
    4095,
    4053,
    4020,
    4047,
    4054,
    4095,
    4057,
    4060,
    4086,
    4083,
    4095
   ],
   "WindowCenter": [
    786.0,
    786.0,
    786.0,
    787.0,
    786.0,
    785.0,
    785.0,
    783.0,
    783.0,
    784.0,
    784.0,
    785.0,
    786.0,
    785.0,
    784.0,
    783.0,
    783.0,
    784.0,
    784.0,
    785.0,
    785.0,
    785.0,
    785.0,
    785.0,
    785.0,
    785.0,
    786.0,
    787.0,
    786.0,
    785.0,
    785.0,
    785.0,
    785.0,
    784.0,
    785.0,
    787.0,
    788.0,
    787.0,
    786.0,
    786.0,
    785.0,
    785.0,
    784.0,
    783.0,
    783.0,
    784.0,
    785.0,
    786.0,
    785.0,
    784.0,
    784.0,
    784.0,
    784.0,
    785.0,
    785.0,
    787.0,
    788.0,
    788.0,
    787.0,
    787.0,
    786.0,
    786.0,
    786.0,
    785.0,
    784.0,
    785.0,
    784.0,
    783.0,
    783.0,
    783.0,
    784.0,
    785.0,
    786.0,
    785.0,
    785.0,
    784.0,
    785.0,
    786.0,
    785.0,
    784.0,
    784.0,
    786.0,
    787.0,
    786.0,
    786.0,
    785.0,
    784.0,
    784.0,
    784.0,
    784.0,
    786.0,
    788.0,
    789.0,
    787.0,
    786.0,
    785.0,
    785.0,
    785.0,
    785.0,
    785.0,
    784.0,
    784.0,
    784.0,
    785.0,
    786.0,
    786.0,
    785.0,
    784.0,
    783.0,
    782.0,
    784.0,
    785.0,
    786.0,
    786.0,
    786.0,
    786.0,
    785.0,
    786.0,
    788.0,
    788.0,
    786.0,
    785.0,
    784.0,
    783.0,
    783.0,
    782.0,
