{
  "AcquisitionMatrixPE": 100,
  "AcquisitionNumber": 1,
  "AcquisitionTime": "09:59:54.517500",
  "BandwidthPerPixelPhaseEncode": 18.519,
  "BaseResolution": 100,
  "BodyPartExamined": "BRAIN",
  "ConsistencyInfo": "N4_VE11C_LATEST_20160120",
  "ConversionSoftware": "dcm2niix",
  "ConversionSoftwareVersion": "v1.0.20180622 GCC4.9.2",
  "DerivedVendorReportedEchoSpacing": 0.000539986,
  "DeviceSerialNumber": "166078",
  "DwellTime": 2.1e-06,
  "EchoTime": 0.034,
  "EchoTrainLength": 100,
  "EffectiveEchoSpacing": 0.000539986,
  "FlipAngle": 90,
  "ImageOrientationPatientDICOM": [1, 0, 0, 0, 0.973179, -0.23005],
  "ImageType": [
    "ORIGINAL",
    "PRIMARY",
    "M",
    "ND",
    "MOSAIC"
],
  "InPlanePhaseEncodingDirectionDICOM": "COL",
  "InstitutionAddress": "Street_StreetNo_Bei_Jing_District_CN_ZIP",
  "InstitutionName": "BeiJing_Normal_University",
  "InstitutionalDepartmentName": "Department",
  "MRAcquisitionType": "2D",
  "MagneticFieldStrength": 3,
  "Manufacturer": "Siemens",
  "ManufacturersModelName": "Prisma",
  "Modality": "MR",
  "MultibandAccelerationFactor": 3,
  "PartialFourier": 1,
  "PatientPosition": "HFS",
  "PercentPhaseFOV": 100,
  "PhaseEncodingDirection": "j-",
  "PhaseEncodingSteps": 100,
  "PhaseResolution": 1,
  "PixelBandwidth": 2380,
  "ProcedureStepDescription": "BNU_P2018_64CH_Zhen.ZongLei",
  "ProtocolName": "bold_100x100_s3_2x2x2_static_256",
  "PulseSequenceDetails": "%SiemensSeq%_ep2d_bold",
  "ReceiveCoilActiveElements": "HC1-7;NC1",
  "ReceiveCoilName": "HeadNeck_64",
  "ReconMatrixPE": 100,
  "RepetitionTime": 2,
  "SAR": 0.0663103,
  "ScanOptions": "FS",
  "ScanningSequence": "EP",
  "SequenceName": "_epfid2d1_100",
  "SequenceVariant": "SK",
  "SeriesDescription": "bold_100x100_s3_2x2x2_static_256",
  "SeriesNumber": 10,
  "ShimSetting": [-5447, -11477, -1275, 328, 42, -124, -173, 51],
  "SliceThickness": 2,
  "SliceTiming": [1.485, 0, 0.99, 0.0825, 1.0725, 0.165, 1.155, 0.2475, 1.2375, 0.33, 1.32, 0.4125, 1.4025, 0.5775, 1.5675, 0.66, 1.65, 0.7425, 1.7325, 0.825, 1.815, 0.9075, 1.8975, 0.495, 1.485, 0, 0.99, 0.0825, 1.0725, 0.165, 1.155, 0.2475, 1.2375, 0.33, 1.32, 0.4125, 1.4025, 0.5775, 1.5675, 0.66, 1.65, 0.7425, 1.7325, 0.825, 1.815, 0.9075, 1.8975, 0.495, 1.485, 0, 0.99, 0.0825, 1.0725, 0.165, 1.155, 0.2475, 1.2375, 0.33, 1.32, 0.4125, 1.4025, 0.5775, 1.5675, 0.66, 1.65, 0.7425, 1.7325, 0.825, 1.815, 0.9075, 1.8975, 0.495],
  "SoftwareVersions": "syngo_MR_E11",
  "SpacingBetweenSlices": 2,
  "StationName": "AWP166078",
  "TaskName": "naturalvision",
  "TotalReadoutTime": 0.0534586,
  "TxRefAmp": 221.315,
  "dcmmeta_affine": [
    [-2.0, 0.0, 0.0, 102.69879150390625],
    [0.0, 1.9463577270507812, -0.4600994884967804, -80.37294006347656],
    [0.0, 0.4600994884967804, 1.9463577270507812, -85.62611389160156],
    [0.0, 0.0, 0.0, 1.0]
],
  "dcmmeta_reorient_transform": [
    [0.0, -1.0, 0.0, 99.0],
    [1.0, 0.0, 0.0, 0.0],
    [0.0, 0.0, 1.0, 0.0],
    [0.0, 0.0, 0.0, 1.0]
],
  "dcmmeta_shape": [100, 100, 72, 256],
  "dcmmeta_slice_dim": 2,
  "dcmmeta_version": 0.6,
  "global": {
    "const": {
      "AcquisitionMatrix": [100, 0, 0, 100],
      "AngioFlag": "N",
      "BitsAllocated": 16,
      "BitsStored": 12,
      "BodyPartExamined": "BRAIN",
      "Columns": 900,
      "EchoNumbers": 1,
      "EchoTime": 34.0,
      "EchoTrainLength": 100,
      "FlipAngle": 90.0,
      "HighBit": 11,
      "ImageOrientationPatient": [1.0, 0.0, 0.0, 0.0, 0.973178872716, -0.2300497374466],
      "ImagePositionPatient": [-902.69879508018, -890.85957686743, 143.96352209423],
      "ImageType": [
        "ORIGINAL",
        "PRIMARY",
        "M",
        "ND",
        "MOSAIC"
],
      "ImagedNucleus": "1H",
      "ImagingFrequency": 123.257735,
      "InPlanePhaseEncodingDirection": "COL",
      "MRAcquisitionType": "2D",
      "MagneticFieldStrength": 3.0,
      "Manufacturer": "SIEMENS",
      "ManufacturerModelName": "Prisma",
      "Modality": "MR",
      "NumberOfAverages": 1.0,
      "NumberOfPhaseEncodingSteps": 100,
      "PercentPhaseFieldOfView": 100.0,
      "PercentSampling": 100.0,
      "PerformedProcedureStepStartTime": "085258.449000",
      "PhotometricInterpretation": "MONOCHROME2",
      "PixelBandwidth": 2380.0,
      "PixelRepresentation": 0,
      "PixelSpacing": [2.0, 2.0],
      "ProtocolName": "bold_100x100_s3_2x2x2_static_256",
      "RepetitionTime": 2000.0,
      "Rows": 900,
      "SAR": 0.06631033914613,
      "SamplesPerPixel": 1,
      "ScanOptions": "FS",
      "ScanningSequence": "EP",
      "SequenceName": "*epfid2d1_100",
      "SequenceVariant": "SK",
      "SeriesDescription": "bold_100x100_s3_2x2x2_static_256",
      "SeriesNumber": 10,
      "SeriesTime": "095956.391000",
      "SliceLocation": -64.839753616211,
      "SliceThickness": 2.0,
      "SmallestImagePixelValue": 0,
      "SoftwareVersions": "syngo MR E11",
      "SpacingBetweenSlices": 2.0000000314449,
      "SpecificCharacterSet": "ISO_IR 100",
      "StudyID": "1",
      "StudyTime": "085258.378000",
      "TransmitCoilName": "Body",
      "VariableFlipAngleFlag": "N",
      "WindowCenterWidthExplanation": "Algo1",
      "dBdt": 0.0},
    "slices": {}
  },
  "time": {
    "samples": {
      "AcquisitionNumber": [1, 2, 3, 4, 5, 6, 7, 8, 9, 10, 11, 12, 13, 14, 15, 16, 17, 18, 19, 20, 21, 22, 23, 24, 25, 26, 27, 28, 29, 30, 31, 32, 33, 34, 35, 36, 37, 38, 39, 40, 41, 42, 43, 44, 45, 46, 47, 48, 49, 50, 51, 52, 53, 54, 55, 56, 57, 58, 59, 60, 61, 62, 63, 64, 65, 66, 67, 68, 69, 70, 71, 72, 73, 74, 75, 76, 77, 78, 79, 80, 81, 82, 83, 84, 85, 86, 87, 88, 89, 90, 91, 92, 93, 94, 95, 96, 97, 98, 99, 100, 101, 102, 103, 104, 105, 106, 107, 108, 109, 110, 111, 112, 113, 114, 115, 116, 117, 118, 119, 120, 121, 122, 123, 124, 125, 126, 127, 128, 129, 130, 131, 132, 133, 134, 135, 136, 137, 138, 139, 140, 141, 142, 143, 144, 145, 146, 147, 148, 149, 150, 151, 152, 153, 154, 155, 156, 157, 158, 159, 160, 161, 162, 163, 164, 165, 166, 167, 168, 169, 170, 171, 172, 173, 174, 175, 176, 177, 178, 179, 180, 181, 182, 183, 184, 185, 186, 187, 188, 189, 190, 191, 192, 193, 194, 195, 196, 197, 198, 199, 200, 201, 202, 203, 204, 205, 206, 207, 208, 209, 210, 211, 212, 213, 214, 215, 216, 217, 218, 219, 220, 221, 222, 223, 224, 225, 226, 227, 228, 229, 230, 231, 232, 233, 234, 235, 236, 237, 238, 239, 240, 241, 242, 243, 244, 245, 246, 247, 248, 249, 250, 251, 252, 253, 254, 255, 256],
      "AcquisitionTime": ["095954.517500", "095956.517500", "095958.517500", "100000.517500", "100002.517500", "100004.517500", "100006.517500", "100008.517500", "100010.517500", "100012.517500", "100014.517500", "100016.517500", "100018.517500", "100020.517500", "100022.517500", "100024.517500", "100026.517500", "100028.517500", "100030.517500", "100032.517500", "100034.517500", "100036.517500", "100038.517500", "100040.517500", "100042.517500", "100044.517500", "100046.517500", "100048.517500", "100050.517500", "100052.517500", "100054.517500", "100056.517500", "100058.517500", "100100.517500", "100102.517500", "100104.517500", "100106.517500", "100108.517500", "100110.517500", "100112.517500", "100114.517500", "100116.517500", "100118.517500", "100120.517500", "100122.517500", "100124.517500", "100126.517500", "100128.517500", "100130.517500", "100132.517500", "100134.517500", "100136.517500", "100138.517500", "100140.517500", "100142.517500", "100144.517500", "100146.517500", "100148.517500", "100150.517500", "100152.517500", "100154.517500", "100156.517500", "100158.517500", "100200.517500", "100202.517500", "100204.517500", "100206.517500", "100208.517500", "100210.517500", "100212.517500", "100214.517500", "100216.517500", "100218.517500", "100220.517500", "100222.517500", "100224.517500", "100226.517500", "100228.517500", "100230.517500", "100232.517500", "100234.517500", "100236.517500", "100238.517500", "100240.517500", "100242.517500", "100244.517500", "100246.517500", "100248.517500", "100250.517500", "100252.517500", "100254.517500", "100256.517500", "100258.517500", "100300.517500", "100302.517500", "100304.517500", "100306.517500", "100308.517500", "100310.517500", "100312.517500", "100314.517500", "100316.517500", "100318.517500", "100320.517500", "100322.517500", "100324.517500", "100326.517500", "100328.517500", "100330.517500", "100332.517500", "100334.517500", "100336.517500", "100338.517500", "100340.517500", "100342.517500", "100344.517500", "100346.517500", "100348.517500", "100350.517500", "100352.517500", "100354.517500", "100356.517500", "100358.517500", "100400.517500", "100402.517500", "100404.517500", "100406.517500", "100408.517500", "100410.517500", "100412.517500", "100414.517500", "100416.517500", "100418.517500", "100420.517500", "100422.517500", "100424.517500", "100426.517500", "100428.517500", "100430.517500", "100432.517500", "100434.517500", "100436.517500", "100438.517500", "100440.517500", "100442.517500", "100444.517500", "100446.517500", "100448.517500", "100450.517500", "100452.517500", "100454.517500", "100456.517500", "100458.517500", "100500.517500", "100502.517500", "100504.517500", "100506.517500", "100508.517500", "100510.517500", "100512.517500", "100514.517500", "100516.517500", "100518.517500", "100520.517500", "100522.517500", "100524.517500", "100526.517500", "100528.517500", "100530.517500", "100532.517500", "100534.517500", "100536.517500", "100538.517500", "100540.517500", "100542.517500", "100544.517500", "100546.517500", "100548.517500", "100550.517500", "100552.517500", "100554.517500", "100556.517500", "100558.517500", "100600.517500", "100602.517500", "100604.517500", "100606.517500", "100608.517500", "100610.517500", "100612.517500", "100614.517500", "100616.517500", "100618.517500", "100620.517500", "100622.517500", "100624.517500", "100626.517500", "100628.517500", "100630.517500", "100632.517500", "100634.517500", "100636.517500", "100638.517500", "100640.517500", "100642.517500", "100644.517500", "100646.517500", "100648.517500", "100650.517500", "100652.517500", "100654.517500", "100656.517500", "100658.517500", "100700.517500", "100702.517500", "100704.517500", "100706.517500", "100708.517500", "100710.517500", "100712.517500", "100714.517500", "100716.517500", "100718.517500", "100720.517500", "100722.517500", "100724.517500", "100726.517500", "100728.517500", "100730.517500", "100732.517500", "100734.517500", "100736.517500", "100738.517500", "100740.517500", "100742.517500", "100744.517500", "100746.517500", "100748.517500", "100750.517500", "100752.517500", "100754.517500", "100756.517500", "100758.517500", "100800.517500", "100802.517500", "100804.517500", "100806.517500", "100808.517500", "100810.517500", "100812.517500", "100814.517500", "100816.517500", "100818.517500", "100820.517500", "100822.517500", "100824.517500"],
      "ContentTime": ["095956.394000", "095957.889000", "100000.389000", "100001.888000", "100004.388000", "100006.388000", "100008.389000", "100010.389000", "100012.388000", "100013.890000", "100015.889000", "100018.389000", "100020.389000", "100022.388000", "100024.388000", "100026.388000", "100027.888000", "100029.888000", "100032.389000", "100034.388000", "100035.888000", "100038.388000", "100040.388000", "100042.389000", "100044.389000", "100046.389000", "100048.388000", "100050.390000", "100051.888000", "100053.889000", "100055.888000", "100058.388000", "100059.888000", "100102.389000", "100104.388000", "100105.888000", "100108.389000", "100109.888000", "100112.389000", "100113.888000", "100116.388000", "100117.888000", "100120.389000", "100122.389000", "100124.389000", "100125.889000", "100128.389000", "100130.389000", "100132.389000", "100133.888000", "100136.389000", "100138.388000", "100140.389000", "100142.390000", "100144.389000", "100145.889000", "100148.388000", "100150.388000", "100152.388000", "100154.389000", "100155.888000", "100157.888000", "100200.389000", "100201.889000", "100203.889000", "100206.388000", "100208.389000", "100210.389000", "100212.389000", "100214.388000", "100216.390000", "100218.389000", "100220.389000", "100221.888000", "100224.388000", "100226.389000", "100228.388000", "100230.388000", "100231.889000", "100234.389000", "100236.389000", "100238.388000", "100240.388000", "100242.389000", "100243.889000", "100246.389000", "100248.389000", "100250.388000", "100251.890000", "100254.389000", "100255.889000", "100258.408000", "100300.388000", "100302.389000", "100304.388000", "100306.389000", "100308.390000", "100310.390000", "100311.889000", "100314.389000", "100316.389000", "100317.889000", "100320.388000", "100322.389000", "100324.389000", "100326.390000", "100328.389000", "100330.388000", "100332.388000", "100334.389000", "100335.888000", "100338.388000", "100340.389000", "100341.889000", "100344.389000", "100346.389000", "100348.389000", "100350.388000", "100352.389000", "100354.389000", "100356.389000", "100358.389000", "100400.388000", "100402.389000", "100404.389000", "100405.889000", "100408.389000", "100410.389000", "100411.889000", "100414.388000", "100415.888000", "100418.390000", "100420.390000", "100421.888000", "100423.888000", "100426.389000", "100427.888000", "100430.388000", "100431.889000", "100434.388000", "100435.889000", "100437.889000", "100440.389000", "100442.389000", "100444.389000", "100446.389000", "100448.389000", "100449.889000", "100451.888000", "100453.890000", "100456.389000", "100458.388000", "100500.388000", "100501.889000", "100504.389000", "100505.889000", "100508.388000", "100510.388000", "100512.390000", "100514.389000", "100515.889000", "100517.888000", "100520.388000", "100521.888000", "100523.888000", "100526.389000", "100528.389000", "100529.889000", "100532.389000", "100534.389000", "100535.889000", "100538.388000", "100540.388000", "100541.889000", "100543.889000", "100546.390000", "100547.889000", "100549.889000", "100551.889000", "100554.389000", "100556.389000", "100557.888000", "100600.388000", "100602.388000", "100604.390000", "100605.890000", "100608.388000", "100610.389000", "100612.389000", "100614.389000", "100615.888000", "100617.888000", "100619.888000", "100622.389000", "100624.389000", "100625.888000", "100627.888000", "100630.388000", "100632.389000", "100633.889000", "100636.389000", "100638.390000", "100640.390000", "100642.389000", "100644.389000", "100646.389000", "100648.388000", "100650.388000", "100651.888000", "100653.888000", "100656.389000", "100657.890000", "100700.389000", "100701.888000", "100704.389000", "100706.388000", "100707.888000", "100710.389000", "100712.389000", "100714.389000", "100715.906000", "100718.389000", "100720.388000", "100721.889000", "100723.888000", "100726.389000", "100728.389000", "100730.389000", "100731.890000", "100734.389000", "100735.889000", "100737.889000", "100739.888000", "100742.389000", "100744.389000", "100746.389000", "100748.390000", "100750.390000", "100751.888000", "100753.888000", "100756.389000", "100758.389000", "100800.389000", "100802.388000", "100804.389000", "100806.390000", "100808.389000", "100810.389000", "100812.388000", "100814.388000", "100815.889000", "100818.388000", "100820.388000", "100822.388000", "100824.390000", "100825.890000"],
      "InstanceCreationTime": ["095956.394000", "095957.889000", "100000.389000", "100001.888000", "100004.388000", "100006.388000", "100008.389000", "100010.389000", "100012.388000", "100013.890000", "100015.889000", "100018.389000", "100020.389000", "100022.388000", "100024.388000", "100026.388000", "100027.888000", "100029.888000", "100032.389000", "100034.388000", "100035.888000", "100038.388000", "100040.388000", "100042.389000", "100044.389000", "100046.389000", "100048.388000", "100050.390000", "100051.888000", "100053.889000", "100055.888000", "100058.388000", "100059.888000", "100102.389000", "100104.388000", "100105.888000", "100108.389000", "100109.888000", "100112.389000", "100113.888000", "100116.388000", "100117.888000", "100120.389000", "100122.389000", "100124.389000", "100125.889000", "100128.389000", "100130.389000", "100132.389000", "100133.888000", "100136.389000", "100138.388000", "100140.389000", "100142.390000", "100144.389000", "100145.889000", "100148.388000", "100150.388000", "100152.388000", "100154.389000", "100155.888000", "100157.888000", "100200.389000", "100201.889000", "100203.889000", "100206.388000", "100208.389000", "100210.389000", "100212.389000", "100214.388000", "100216.390000", "100218.389000", "100220.389000", "100221.888000", "100224.388000", "100226.389000", "100228.388000", "100230.388000", "100231.889000", "100234.389000", "100236.389000", "100238.388000", "100240.388000", "100242.389000", "100243.889000", "100246.389000", "100248.389000", "100250.388000", "100251.890000", "100254.389000", "100255.889000", "100258.408000", "100300.388000", "100302.389000", "100304.388000", "100306.389000", "100308.390000", "100310.390000", "100311.889000", "100314.389000", "100316.389000", "100317.889000", "100320.388000", "100322.389000", "100324.389000", "100326.390000", "100328.389000", "100330.388000", "100332.388000", "100334.389000", "100335.888000", "100338.388000", "100340.389000", "100341.889000", "100344.389000", "100346.389000", "100348.389000", "100350.388000", "100352.389000", "100354.389000", "100356.389000", "100358.389000", "100400.388000", "100402.389000", "100404.389000", "100405.889000", "100408.389000", "100410.389000", "100411.889000", "100414.388000", "100415.888000", "100418.390000", "100420.390000", "100421.888000", "100423.888000", "100426.389000", "100427.888000", "100430.388000", "100431.889000", "100434.388000", "100435.889000", "100437.889000", "100440.389000", "100442.389000", "100444.389000", "100446.389000", "100448.389000", "100449.889000", "100451.888000", "100453.890000", "100456.389000", "100458.388000", "100500.388000", "100501.889000", "100504.389000", "100505.889000", "100508.388000", "100510.388000", "100512.390000", "100514.389000", "100515.889000", "100517.888000", "100520.388000", "100521.888000", "100523.888000", "100526.389000", "100528.389000", "100529.889000", "100532.389000", "100534.389000", "100535.889000", "100538.388000", "100540.388000", "100541.889000", "100543.889000", "100546.390000", "100547.889000", "100549.889000", "100551.889000", "100554.389000", "100556.389000", "100557.888000", "100600.388000", "100602.388000", "100604.390000", "100605.890000", "100608.388000", "100610.389000", "100612.389000", "100614.389000", "100615.888000", "100617.888000", "100619.888000", "100622.389000", "100624.389000", "100625.888000", "100627.888000", "100630.388000", "100632.389000", "100633.889000", "100636.389000", "100638.390000", "100640.390000", "100642.389000", "100644.389000", "100646.389000", "100648.388000", "100650.388000", "100651.888000", "100653.888000", "100656.389000", "100657.890000", "100700.389000", "100701.888000", "100704.389000", "100706.388000", "100707.888000", "100710.389000", "100712.389000", "100714.389000", "100715.906000", "100718.389000", "100720.388000", "100721.889000", "100723.888000", "100726.389000", "100728.389000", "100730.389000", "100731.890000", "100734.389000", "100735.889000", "100737.889000", "100739.888000", "100742.389000", "100744.389000", "100746.389000", "100748.390000", "100750.390000", "100751.888000", "100753.888000", "100756.389000", "100758.389000", "100800.389000", "100802.388000", "100804.389000", "100806.390000", "100808.389000", "100810.389000", "100812.388000", "100814.388000", "100815.889000", "100818.388000", "100820.388000", "100822.388000", "100824.390000", "100825.890000"],
      "InstanceNumber": [1, 2, 3, 4, 5, 6, 7, 8, 9, 10, 11, 12, 13, 14, 15, 16, 17, 18, 19, 20, 21, 22, 23, 24, 25, 26, 27, 28, 29, 30, 31, 32, 33, 34, 35, 36, 37, 38, 39, 40, 41, 42, 43, 44, 45, 46, 47, 48, 49, 50, 51, 52, 53, 54, 55, 56, 57, 58, 59, 60, 61, 62, 63, 64, 65, 66, 67, 68, 69, 70, 71, 72, 73, 74, 75, 76, 77, 78, 79, 80, 81, 82, 83, 84, 85, 86, 87, 88, 89, 90, 91, 92, 93, 94, 95, 96, 97, 98, 99, 100, 101, 102, 103, 104, 105, 106, 107, 108, 109, 110, 111, 112, 113, 114, 115, 116, 117, 118, 119, 120, 121, 122, 123, 124, 125, 126, 127, 128, 129, 130, 131, 132, 133, 134, 135, 136, 137, 138, 139, 140, 141, 142, 143, 144, 145, 146, 147, 148, 149, 150, 151, 152, 153, 154, 155, 156, 157, 158, 159, 160, 161, 162, 163, 164, 165, 166, 167, 168, 169, 170, 171, 172, 173, 174, 175, 176, 177, 178, 179, 180, 181, 182, 183, 184, 185, 186, 187, 188, 189, 190, 191, 192, 193, 194, 195, 196, 197, 198, 199, 200, 201, 202, 203, 204, 205, 206, 207, 208, 209, 210, 211, 212, 213, 214, 215, 216, 217, 218, 219, 220, 221, 222, 223, 224, 225, 226, 227, 228, 229, 230, 231, 232, 233, 234, 235, 236, 237, 238, 239, 240, 241, 242, 243, 244, 245, 246, 247, 248, 249, 250, 251, 252, 253, 254, 255, 256],
      "LargestImagePixelValue": [3407, 3419, 3403, 3427, 3382, 3429, 3409, 3481, 3459, 3450, 3428, 3374, 3339, 3369, 3373, 3399, 3431, 3379, 3430, 3383, 3450, 3381, 3420, 3383, 3442, 3380, 3474, 3405, 3512, 3487, 3440, 3414, 3455, 3425, 3401, 3424, 3433, 3428, 3424, 3422, 3436, 3469, 3484, 3477, 3383, 3422, 3496, 3432, 3469, 3415, 3536, 3422, 3444, 3370, 3472, 3464, 3460, 3427, 3645, 3365, 3352, 3401, 3415, 3440, 3353, 3370, 3357, 3413, 3423, 3379, 3448, 3408, 3415, 3408, 3463, 3448, 3396, 3431, 3394, 3479, 3424, 3388, 3447, 3365, 3448, 3366, 3427, 3394, 3457, 3417, 3440, 3450, 3434, 3448, 3388, 3476, 3438, 3412, 3415, 3436, 3392, 3440, 3393, 3440, 3455, 3373, 3419, 3405, 3442, 3375, 3401, 3352, 3391, 3337, 3392, 3355, 3383, 3344, 3382, 3354, 3398, 3348, 3416, 3371, 3454, 3384, 3414, 3360, 3388, 3365, 3424, 3379, 3435, 3378, 3402, 3382, 3415, 3332, 3427, 3345, 3415, 3369, 3404, 3336, 3395, 3356, 3400, 3399, 3403, 3362, 3412, 3350, 3448, 3371, 3415, 3347, 3346, 3347, 3371, 3353, 3314, 3369, 3388, 3367, 3417, 3384, 3339, 3359, 3369, 3360, 3380, 3341, 3403, 3376, 3370, 3340, 3364, 3363, 3369, 3330, 3369, 3368, 3430, 3416, 3376, 3394, 3337, 3391, 3382, 3356, 3401, 3330, 3381, 3327, 3393, 3324, 3382, 3353, 3380, 3324, 3378, 3356, 3395, 3365, 3406, 3372, 3377, 3354, 3360, 3289, 3347, 3331, 3376, 3371, 3385, 3369, 3417, 3357, 3335, 3293, 3345, 3298, 3367, 3368, 3372, 3343, 3370, 3327, 3371, 3351, 3425, 3397, 3465, 3413, 3397, 3347, 3356, 3346, 3388, 3511, 3351, 3347, 3344, 3397, 3319, 3342, 3403, 3336, 3379, 3398, 3397, 3389, 3361, 3351, 3323, 3384],
      "WindowCenter": [820.0, 819.0, 818.0, 817.0, 817.0, 817.0, 818.0, 818.0, 816.0, 816.0, 819.0, 819.0, 818.0, 817.0, 817.0, 817.0, 817.0, 816.0, 816.0, 815.0, 814.0, 816.0, 816.0, 817.0, 817.0, 818.0, 818.0, 818.0, 818.0, 817.0, 819.0, 820.0, 820.0, 817.0, 817.0, 817.0, 817.0, 816.0, 816.0, 816.0, 815.0, 815.0, 816.0, 816.0, 816.0, 817.0, 820.0, 819.0, 818.0, 814.0, 816.0, 815.0, 814.0, 814.0, 815.0, 815.0, 813.0, 811.0, 813.0, 808.0, 807.0, 809.0, 812.0, 814.0, 817.0, 818.0, 818.0, 819.0, 819.0, 820.0, 821.0, 821.0, 821.0, 820.0, 821.0, 820.0, 820.0, 821.0, 823.0, 822.0, 820.0, 819.0, 819.0, 818.0, 819.0, 818.0, 817.0, 816.0, 815.0, 815.0, 816.0, 816.0, 816.0, 816.0, 816.0, 818.0, 818.0, 817.0, 817.0, 817.0, 817.0, 817.0, 817.0, 817.0, 817.0, 816.0, 816.0, 817.0, 819.0, 818.0, 818.0, 818.0, 818.0, 816.0, 816.0, 816.0, 816.0, 816.0, 817.0, 816.0, 817.0, 818.0, 818.0, 818.0, 818.0, 817.0, 817.0, 818.0, 819.0, 818.0, 818.0, 817.0, 817.0, 817.0, 817.0, 817.0, 816.0, 815.0, 817.0, 818.0, 819.0, 818.0, 818.0, 817.0, 816.0, 815.0, 815.0, 816.0, 816.0, 817.0, 818.0, 818.0, 818.0, 815.0, 814.0, 815.0, 817.0, 818.0, 816.0, 815.0, 814.0, 815.0, 815.0, 815.0, 815.0, 814.0, 814.0, 815.0, 817.0, 817.0, 816.0, 814.0, 815.0, 816.0, 818.0, 818.0, 816.0, 814.0, 814.0, 814.0, 816.0, 816.0, 817.0, 816.0, 815.0, 817.0, 816.0, 816.0, 815.0, 814.0, 816.0, 817.0, 816.0, 815.0, 815.0, 814.0, 815.0, 815.0, 816.0, 816.0, 818.0, 819.0, 818.0, 815.0, 816.0, 817.0, 818.0, 816.0, 814.0, 814.0, 814.0, 816.0, 815.0, 814.0, 814.0, 815.0, 816.0, 817.0, 818.0, 816.0, 815.0, 814.0, 814.0, 816.0, 817.0, 817.0, 816.0, 815.0, 814.0, 814.0, 815.0, 815.0, 817.0, 819.0, 818.0, 817.0, 817.0, 816.0, 816.0, 819.0, 820.0, 818.0, 817.0, 816.0, 814.0, 815.0, 815.0, 815.0, 815.0, 813.0, 812.0, 811.0, 812.0, 812.0, 811.0, 810.0],
      "WindowWidth": [1756.0, 1753.0, 1749.0, 1747.0, 1746.0, 1747.0, 1749.0, 1750.0, 1746.0, 1746.0, 1752.0, 1753.0, 1751.0, 1746.0, 1746.0, 1746.0, 1748.0, 1745.0, 1745.0, 1742.0, 1741.0, 1743.0, 1745.0, 1746.0, 1747.0, 1749.0, 1749.0, 1749.0, 1751.0, 1749.0, 1752.0, 1755.0, 1756.0, 1748.0, 1748.0, 1748.0, 1747.0, 1745.0, 1745.0, 1744.0, 1742.0, 1743.0, 1745.0, 1744.0, 1744.0, 1747.0, 1756.0, 1752.0, 1749.0, 1740.0, 1743.0, 1741.0, 1739.0, 1738.0, 1741.0, 1741.0, 1735.0, 1732.0, 1734.0, 1721.0, 1720.0, 1726.0, 1733.0, 1740.0, 1746.0, 1749.0, 1749.0, 1751.0, 1753.0, 1755.0, 1758.0, 1758.0, 1757.0, 1755.0, 1757.0, 1756.0, 1755.0, 1758.0, 1762.0, 1761.0, 1754.0, 1752.0, 1751.0, 1749.0, 1752.0, 1749.0, 1746.0, 1743.0, 1742.0, 1742.0, 1743.0, 1745.0, 1743.0, 1744.0, 1745.0, 1749.0, 1751.0, 1748.0, 1748.0, 1746.0, 1747.0, 1747.0, 1746.0, 1747.0, 1747.0, 1744.0, 1746.0, 1748.0, 1752.0, 1750.0, 1749.0, 1750.0, 1749.0, 1746.0, 1745.0, 1744.0, 1746.0, 1745.0, 1748.0, 1746.0, 1747.0, 1748.0, 1751.0, 1750.0, 1749.0, 1748.0, 1747.0, 1749.0, 1751.0, 1750.0, 1749.0, 1748.0, 1747.0, 1747.0, 1748.0, 1746.0, 1746.0, 1743.0, 1748.0, 1750.0, 1752.0, 1749.0, 1749.0, 1747.0, 1744.0, 1742.0, 1742.0, 1743.0, 1745.0, 1747.0, 1750.0, 1750.0, 1749.0, 1741.0, 1740.0, 1742.0, 1747.0, 1748.0, 1745.0, 1741.0, 1739.0, 1741.0, 1742.0, 1741.0, 1741.0, 1737.0, 1738.0, 1742.0, 1746.0, 1746.0, 1743.0, 1739.0, 1742.0, 1745.0, 1751.0, 1749.0, 1744.0, 1738.0, 1738.0, 1740.0, 1744.0, 1745.0, 1747.0, 1744.0, 1742.0, 1745.0, 1743.0, 1744.0, 1742.0, 1739.0, 1745.0, 1746.0, 1745.0, 1740.0, 1741.0, 1738.0, 1740.0, 1740.0, 1743.0, 1744.0, 1748.0, 1751.0, 1750.0, 1742.0, 1745.0, 1748.0, 1749.0, 1744.0, 1739.0, 1737.0, 1740.0, 1742.0, 1740.0, 1739.0, 1739.0, 1741.0, 1744.0, 1745.0, 1748.0, 1744.0, 1740.0, 1738.0, 1739.0, 1743.0, 1747.0, 1745.0, 1744.0, 1739.0, 1738.0, 1739.0, 1741.0, 1741.0, 1747.0, 1751.0, 1750.0, 1746.0, 1746.0, 1743.0, 1744.0, 1752.0, 1754.0, 1750.0, 1745.0, 1743.0, 1739.0, 1740.0, 1741.0, 1741.0, 1739.0, 1735.0, 1733.0, 1731.0, 1732.0, 1732.0, 1730.0, 1729.0]
    },
    "slices": {}
  }
}