{
  "AcquisitionMatrixPE": 100,
  "AcquisitionNumber": 1,
  "AcquisitionTime": "09:08:2.987500",
  "BandwidthPerPixelPhaseEncode": 18.519,
  "BaseResolution": 100,
  "BodyPartExamined": "BRAIN",
  "ConsistencyInfo": "N4_VE11C_LATEST_20160120",
  "ConversionSoftware": "dcm2niix",
  "ConversionSoftwareVersion": "v1.0.20180622 GCC4.9.2",
  "DerivedVendorReportedEchoSpacing": 0.000539986,
  "DeviceSerialNumber": "166078",
  "DwellTime": 2.1e-06,
  "EchoTime": 0.034,
  "EchoTrainLength": 100,
  "EffectiveEchoSpacing": 0.000539986,
  "FlipAngle": 90,
  "ImageOrientationPatientDICOM": [1, 0, 0, 0, 0.973179, -0.23005],
  "ImageType": [
    "ORIGINAL",
    "PRIMARY",
    "M",
    "ND",
    "MOSAIC"
],
  "InPlanePhaseEncodingDirectionDICOM": "COL",
  "InstitutionAddress": "Street_StreetNo_Bei_Jing_District_CN_ZIP",
  "InstitutionName": "BeiJing_Normal_University",
  "InstitutionalDepartmentName": "Department",
  "MRAcquisitionType": "2D",
  "MagneticFieldStrength": 3,
  "Manufacturer": "Siemens",
  "ManufacturersModelName": "Prisma",
  "Modality": "MR",
  "MultibandAccelerationFactor": 3,
  "PartialFourier": 1,
  "PatientPosition": "HFS",
  "PercentPhaseFOV": 100,
  "PhaseEncodingDirection": "j-",
  "PhaseEncodingSteps": 100,
  "PhaseResolution": 1,
  "PixelBandwidth": 2380,
  "ProcedureStepDescription": "BNU_P2018_64CH_Zhen.ZongLei",
  "ProtocolName": "bold_100x100_s3_2x2x2_static_256",
  "PulseSequenceDetails": "%SiemensSeq%_ep2d_bold",
  "ReceiveCoilActiveElements": "HC1-7;NC1",
  "ReceiveCoilName": "HeadNeck_64",
  "ReconMatrixPE": 100,
  "RepetitionTime": 2,
  "SAR": 0.0663103,
  "ScanOptions": "FS",
  "ScanningSequence": "EP",
  "SequenceName": "_epfid2d1_100",
  "SequenceVariant": "SK",
  "SeriesDescription": "bold_100x100_s3_2x2x2_static_256",
  "SeriesNumber": 3,
  "ShimSetting": [-5447, -11477, -1275, 328, 42, -124, -173, 51],
  "SliceThickness": 2,
  "SliceTiming": [1.485, 0, 0.99, 0.0825, 1.0725, 0.165, 1.155, 0.2475, 1.2375, 0.33, 1.32, 0.4125, 1.4025, 0.5775, 1.5675, 0.66, 1.65, 0.7425, 1.7325, 0.825, 1.815, 0.9075, 1.8975, 0.495, 1.485, 0, 0.99, 0.0825, 1.0725, 0.165, 1.155, 0.2475, 1.2375, 0.33, 1.32, 0.4125, 1.4025, 0.5775, 1.5675, 0.66, 1.65, 0.7425, 1.7325, 0.825, 1.815, 0.9075, 1.8975, 0.495, 1.485, 0, 0.99, 0.0825, 1.0725, 0.165, 1.155, 0.2475, 1.2375, 0.33, 1.32, 0.4125, 1.4025, 0.5775, 1.5675, 0.66, 1.65, 0.7425, 1.7325, 0.825, 1.815, 0.9075, 1.8975, 0.495],
  "SoftwareVersions": "syngo_MR_E11",
  "SpacingBetweenSlices": 2,
  "StationName": "AWP166078",
  "TaskName": "naturalvision",
  "TotalReadoutTime": 0.0534586,
  "TxRefAmp": 221.315,
  "dcmmeta_affine": [
    [-2.0, 0.0, 0.0, 102.69879150390625],
    [0.0, 1.9463577270507812, -0.4600994884967804, -80.37294006347656],
    [0.0, 0.4600994884967804, 1.9463577270507812, -85.62611389160156],
    [0.0, 0.0, 0.0, 1.0]
],
  "dcmmeta_reorient_transform": [
    [0.0, -1.0, 0.0, 99.0],
    [1.0, 0.0, 0.0, 0.0],
    [0.0, 0.0, 1.0, 0.0],
    [0.0, 0.0, 0.0, 1.0]
],
  "dcmmeta_shape": [100, 100, 72, 256],
  "dcmmeta_slice_dim": 2,
  "dcmmeta_version": 0.6,
  "global": {
    "const": {
      "AcquisitionMatrix": [100, 0, 0, 100],
      "AngioFlag": "N",
      "BitsAllocated": 16,
      "BitsStored": 12,
      "BodyPartExamined": "BRAIN",
      "Columns": 900,
      "EchoNumbers": 1,
      "EchoTime": 34.0,
      "EchoTrainLength": 100,
      "FlipAngle": 90.0,
      "HighBit": 11,
      "ImageOrientationPatient": [1.0, 0.0, 0.0, 0.0, 0.973178872716, -0.2300497374466],
      "ImagePositionPatient": [-902.69879508018, -890.85957686743, 143.96352209423],
      "ImageType": [
        "ORIGINAL",
        "PRIMARY",
        "M",
        "ND",
        "MOSAIC"
],
      "ImagedNucleus": "1H",
      "ImagingFrequency": 123.257707,
      "InPlanePhaseEncodingDirection": "COL",
      "MRAcquisitionType": "2D",
      "MagneticFieldStrength": 3.0,
      "Manufacturer": "SIEMENS",
      "ManufacturerModelName": "Prisma",
      "Modality": "MR",
      "NumberOfAverages": 1.0,
      "NumberOfPhaseEncodingSteps": 100,
      "PercentPhaseFieldOfView": 100.0,
      "PercentSampling": 100.0,
      "PerformedProcedureStepStartTime": "085258.449000",
      "PhotometricInterpretation": "MONOCHROME2",
      "PixelBandwidth": 2380.0,
      "PixelRepresentation": 0,
      "PixelSpacing": [2.0, 2.0],
      "ProtocolName": "bold_100x100_s3_2x2x2_static_256",
      "RepetitionTime": 2000.0,
      "Rows": 900,
      "SAR": 0.06631033914613,
      "SamplesPerPixel": 1,
      "ScanOptions": "FS",
      "ScanningSequence": "EP",
      "SequenceName": "*epfid2d1_100",
      "SequenceVariant": "SK",
      "SeriesDescription": "bold_100x100_s3_2x2x2_static_256",
      "SeriesNumber": 3,
      "SeriesTime": "090805.870000",
      "SliceLocation": -64.839753616211,
      "SliceThickness": 2.0,
      "SmallestImagePixelValue": 0,
      "SoftwareVersions": "syngo MR E11",
      "SpacingBetweenSlices": 2.0000000314449,
      "SpecificCharacterSet": "ISO_IR 100",
      "StudyID": "1",
      "StudyTime": "085258.378000",
      "TransmitCoilName": "Body",
      "VariableFlipAngleFlag": "N",
      "WindowCenterWidthExplanation": "Algo1",
      "dBdt": 0.0},
    "slices": {}
  },
  "time": {
    "samples": {
      "AcquisitionNumber": [1, 2, 3, 4, 5, 6, 7, 8, 9, 10, 11, 12, 13, 14, 15, 16, 17, 18, 19, 20, 21, 22, 23, 24, 25, 26, 27, 28, 29, 30, 31, 32, 33, 34, 35, 36, 37, 38, 39, 40, 41, 42, 43, 44, 45, 46, 47, 48, 49, 50, 51, 52, 53, 54, 55, 56, 57, 58, 59, 60, 61, 62, 63, 64, 65, 66, 67, 68, 69, 70, 71, 72, 73, 74, 75, 76, 77, 78, 79, 80, 81, 82, 83, 84, 85, 86, 87, 88, 89, 90, 91, 92, 93, 94, 95, 96, 97, 98, 99, 100, 101, 102, 103, 104, 105, 106, 107, 108, 109, 110, 111, 112, 113, 114, 115, 116, 117, 118, 119, 120, 121, 122, 123, 124, 125, 126, 127, 128, 129, 130, 131, 132, 133, 134, 135, 136, 137, 138, 139, 140, 141, 142, 143, 144, 145, 146, 147, 148, 149, 150, 151, 152, 153, 154, 155, 156, 157, 158, 159, 160, 161, 162, 163, 164, 165, 166, 167, 168, 169, 170, 171, 172, 173, 174, 175, 176, 177, 178, 179, 180, 181, 182, 183, 184, 185, 186, 187, 188, 189, 190, 191, 192, 193, 194, 195, 196, 197, 198, 199, 200, 201, 202, 203, 204, 205, 206, 207, 208, 209, 210, 211, 212, 213, 214, 215, 216, 217, 218, 219, 220, 221, 222, 223, 224, 225, 226, 227, 228, 229, 230, 231, 232, 233, 234, 235, 236, 237, 238, 239, 240, 241, 242, 243, 244, 245, 246, 247, 248, 249, 250, 251, 252, 253, 254, 255, 256],
      "AcquisitionTime": ["090802.987500", "090804.987500", "090806.987500", "090808.987500", "090810.987500", "090812.987500", "090814.987500", "090816.987500", "090818.987500", "090820.987500", "090822.987500", "090824.987500", "090826.987500", "090828.987500", "090830.987500", "090832.987500", "090834.987500", "090836.987500", "090838.987500", "090840.987500", "090842.987500", "090844.987500", "090846.987500", "090848.987500", "090850.987500", "090852.987500", "090854.987500", "090856.987500", "090858.987500", "090900.987500", "090902.987500", "090904.987500", "090906.987500", "090908.987500", "090910.987500", "090912.987500", "090914.987500", "090916.987500", "090918.987500", "090920.987500", "090922.987500", "090924.987500", "090926.987500", "090928.987500", "090930.987500", "090932.987500", "090934.987500", "090936.987500", "090938.987500", "090940.987500", "090942.987500", "090944.987500", "090946.987500", "090948.987500", "090950.987500", "090952.987500", "090954.987500", "090956.987500", "090958.987500", "091000.987500", "091002.987500", "091004.987500", "091006.987500", "091008.987500", "091010.987500", "091012.987500", "091014.987500", "091016.987500", "091018.987500", "091020.987500", "091022.987500", "091024.987500", "091026.987500", "091028.987500", "091030.987500", "091032.987500", "091034.987500", "091036.987500", "091038.987500", "091040.987500", "091042.987500", "091044.987500", "091046.987500", "091048.987500", "091050.987500", "091052.987500", "091054.987500", "091056.987500", "091058.987500", "091100.987500", "091102.987500", "091104.987500", "091106.987500", "091108.987500", "091110.987500", "091112.987500", "091114.987500", "091116.987500", "091118.987500", "091120.987500", "091122.987500", "091124.987500", "091126.987500", "091128.987500", "091130.987500", "091132.987500", "091134.987500", "091136.987500", "091138.987500", "091140.987500", "091142.987500", "091144.987500", "091146.987500", "091148.987500", "091150.987500", "091152.987500", "091154.987500", "091156.987500", "091158.987500", "091200.987500", "091202.987500", "091204.987500", "091206.987500", "091208.987500", "091210.987500", "091212.987500", "091214.987500", "091216.987500", "091218.987500", "091220.987500", "091222.987500", "091224.987500", "091226.987500", "091228.987500", "091230.987500", "091232.987500", "091234.987500", "091236.987500", "091238.987500", "091240.987500", "091242.987500", "091244.987500", "091246.987500", "091248.987500", "091250.987500", "091252.987500", "091254.987500", "091256.987500", "091258.987500", "091300.987500", "091302.987500", "091304.987500", "091306.987500", "091308.987500", "091310.987500", "091312.987500", "091314.987500", "091316.987500", "091318.987500", "091320.987500", "091322.987500", "091324.987500", "091326.987500", "091328.987500", "091330.987500", "091332.987500", "091334.987500", "091336.987500", "091338.987500", "091340.987500", "091342.987500", "091344.987500", "091346.987500", "091348.987500", "091350.987500", "091352.987500", "091354.987500", "091356.987500", "091358.987500", "091400.987500", "091402.987500", "091404.987500", "091406.987500", "091408.987500", "091410.987500", "091412.987500", "091414.987500", "091416.987500", "091418.987500", "091420.987500", "091422.987500", "091424.987500", "091426.987500", "091428.987500", "091430.987500", "091432.987500", "091434.987500", "091436.987500", "091438.987500", "091440.987500", "091442.987500", "091444.987500", "091446.987500", "091448.987500", "091450.987500", "091452.987500", "091454.987500", "091456.987500", "091458.987500", "091500.987500", "091502.987500", "091504.987500", "091506.987500", "091508.987500", "091510.987500", "091512.987500", "091514.987500", "091516.987500", "091518.987500", "091520.987500", "091522.987500", "091524.987500", "091526.987500", "091528.987500", "091530.987500", "091532.987500", "091534.987500", "091536.987500", "091538.987500", "091540.987500", "091542.987500", "091544.987500", "091546.987500", "091548.987500", "091550.987500", "091552.987500", "091554.987500", "091556.987500", "091558.987500", "091600.987500", "091602.987500", "091604.987500", "091606.987500", "091608.987500", "091610.987500", "091612.987500", "091614.987500", "091616.987500", "091618.987500", "091620.987500", "091622.987500", "091624.987500", "091626.987500", "091628.987500", "091630.987500", "091632.987500"],
      "ContentTime": ["090805.873000", "090807.369000", "090809.368000", "090810.869000", "090812.868000", "090814.867000", "090816.868000", "090818.867000", "090820.867000", "090822.868000", "090825.369000", "090826.868000", "090828.868000", "090830.868000", "090832.867000", "090835.367000", "090837.368000", "090838.868000", "090840.868000", "090842.868000", "090844.868000", "090846.868000", "090848.868000", "090850.867000", "090853.367000", "090854.867000", "090856.868000", "090858.868000", "090900.868000", "090902.868000", "090904.868000", "090906.867000", "090908.867000", "090910.867000", "090912.867000", "090915.368000", "090916.869000", "090918.868000", "090921.369000", "090922.868000", "090924.868000", "090926.867000", "090928.867000", "090930.867000", "090932.869000", "090935.369000", "090936.868000", "090938.869000", "090940.868000", "090942.867000", "090944.867000", "090947.367000", "090948.868000", "090950.869000", "090953.369000", "090954.868000", "090957.368000", "090958.868000", "091000.867000", "091002.867000", "091004.867000", "091006.869000", "091008.869000", "091011.368000", "091012.869000", "091014.869000", "091017.368000", "091018.867000", "091021.367000", "091022.867000", "091024.869000", "091027.369000", "091028.869000", "091030.869000", "091032.869000", "091034.868000", "091036.867000", "091038.868000", "091040.868000", "091042.868000", "091044.869000", "091046.868000", "091048.869000", "091050.869000", "091052.868000", "091054.867000", "091056.867000", "091059.369000", "091101.369000", "091102.868000", "091105.368000", "091106.868000", "091108.867000", "091110.868000", "091112.868000", "091114.868000", "091116.868000", "091118.869000", "091120.869000", "091122.869000", "091124.869000", "091126.867000", "091129.367000", "091130.867000", "091132.867000", "091134.868000", "091136.868000", "091138.868000", "091140.868000", "091142.868000", "091144.867000", "091146.868000", "091149.368000", "091150.868000", "091152.869000", "091154.868000", "091156.868000", "091158.869000", "091200.868000", "091202.867000", "091204.868000", "091206.868000", "091208.869000", "091210.868000", "091213.369000", "091215.369000", "091216.868000", "091219.368000", "091220.867000", "091223.368000", "091224.887000", "091226.869000", "091228.868000", "091230.869000", "091232.868000", "091234.868000", "091237.367000", "091239.367000", "091240.867000", "091242.868000", "091245.368000", "091247.368000", "091248.868000", "091250.868000", "091252.868000", "091255.368000", "091256.868000", "091258.867000", "091301.369000", "091302.869000", "091304.869000", "091306.869000", "091308.869000", "091311.368000", "091312.868000", "091315.368000", "091316.868000", "091318.869000", "091320.869000", "091322.869000", "091325.369000", "091327.368000", "091328.868000", "091331.367000", "091332.867000", "091334.868000", "091336.868000", "091338.868000", "091340.868000", "091342.868000", "091344.868000", "091347.367000", "091348.867000", "091350.868000", "091352.867000", "091354.869000", "091356.869000", "091358.869000", "091400.868000", "091402.868000", "091404.868000", "091406.867000", "091408.868000", "091410.868000", "091413.369000", "091414.869000", "091416.869000", "091418.868000", "091420.868000", "091422.867000", "091425.368000", "091427.368000", "091428.868000", "091430.869000", "091432.868000", "091434.868000", "091436.869000", "091438.867000", "091440.868000", "091442.867000", "091444.868000", "091447.369000", "091449.369000", "091450.868000", "091453.368000", "091454.868000", "091456.868000", "091458.868000", "091500.867000", "091502.868000", "091504.869000", "091506.868000", "091508.869000", "091510.869000", "091512.869000", "091514.868000", "091516.867000", "091518.867000", "091520.868000", "091522.868000", "091524.868000", "091527.369000", "091528.868000", "091531.368000", "091532.868000", "091534.867000", "091536.867000", "091538.868000", "091541.368000", "091542.869000", "091545.369000", "091546.882000", "091548.868000", "091550.867000", "091552.868000", "091554.868000", "091556.869000", "091558.869000", "091600.868000", "091602.868000", "091605.369000", "091606.868000", "091608.867000", "091611.368000", "091612.868000", "091614.868000", "091616.868000", "091619.369000", "091621.368000", "091622.869000", "091625.367000", "091627.367000", "091628.868000", "091631.369000", "091632.869000", "091634.838000"],
      "InstanceCreationTime": ["090805.873000", "090807.369000", "090809.368000", "090810.869000", "090812.868000", "090814.867000", "090816.868000", "090818.867000", "090820.867000", "090822.868000", "090825.369000", "090826.868000", "090828.868000", "090830.868000", "090832.867000", "090835.367000", "090837.368000", "090838.868000", "090840.868000", "090842.868000", "090844.868000", "090846.868000", "090848.868000", "090850.867000", "090853.367000", "090854.867000", "090856.868000", "090858.868000", "090900.868000", "090902.868000", "090904.868000", "090906.867000", "090908.867000", "090910.867000", "090912.867000", "090915.368000", "090916.869000", "090918.868000", "090921.369000", "090922.868000", "090924.868000", "090926.867000", "090928.867000", "090930.867000", "090932.869000", "090935.369000", "090936.868000", "090938.869000", "090940.868000", "090942.867000", "090944.867000", "090947.367000", "090948.868000", "090950.869000", "090953.369000", "090954.868000", "090957.368000", "090958.868000", "091000.867000", "091002.867000", "091004.867000", "091006.869000", "091008.869000", "091011.368000", "091012.869000", "091014.869000", "091017.368000", "091018.867000", "091021.367000", "091022.867000", "091024.869000", "091027.369000", "091028.869000", "091030.869000", "091032.869000", "091034.868000", "091036.867000", "091038.868000", "091040.868000", "091042.868000", "091044.869000", "091046.868000", "091048.869000", "091050.869000", "091052.868000", "091054.867000", "091056.867000", "091059.369000", "091101.369000", "091102.868000", "091105.368000", "091106.868000", "091108.867000", "091110.868000", "091112.868000", "091114.868000", "091116.868000", "091118.869000", "091120.869000", "091122.869000", "091124.869000", "091126.867000", "091129.367000", "091130.867000", "091132.867000", "091134.868000", "091136.868000", "091138.868000", "091140.868000", "091142.868000", "091144.867000", "091146.868000", "091149.368000", "091150.868000", "091152.869000", "091154.868000", "091156.868000", "091158.869000", "091200.868000", "091202.867000", "091204.868000", "091206.868000", "091208.869000", "091210.868000", "091213.369000", "091215.369000", "091216.868000", "091219.368000", "091220.867000", "091223.368000", "091224.887000", "091226.869000", "091228.868000", "091230.869000", "091232.868000", "091234.868000", "091237.367000", "091239.367000", "091240.867000", "091242.868000", "091245.368000", "091247.368000", "091248.868000", "091250.868000", "091252.868000", "091255.368000", "091256.868000", "091258.867000", "091301.369000", "091302.869000", "091304.869000", "091306.869000", "091308.869000", "091311.368000", "091312.868000", "091315.368000", "091316.868000", "091318.869000", "091320.869000", "091322.869000", "091325.369000", "091327.368000", "091328.868000", "091331.367000", "091332.867000", "091334.868000", "091336.868000", "091338.868000", "091340.868000", "091342.868000", "091344.868000", "091347.367000", "091348.867000", "091350.868000", "091352.867000", "091354.869000", "091356.869000", "091358.869000", "091400.868000", "091402.868000", "091404.868000", "091406.867000", "091408.868000", "091410.868000", "091413.369000", "091414.869000", "091416.869000", "091418.868000", "091420.868000", "091422.867000", "091425.368000", "091427.368000", "091428.868000", "091430.869000", "091432.868000", "091434.868000", "091436.869000", "091438.867000", "091440.868000", "091442.867000", "091444.868000", "091447.369000", "091449.369000", "091450.868000", "091453.368000", "091454.868000", "091456.868000", "091458.868000", "091500.867000", "091502.868000", "091504.869000", "091506.868000", "091508.869000", "091510.869000", "091512.869000", "091514.868000", "091516.867000", "091518.867000", "091520.868000", "091522.868000", "091524.868000", "091527.369000", "091528.868000", "091531.368000", "091532.868000", "091534.867000", "091536.867000", "091538.868000", "091541.368000", "091542.869000", "091545.369000", "091546.882000", "091548.868000", "091550.867000", "091552.868000", "091554.868000", "091556.869000", "091558.869000", "091600.868000", "091602.868000", "091605.369000", "091606.868000", "091608.867000", "091611.368000", "091612.868000", "091614.868000", "091616.868000", "091619.369000", "091621.368000", "091622.869000", "091625.367000", "091627.367000", "091628.868000", "091631.369000", "091632.869000", "091634.838000"],
      "InstanceNumber": [1, 2, 3, 4, 5, 6, 7, 8, 9, 10, 11, 12, 13, 14, 15, 16, 17, 18, 19, 20, 21, 22, 23, 24, 25, 26, 27, 28, 29, 30, 31, 32, 33, 34, 35, 36, 37, 38, 39, 40, 41, 42, 43, 44, 45, 46, 47, 48, 49, 50, 51, 52, 53, 54, 55, 56, 57, 58, 59, 60, 61, 62, 63, 64, 65, 66, 67, 68, 69, 70, 71, 72, 73, 74, 75, 76, 77, 78, 79, 80, 81, 82, 83, 84, 85, 86, 87, 88, 89, 90, 91, 92, 93, 94, 95, 96, 97, 98, 99, 100, 101, 102, 103, 104, 105, 106, 107, 108, 109, 110, 111, 112, 113, 114, 115, 116, 117, 118, 119, 120, 121, 122, 123, 124, 125, 126, 127, 128, 129, 130, 131, 132, 133, 134, 135, 136, 137, 138, 139, 140, 141, 142, 143, 144, 145, 146, 147, 148, 149, 150, 151, 152, 153, 154, 155, 156, 157, 158, 159, 160, 161, 162, 163, 164, 165, 166, 167, 168, 169, 170, 171, 172, 173, 174, 175, 176, 177, 178, 179, 180, 181, 182, 183, 184, 185, 186, 187, 188, 189, 190, 191, 192, 193, 194, 195, 196, 197, 198, 199, 200, 201, 202, 203, 204, 205, 206, 207, 208, 209, 210, 211, 212, 213, 214, 215, 216, 217, 218, 219, 220, 221, 222, 223, 224, 225, 226, 227, 228, 229, 230, 231, 232, 233, 234, 235, 236, 237, 238, 239, 240, 241, 242, 243, 244, 245, 246, 247, 248, 249, 250, 251, 252, 253, 254, 255, 256],
      "LargestImagePixelValue": [3334, 3272, 3233, 3272, 3268, 3274, 3262, 3314, 3298, 3340, 3296, 3303, 3301, 3357, 3274, 3261, 3301, 3302, 3299, 3284, 3240, 3244, 3265, 3234, 3287, 3236, 3290, 3260, 3328, 3265, 3314, 3286, 3316, 3289, 3324, 3337, 3325, 3312, 3303, 3248, 3275, 3267, 3275, 3303, 3298, 3289, 3277, 3313, 3287, 3339, 3328, 3327, 3359, 3295, 3283, 3305, 3277, 3284, 3267, 3255, 3286, 3237, 3307, 3289, 3320, 3284, 3284, 3331, 3378, 3282, 3370, 3275, 3351, 3228, 3391, 3247, 3391, 3258, 3333, 3268, 3271, 3262, 3254, 3319, 3261, 3387, 3240, 3340, 3266, 3348, 3213, 3376, 3262, 3389, 3262, 3387, 3288, 3285, 3283, 3308, 3288, 3303, 3260, 3275, 3345, 3307, 3351, 3265, 3331, 3304, 3331, 3335, 3320, 3370, 3339, 3420, 3379, 3413, 3376, 3405, 3374, 3389, 3331, 3371, 3345, 3360, 3329, 3383, 3398, 3361, 3480, 3340, 3426, 3364, 3423, 3346, 3429, 3339, 3447, 3376, 3444, 3393, 3427, 3404, 3352, 3368, 3307, 3438, 3571, 3435, 3361, 3405, 3327, 3394, 3344, 3378, 3317, 3406, 3366, 3418, 3360, 3388, 3366, 3347, 3339, 3350, 3362, 3334, 3398, 3398, 3378, 3384, 3343, 3373, 3391, 3415, 3361, 3443, 3386, 3388, 3369, 3419, 3361, 3394, 3390, 3408, 3320, 3389, 3346, 3374, 3365, 3353, 3358, 3363, 3357, 3347, 3340, 3348, 3387, 3344, 3356, 3313, 3373, 3337, 3346, 3369, 3386, 3353, 3408, 3398, 3381, 3326, 3347, 3350, 3345, 3332, 3327, 3302, 3285, 3308, 3303, 3290, 3298, 3333, 3271, 3254, 3178, 3256, 3286, 3258, 3271, 3570, 4059, 3512, 3441, 3470, 3411, 3408, 3447, 3467, 3459, 3443, 3458, 3488, 3466, 3476, 3476, 3455, 3385, 3413, 3467, 3398, 3454, 3411, 3483, 3371],
      "WindowCenter": [810.0, 811.0, 812.0, 811.0, 810.0, 811.0, 811.0, 811.0, 811.0, 811.0, 811.0, 811.0, 811.0, 811.0, 809.0, 809.0, 811.0, 812.0, 811.0, 810.0, 809.0, 809.0, 809.0, 808.0, 809.0, 809.0, 811.0, 810.0, 810.0, 810.0, 811.0, 811.0, 810.0, 809.0, 809.0, 811.0, 811.0, 810.0, 810.0, 810.0, 811.0, 810.0, 810.0, 810.0, 810.0, 811.0, 810.0, 810.0, 810.0, 811.0, 811.0, 810.0, 810.0, 809.0, 809.0, 809.0, 809.0, 809.0, 808.0, 809.0, 810.0, 810.0, 810.0, 809.0, 809.0, 809.0, 809.0, 809.0, 809.0, 808.0, 809.0, 809.0, 810.0, 809.0, 809.0, 808.0, 809.0, 808.0, 809.0, 809.0, 808.0, 807.0, 808.0, 809.0, 809.0, 810.0, 810.0, 810.0, 810.0, 810.0, 809.0, 810.0, 808.0, 809.0, 809.0, 810.0, 809.0, 810.0, 811.0, 810.0, 809.0, 809.0, 808.0, 808.0, 809.0, 809.0, 809.0, 809.0, 810.0, 810.0, 810.0, 810.0, 809.0, 810.0, 809.0, 809.0, 809.0, 810.0, 809.0, 810.0, 810.0, 810.0, 810.0, 809.0, 810.0, 810.0, 810.0, 811.0, 810.0, 810.0, 811.0, 810.0, 812.0, 812.0, 811.0, 809.0, 810.0, 809.0, 809.0, 810.0, 810.0, 809.0, 810.0, 810.0, 809.0, 808.0, 809.0, 810.0, 811.0, 810.0, 810.0, 810.0, 809.0, 810.0, 811.0, 811.0, 810.0, 811.0, 811.0, 811.0, 811.0, 810.0, 810.0, 811.0, 811.0, 811.0, 810.0, 810.0, 810.0, 810.0, 811.0, 810.0, 811.0, 812.0, 812.0, 811.0, 810.0, 811.0, 811.0, 811.0, 811.0, 811.0, 810.0, 811.0, 812.0, 811.0, 810.0, 809.0, 809.0, 810.0, 811.0, 811.0, 810.0, 810.0, 811.0, 812.0, 812.0, 811.0, 811.0, 810.0, 810.0, 810.0, 810.0, 810.0, 810.0, 811.0, 812.0, 813.0, 813.0, 812.0, 811.0, 810.0, 809.0, 810.0, 811.0, 812.0, 811.0, 810.0, 810.0, 812.0, 813.0, 814.0, 813.0, 812.0, 812.0, 813.0, 812.0, 814.0, 813.0, 812.0, 811.0, 783.0, 814.0, 816.0, 815.0, 816.0, 816.0, 816.0, 817.0, 818.0, 818.0, 818.0, 819.0, 819.0, 820.0, 820.0, 820.0, 819.0, 816.0, 816.0, 817.0, 818.0, 820.0, 818.0, 817.0, 814.0],
      "WindowWidth": [1737.0, 1738.0, 1740.0, 1739.0, 1736.0, 1738.0, 1737.0, 1739.0, 1737.0, 1737.0, 1737.0, 1737.0, 1739.0, 1738.0, 1732.0, 1734.0, 1739.0, 1740.0, 1737.0, 1735.0, 1733.0, 1732.0, 1731.0, 1731.0, 1732.0, 1733.0, 1736.0, 1734.0, 1734.0, 1734.0, 1738.0, 1737.0, 1735.0, 1731.0, 1733.0, 1737.0, 1738.0, 1735.0, 1735.0, 1734.0, 1738.0, 1734.0, 1734.0, 1736.0, 1735.0, 1736.0, 1734.0, 1733.0, 1733.0, 1736.0, 1736.0, 1735.0, 1734.0, 1732.0, 1732.0, 1732.0, 1731.0, 1731.0, 1730.0, 1730.0, 1733.0, 1733.0, 1734.0, 1732.0, 1732.0, 1731.0, 1732.0, 1732.0, 1731.0, 1728.0, 1731.0, 1731.0, 1734.0, 1731.0, 1733.0, 1728.0, 1731.0, 1729.0, 1732.0, 1730.0, 1729.0, 1727.0, 1728.0, 1731.0, 1731.0, 1735.0, 1733.0, 1734.0, 1734.0, 1734.0, 1731.0, 1733.0, 1730.0, 1731.0, 1731.0, 1733.0, 1731.0, 1733.0, 1735.0, 1734.0, 1731.0, 1731.0, 1729.0, 1729.0, 1731.0, 1731.0, 1732.0, 1730.0, 1734.0, 1733.0, 1734.0, 1733.0, 1731.0, 1733.0, 1731.0, 1732.0, 1730.0, 1732.0, 1731.0, 1733.0, 1734.0, 1732.0, 1732.0, 1731.0, 1732.0, 1735.0, 1734.0, 1735.0, 1734.0, 1732.0, 1736.0, 1734.0, 1738.0, 1738.0, 1737.0, 1731.0, 1733.0, 1730.0, 1731.0, 1732.0, 1733.0, 1731.0, 1732.0, 1732.0, 1730.0, 1729.0, 1730.0, 1734.0, 1737.0, 1733.0, 1733.0, 1733.0, 1731.0, 1733.0, 1737.0, 1736.0, 1735.0, 1735.0, 1737.0, 1737.0, 1736.0, 1734.0, 1733.0, 1735.0, 1735.0, 1735.0, 1734.0, 1733.0, 1734.0, 1734.0, 1735.0, 1733.0, 1735.0, 1737.0, 1738.0, 1736.0, 1733.0, 1735.0, 1735.0, 1736.0, 1735.0, 1736.0, 1733.0, 1735.0, 1738.0, 1737.0, 1732.0, 1730.0, 1730.0, 1732.0, 1734.0, 1734.0, 1733.0, 1733.0, 1735.0, 1737.0, 1738.0, 1735.0, 1735.0, 1733.0, 1734.0, 1732.0, 1733.0, 1732.0, 1734.0, 1736.0, 1739.0, 1740.0, 1740.0, 1739.0, 1736.0, 1732.0, 1731.0, 1733.0, 1734.0, 1737.0, 1735.0, 1733.0, 1732.0, 1737.0, 1741.0, 1742.0, 1739.0, 1739.0, 1736.0, 1739.0, 1737.0, 1743.0, 1740.0, 1737.0, 1734.0, 1665.0, 1746.0, 1746.0, 1745.0, 1748.0, 1747.0, 1748.0, 1750.0, 1751.0, 1752.0, 1752.0, 1755.0, 1756.0, 1757.0, 1759.0, 1758.0, 1755.0, 1745.0, 1748.0, 1751.0, 1754.0, 1757.0, 1753.0, 1749.0, 1742.0]
    },
    "slices": {}
  }
}