{
 "AcquisitionMatrixPE": 100,
 "AcquisitionNumber": 1,
 "AcquisitionTime": "10:40:8.337500",
 "BandwidthPerPixelPhaseEncode": 18.519,
 "BaseResolution": 100,
 "BodyPartExamined": "BRAIN",
 "ConsistencyInfo": "N4_VE11C_LATEST_20160120",
 "ConversionSoftware": "dcm2niix",
 "ConversionSoftwareVersion": "v1.0.20180622 GCC4.9.2",
 "DerivedVendorReportedEchoSpacing": 0.000539986,
 "DeviceSerialNumber": "166078",
 "DwellTime": 2.1e-06,
 "EchoTime": 0.034,
 "EchoTrainLength": 100,
 "EffectiveEchoSpacing": 0.000539986,
 "FlipAngle": 90,
 "ImageOrientationPatientDICOM": [
  1,
  0,
  0,
  0,
  0.973179,
  -0.23005
 ],
 "ImageType": [
  "ORIGINAL",
  "PRIMARY",
  "M",
  "ND",
  "MOSAIC"
 ],
 "InPlanePhaseEncodingDirectionDICOM": "COL",
 "InstitutionAddress": "Street_StreetNo_Bei_Jing_District_CN_ZIP",
 "InstitutionName": "BeiJing_Normal_University",
 "InstitutionalDepartmentName": "Department",
 "MRAcquisitionType": "2D",
 "MagneticFieldStrength": 3,
 "Manufacturer": "Siemens",
 "ManufacturersModelName": "Prisma",
 "Modality": "MR",
 "MultibandAccelerationFactor": 3,
 "PartialFourier": 1,
 "PatientPosition": "HFS",
 "PercentPhaseFOV": 100,
 "PhaseEncodingDirection": "j-",
 "PhaseEncodingSteps": 100,
 "PhaseResolution": 1,
 "PixelBandwidth": 2380,
 "ProcedureStepDescription": "BNU_P2018_64CH_Zhen.ZongLei",
 "ProtocolName": "bold_100x100_s3_2x2x2_static_256",
 "PulseSequenceDetails": "%SiemensSeq%_ep2d_bold",
 "ReceiveCoilActiveElements": "HC1-7;NC1",
 "ReceiveCoilName": "HeadNeck_64",
 "ReconMatrixPE": 100,
 "RepetitionTime": 2,
 "SAR": 0.0663103,
 "ScanOptions": "FS",
 "ScanningSequence": "EP",
 "SequenceName": "_epfid2d1_100",
 "SequenceVariant": "SK",
 "SeriesDescription": "bold_100x100_s3_2x2x2_static_256",
 "SeriesNumber": 14,
 "ShimSetting": [
  -5447,
  -11477,
  -1275,
  328,
  42,
  -124,
  -173,
  51
 ],
 "SliceThickness": 2,
 "SliceTiming": [
  1.4825,
  0,
  0.9875,
  0.0825,
  1.07,
  0.165,
  1.1525,
  0.2475,
  1.235,
  0.33,
  1.3175,
  0.4125,
  1.4,
  0.575,
  1.565,
  0.6575,
  1.6475,
  0.74,
  1.73,
  0.8225,
  1.8125,
  0.905,
  1.895,
  0.4925,
  1.4825,
  0,
  0.9875,
  0.0825,
  1.07,
  0.165,
  1.1525,
  0.2475,
  1.235,
  0.33,
  1.3175,
  0.4125,
  1.4,
  0.575,
  1.565,
  0.6575,
  1.6475,
  0.74,
  1.73,
  0.8225,
  1.8125,
  0.905,
  1.895,
  0.4925,
  1.4825,
  0,
  0.9875,
  0.0825,
  1.07,
  0.165,
  1.1525,
  0.2475,
  1.235,
  0.33,
  1.3175,
  0.4125,
  1.4,
  0.575,
  1.565,
  0.6575,
  1.6475,
  0.74,
  1.73,
  0.8225,
  1.8125,
  0.905,
  1.895,
  0.4925
 ],
 "SoftwareVersions": "syngo_MR_E11",
 "SpacingBetweenSlices": 2,
 "StationName": "AWP166078",
 "TaskName": "imagenet",
 "TotalReadoutTime": 0.0534586,
 "TxRefAmp": 221.315,
 "dcmmeta_affine": [
  [
   -2.0,
   0.0,
   0.0,
   102.69879150390625
  ],
  [
   0.0,
   1.9463577270507812,
   -0.4600994884967804,
   -80.37294006347656
  ],
  [
   0.0,
   0.4600994884967804,
   1.9463577270507812,
   -85.62611389160156
  ],
  [
   0.0,
   0.0,
   0.0,
   1.0
  ]
 ],
 "dcmmeta_reorient_transform": [
  [
   0.0,
   -1.0,
   0.0,
   99.0
  ],
  [
   1.0,
   0.0,
   0.0,
   0.0
  ],
  [
   0.0,
   0.0,
   1.0,
   0.0
  ],
  [
   0.0,
   0.0,
   0.0,
   1.0
  ]
 ],
 "dcmmeta_shape": [
  100,
  100,
  72,
  256
 ],
 "dcmmeta_slice_dim": 2,
 "dcmmeta_version": 0.6,
 "global": {
  "const": {
   "AcquisitionMatrix": [
    100,
    0,
    0,
    100
   ],
   "AngioFlag": "N",
   "BitsAllocated": 16,
   "BitsStored": 12,
   "BodyPartExamined": "BRAIN",
   "Columns": 900,
   "EchoNumbers": 1,
   "EchoTime": 34.0,
   "EchoTrainLength": 100,
   "FlipAngle": 90.0,
   "HighBit": 11,
   "ImageOrientationPatient": [
    1.0,
    0.0,
    0.0,
    0.0,
    0.973178872716,
    -0.2300497374466
   ],
   "ImagePositionPatient": [
    -902.69879508018,
    -890.85957686743,
    143.96352209423
   ],
   "ImageType": [
    "ORIGINAL",
    "PRIMARY",
    "M",
    "ND",
    "MOSAIC"
   ],
   "ImagedNucleus": "1H",
   "ImagingFrequency": 123.257746,
   "InPlanePhaseEncodingDirection": "COL",
   "MRAcquisitionType": "2D",
   "MagneticFieldStrength": 3.0,
   "Manufacturer": "SIEMENS",
   "ManufacturerModelName": "Prisma",
   "Modality": "MR",
   "NumberOfAverages": 1.0,
   "NumberOfPhaseEncodingSteps": 100,
   "PercentPhaseFieldOfView": 100.0,
   "PercentSampling": 100.0,
   "PerformedProcedureStepStartTime": "085258.449000",
   "PhotometricInterpretation": "MONOCHROME2",
   "PixelBandwidth": 2380.0,
   "PixelRepresentation": 0,
   "PixelSpacing": [
    2.0,
    2.0
   ],
   "ProtocolName": "bold_100x100_s3_2x2x2_static_256",
   "RepetitionTime": 2000.0,
   "Rows": 900,
   "SAR": 0.06631033914613,
   "SamplesPerPixel": 1,
   "ScanOptions": "FS",
   "ScanningSequence": "EP",
   "SequenceName": "*epfid2d1_100",
   "SequenceVariant": "SK",
   "SeriesDescription": "bold_100x100_s3_2x2x2_static_256",
   "SeriesNumber": 14,
   "SeriesTime": "104010.917000",
   "SliceLocation": -64.839753616211,
   "SliceThickness": 2.0,
   "SmallestImagePixelValue": 0,
   "SoftwareVersions": "syngo MR E11",
   "SpacingBetweenSlices": 2.0000000314449,
   "SpecificCharacterSet": "ISO_IR 100",
   "StudyID": "1",
   "StudyTime": "085258.378000",
   "TransmitCoilName": "Body",
   "VariableFlipAngleFlag": "N",
   "WindowCenterWidthExplanation": "Algo1",
   "dBdt": 0.0
  },
  "slices": {}
 },
 "time": {
  "samples": {
   "AcquisitionNumber": [
    1,
    2,
    3,
    4,
    5,
    6,
    7,
    8,
    9,
    10,
    11,
    12,
    13,
    14,
    15,
    16,
    17,
    18,
    19,
    20,
    21,
    22,
    23,
    24,
    25,
    26,
    27,
    28,
    29,
    30,
    31,
    32,
    33,
    34,
    35,
    36,
    37,
    38,
    39,
    40,
    41,
    42,
    43,
    44,
    45,
    46,
    47,
    48,
    49,
    50,
    51,
    52,
    53,
    54,
    55,
    56,
    57,
    58,
    59,
    60,
    61,
    62,
    63,
    64,
    65,
    66,
    67,
    68,
    69,
    70,
    71,
    72,
    73,
    74,
    75,
    76,
    77,
    78,
    79,
    80,
    81,
    82,
    83,
    84,
    85,
    86,
    87,
    88,
    89,
    90,
    91,
    92,
    93,
    94,
    95,
    96,
    97,
    98,
    99,
    100,
    101,
    102,
    103,
    104,
    105,
    106,
    107,
    108,
    109,
    110,
    111,
    112,
    113,
    114,
    115,
    116,
    117,
    118,
    119,
    120,
    121,
    122,
    123,
    124,
    125,
    126,
    127,
    128,
    129,
    130,
    131,
    132,
    133,
    134,
    135,
    136,
    137,
    138,
    139,
    140,
    141,
    142,
    143,
    144,
    145,
    146,
    147,
    148,
    149,
    150,
    151,
    152,
    153,
    154,
    155,
    156,
    157,
    158,
    159,
    160,
    161,
    162,
    163,
    164,
    165,
    166,
    167,
    168,
    169,
    170,
    171,
    172,
    173,
    174,
    175,
    176,
    177,
    178,
    179,
    180,
    181,
    182,
    183,
    184,
    185,
    186,
    187,
    188,
    189,
    190,
    191,
    192,
    193,
    194,
    195,
    196,
    197,
    198,
    199,
    200,
    201,
    202,
    203,
    204,
    205,
    206,
    207,
    208,
    209,
    210,
    211,
    212,
    213,
    214,
    215,
    216,
    217,
    218,
    219,
    220,
    221,
    222,
    223,
    224,
    225,
    226,
    227,
    228,
    229,
    230,
    231,
    232,
    233,
    234,
    235,
    236,
    237,
    238,
    239,
    240,
    241,
    242,
    243,
    244,
    245,
    246,
    247,
    248,
    249,
    250,
    251,
    252,
    253,
    254,
    255,
    256
   ],
   "AcquisitionTime": [
    "104008.337500",
    "104010.337500",
    "104012.337500",
    "104014.337500",
    "104016.337500",
    "104018.337500",
    "104020.337500",
    "104022.337500",
    "104024.337500",
    "104026.337500",
    "104028.337500",
    "104030.337500",
    "104032.337500",
    "104034.337500",
    "104036.337500",
    "104038.337500",
    "104040.337500",
    "104042.337500",
    "104044.337500",
    "104046.337500",
    "104048.337500",
    "104050.337500",
    "104052.337500",
    "104054.337500",
    "104056.337500",
    "104058.337500",
    "104100.337500",
    "104102.337500",
    "104104.337500",
    "104106.337500",
    "104108.337500",
    "104110.337500",
    "104112.337500",
    "104114.337500",
    "104116.337500",
    "104118.337500",
    "104120.337500",
    "104122.337500",
    "104124.337500",
    "104126.337500",
    "104128.337500",
    "104130.337500",
    "104132.337500",
    "104134.337500",
    "104136.337500",
    "104138.337500",
    "104140.337500",
    "104142.337500",
    "104144.337500",
    "104146.337500",
    "104148.337500",
    "104150.337500",
    "104152.337500",
    "104154.337500",
    "104156.337500",
    "104158.337500",
    "104200.337500",
    "104202.337500",
    "104204.337500",
    "104206.337500",
    "104208.337500",
    "104210.337500",
    "104212.337500",
    "104214.337500",
    "104216.337500",
    "104218.337500",
    "104220.337500",
    "104222.337500",
    "104224.337500",
    "104226.337500",
    "104228.337500",
    "104230.337500",
    "104232.337500",
    "104234.337500",
    "104236.337500",
    "104238.337500",
    "104240.337500",
    "104242.337500",
    "104244.337500",
    "104246.337500",
    "104248.337500",
    "104250.337500",
    "104252.337500",
    "104254.337500",
    "104256.337500",
    "104258.337500",
    "104300.337500",
    "104302.337500",
    "104304.337500",
    "104306.337500",
    "104308.337500",
    "104310.337500",
    "104312.337500",
    "104314.337500",
    "104316.337500",
    "104318.337500",
    "104320.337500",
    "104322.337500",
    "104324.337500",
    "104326.337500",
    "104328.337500",
    "104330.337500",
    "104332.337500",
    "104334.337500",
    "104336.337500",
    "104338.337500",
    "104340.337500",
    "104342.337500",
    "104344.337500",
    "104346.337500",
    "104348.337500",
    "104350.337500",
    "104352.337500",
    "104354.337500",
    "104356.337500",
    "104358.337500",
    "104400.337500",
    "104402.337500",
    "104404.337500",
    "104406.337500",
    "104408.337500",
    "104410.337500",
    "104412.337500",
    "104414.337500",
    "104416.337500",
    "104418.337500",
    "104420.337500",
    "104422.337500",
    "104424.337500",
    "104426.337500",
    "104428.337500",
    "104430.337500",
    "104432.337500",
    "104434.337500",
    "104436.337500",
    "104438.337500",
    "104440.337500",
    "104442.337500",
    "104444.337500",
    "104446.337500",
    "104448.337500",
    "104450.337500",
    "104452.337500",
    "104454.337500",
    "104456.337500",
    "104458.337500",
    "104500.337500",
    "104502.337500",
    "104504.337500",
    "104506.337500",
    "104508.337500",
    "104510.337500",
    "104512.337500",
    "104514.337500",
    "104516.337500",
    "104518.337500",
    "104520.337500",
    "104522.337500",
    "104524.337500",
    "104526.337500",
    "104528.337500",
    "104530.337500",
    "104532.337500",
    "104534.337500",
    "104536.337500",
    "104538.337500",
    "104540.337500",
    "104542.337500",
    "104544.337500",
    "104546.337500",
    "104548.337500",
    "104550.337500",
    "104552.337500",
    "104554.337500",
    "104556.337500",
    "104558.337500",
    "104600.337500",
    "104602.337500",
    "104604.337500",
    "104606.337500",
    "104608.337500",
    "104610.337500",
    "104612.337500",
    "104614.337500",
    "104616.337500",
    "104618.337500",
    "104620.337500",
    "104622.337500",
    "104624.337500",
    "104626.337500",
    "104628.337500",
    "104630.337500",
    "104632.337500",
    "104634.337500",
    "104636.337500",
    "104638.337500",
    "104640.337500",
    "104642.337500",
    "104644.337500",
    "104646.337500",
    "104648.337500",
    "104650.337500",
    "104652.337500",
    "104654.337500",
    "104656.337500",
    "104658.337500",
    "104700.337500",
    "104702.337500",
    "104704.337500",
    "104706.337500",
    "104708.337500",
    "104710.337500",
    "104712.337500",
    "104714.337500",
    "104716.337500",
    "104718.337500",
    "104720.337500",
    "104722.337500",
    "104724.337500",
    "104726.337500",
    "104728.337500",
    "104730.337500",
    "104732.337500",
    "104734.337500",
    "104736.337500",
    "104738.337500",
    "104740.337500",
    "104742.337500",
    "104744.337500",
    "104746.337500",
    "104748.337500",
    "104750.337500",
    "104752.337500",
    "104754.337500",
    "104756.337500",
    "104758.337500",
    "104800.337500",
    "104802.337500",
    "104804.337500",
    "104806.337500",
    "104808.337500",
    "104810.337500",
    "104812.337500",
    "104814.337500",
    "104816.337500",
    "104818.337500",
    "104820.337500",
    "104822.337500",
    "104824.337500",
    "104826.337500",
    "104828.337500",
    "104830.337500",
    "104832.337500",
    "104834.337500",
    "104836.337500",
    "104838.337500"
   ],
   "ContentTime": [
    "104010.921000",
    "104012.416000",
    "104014.416000",
    "104016.416000",
    "104018.417000",
    "104020.416000",
    "104022.416000",
    "104024.415000",
    "104026.416000",
    "104028.417000",
    "104030.416000",
    "104032.416000",
    "104034.417000",
    "104036.417000",
    "104038.416000",
    "104040.416000",
    "104042.416000",
    "104044.416000",
    "104046.417000",
    "104048.416000",
    "104050.416000",
    "104052.416000",
    "104054.417000",
    "104056.417000",
    "104058.417000",
    "104100.416000",
    "104102.417000",
    "104104.417000",
    "104106.417000",
    "104108.416000",
    "104110.416000",
    "104112.417000",
    "104114.417000",
    "104116.417000",
    "104118.416000",
    "104120.416000",
    "104122.416000",
    "104124.417000",
    "104126.417000",
    "104128.416000",
    "104130.417000",
    "104132.417000",
    "104134.415000",
    "104136.417000",
    "104138.417000",
    "104140.417000",
    "104142.417000",
    "104144.416000",
    "104146.416000",
    "104148.416000",
    "104150.417000",
    "104152.415000",
    "104154.417000",
    "104156.417000",
    "104158.417000",
    "104200.416000",
    "104202.416000",
    "104204.416000",
    "104206.416000",
    "104208.416000",
    "104210.415000",
    "104212.416000",
    "104214.417000",
    "104216.416000",
    "104218.417000",
    "104220.416000",
    "104222.416000",
    "104224.417000",
    "104226.417000",
    "104228.415000",
    "104230.417000",
    "104232.417000",
    "104234.417000",
    "104236.417000",
    "104238.417000",
    "104240.416000",
    "104242.417000",
    "104244.416000",
    "104246.416000",
    "104248.417000",
    "104250.416000",
    "104252.417000",
    "104254.416000",
    "104256.416000",
    "104258.416000",
    "104300.417000",
    "104302.415000",
    "104304.416000",
    "104306.417000",
    "104308.417000",
    "104310.417000",
    "104312.416000",
    "104314.416000",
    "104316.416000",
    "104318.416000",
    "104320.416000",
    "104322.416000",
    "104324.417000",
    "104326.417000",
    "104328.417000",
    "104330.417000",
    "104332.417000",
    "104334.417000",
    "104336.416000",
    "104338.416000",
    "104340.416000",
    "104342.416000",
    "104344.416000",
    "104346.417000",
    "104348.417000",
    "104350.416000",
    "104352.417000",
    "104354.415000",
    "104356.416000",
    "104358.417000",
    "104400.417000",
    "104402.417000",
    "104404.417000",
    "104406.417000",
    "104408.417000",
    "104410.416000",
    "104412.416000",
    "104414.417000",
    "104416.417000",
    "104418.417000",
    "104420.416000",
    "104422.417000",
    "104424.417000",
    "104426.416000",
    "104428.416000",
    "104430.416000",
    "104432.417000",
    "104434.427000",
    "104436.417000",
    "104438.417000",
    "104440.417000",
    "104442.416000",
    "104444.417000",
    "104446.416000",
    "104448.416000",
    "104450.417000",
    "104452.417000",
    "104454.417000",
    "104456.417000",
    "104458.416000",
    "104500.416000",
    "104502.417000",
    "104504.415000",
    "104506.417000",
    "104508.417000",
    "104510.417000",
    "104512.417000",
    "104514.417000",
    "104516.417000",
    "104518.417000",
    "104520.417000",
    "104522.416000",
    "104524.417000",
    "104526.416000",
    "104528.417000",
    "104530.417000",
    "104532.416000",
    "104534.417000",
    "104536.416000",
    "104538.417000",
    "104540.416000",
    "104542.416000",
    "104544.417000",
    "104546.416000",
    "104548.416000",
    "104550.416000",
    "104552.416000",
    "104554.417000",
    "104556.417000",
    "104558.416000",
    "104600.416000",
    "104602.416000",
    "104604.417000",
    "104606.416000",
    "104608.417000",
    "104610.417000",
    "104612.417000",
    "104614.416000",
    "104616.417000",
    "104618.417000",
    "104620.417000",
    "104622.417000",
    "104624.417000",
    "104626.417000",
    "104628.417000",
    "104630.417000",
    "104632.415000",
    "104634.417000",
    "104636.417000",
    "104638.417000",
    "104640.417000",
    "104642.417000",
    "104644.417000",
    "104646.417000",
    "104648.417000",
    "104650.416000",
    "104652.417000",
    "104654.416000",
    "104656.416000",
    "104658.417000",
    "104700.416000",
    "104702.417000",
    "104704.417000",
    "104706.417000",
    "104708.417000",
    "104710.917000",
    "104712.417000",
    "104714.416000",
    "104716.417000",
    "104718.417000",
    "104720.416000",
    "104722.416000",
    "104724.416000",
    "104726.417000",
    "104728.417000",
    "104730.416000",
    "104732.417000",
    "104734.417000",
    "104736.417000",
    "104738.417000",
    "104740.417000",
    "104742.416000",
    "104744.416000",
    "104746.417000",
    "104748.416000",
    "104750.416000",
    "104752.417000",
    "104754.417000",
    "104756.417000",
    "104758.417000",
    "104800.416000",
    "104802.417000",
    "104804.417000",
    "104806.416000",
    "104808.416000",
    "104810.416000",
    "104812.417000",
    "104814.417000",
    "104816.416000",
    "104818.417000",
    "104820.417000",
    "104822.417000",
    "104824.416000",
    "104826.417000",
    "104828.417000",
    "104830.417000",
    "104832.417000",
    "104834.416000",
    "104836.417000",
    "104838.417000",
    "104840.261000"
   ],
   "InstanceCreationTime": [
    "104010.921000",
    "104012.416000",
    "104014.416000",
    "104016.416000",
    "104018.417000",
    "104020.416000",
    "104022.416000",
    "104024.415000",
    "104026.416000",
    "104028.417000",
    "104030.416000",
    "104032.416000",
    "104034.417000",
    "104036.417000",
    "104038.416000",
    "104040.416000",
    "104042.416000",
    "104044.416000",
    "104046.417000",
    "104048.416000",
    "104050.416000",
    "104052.416000",
    "104054.417000",
    "104056.417000",
    "104058.417000",
    "104100.416000",
    "104102.417000",
    "104104.417000",
    "104106.417000",
    "104108.416000",
    "104110.416000",
    "104112.417000",
    "104114.417000",
    "104116.417000",
    "104118.416000",
    "104120.416000",
    "104122.416000",
    "104124.417000",
    "104126.417000",
    "104128.416000",
    "104130.417000",
    "104132.417000",
    "104134.415000",
    "104136.417000",
    "104138.417000",
    "104140.417000",
    "104142.417000",
    "104144.416000",
    "104146.416000",
    "104148.416000",
    "104150.417000",
    "104152.415000",
    "104154.417000",
    "104156.417000",
    "104158.417000",
    "104200.416000",
    "104202.416000",
    "104204.416000",
    "104206.416000",
    "104208.416000",
    "104210.415000",
    "104212.416000",
    "104214.417000",
    "104216.416000",
    "104218.417000",
    "104220.416000",
    "104222.416000",
    "104224.417000",
    "104226.417000",
    "104228.415000",
    "104230.417000",
    "104232.417000",
    "104234.417000",
    "104236.417000",
    "104238.417000",
    "104240.416000",
    "104242.417000",
    "104244.416000",
    "104246.416000",
    "104248.417000",
    "104250.416000",
    "104252.417000",
    "104254.416000",
    "104256.416000",
    "104258.416000",
    "104300.417000",
    "104302.415000",
    "104304.416000",
    "104306.417000",
    "104308.417000",
    "104310.417000",
    "104312.416000",
    "104314.416000",
    "104316.416000",
    "104318.416000",
    "104320.416000",
    "104322.416000",
    "104324.417000",
    "104326.417000",
    "104328.417000",
    "104330.417000",
    "104332.417000",
    "104334.417000",
    "104336.416000",
    "104338.416000",
    "104340.416000",
    "104342.416000",
    "104344.416000",
    "104346.417000",
    "104348.417000",
    "104350.416000",
    "104352.417000",
    "104354.415000",
    "104356.416000",
    "104358.417000",
    "104400.417000",
    "104402.417000",
    "104404.417000",
    "104406.417000",
    "104408.417000",
    "104410.416000",
    "104412.416000",
    "104414.417000",
    "104416.417000",
    "104418.417000",
    "104420.416000",
    "104422.417000",
    "104424.417000",
    "104426.416000",
    "104428.416000",
    "104430.416000",
    "104432.417000",
    "104434.427000",
    "104436.417000",
    "104438.417000",
    "104440.417000",
    "104442.416000",
    "104444.417000",
    "104446.416000",
    "104448.416000",
    "104450.417000",
    "104452.417000",
    "104454.417000",
    "104456.417000",
    "104458.416000",
    "104500.416000",
    "104502.417000",
    "104504.415000",
    "104506.417000",
    "104508.417000",
    "104510.417000",
    "104512.417000",
    "104514.417000",
    "104516.417000",
    "104518.417000",
    "104520.417000",
    "104522.416000",
    "104524.417000",
    "104526.416000",
    "104528.417000",
    "104530.417000",
    "104532.416000",
    "104534.417000",
    "104536.416000",
    "104538.417000",
    "104540.416000",
    "104542.416000",
    "104544.417000",
    "104546.416000",
    "104548.416000",
    "104550.416000",
    "104552.416000",
    "104554.417000",
    "104556.417000",
    "104558.416000",
    "104600.416000",
    "104602.416000",
    "104604.417000",
    "104606.416000",
    "104608.417000",
    "104610.417000",
    "104612.417000",
    "104614.416000",
    "104616.417000",
    "104618.417000",
    "104620.417000",
    "104622.417000",
    "104624.417000",
    "104626.417000",
    "104628.417000",
    "104630.417000",
    "104632.415000",
    "104634.417000",
    "104636.417000",
    "104638.417000",
    "104640.417000",
    "104642.417000",
    "104644.417000",
    "104646.417000",
    "104648.417000",
    "104650.416000",
    "104652.417000",
    "104654.416000",
    "104656.416000",
    "104658.417000",
    "104700.416000",
    "104702.417000",
    "104704.417000",
    "104706.417000",
    "104708.417000",
    "104710.917000",
    "104712.417000",
    "104714.416000",
    "104716.417000",
    "104718.417000",
    "104720.416000",
    "104722.416000",
    "104724.416000",
    "104726.417000",
    "104728.417000",
    "104730.416000",
    "104732.417000",
    "104734.417000",
    "104736.417000",
    "104738.417000",
    "104740.417000",
    "104742.416000",
    "104744.416000",
    "104746.417000",
    "104748.416000",
    "104750.416000",
    "104752.417000",
    "104754.417000",
    "104756.417000",
    "104758.417000",
    "104800.416000",
    "104802.417000",
    "104804.417000",
    "104806.416000",
    "104808.416000",
    "104810.416000",
    "104812.417000",
    "104814.417000",
    "104816.416000",
    "104818.417000",
    "104820.417000",
    "104822.417000",
    "104824.416000",
    "104826.417000",
    "104828.417000",
    "104830.417000",
    "104832.417000",
    "104834.416000",
    "104836.417000",
    "104838.417000",
    "104840.261000"
   ],
   "InstanceNumber": [
    1,
    2,
    3,
    4,
    5,
    6,
    7,
    8,
    9,
    10,
    11,
    12,
    13,
    14,
    15,
    16,
    17,
    18,
    19,
    20,
    21,
    22,
    23,
    24,
    25,
    26,
    27,
    28,
    29,
    30,
    31,
    32,
    33,
    34,
    35,
    36,
    37,
    38,
    39,
    40,
    41,
    42,
    43,
    44,
    45,
    46,
    47,
    48,
    49,
    50,
    51,
    52,
    53,
    54,
    55,
    56,
    57,
    58,
    59,
    60,
    61,
    62,
    63,
    64,
    65,
    66,
    67,
    68,
    69,
    70,
    71,
    72,
    73,
    74,
    75,
    76,
    77,
    78,
    79,
    80,
    81,
    82,
    83,
    84,
    85,
    86,
    87,
    88,
    89,
    90,
    91,
    92,
    93,
    94,
    95,
    96,
    97,
    98,
    99,
    100,
    101,
    102,
    103,
    104,
    105,
    106,
    107,
    108,
    109,
    110,
    111,
    112,
    113,
    114,
    115,
    116,
    117,
    118,
    119,
    120,
    121,
    122,
    123,
    124,
    125,
    126,
    127,
    128,
    129,
    130,
    131,
    132,
    133,
    134,
    135,
    136,
    137,
    138,
    139,
    140,
    141,
    142,
    143,
    144,
    145,
    146,
    147,
    148,
    149,
    150,
    151,
    152,
    153,
    154,
    155,
    156,
    157,
    158,
    159,
    160,
    161,
    162,
    163,
    164,
    165,
    166,
    167,
    168,
    169,
    170,
    171,
    172,
    173,
    174,
    175,
    176,
    177,
    178,
    179,
    180,
    181,
    182,
    183,
    184,
    185,
    186,
    187,
    188,
    189,
    190,
    191,
    192,
    193,
    194,
    195,
    196,
    197,
    198,
    199,
    200,
    201,
    202,
    203,
    204,
    205,
    206,
    207,
    208,
    209,
    210,
    211,
    212,
    213,
    214,
    215,
    216,
    217,
    218,
    219,
    220,
    221,
    222,
    223,
    224,
    225,
    226,
    227,
    228,
    229,
    230,
    231,
    232,
    233,
    234,
    235,
    236,
    237,
    238,
    239,
    240,
    241,
    242,
    243,
    244,
    245,
    246,
    247,
    248,
    249,
    250,
    251,
    252,
    253,
    254,
    255,
    256
   ],
   "LargestImagePixelValue": [
    3545,
    3412,
    3464,
    3382,
    3425,
    3443,
    3419,
    3471,
    3467,
    3434,
    3456,
    3450,
    3442,
    3455,
    3442,
    3487,
    3426,
    3495,
    3471,
    3477,
    3493,
    3482,
    3521,
    3429,
    3471,
    3423,
    3456,
    3455,
    3454,
    3462,
    3415,
    3477,
    3443,
    3443,
    3412,
    3461,
    3424,
    3436,
    3410,
    3413,
    3410,
    3466,
    3429,
    3408,
    3413,
    3397,
    3367,
    3397,
    3386,
    3455,
    3435,
    3485,
    3451,
    3489,
    3470,
    3452,
    3423,
    3422,
    3445,
    3386,
    3400,
    3435,
    3371,
    3432,
    3365,
    3434,
    3379,
    3446,
    3385,
    3451,
    3420,
    3450,
    3406,
    3472,
    3431,
    3485,
    3440,
    3475,
    3444,
    3508,
    3382,
    3444,
    3402,
    3436,
    3403,
    3360,
    3395,
    3409,
    3385,
    3460,
    3439,
    3420,
    3432,
    3442,
    3437,
    3446,
    3464,
    3375,
    3447,
    3377,
    3463,
    3421,
    3425,
    3382,
    3439,
    3397,
    3407,
    3463,
    3392,
    3431,
    3382,
    3456,
    3411,
    3462,
    3426,
    3478,
    3414,
    3524,
    3414,
    3420,
    3384,
    3409,
    3444,
    3405,
    3459,
    3394,
    3495,
    3391,
    3387,
    3373,
    3439,
    3372,
    3461,
    3412,
    3482,
    3398,
    3454,
    3384,
    3403,
    3368,
    3410,
    3401,
    3425,
    3376,
    3435,
    3415,
    3352,
    3408,
    3430,
    3384,
    3441,
    3348,
    3397,
    3346,
    3374,
    3335,
    3400,
    3319,
    3388,
    3367,
    3438,
    3394,
    3399,
    3368,
    3407,
    3365,
    3415,
    3353,
    3424,
    3359,
    3348,
    3291,
    3375,
    3333,
    3345,
    3373,
    3360,
    3431,
    3355,
    3314,
    3420,
    3385,
    3419,
    3330,
    3390,
    3300,
    3274,
    3262,
    3240,
    3274,
    3315,
    3419,
    3278,
    3325,
    3306,
    3334,
    3452,
    3315,
    3287,
    3240,
    3269,
    3284,
    3360,
    3275,
    3364,
    3280,
    3327,
    3284,
    3255,
    3344,
    3254,
    3344,
    3292,
    3327,
    3287,
    3365,
    3277,
    3243,
    3252,
    3273,
    3286,
    3260,
    3340,
    3314,
    3303,
    3297,
    3326,
    3284,
    3307,
    3306,
    3274,
    3398,
    3310,
    3273,
    3508,
    3282,
    3256,
    3348,
    3229,
    3317,
    3242,
    3339,
    3280,
    3285,
    3284,
    3329,
    3302,
    3265,
    3416,
    3297,
    3350,
    3335,
    3300,
    3357,
    3261,
    3358
   ],
   "WindowCenter": [
    819.0,
    818.0,
    817.0,
    816.0,
    816.0,
    815.0,
    815.0,
    815.0,
    815.0,
    816.0,
    817.0,
    817.0,
    818.0,
    819.0,
    819.0,
    819.0,
    820.0,
    820.0,
    821.0,
    821.0,
    821.0,
    821.0,
    821.0,
    820.0,
    821.0,
    822.0,
    822.0,
    820.0,
    818.0,
    817.0,
    817.0,
    819.0,
    820.0,
    819.0,
    817.0,
    816.0,
    816.0,
    815.0,
    815.0,
    814.0,
    814.0,
    815.0,
    815.0,
    816.0,
    818.0,
    817.0,
    815.0,
    815.0,
    815.0,
    816.0,
    816.0,
    817.0,
    817.0,
    819.0,
    819.0,
    818.0,
    817.0,
    818.0,
    818.0,
    819.0,
    821.0,
    819.0,
    817.0,
    816.0,
    815.0,
    815.0,
    816.0,
    816.0,
    816.0,
    816.0,
    816.0,
    817.0,
    817.0,
    817.0,
    818.0,
    817.0,
    818.0,
    818.0,
    819.0,
    821.0,
    822.0,
    820.0,
    817.0,
    817.0,
    817.0,
    816.0,
    818.0,
    818.0,
    817.0,
    816.0,
    815.0,
    815.0,
    815.0,
    814.0,
    816.0,
    817.0,
    817.0,
    815.0,
    814.0,
    813.0,
    814.0,
    814.0,
    814.0,
    816.0,
    818.0,
    818.0,
    818.0,
    817.0,
    815.0,
    815.0,
    815.0,
    815.0,
    816.0,
    815.0,
    815.0,
    818.0,
    821.0,
    821.0,
    819.0,
    816.0,
    816.0,
    816.0,
    816.0,
    816.0,
    817.0,
