{
  "AcquisitionMatrixPE": 100,
  "AcquisitionNumber": 1,
  "AcquisitionTime": "09:17:44.185000",
  "BandwidthPerPixelPhaseEncode": 18.519,
  "BaseResolution": 100,
  "BodyPartExamined": "BRAIN",
  "ConsistencyInfo": "N4_VE11C_LATEST_20160120",
  "ConversionSoftware": "dcm2niix",
  "ConversionSoftwareVersion": "v1.0.20180622 GCC4.9.2",
  "DerivedVendorReportedEchoSpacing": 0.000539986,
  "DeviceSerialNumber": "166078",
  "DwellTime": 2.1e-06,
  "EchoTime": 0.034,
  "EchoTrainLength": 100,
  "EffectiveEchoSpacing": 0.000539986,
  "FlipAngle": 90,
  "ImageOrientationPatientDICOM": [1, 0, 0, 0, 0.973179, -0.23005],
  "ImageType": [
    "ORIGINAL",
    "PRIMARY",
    "M",
    "ND",
    "MOSAIC"
],
  "InPlanePhaseEncodingDirectionDICOM": "COL",
  "InstitutionAddress": "Street_StreetNo_Bei_Jing_District_CN_ZIP",
  "InstitutionName": "BeiJing_Normal_University",
  "InstitutionalDepartmentName": "Department",
  "MRAcquisitionType": "2D",
  "MagneticFieldStrength": 3,
  "Manufacturer": "Siemens",
  "ManufacturersModelName": "Prisma",
  "Modality": "MR",
  "MultibandAccelerationFactor": 3,
  "PartialFourier": 1,
  "PatientPosition": "HFS",
  "PercentPhaseFOV": 100,
  "PhaseEncodingDirection": "j-",
  "PhaseEncodingSteps": 100,
  "PhaseResolution": 1,
  "PixelBandwidth": 2380,
  "ProcedureStepDescription": "BNU_P2018_64CH_Zhen.ZongLei",
  "ProtocolName": "bold_100x100_s3_2x2x2_static_256",
  "PulseSequenceDetails": "%SiemensSeq%_ep2d_bold",
  "ReceiveCoilActiveElements": "HC1-7;NC1",
  "ReceiveCoilName": "HeadNeck_64",
  "ReconMatrixPE": 100,
  "RepetitionTime": 2,
  "SAR": 0.0663103,
  "ScanOptions": "FS",
  "ScanningSequence": "EP",
  "SequenceName": "_epfid2d1_100",
  "SequenceVariant": "SK",
  "SeriesDescription": "bold_100x100_s3_2x2x2_static_256",
  "SeriesNumber": 4,
  "ShimSetting": [-5447, -11477, -1275, 328, 42, -124, -173, 51],
  "SliceThickness": 2,
  "SliceTiming": [1.485, 0, 0.99, 0.0825, 1.0725, 0.165, 1.155, 0.2475, 1.2375, 0.33, 1.32, 0.4125, 1.4025, 0.5775, 1.5675, 0.66, 1.65, 0.7425, 1.7325, 0.825, 1.815, 0.9075, 1.8975, 0.495, 1.485, 0, 0.99, 0.0825, 1.0725, 0.165, 1.155, 0.2475, 1.2375, 0.33, 1.32, 0.4125, 1.4025, 0.5775, 1.5675, 0.66, 1.65, 0.7425, 1.7325, 0.825, 1.815, 0.9075, 1.8975, 0.495, 1.485, 0, 0.99, 0.0825, 1.0725, 0.165, 1.155, 0.2475, 1.2375, 0.33, 1.32, 0.4125, 1.4025, 0.5775, 1.5675, 0.66, 1.65, 0.7425, 1.7325, 0.825, 1.815, 0.9075, 1.8975, 0.495],
  "SoftwareVersions": "syngo_MR_E11",
  "SpacingBetweenSlices": 2,
  "StationName": "AWP166078",
  "TaskName": "naturalvision",
  "TotalReadoutTime": 0.0534586,
  "TxRefAmp": 221.315,
  "dcmmeta_affine": [
    [-2.0, 0.0, 0.0, 102.69879150390625],
    [0.0, 1.9463577270507812, -0.4600994884967804, -80.37294006347656],
    [0.0, 0.4600994884967804, 1.9463577270507812, -85.62611389160156],
    [0.0, 0.0, 0.0, 1.0]
],
  "dcmmeta_reorient_transform": [
    [0.0, -1.0, 0.0, 99.0],
    [1.0, 0.0, 0.0, 0.0],
    [0.0, 0.0, 1.0, 0.0],
    [0.0, 0.0, 0.0, 1.0]
],
  "dcmmeta_shape": [100, 100, 72, 256],
  "dcmmeta_slice_dim": 2,
  "dcmmeta_version": 0.6,
  "global": {
    "const": {
      "AcquisitionMatrix": [100, 0, 0, 100],
      "AngioFlag": "N",
      "BitsAllocated": 16,
      "BitsStored": 12,
      "BodyPartExamined": "BRAIN",
      "Columns": 900,
      "EchoNumbers": 1,
      "EchoTime": 34.0,
      "EchoTrainLength": 100,
      "FlipAngle": 90.0,
      "HighBit": 11,
      "ImageOrientationPatient": [1.0, 0.0, 0.0, 0.0, 0.973178872716, -0.2300497374466],
      "ImagePositionPatient": [-902.69879508018, -890.85957686743, 143.96352209423],
      "ImageType": [
        "ORIGINAL",
        "PRIMARY",
        "M",
        "ND",
        "MOSAIC"
],
      "ImagedNucleus": "1H",
      "ImagingFrequency": 123.257723,
      "InPlanePhaseEncodingDirection": "COL",
      "MRAcquisitionType": "2D",
      "MagneticFieldStrength": 3.0,
      "Manufacturer": "SIEMENS",
      "ManufacturerModelName": "Prisma",
      "Modality": "MR",
      "NumberOfAverages": 1.0,
      "NumberOfPhaseEncodingSteps": 100,
      "PercentPhaseFieldOfView": 100.0,
      "PercentSampling": 100.0,
      "PerformedProcedureStepStartTime": "085258.449000",
      "PhotometricInterpretation": "MONOCHROME2",
      "PixelBandwidth": 2380.0,
      "PixelRepresentation": 0,
      "PixelSpacing": [2.0, 2.0],
      "ProtocolName": "bold_100x100_s3_2x2x2_static_256",
      "RepetitionTime": 2000.0,
      "Rows": 900,
      "SAR": 0.06631033914613,
      "SamplesPerPixel": 1,
      "ScanOptions": "FS",
      "ScanningSequence": "EP",
      "SequenceName": "*epfid2d1_100",
      "SequenceVariant": "SK",
      "SeriesDescription": "bold_100x100_s3_2x2x2_static_256",
      "SeriesNumber": 4,
      "SeriesTime": "091747.177000",
      "SliceLocation": -64.839753616211,
      "SliceThickness": 2.0,
      "SmallestImagePixelValue": 0,
      "SoftwareVersions": "syngo MR E11",
      "SpacingBetweenSlices": 2.0000000314449,
      "SpecificCharacterSet": "ISO_IR 100",
      "StudyID": "1",
      "StudyTime": "085258.378000",
      "TransmitCoilName": "Body",
      "VariableFlipAngleFlag": "N",
      "WindowCenterWidthExplanation": "Algo1",
      "dBdt": 0.0},
    "slices": {}
  },
  "time": {
    "samples": {
      "AcquisitionNumber": [1, 2, 3, 4, 5, 6, 7, 8, 9, 10, 11, 12, 13, 14, 15, 16, 17, 18, 19, 20, 21, 22, 23, 24, 25, 26, 27, 28, 29, 30, 31, 32, 33, 34, 35, 36, 37, 38, 39, 40, 41, 42, 43, 44, 45, 46, 47, 48, 49, 50, 51, 52, 53, 54, 55, 56, 57, 58, 59, 60, 61, 62, 63, 64, 65, 66, 67, 68, 69, 70, 71, 72, 73, 74, 75, 76, 77, 78, 79, 80, 81, 82, 83, 84, 85, 86, 87, 88, 89, 90, 91, 92, 93, 94, 95, 96, 97, 98, 99, 100, 101, 102, 103, 104, 105, 106, 107, 108, 109, 110, 111, 112, 113, 114, 115, 116, 117, 118, 119, 120, 121, 122, 123, 124, 125, 126, 127, 128, 129, 130, 131, 132, 133, 134, 135, 136, 137, 138, 139, 140, 141, 142, 143, 144, 145, 146, 147, 148, 149, 150, 151, 152, 153, 154, 155, 156, 157, 158, 159, 160, 161, 162, 163, 164, 165, 166, 167, 168, 169, 170, 171, 172, 173, 174, 175, 176, 177, 178, 179, 180, 181, 182, 183, 184, 185, 186, 187, 188, 189, 190, 191, 192, 193, 194, 195, 196, 197, 198, 199, 200, 201, 202, 203, 204, 205, 206, 207, 208, 209, 210, 211, 212, 213, 214, 215, 216, 217, 218, 219, 220, 221, 222, 223, 224, 225, 226, 227, 228, 229, 230, 231, 232, 233, 234, 235, 236, 237, 238, 239, 240, 241, 242, 243, 244, 245, 246, 247, 248, 249, 250, 251, 252, 253, 254, 255, 256],
      "AcquisitionTime": ["091744.185000", "091746.185000", "091748.185000", "091750.185000", "091752.185000", "091754.185000", "091756.185000", "091758.185000", "091800.185000", "091802.185000", "091804.185000", "091806.185000", "091808.185000", "091810.185000", "091812.185000", "091814.185000", "091816.185000", "091818.185000", "091820.185000", "091822.185000", "091824.185000", "091826.185000", "091828.185000", "091830.185000", "091832.185000", "091834.185000", "091836.185000", "091838.185000", "091840.185000", "091842.185000", "091844.185000", "091846.185000", "091848.185000", "091850.185000", "091852.185000", "091854.185000", "091856.185000", "091858.185000", "091900.185000", "091902.185000", "091904.185000", "091906.185000", "091908.185000", "091910.185000", "091912.185000", "091914.185000", "091916.185000", "091918.185000", "091920.185000", "091922.185000", "091924.185000", "091926.185000", "091928.185000", "091930.185000", "091932.185000", "091934.185000", "091936.185000", "091938.185000", "091940.185000", "091942.185000", "091944.185000", "091946.185000", "091948.185000", "091950.185000", "091952.185000", "091954.185000", "091956.185000", "091958.185000", "092000.185000", "092002.185000", "092004.185000", "092006.185000", "092008.185000", "092010.185000", "092012.185000", "092014.185000", "092016.185000", "092018.185000", "092020.185000", "092022.185000", "092024.185000", "092026.185000", "092028.185000", "092030.185000", "092032.185000", "092034.185000", "092036.185000", "092038.185000", "092040.185000", "092042.185000", "092044.185000", "092046.185000", "092048.185000", "092050.185000", "092052.185000", "092054.185000", "092056.185000", "092058.185000", "092100.185000", "092102.185000", "092104.185000", "092106.185000", "092108.185000", "092110.185000", "092112.185000", "092114.185000", "092116.185000", "092118.185000", "092120.185000", "092122.185000", "092124.185000", "092126.185000", "092128.185000", "092130.185000", "092132.185000", "092134.185000", "092136.185000", "092138.185000", "092140.185000", "092142.185000", "092144.185000", "092146.185000", "092148.185000", "092150.185000", "092152.185000", "092154.185000", "092156.185000", "092158.185000", "092200.185000", "092202.185000", "092204.185000", "092206.185000", "092208.185000", "092210.185000", "092212.185000", "092214.185000", "092216.185000", "092218.185000", "092220.185000", "092222.185000", "092224.185000", "092226.185000", "092228.185000", "092230.185000", "092232.185000", "092234.185000", "092236.185000", "092238.185000", "092240.185000", "092242.185000", "092244.185000", "092246.185000", "092248.185000", "092250.185000", "092252.185000", "092254.185000", "092256.185000", "092258.185000", "092300.185000", "092302.185000", "092304.185000", "092306.185000", "092308.185000", "092310.185000", "092312.185000", "092314.185000", "092316.185000", "092318.185000", "092320.185000", "092322.185000", "092324.185000", "092326.185000", "092328.185000", "092330.185000", "092332.185000", "092334.185000", "092336.185000", "092338.185000", "092340.185000", "092342.185000", "092344.185000", "092346.185000", "092348.185000", "092350.185000", "092352.185000", "092354.185000", "092356.185000", "092358.185000", "092400.185000", "092402.185000", "092404.185000", "092406.185000", "092408.185000", "092410.185000", "092412.185000", "092414.185000", "092416.185000", "092418.185000", "092420.185000", "092422.185000", "092424.185000", "092426.185000", "092428.185000", "092430.185000", "092432.185000", "092434.185000", "092436.185000", "092438.185000", "092440.185000", "092442.185000", "092444.185000", "092446.185000", "092448.185000", "092450.185000", "092452.185000", "092454.185000", "092456.185000", "092458.185000", "092500.185000", "092502.185000", "092504.185000", "092506.185000", "092508.185000", "092510.185000", "092512.185000", "092514.185000", "092516.185000", "092518.185000", "092520.185000", "092522.185000", "092524.185000", "092526.185000", "092528.185000", "092530.185000", "092532.185000", "092534.185000", "092536.185000", "092538.185000", "092540.185000", "092542.185000", "092544.185000", "092546.185000", "092548.185000", "092550.185000", "092552.185000", "092554.185000", "092556.185000", "092558.185000", "092600.185000", "092602.185000", "092604.185000", "092606.185000", "092608.185000", "092610.185000", "092612.185000", "092614.185000"],
      "ContentTime": ["091747.180000", "091748.676000", "091750.676000", "091752.675000", "091754.675000", "091756.675000", "091758.677000", "091800.677000", "091802.677000", "091804.676000", "091806.675000", "091808.675000", "091810.676000", "091812.675000", "091814.675000", "091816.677000", "091818.677000", "091820.676000", "091822.676000", "091824.675000", "091826.676000", "091828.675000", "091830.676000", "091832.676000", "091834.676000", "091836.677000", "091838.675000", "091840.676000", "091842.675000", "091844.675000", "091846.676000", "091848.676000", "091850.676000", "091852.677000", "091854.677000", "091856.675000", "091858.676000", "091900.676000", "091902.676000", "091904.675000", "091906.675000", "091908.677000", "091910.676000", "091912.676000", "091914.676000", "091916.676000", "091918.676000", "091920.676000", "091922.675000", "091924.676000", "091926.676000", "091928.676000", "091930.677000", "091932.676000", "091934.676000", "091936.675000", "091938.676000", "091940.676000", "091942.676000", "091944.676000", "091946.677000", "091948.676000", "091950.676000", "091952.676000", "091954.676000", "091956.676000", "091958.675000", "092000.675000", "092002.676000", "092004.676000", "092006.676000", "092008.676000", "092010.675000", "092012.675000", "092014.676000", "092016.676000", "092018.677000", "092020.677000", "092022.676000", "092024.676000", "092026.675000", "092028.675000", "092030.676000", "092032.676000", "092034.675000", "092036.676000", "092038.676000", "092040.676000", "092042.676000", "092044.675000", "092046.675000", "092048.676000", "092050.676000", "092052.676000", "092054.677000", "092056.676000", "092058.676000", "092100.675000", "092102.676000", "092104.676000", "092106.676000", "092108.676000", "092110.676000", "092112.677000", "092114.676000", "092116.676000", "092118.676000", "092120.676000", "092122.675000", "092124.675000", "092126.676000", "092128.677000", "092130.676000", "092132.676000", "092134.675000", "092136.676000", "092138.676000", "092140.676000", "092142.675000", "092144.676000", "092146.676000", "092148.677000", "092150.677000", "092152.675000", "092154.676000", "092156.676000", "092158.675000", "092200.675000", "092202.676000", "092204.676000", "092206.676000", "092208.676000", "092210.675000", "092212.675000", "092214.676000", "092216.676000", "092218.676000", "092220.677000", "092222.676000", "092224.676000", "092226.676000", "092228.675000", "092230.675000", "092232.675000", "092234.676000", "092236.675000", "092238.677000", "092240.677000", "092242.677000", "092244.676000", "092246.676000", "092248.675000", "092250.676000", "092252.676000", "092254.676000", "092256.677000", "092258.677000", "092300.677000", "092302.676000", "092304.676000", "092306.676000", "092308.676000", "092310.676000", "092312.676000", "092314.677000", "092316.676000", "092318.675000", "092320.676000", "092322.676000", "092324.675000", "092326.676000", "092328.676000", "092330.676000", "092332.676000", "092334.677000", "092336.676000", "092338.676000", "092340.676000", "092342.676000", "092344.676000", "092346.676000", "092348.677000", "092350.676000", "092352.676000", "092354.676000", "092356.675000", "092358.676000", "092400.676000", "092402.676000", "092404.676000", "092406.676000", "092408.677000", "092410.677000", "092412.676000", "092414.676000", "092416.676000", "092418.676000", "092420.676000", "092422.676000", "092424.676000", "092426.677000", "092428.676000", "092430.675000", "092432.676000", "092434.676000", "092436.676000", "092438.676000", "092440.676000", "092442.677000", "092444.676000", "092446.676000", "092448.676000", "092450.676000", "092452.676000", "092454.676000", "092456.675000", "092458.677000", "092500.677000", "092502.677000", "092504.676000", "092506.675000", "092508.676000", "092510.675000", "092512.675000", "092514.675000", "092516.676000", "092518.677000", "092520.677000", "092522.676000", "092524.676000", "092526.675000", "092528.676000", "092530.676000", "092532.676000", "092534.677000", "092536.677000", "092538.676000", "092540.676000", "092542.676000", "092544.675000", "092546.675000", "092548.675000", "092550.677000", "092552.677000", "092554.677000", "092556.676000", "092558.675000", "092600.675000", "092602.676000", "092604.676000", "092606.676000", "092608.677000", "092610.676000", "092612.685000", "092614.676000", "092616.391000"],
      "InstanceCreationTime": ["091747.180000", "091748.676000", "091750.676000", "091752.675000", "091754.675000", "091756.675000", "091758.677000", "091800.677000", "091802.677000", "091804.676000", "091806.675000", "091808.675000", "091810.676000", "091812.675000", "091814.675000", "091816.677000", "091818.677000", "091820.676000", "091822.676000", "091824.675000", "091826.676000", "091828.675000", "091830.676000", "091832.676000", "091834.676000", "091836.677000", "091838.675000", "091840.676000", "091842.675000", "091844.675000", "091846.676000", "091848.676000", "091850.676000", "091852.677000", "091854.677000", "091856.675000", "091858.676000", "091900.676000", "091902.676000", "091904.675000", "091906.675000", "091908.677000", "091910.676000", "091912.676000", "091914.676000", "091916.676000", "091918.676000", "091920.676000", "091922.675000", "091924.676000", "091926.676000", "091928.676000", "091930.677000", "091932.676000", "091934.676000", "091936.675000", "091938.676000", "091940.676000", "091942.676000", "091944.676000", "091946.677000", "091948.676000", "091950.676000", "091952.676000", "091954.676000", "091956.676000", "091958.675000", "092000.675000", "092002.676000", "092004.676000", "092006.676000", "092008.676000", "092010.675000", "092012.675000", "092014.676000", "092016.676000", "092018.677000", "092020.677000", "092022.676000", "092024.676000", "092026.675000", "092028.675000", "092030.676000", "092032.676000", "092034.675000", "092036.676000", "092038.676000", "092040.676000", "092042.676000", "092044.675000", "092046.675000", "092048.676000", "092050.676000", "092052.676000", "092054.677000", "092056.676000", "092058.676000", "092100.675000", "092102.676000", "092104.676000", "092106.676000", "092108.676000", "092110.676000", "092112.677000", "092114.676000", "092116.676000", "092118.676000", "092120.676000", "092122.675000", "092124.675000", "092126.676000", "092128.677000", "092130.676000", "092132.676000", "092134.675000", "092136.676000", "092138.676000", "092140.676000", "092142.675000", "092144.676000", "092146.676000", "092148.677000", "092150.677000", "092152.675000", "092154.676000", "092156.676000", "092158.675000", "092200.675000", "092202.676000", "092204.676000", "092206.676000", "092208.676000", "092210.675000", "092212.675000", "092214.676000", "092216.676000", "092218.676000", "092220.677000", "092222.676000", "092224.676000", "092226.676000", "092228.675000", "092230.675000", "092232.675000", "092234.676000", "092236.675000", "092238.677000", "092240.677000", "092242.677000", "092244.676000", "092246.676000", "092248.675000", "092250.676000", "092252.676000", "092254.676000", "092256.677000", "092258.677000", "092300.677000", "092302.676000", "092304.676000", "092306.676000", "092308.676000", "092310.676000", "092312.676000", "092314.677000", "092316.676000", "092318.675000", "092320.676000", "092322.676000", "092324.675000", "092326.676000", "092328.676000", "092330.676000", "092332.676000", "092334.677000", "092336.676000", "092338.676000", "092340.676000", "092342.676000", "092344.676000", "092346.676000", "092348.677000", "092350.676000", "092352.676000", "092354.676000", "092356.675000", "092358.676000", "092400.676000", "092402.676000", "092404.676000", "092406.676000", "092408.677000", "092410.677000", "092412.676000", "092414.676000", "092416.676000", "092418.676000", "092420.676000", "092422.676000", "092424.676000", "092426.677000", "092428.676000", "092430.675000", "092432.676000", "092434.676000", "092436.676000", "092438.676000", "092440.676000", "092442.677000", "092444.676000", "092446.676000", "092448.676000", "092450.676000", "092452.676000", "092454.676000", "092456.675000", "092458.677000", "092500.677000", "092502.677000", "092504.676000", "092506.675000", "092508.676000", "092510.675000", "092512.675000", "092514.675000", "092516.676000", "092518.677000", "092520.677000", "092522.676000", "092524.676000", "092526.675000", "092528.676000", "092530.676000", "092532.676000", "092534.677000", "092536.677000", "092538.676000", "092540.676000", "092542.676000", "092544.675000", "092546.675000", "092548.675000", "092550.677000", "092552.677000", "092554.677000", "092556.676000", "092558.675000", "092600.675000", "092602.676000", "092604.676000", "092606.676000", "092608.677000", "092610.676000", "092612.685000", "092614.676000", "092616.391000"],
      "InstanceNumber": [1, 2, 3, 4, 5, 6, 7, 8, 9, 10, 11, 12, 13, 14, 15, 16, 17, 18, 19, 20, 21, 22, 23, 24, 25, 26, 27, 28, 29, 30, 31, 32, 33, 34, 35, 36, 37, 38, 39, 40, 41, 42, 43, 44, 45, 46, 47, 48, 49, 50, 51, 52, 53, 54, 55, 56, 57, 58, 59, 60, 61, 62, 63, 64, 65, 66, 67, 68, 69, 70, 71, 72, 73, 74, 75, 76, 77, 78, 79, 80, 81, 82, 83, 84, 85, 86, 87, 88, 89, 90, 91, 92, 93, 94, 95, 96, 97, 98, 99, 100, 101, 102, 103, 104, 105, 106, 107, 108, 109, 110, 111, 112, 113, 114, 115, 116, 117, 118, 119, 120, 121, 122, 123, 124, 125, 126, 127, 128, 129, 130, 131, 132, 133, 134, 135, 136, 137, 138, 139, 140, 141, 142, 143, 144, 145, 146, 147, 148, 149, 150, 151, 152, 153, 154, 155, 156, 157, 158, 159, 160, 161, 162, 163, 164, 165, 166, 167, 168, 169, 170, 171, 172, 173, 174, 175, 176, 177, 178, 179, 180, 181, 182, 183, 184, 185, 186, 187, 188, 189, 190, 191, 192, 193, 194, 195, 196, 197, 198, 199, 200, 201, 202, 203, 204, 205, 206, 207, 208, 209, 210, 211, 212, 213, 214, 215, 216, 217, 218, 219, 220, 221, 222, 223, 224, 225, 226, 227, 228, 229, 230, 231, 232, 233, 234, 235, 236, 237, 238, 239, 240, 241, 242, 243, 244, 245, 246, 247, 248, 249, 250, 251, 252, 253, 254, 255, 256],
      "LargestImagePixelValue": [3588, 3506, 3546, 3519, 3562, 3579, 3543, 3600, 3564, 3553, 3495, 3567, 3501, 3537, 3510, 3556, 3531, 3583, 3558, 3546, 3532, 3597, 3548, 3525, 3515, 3538, 3511, 3543, 3519, 3537, 3508, 3597, 3534, 3564, 3503, 3562, 3506, 3540, 3518, 3557, 3516, 3548, 3526, 3544, 3523, 3536, 3532, 3521, 3510, 3545, 3536, 3522, 3498, 3492, 3508, 3530, 3571, 3563, 3551, 3518, 3519, 3521, 3534, 3558, 3537, 3530, 3535, 3550, 3566, 3574, 3541, 3518, 3547, 3505, 3555, 3524, 3572, 3533, 3535, 3540, 3562, 3533, 3513, 3504, 3527, 3513, 3517, 3488, 3491, 3494, 3528, 3476, 3481, 3500, 3458, 3489, 3494, 3475, 3493, 3523, 3507, 3503, 3489, 3485, 3506, 3475, 3517, 3519, 3499, 3479, 3518, 3485, 3514, 3501, 3520, 3502, 3476, 3510, 3479, 3487, 3511, 3469, 3465, 3462, 3469, 3484, 3487, 3521, 3494, 3531, 3489, 3493, 3500, 3485, 3485, 3498, 3492, 3497, 3526, 3558, 3532, 3509, 3515, 3489, 3483, 3515, 3523, 3500, 3483, 3491, 3492, 3469, 3493, 3520, 3490, 3494, 3453, 3478, 3471, 3479, 3484, 3495, 3501, 3511, 3541, 3565, 3512, 3518, 3508, 3498, 3490, 3525, 3483, 3500, 3463, 3507, 3539, 3506, 3499, 3516, 3498, 3517, 3491, 3505, 3511, 3545, 3612, 3513, 3527, 3548, 3525, 3544, 3533, 3521, 3503, 3459, 3489, 3503, 3497, 3484, 3531, 3521, 3515, 3511, 3525, 3509, 3536, 3507, 3497, 3525, 3520, 3503, 3518, 3527, 3519, 3507, 3498, 3479, 3486, 3514, 3497, 3482, 3512, 3520, 3415, 3459, 3492, 3461, 3436, 3451, 3464, 3486, 3605, 3528, 3499, 3502, 3472, 3470, 3451, 3505, 3481, 3482, 3471, 3511, 3469, 3520, 3478, 3508, 3482, 3524, 3480, 3501, 3483, 3474, 3495, 3511],
      "WindowCenter": [821.0, 819.0, 817.0, 817.0, 817.0, 817.0, 817.0, 817.0, 816.0, 816.0, 817.0, 818.0, 817.0, 817.0, 817.0, 817.0, 817.0, 817.0, 817.0, 816.0, 816.0, 817.0, 816.0, 815.0, 815.0, 816.0, 817.0, 817.0, 816.0, 816.0, 816.0, 816.0, 817.0, 817.0, 817.0, 817.0, 817.0, 818.0, 818.0, 818.0, 818.0, 818.0, 818.0, 817.0, 818.0, 818.0, 818.0, 817.0, 816.0, 816.0, 817.0, 817.0, 818.0, 817.0, 818.0, 818.0, 819.0, 819.0, 818.0, 817.0, 818.0, 820.0, 819.0, 818.0, 817.0, 817.0, 817.0, 817.0, 817.0, 817.0, 817.0, 818.0, 819.0, 818.0, 818.0, 817.0, 817.0, 815.0, 818.0, 818.0, 817.0, 816.0, 816.0, 817.0, 817.0, 817.0, 817.0, 817.0, 818.0, 817.0, 817.0, 815.0, 816.0, 816.0, 815.0, 815.0, 817.0, 818.0, 817.0, 815.0, 816.0, 816.0, 817.0, 816.0, 816.0, 816.0, 818.0, 818.0, 817.0, 816.0, 817.0, 817.0, 819.0, 818.0, 818.0, 817.0, 816.0, 815.0, 817.0, 816.0, 817.0, 816.0, 816.0, 817.0, 817.0, 817.0, 816.0, 815.0, 816.0, 816.0, 816.0, 815.0, 815.0, 815.0, 815.0, 815.0, 815.0, 816.0, 817.0, 816.0, 817.0, 816.0, 817.0, 816.0, 817.0, 816.0, 817.0, 817.0, 817.0, 817.0, 817.0, 817.0, 817.0, 816.0, 816.0, 817.0, 817.0, 817.0, 817.0, 817.0, 818.0, 817.0, 817.0, 816.0, 817.0, 817.0, 817.0, 816.0, 817.0, 816.0, 816.0, 817.0, 818.0, 818.0, 815.0, 814.0, 814.0, 815.0, 817.0, 817.0, 816.0, 815.0, 815.0, 815.0, 816.0, 815.0, 817.0, 816.0, 817.0, 817.0, 817.0, 816.0, 817.0, 816.0, 817.0, 817.0, 818.0, 817.0, 816.0, 815.0, 816.0, 816.0, 816.0, 816.0, 817.0, 816.0, 815.0, 817.0, 818.0, 818.0, 816.0, 815.0, 815.0, 816.0, 817.0, 817.0, 817.0, 816.0, 817.0, 817.0, 817.0, 816.0, 817.0, 817.0, 815.0, 816.0, 817.0, 815.0, 815.0, 816.0, 817.0, 817.0, 819.0, 818.0, 818.0, 817.0, 817.0, 817.0, 818.0, 817.0, 815.0, 816.0, 815.0, 816.0, 817.0, 818.0, 816.0, 815.0, 816.0, 817.0, 816.0, 815.0, 815.0, 815.0, 816.0, 815.0],
      "WindowWidth": [1765.0, 1756.0, 1753.0, 1751.0, 1753.0, 1754.0, 1753.0, 1754.0, 1750.0, 1750.0, 1753.0, 1756.0, 1753.0, 1753.0, 1752.0, 1752.0, 1752.0, 1752.0, 1752.0, 1751.0, 1750.0, 1752.0, 1750.0, 1747.0, 1748.0, 1751.0, 1753.0, 1753.0, 1750.0, 1749.0, 1749.0, 1751.0, 1751.0, 1752.0, 1751.0, 1752.0, 1752.0, 1755.0, 1756.0, 1756.0, 1756.0, 1756.0, 1755.0, 1753.0, 1754.0, 1754.0, 1755.0, 1752.0, 1750.0, 1751.0, 1752.0, 1752.0, 1754.0, 1753.0, 1754.0, 1755.0, 1758.0, 1757.0, 1755.0, 1751.0, 1756.0, 1759.0, 1757.0, 1754.0, 1753.0, 1753.0, 1753.0, 1753.0, 1753.0, 1752.0, 1753.0, 1754.0, 1756.0, 1753.0, 1753.0, 1751.0, 1751.0, 1748.0, 1755.0, 1754.0, 1751.0, 1749.0, 1751.0, 1751.0, 1752.0, 1751.0, 1753.0, 1751.0, 1753.0, 1752.0, 1751.0, 1748.0, 1749.0, 1748.0, 1746.0, 1747.0, 1753.0, 1753.0, 1751.0, 1748.0, 1749.0, 1749.0, 1751.0, 1750.0, 1750.0, 1750.0, 1756.0, 1754.0, 1752.0, 1750.0, 1752.0, 1752.0, 1756.0, 1754.0, 1753.0, 1751.0, 1749.0, 1747.0, 1750.0, 1750.0, 1753.0, 1749.0, 1750.0, 1752.0, 1753.0, 1751.0, 1748.0, 1747.0, 1748.0, 1750.0, 1749.0, 1747.0, 1747.0, 1745.0, 1746.0, 1745.0, 1747.0, 1750.0, 1752.0, 1750.0, 1751.0, 1750.0, 1751.0, 1750.0, 1751.0, 1750.0, 1752.0, 1752.0, 1752.0, 1752.0, 1752.0, 1750.0, 1751.0, 1749.0, 1750.0, 1752.0, 1752.0, 1752.0, 1751.0, 1751.0, 1754.0, 1752.0, 1752.0, 1750.0, 1751.0, 1751.0, 1751.0, 1750.0, 1750.0, 1748.0, 1750.0, 1750.0, 1753.0, 1752.0, 1747.0, 1744.0, 1745.0, 1746.0, 1751.0, 1751.0, 1750.0, 1747.0, 1746.0, 1745.0, 1748.0, 1747.0, 1750.0, 1749.0, 1750.0, 1751.0, 1751.0, 1749.0, 1750.0, 1747.0, 1751.0, 1752.0, 1755.0, 1750.0, 1748.0, 1745.0, 1749.0, 1748.0, 1750.0, 1748.0, 1751.0, 1748.0, 1747.0, 1751.0, 1754.0, 1754.0, 1748.0, 1747.0, 1746.0, 1749.0, 1752.0, 1751.0, 1751.0, 1749.0, 1750.0, 1750.0, 1750.0, 1747.0, 1751.0, 1752.0, 1746.0, 1749.0, 1749.0, 1745.0, 1747.0, 1747.0, 1750.0, 1752.0, 1758.0, 1755.0, 1753.0, 1750.0, 1750.0, 1749.0, 1753.0, 1751.0, 1747.0, 1748.0, 1747.0, 1748.0, 1751.0, 1753.0, 1748.0, 1746.0, 1748.0, 1750.0, 1748.0, 1746.0, 1745.0, 1745.0, 1747.0, 1745.0]
    },
    "slices": {}
  }
}