{
  "AcquisitionMatrixPE": 100,
  "AcquisitionNumber": 1,
  "AcquisitionTime": "09:37:16.707500",
  "BandwidthPerPixelPhaseEncode": 18.519,
  "BaseResolution": 100,
  "BodyPartExamined": "BRAIN",
  "ConsistencyInfo": "N4_VE11C_LATEST_20160120",
  "ConversionSoftware": "dcm2niix",
  "ConversionSoftwareVersion": "v1.0.20180622 GCC4.9.2",
  "DerivedVendorReportedEchoSpacing": 0.000539986,
  "DeviceSerialNumber": "166078",
  "DwellTime": 2.1e-06,
  "EchoTime": 0.034,
  "EchoTrainLength": 100,
  "EffectiveEchoSpacing": 0.000539986,
  "FlipAngle": 90,
  "ImageOrientationPatientDICOM": [1, 0, 0, 0, 0.973179, -0.23005],
  "ImageType": [
    "ORIGINAL",
    "PRIMARY",
    "M",
    "ND",
    "MOSAIC"
],
  "InPlanePhaseEncodingDirectionDICOM": "COL",
  "InstitutionAddress": "Street_StreetNo_Bei_Jing_District_CN_ZIP",
  "InstitutionName": "BeiJing_Normal_University",
  "InstitutionalDepartmentName": "Department",
  "MRAcquisitionType": "2D",
  "MagneticFieldStrength": 3,
  "Manufacturer": "Siemens",
  "ManufacturersModelName": "Prisma",
  "Modality": "MR",
  "MultibandAccelerationFactor": 3,
  "PartialFourier": 1,
  "PatientPosition": "HFS",
  "PercentPhaseFOV": 100,
  "PhaseEncodingDirection": "j-",
  "PhaseEncodingSteps": 100,
  "PhaseResolution": 1,
  "PixelBandwidth": 2380,
  "ProcedureStepDescription": "BNU_P2018_64CH_Zhen.ZongLei",
  "ProtocolName": "bold_100x100_s3_2x2x2_static_256",
  "PulseSequenceDetails": "%SiemensSeq%_ep2d_bold",
  "ReceiveCoilActiveElements": "HC1-7;NC1",
  "ReceiveCoilName": "HeadNeck_64",
  "ReconMatrixPE": 100,
  "RepetitionTime": 2,
  "SAR": 0.0663103,
  "ScanOptions": "FS",
  "ScanningSequence": "EP",
  "SequenceName": "_epfid2d1_100",
  "SequenceVariant": "SK",
  "SeriesDescription": "bold_100x100_s3_2x2x2_static_256",
  "SeriesNumber": 6,
  "ShimSetting": [-5447, -11477, -1275, 328, 42, -124, -173, 51],
  "SliceThickness": 2,
  "SliceTiming": [1.485, 0, 0.99, 0.0825, 1.0725, 0.165, 1.155, 0.2475, 1.2375, 0.33, 1.32, 0.4125, 1.4025, 0.5775, 1.5675, 0.66, 1.65, 0.7425, 1.7325, 0.825, 1.815, 0.9075, 1.8975, 0.495, 1.485, 0, 0.99, 0.0825, 1.0725, 0.165, 1.155, 0.2475, 1.2375, 0.33, 1.32, 0.4125, 1.4025, 0.5775, 1.5675, 0.66, 1.65, 0.7425, 1.7325, 0.825, 1.815, 0.9075, 1.8975, 0.495, 1.485, 0, 0.99, 0.0825, 1.0725, 0.165, 1.155, 0.2475, 1.2375, 0.33, 1.32, 0.4125, 1.4025, 0.5775, 1.5675, 0.66, 1.65, 0.7425, 1.7325, 0.825, 1.815, 0.9075, 1.8975, 0.495],
  "SoftwareVersions": "syngo_MR_E11",
  "SpacingBetweenSlices": 2,
  "StationName": "AWP166078",
  "TaskName": "naturalvision",
  "TotalReadoutTime": 0.0534586,
  "TxRefAmp": 221.315,
  "dcmmeta_affine": [
    [-2.0, 0.0, 0.0, 102.69879150390625],
    [0.0, 1.9463577270507812, -0.4600994884967804, -80.37294006347656],
    [0.0, 0.4600994884967804, 1.9463577270507812, -85.62611389160156],
    [0.0, 0.0, 0.0, 1.0]
],
  "dcmmeta_reorient_transform": [
    [0.0, -1.0, 0.0, 99.0],
    [1.0, 0.0, 0.0, 0.0],
    [0.0, 0.0, 1.0, 0.0],
    [0.0, 0.0, 0.0, 1.0]
],
  "dcmmeta_shape": [100, 100, 72, 256],
  "dcmmeta_slice_dim": 2,
  "dcmmeta_version": 0.6,
  "global": {
    "const": {
      "AcquisitionMatrix": [100, 0, 0, 100],
      "AngioFlag": "N",
      "BitsAllocated": 16,
      "BitsStored": 12,
      "BodyPartExamined": "BRAIN",
      "Columns": 900,
      "EchoNumbers": 1,
      "EchoTime": 34.0,
      "EchoTrainLength": 100,
      "FlipAngle": 90.0,
      "HighBit": 11,
      "ImageOrientationPatient": [1.0, 0.0, 0.0, 0.0, 0.973178872716, -0.2300497374466],
      "ImagePositionPatient": [-902.69879508018, -890.85957686743, 143.96352209423],
      "ImageType": [
        "ORIGINAL",
        "PRIMARY",
        "M",
        "ND",
        "MOSAIC"
],
      "ImagedNucleus": "1H",
      "ImagingFrequency": 123.257734,
      "InPlanePhaseEncodingDirection": "COL",
      "MRAcquisitionType": "2D",
      "MagneticFieldStrength": 3.0,
      "Manufacturer": "SIEMENS",
      "ManufacturerModelName": "Prisma",
      "Modality": "MR",
      "NumberOfAverages": 1.0,
      "NumberOfPhaseEncodingSteps": 100,
      "PercentPhaseFieldOfView": 100.0,
      "PercentSampling": 100.0,
      "PerformedProcedureStepStartTime": "085258.449000",
      "PhotometricInterpretation": "MONOCHROME2",
      "PixelBandwidth": 2380.0,
      "PixelRepresentation": 0,
      "PixelSpacing": [2.0, 2.0],
      "ProtocolName": "bold_100x100_s3_2x2x2_static_256",
      "RepetitionTime": 2000.0,
      "Rows": 900,
      "SAR": 0.06631033914613,
      "SamplesPerPixel": 1,
      "ScanOptions": "FS",
      "ScanningSequence": "EP",
      "SequenceName": "*epfid2d1_100",
      "SequenceVariant": "SK",
      "SeriesDescription": "bold_100x100_s3_2x2x2_static_256",
      "SeriesNumber": 6,
      "SeriesTime": "093718.936000",
      "SliceLocation": -64.839753616211,
      "SliceThickness": 2.0,
      "SmallestImagePixelValue": 0,
      "SoftwareVersions": "syngo MR E11",
      "SpacingBetweenSlices": 2.0000000314449,
      "SpecificCharacterSet": "ISO_IR 100",
      "StudyID": "1",
      "StudyTime": "085258.378000",
      "TransmitCoilName": "Body",
      "VariableFlipAngleFlag": "N",
      "WindowCenterWidthExplanation": "Algo1",
      "dBdt": 0.0},
    "slices": {}
  },
  "time": {
    "samples": {
      "AcquisitionNumber": [1, 2, 3, 4, 5, 6, 7, 8, 9, 10, 11, 12, 13, 14, 15, 16, 17, 18, 19, 20, 21, 22, 23, 24, 25, 26, 27, 28, 29, 30, 31, 32, 33, 34, 35, 36, 37, 38, 39, 40, 41, 42, 43, 44, 45, 46, 47, 48, 49, 50, 51, 52, 53, 54, 55, 56, 57, 58, 59, 60, 61, 62, 63, 64, 65, 66, 67, 68, 69, 70, 71, 72, 73, 74, 75, 76, 77, 78, 79, 80, 81, 82, 83, 84, 85, 86, 87, 88, 89, 90, 91, 92, 93, 94, 95, 96, 97, 98, 99, 100, 101, 102, 103, 104, 105, 106, 107, 108, 109, 110, 111, 112, 113, 114, 115, 116, 117, 118, 119, 120, 121, 122, 123, 124, 125, 126, 127, 128, 129, 130, 131, 132, 133, 134, 135, 136, 137, 138, 139, 140, 141, 142, 143, 144, 145, 146, 147, 148, 149, 150, 151, 152, 153, 154, 155, 156, 157, 158, 159, 160, 161, 162, 163, 164, 165, 166, 167, 168, 169, 170, 171, 172, 173, 174, 175, 176, 177, 178, 179, 180, 181, 182, 183, 184, 185, 186, 187, 188, 189, 190, 191, 192, 193, 194, 195, 196, 197, 198, 199, 200, 201, 202, 203, 204, 205, 206, 207, 208, 209, 210, 211, 212, 213, 214, 215, 216, 217, 218, 219, 220, 221, 222, 223, 224, 225, 226, 227, 228, 229, 230, 231, 232, 233, 234, 235, 236, 237, 238, 239, 240, 241, 242, 243, 244, 245, 246, 247, 248, 249, 250, 251, 252, 253, 254, 255, 256],
      "AcquisitionTime": ["093716.707500", "093718.707500", "093720.707500", "093722.707500", "093724.707500", "093726.707500", "093728.707500", "093730.707500", "093732.707500", "093734.707500", "093736.707500", "093738.707500", "093740.707500", "093742.707500", "093744.707500", "093746.707500", "093748.707500", "093750.707500", "093752.707500", "093754.707500", "093756.707500", "093758.707500", "093800.707500", "093802.707500", "093804.707500", "093806.707500", "093808.707500", "093810.707500", "093812.707500", "093814.707500", "093816.707500", "093818.707500", "093820.707500", "093822.707500", "093824.707500", "093826.707500", "093828.707500", "093830.707500", "093832.707500", "093834.707500", "093836.707500", "093838.707500", "093840.707500", "093842.707500", "093844.707500", "093846.707500", "093848.707500", "093850.707500", "093852.707500", "093854.707500", "093856.707500", "093858.707500", "093900.707500", "093902.707500", "093904.707500", "093906.707500", "093908.707500", "093910.707500", "093912.707500", "093914.707500", "093916.707500", "093918.707500", "093920.707500", "093922.707500", "093924.707500", "093926.707500", "093928.707500", "093930.707500", "093932.707500", "093934.707500", "093936.707500", "093938.707500", "093940.707500", "093942.707500", "093944.707500", "093946.707500", "093948.707500", "093950.707500", "093952.707500", "093954.707500", "093956.707500", "093958.707500", "094000.707500", "094002.707500", "094004.707500", "094006.707500", "094008.707500", "094010.707500", "094012.707500", "094014.707500", "094016.707500", "094018.707500", "094020.707500", "094022.707500", "094024.707500", "094026.707500", "094028.707500", "094030.707500", "094032.707500", "094034.707500", "094036.707500", "094038.707500", "094040.707500", "094042.707500", "094044.707500", "094046.707500", "094048.707500", "094050.707500", "094052.707500", "094054.707500", "094056.707500", "094058.707500", "094100.707500", "094102.707500", "094104.707500", "094106.707500", "094108.707500", "094110.707500", "094112.707500", "094114.707500", "094116.707500", "094118.707500", "094120.707500", "094122.707500", "094124.707500", "094126.707500", "094128.707500", "094130.707500", "094132.707500", "094134.707500", "094136.707500", "094138.707500", "094140.707500", "094142.707500", "094144.707500", "094146.707500", "094148.707500", "094150.707500", "094152.707500", "094154.707500", "094156.707500", "094158.707500", "094200.707500", "094202.707500", "094204.707500", "094206.707500", "094208.707500", "094210.707500", "094212.707500", "094214.707500", "094216.707500", "094218.707500", "094220.707500", "094222.707500", "094224.707500", "094226.707500", "094228.707500", "094230.707500", "094232.707500", "094234.707500", "094236.707500", "094238.707500", "094240.707500", "094242.707500", "094244.707500", "094246.707500", "094248.707500", "094250.707500", "094252.707500", "094254.707500", "094256.707500", "094258.707500", "094300.707500", "094302.707500", "094304.707500", "094306.707500", "094308.707500", "094310.707500", "094312.707500", "094314.707500", "094316.707500", "094318.707500", "094320.707500", "094322.707500", "094324.707500", "094326.707500", "094328.707500", "094330.707500", "094332.707500", "094334.707500", "094336.707500", "094338.707500", "094340.707500", "094342.707500", "094344.707500", "094346.707500", "094348.707500", "094350.707500", "094352.707500", "094354.707500", "094356.707500", "094358.707500", "094400.707500", "094402.707500", "094404.707500", "094406.707500", "094408.707500", "094410.707500", "094412.707500", "094414.707500", "094416.707500", "094418.707500", "094420.707500", "094422.707500", "094424.707500", "094426.707500", "094428.707500", "094430.707500", "094432.707500", "094434.707500", "094436.707500", "094438.707500", "094440.707500", "094442.707500", "094444.707500", "094446.707500", "094448.707500", "094450.707500", "094452.707500", "094454.707500", "094456.707500", "094458.707500", "094500.707500", "094502.707500", "094504.707500", "094506.707500", "094508.707500", "094510.707500", "094512.707500", "094514.707500", "094516.707500", "094518.707500", "094520.707500", "094522.707500", "094524.707500", "094526.707500", "094528.707500", "094530.707500", "094532.707500", "094534.707500", "094536.707500", "094538.707500", "094540.707500", "094542.707500", "094544.707500", "094546.707500"],
      "ContentTime": ["093718.939000", "093720.434000", "093722.434000", "093724.434000", "093726.434000", "093728.433000", "093730.435000", "093732.435000", "093734.435000", "093736.435000", "093738.434000", "093740.434000", "093742.433000", "093744.433000", "093746.433000", "093748.435000", "093750.435000", "093752.434000", "093754.433000", "093756.433000", "093758.434000", "093800.434000", "093802.434000", "093804.433000", "093806.434000", "093808.434000", "093810.435000", "093812.434000", "093814.433000", "093816.433000", "093818.434000", "093820.433000", "093822.435000", "093824.434000", "093826.434000", "093828.434000", "093830.434000", "093832.434000", "093834.433000", "093836.433000", "093838.433000", "093840.434000", "093842.434000", "093844.435000", "093846.434000", "093848.434000", "093850.433000", "093852.434000", "093854.433000", "093856.433000", "093858.435000", "093900.435000", "093902.434000", "093904.434000", "093906.433000", "093908.433000", "093910.434000", "093912.433000", "093914.433000", "093916.435000", "093918.435000", "093920.435000", "093922.434000", "093924.434000", "093926.433000", "093928.433000", "093930.433000", "093932.435000", "093934.434000", "093936.435000", "093938.435000", "093940.434000", "093942.434000", "093944.434000", "093946.433000", "093948.433000", "093950.434000", "093952.434000", "093954.434000", "093956.434000", "093958.433000", "094000.433000", "094002.433000", "094004.434000", "094006.433000", "094008.435000", "094010.435000", "094012.435000", "094014.433000", "094016.434000", "094018.434000", "094020.433000", "094022.433000", "094024.434000", "094026.435000", "094028.435000", "094030.434000", "094032.434000", "094034.434000", "094036.433000", "094038.433000", "094040.434000", "094042.434000", "094044.434000", "094046.435000", "094048.435000", "094050.433000", "094052.434000", "094054.434000", "094056.434000", "094058.434000", "094100.435000", "094102.434000", "094104.435000", "094106.435000", "094108.434000", "094110.434000", "094112.434000", "094114.433000", "094116.433000", "094118.434000", "094120.435000", "094122.434000", "094124.434000", "094126.434000", "094128.433000", "094130.433000", "094132.434000", "094134.433000", "094136.435000", "094138.435000", "094140.435000", "094142.434000", "094144.434000", "094146.434000", "094148.434000", "094150.434000", "094152.435000", "094154.434000", "094156.434000", "094158.435000", "094200.434000", "094202.434000", "094204.449000", "094206.433000", "094208.434000", "094210.435000", "094212.435000", "094214.435000", "094216.435000", "094218.434000", "094220.434000", "094222.433000", "094224.434000", "094226.434000", "094228.435000", "094230.435000", "094232.435000", "094234.434000", "094236.434000", "094238.434000", "094240.433000", "094242.433000", "094244.434000", "094246.435000", "094248.435000", "094250.435000", "094252.433000", "094254.433000", "094256.433000", "094258.434000", "094300.434000", "094302.443000", "094304.435000", "094306.435000", "094308.435000", "094310.433000", "094312.434000", "094314.433000", "094316.434000", "094318.433000", "094320.434000", "094322.435000", "094324.435000", "094326.435000", "094328.434000", "094330.433000", "094332.433000", "094334.434000", "094336.434000", "094338.435000", "094340.434000", "094342.435000", "094344.434000", "094346.434000", "094348.434000", "094350.434000", "094352.434000", "094354.434000", "094356.434000", "094358.435000", "094400.435000", "094402.434000", "094404.434000", "094406.434000", "094408.434000", "094410.434000", "094412.434000", "094414.435000", "094416.435000", "094418.435000", "094420.434000", "094422.434000", "094424.434000", "094426.433000", "094428.433000", "094430.435000", "094432.435000", "094434.434000", "094436.435000", "094438.434000", "094440.434000", "094442.434000", "094444.434000", "094446.434000", "094448.435000", "094450.435000", "094452.435000", "094454.434000", "094456.434000", "094458.433000", "094500.434000", "094502.434000", "094504.435000", "094506.434000", "094508.434000", "094510.435000", "094512.434000", "094514.433000", "094516.434000", "094518.434000", "094520.434000", "094522.435000", "094524.434000", "094526.434000", "094528.435000", "094530.434000", "094532.434000", "094534.434000", "094536.434000", "094538.434000", "094540.434000", "094542.434000", "094544.434000", "094546.434000", "094548.194000"],
      "InstanceCreationTime": ["093718.939000", "093720.434000", "093722.434000", "093724.434000", "093726.434000", "093728.433000", "093730.435000", "093732.435000", "093734.435000", "093736.435000", "093738.434000", "093740.434000", "093742.433000", "093744.433000", "093746.433000", "093748.435000", "093750.435000", "093752.434000", "093754.433000", "093756.433000", "093758.434000", "093800.434000", "093802.434000", "093804.433000", "093806.434000", "093808.434000", "093810.435000", "093812.434000", "093814.433000", "093816.433000", "093818.434000", "093820.433000", "093822.435000", "093824.434000", "093826.434000", "093828.434000", "093830.434000", "093832.434000", "093834.433000", "093836.433000", "093838.433000", "093840.434000", "093842.434000", "093844.435000", "093846.434000", "093848.434000", "093850.433000", "093852.434000", "093854.433000", "093856.433000", "093858.435000", "093900.435000", "093902.434000", "093904.434000", "093906.433000", "093908.433000", "093910.434000", "093912.433000", "093914.433000", "093916.435000", "093918.435000", "093920.435000", "093922.434000", "093924.434000", "093926.433000", "093928.433000", "093930.433000", "093932.435000", "093934.434000", "093936.435000", "093938.435000", "093940.434000", "093942.434000", "093944.434000", "093946.433000", "093948.433000", "093950.434000", "093952.434000", "093954.434000", "093956.434000", "093958.433000", "094000.433000", "094002.433000", "094004.434000", "094006.433000", "094008.435000", "094010.435000", "094012.435000", "094014.433000", "094016.434000", "094018.434000", "094020.433000", "094022.433000", "094024.434000", "094026.435000", "094028.435000", "094030.434000", "094032.434000", "094034.434000", "094036.433000", "094038.433000", "094040.434000", "094042.434000", "094044.434000", "094046.435000", "094048.435000", "094050.433000", "094052.434000", "094054.434000", "094056.434000", "094058.434000", "094100.435000", "094102.434000", "094104.435000", "094106.435000", "094108.434000", "094110.434000", "094112.434000", "094114.433000", "094116.433000", "094118.434000", "094120.435000", "094122.434000", "094124.434000", "094126.434000", "094128.433000", "094130.433000", "094132.434000", "094134.433000", "094136.435000", "094138.435000", "094140.435000", "094142.434000", "094144.434000", "094146.434000", "094148.434000", "094150.434000", "094152.435000", "094154.434000", "094156.434000", "094158.435000", "094200.434000", "094202.434000", "094204.449000", "094206.433000", "094208.434000", "094210.435000", "094212.435000", "094214.435000", "094216.435000", "094218.434000", "094220.434000", "094222.433000", "094224.434000", "094226.434000", "094228.435000", "094230.435000", "094232.435000", "094234.434000", "094236.434000", "094238.434000", "094240.433000", "094242.433000", "094244.434000", "094246.435000", "094248.435000", "094250.435000", "094252.433000", "094254.433000", "094256.433000", "094258.434000", "094300.434000", "094302.443000", "094304.435000", "094306.435000", "094308.435000", "094310.433000", "094312.434000", "094314.433000", "094316.434000", "094318.433000", "094320.434000", "094322.435000", "094324.435000", "094326.435000", "094328.434000", "094330.433000", "094332.433000", "094334.434000", "094336.434000", "094338.435000", "094340.434000", "094342.435000", "094344.434000", "094346.434000", "094348.434000", "094350.434000", "094352.434000", "094354.434000", "094356.434000", "094358.435000", "094400.435000", "094402.434000", "094404.434000", "094406.434000", "094408.434000", "094410.434000", "094412.434000", "094414.435000", "094416.435000", "094418.435000", "094420.434000", "094422.434000", "094424.434000", "094426.433000", "094428.433000", "094430.435000", "094432.435000", "094434.434000", "094436.435000", "094438.434000", "094440.434000", "094442.434000", "094444.434000", "094446.434000", "094448.435000", "094450.435000", "094452.435000", "094454.434000", "094456.434000", "094458.433000", "094500.434000", "094502.434000", "094504.435000", "094506.434000", "094508.434000", "094510.435000", "094512.434000", "094514.433000", "094516.434000", "094518.434000", "094520.434000", "094522.435000", "094524.434000", "094526.434000", "094528.435000", "094530.434000", "094532.434000", "094534.434000", "094536.434000", "094538.434000", "094540.434000", "094542.434000", "094544.434000", "094546.434000", "094548.194000"],
      "InstanceNumber": [1, 2, 3, 4, 5, 6, 7, 8, 9, 10, 11, 12, 13, 14, 15, 16, 17, 18, 19, 20, 21, 22, 23, 24, 25, 26, 27, 28, 29, 30, 31, 32, 33, 34, 35, 36, 37, 38, 39, 40, 41, 42, 43, 44, 45, 46, 47, 48, 49, 50, 51, 52, 53, 54, 55, 56, 57, 58, 59, 60, 61, 62, 63, 64, 65, 66, 67, 68, 69, 70, 71, 72, 73, 74, 75, 76, 77, 78, 79, 80, 81, 82, 83, 84, 85, 86, 87, 88, 89, 90, 91, 92, 93, 94, 95, 96, 97, 98, 99, 100, 101, 102, 103, 104, 105, 106, 107, 108, 109, 110, 111, 112, 113, 114, 115, 116, 117, 118, 119, 120, 121, 122, 123, 124, 125, 126, 127, 128, 129, 130, 131, 132, 133, 134, 135, 136, 137, 138, 139, 140, 141, 142, 143, 144, 145, 146, 147, 148, 149, 150, 151, 152, 153, 154, 155, 156, 157, 158, 159, 160, 161, 162, 163, 164, 165, 166, 167, 168, 169, 170, 171, 172, 173, 174, 175, 176, 177, 178, 179, 180, 181, 182, 183, 184, 185, 186, 187, 188, 189, 190, 191, 192, 193, 194, 195, 196, 197, 198, 199, 200, 201, 202, 203, 204, 205, 206, 207, 208, 209, 210, 211, 212, 213, 214, 215, 216, 217, 218, 219, 220, 221, 222, 223, 224, 225, 226, 227, 228, 229, 230, 231, 232, 233, 234, 235, 236, 237, 238, 239, 240, 241, 242, 243, 244, 245, 246, 247, 248, 249, 250, 251, 252, 253, 254, 255, 256],
      "LargestImagePixelValue": [3360, 3318, 3347, 3284, 3318, 3285, 3291, 3250, 3322, 3266, 3307, 3293, 3383, 3314, 3307, 3345, 3279, 3296, 3330, 3328, 3328, 3346, 3380, 3314, 3400, 3353, 3297, 3351, 3331, 3368, 3324, 3369, 3329, 3352, 3326, 3335, 3325, 3303, 3363, 3323, 3302, 3296, 3335, 3323, 3380, 3325, 3319, 3287, 3368, 3308, 3334, 3317, 3330, 3344, 3321, 3321, 3332, 3290, 3323, 3344, 3365, 3356, 3320, 3321, 3341, 3303, 3275, 3329, 3318, 3329, 3322, 3322, 3335, 3328, 3344, 3308, 3403, 3358, 3313, 3328, 3280, 3288, 3247, 3286, 3287, 3305, 3326, 3329, 3301, 3337, 3309, 3352, 3376, 3334, 3336, 3348, 3272, 3374, 3362, 3371, 3395, 3398, 3410, 3334, 3384, 3361, 3380, 3381, 3376, 3339, 3325, 3396, 3368, 3347, 3335, 3347, 3292, 3347, 3381, 3464, 3365, 3368, 3359, 3359, 3381, 3387, 3393, 3368, 3439, 3342, 3366, 3360, 3363, 3388, 3386, 3348, 3379, 3304, 3303, 3360, 3327, 3342, 3351, 3357, 3378, 3370, 3370, 3370, 3372, 3372, 3349, 3377, 3392, 3381, 3417, 3384, 3426, 3397, 3415, 3412, 3378, 3367, 3425, 3340, 3409, 3328, 3394, 3359, 3386, 3384, 3434, 3403, 3400, 3335, 3359, 3375, 3315, 3379, 3286, 3340, 3327, 3400, 3360, 3379, 3366, 3359, 3366, 3384, 3383, 3390, 3375, 3404, 3358, 3327, 3377, 3346, 3376, 3363, 3331, 3371, 3387, 3273, 3365, 3355, 3277, 3361, 3274, 3341, 3329, 3396, 3323, 3364, 3311, 3376, 3331, 3397, 3330, 3618, 3331, 3387, 3312, 3405, 3298, 3350, 3292, 3400, 3302, 3353, 3305, 3409, 3349, 3370, 3300, 3381, 3319, 3312, 3309, 3238, 3298, 3287, 3313, 3301, 3299, 3269, 3370, 3268, 3324, 3320, 3315, 3297, 3302, 3281, 3302, 3272, 3300, 3273],
      "WindowCenter": [820.0, 818.0, 818.0, 818.0, 817.0, 817.0, 816.0, 816.0, 817.0, 817.0, 817.0, 815.0, 816.0, 817.0, 819.0, 819.0, 817.0, 816.0, 815.0, 816.0, 818.0, 817.0, 817.0, 817.0, 818.0, 816.0, 817.0, 818.0, 819.0, 818.0, 818.0, 817.0, 817.0, 817.0, 816.0, 816.0, 815.0, 815.0, 817.0, 817.0, 819.0, 818.0, 816.0, 815.0, 814.0, 813.0, 813.0, 815.0, 816.0, 815.0, 816.0, 818.0, 818.0, 817.0, 814.0, 815.0, 816.0, 816.0, 815.0, 815.0, 815.0, 814.0, 814.0, 815.0, 817.0, 816.0, 815.0, 815.0, 814.0, 813.0, 815.0, 816.0, 819.0, 819.0, 818.0, 816.0, 817.0, 817.0, 818.0, 817.0, 814.0, 813.0, 814.0, 814.0, 814.0, 814.0, 815.0, 816.0, 817.0, 817.0, 817.0, 816.0, 816.0, 818.0, 819.0, 819.0, 818.0, 821.0, 819.0, 817.0, 817.0, 817.0, 817.0, 818.0, 818.0, 818.0, 819.0, 820.0, 819.0, 817.0, 815.0, 816.0, 816.0, 817.0, 818.0, 816.0, 816.0, 816.0, 817.0, 817.0, 816.0, 815.0, 815.0, 815.0, 815.0, 816.0, 816.0, 817.0, 816.0, 814.0, 814.0, 816.0, 817.0, 817.0, 817.0, 817.0, 818.0, 815.0, 814.0, 814.0, 814.0, 813.0, 812.0, 813.0, 816.0, 817.0, 817.0, 816.0, 816.0, 817.0, 819.0, 820.0, 819.0, 818.0, 820.0, 822.0, 822.0, 819.0, 818.0, 817.0, 817.0, 818.0, 819.0, 818.0, 818.0, 817.0, 817.0, 815.0, 816.0, 818.0, 819.0, 817.0, 815.0, 815.0, 817.0, 817.0, 818.0, 820.0, 820.0, 819.0, 817.0, 816.0, 815.0, 815.0, 816.0, 817.0, 818.0, 817.0, 816.0, 816.0, 816.0, 816.0, 818.0, 818.0, 820.0, 819.0, 818.0, 816.0, 816.0, 818.0, 819.0, 816.0, 815.0, 813.0, 811.0, 811.0, 813.0, 814.0, 815.0, 816.0, 814.0, 815.0, 817.0, 817.0, 816.0, 815.0, 815.0, 817.0, 817.0, 816.0, 814.0, 814.0, 812.0, 813.0, 813.0, 814.0, 813.0, 814.0, 816.0, 816.0, 814.0, 812.0, 812.0, 812.0, 812.0, 813.0, 814.0, 814.0, 813.0, 812.0, 812.0, 814.0, 814.0, 814.0, 813.0, 811.0, 813.0, 814.0, 814.0, 813.0, 812.0, 813.0, 814.0, 815.0, 814.0, 814.0],
      "WindowWidth": [1758.0, 1754.0, 1752.0, 1751.0, 1749.0, 1748.0, 1747.0, 1747.0, 1750.0, 1749.0, 1748.0, 1744.0, 1746.0, 1751.0, 1755.0, 1755.0, 1750.0, 1746.0, 1745.0, 1748.0, 1751.0, 1749.0, 1749.0, 1750.0, 1753.0, 1748.0, 1749.0, 1754.0, 1754.0, 1753.0, 1751.0, 1750.0, 1749.0, 1749.0, 1747.0, 1746.0, 1745.0, 1745.0, 1749.0, 1751.0, 1755.0, 1751.0, 1746.0, 1743.0, 1743.0, 1740.0, 1741.0, 1744.0, 1747.0, 1744.0, 1748.0, 1754.0, 1753.0, 1749.0, 1743.0, 1745.0, 1748.0, 1747.0, 1745.0, 1745.0, 1744.0, 1741.0, 1741.0, 1745.0, 1748.0, 1745.0, 1743.0, 1745.0, 1741.0, 1740.0, 1745.0, 1748.0, 1754.0, 1755.0, 1751.0, 1746.0, 1751.0, 1751.0, 1751.0, 1748.0, 1742.0, 1739.0, 1740.0, 1742.0, 1742.0, 1741.0, 1744.0, 1748.0, 1749.0, 1749.0, 1749.0, 1747.0, 1748.0, 1751.0, 1755.0, 1756.0, 1752.0, 1761.0, 1754.0, 1749.0, 1748.0, 1750.0, 1750.0, 1751.0, 1753.0, 1752.0, 1754.0, 1756.0, 1756.0, 1749.0, 1744.0, 1746.0, 1746.0, 1750.0, 1753.0, 1748.0, 1747.0, 1747.0, 1749.0, 1749.0, 1746.0, 1744.0, 1745.0, 1743.0, 1744.0, 1746.0, 1746.0, 1748.0, 1746.0, 1742.0, 1742.0, 1746.0, 1750.0, 1749.0, 1749.0, 1750.0, 1751.0, 1744.0, 1741.0, 1742.0, 1741.0, 1737.0, 1735.0, 1739.0, 1746.0, 1750.0, 1749.0, 1746.0, 1748.0, 1750.0, 1754.0, 1757.0, 1755.0, 1752.0, 1758.0, 1762.0, 1762.0, 1755.0, 1751.0, 1750.0, 1748.0, 1751.0, 1753.0, 1751.0, 1751.0, 1749.0, 1748.0, 1743.0, 1746.0, 1752.0, 1754.0, 1748.0, 1744.0, 1744.0, 1747.0, 1749.0, 1751.0, 1756.0, 1757.0, 1754.0, 1747.0, 1745.0, 1743.0, 1743.0, 1747.0, 1750.0, 1750.0, 1749.0, 1747.0, 1745.0, 1745.0, 1747.0, 1750.0, 1751.0, 1756.0, 1755.0, 1750.0, 1745.0, 1747.0, 1750.0, 1753.0, 1745.0, 1743.0, 1738.0, 1734.0, 1734.0, 1737.0, 1742.0, 1744.0, 1745.0, 1742.0, 1744.0, 1749.0, 1749.0, 1747.0, 1744.0, 1743.0, 1750.0, 1748.0, 1745.0, 1741.0, 1740.0, 1735.0, 1737.0, 1739.0, 1741.0, 1739.0, 1741.0, 1745.0, 1746.0, 1740.0, 1735.0, 1734.0, 1736.0, 1736.0, 1739.0, 1741.0, 1740.0, 1737.0, 1734.0, 1736.0, 1741.0, 1742.0, 1739.0, 1737.0, 1733.0, 1738.0, 1742.0, 1740.0, 1738.0, 1735.0, 1737.0, 1741.0, 1743.0, 1740.0, 1740.0]
    },
    "slices": {}
  }
}