{
 "AcquisitionMatrixPE": 100,
 "AcquisitionNumber": 1,
 "AcquisitionTime": "09:46:43.915000",
 "BandwidthPerPixelPhaseEncode": 18.519,
 "BaseResolution": 100,
 "BodyPartExamined": "BRAIN",
 "ConsistencyInfo": "N4_VE11C_LATEST_20160120",
 "ConversionSoftware": "dcm2niix",
 "ConversionSoftwareVersion": "v1.0.20180622 GCC4.9.2",
 "DerivedVendorReportedEchoSpacing": 0.000539986,
 "DeviceSerialNumber": "166078",
 "DwellTime": 2.1e-06,
 "EchoTime": 0.034,
 "EchoTrainLength": 100,
 "EffectiveEchoSpacing": 0.000539986,
 "FlipAngle": 90,
 "ImageOrientationPatientDICOM": [
  1,
  0,
  0,
  0,
  0.973179,
  -0.23005
 ],
 "ImageType": [
  "ORIGINAL",
  "PRIMARY",
  "M",
  "ND",
  "MOSAIC"
 ],
 "InPlanePhaseEncodingDirectionDICOM": "COL",
 "InstitutionAddress": "Street_StreetNo_Bei_Jing_District_CN_ZIP",
 "InstitutionName": "BeiJing_Normal_University",
 "InstitutionalDepartmentName": "Department",
 "MRAcquisitionType": "2D",
 "MagneticFieldStrength": 3,
 "Manufacturer": "Siemens",
 "ManufacturersModelName": "Prisma",
 "Modality": "MR",
 "MultibandAccelerationFactor": 3,
 "PartialFourier": 1,
 "PatientPosition": "HFS",
 "PercentPhaseFOV": 100,
 "PhaseEncodingDirection": "j-",
 "PhaseEncodingSteps": 100,
 "PhaseResolution": 1,
 "PixelBandwidth": 2380,
 "ProcedureStepDescription": "BNU_P2018_64CH_Zhen.ZongLei",
 "ProtocolName": "bold_100x100_s3_2x2x2_static_256",
 "PulseSequenceDetails": "%SiemensSeq%_ep2d_bold",
 "ReceiveCoilActiveElements": "HC1-7;NC1",
 "ReceiveCoilName": "HeadNeck_64",
 "ReconMatrixPE": 100,
 "RepetitionTime": 2,
 "SAR": 0.0663103,
 "ScanOptions": "FS",
 "ScanningSequence": "EP",
 "SequenceName": "_epfid2d1_100",
 "SequenceVariant": "SK",
 "SeriesDescription": "bold_100x100_s3_2x2x2_static_256",
 "SeriesNumber": 7,
 "ShimSetting": [
  -5447,
  -11477,
  -1275,
  328,
  42,
  -124,
  -173,
  51
 ],
 "SliceThickness": 2,
 "SliceTiming": [
  1.485,
  0,
  0.99,
  0.0825,
  1.0725,
  0.165,
  1.155,
  0.2475,
  1.2375,
  0.33,
  1.32,
  0.4125,
  1.4025,
  0.5775,
  1.5675,
  0.66,
  1.65,
  0.7425,
  1.7325,
  0.825,
  1.815,
  0.9075,
  1.8975,
  0.495,
  1.485,
  0,
  0.99,
  0.0825,
  1.0725,
  0.165,
  1.155,
  0.2475,
  1.2375,
  0.33,
  1.32,
  0.4125,
  1.4025,
  0.5775,
  1.5675,
  0.66,
  1.65,
  0.7425,
  1.7325,
  0.825,
  1.815,
  0.9075,
  1.8975,
  0.495,
  1.485,
  0,
  0.99,
  0.0825,
  1.0725,
  0.165,
  1.155,
  0.2475,
  1.2375,
  0.33,
  1.32,
  0.4125,
  1.4025,
  0.5775,
  1.5675,
  0.66,
  1.65,
  0.7425,
  1.7325,
  0.825,
  1.815,
  0.9075,
  1.8975,
  0.495
 ],
 "SoftwareVersions": "syngo_MR_E11",
 "SpacingBetweenSlices": 2,
 "StationName": "AWP166078",
 "TaskName": "imagenet",
 "TotalReadoutTime": 0.0534586,
 "TxRefAmp": 221.315,
 "dcmmeta_affine": [
  [
   -2.0,
   0.0,
   0.0,
   102.69879150390625
  ],
  [
   0.0,
   1.9463577270507812,
   -0.4600994884967804,
   -80.37294006347656
  ],
  [
   0.0,
   0.4600994884967804,
   1.9463577270507812,
   -85.62611389160156
  ],
  [
   0.0,
   0.0,
   0.0,
   1.0
  ]
 ],
 "dcmmeta_reorient_transform": [
  [
   0.0,
   -1.0,
   0.0,
   99.0
  ],
  [
   1.0,
   0.0,
   0.0,
   0.0
  ],
  [
   0.0,
   0.0,
   1.0,
   0.0
  ],
  [
   0.0,
   0.0,
   0.0,
   1.0
  ]
 ],
 "dcmmeta_shape": [
  100,
  100,
  72,
  256
 ],
 "dcmmeta_slice_dim": 2,
 "dcmmeta_version": 0.6,
 "global": {
  "const": {
   "AcquisitionMatrix": [
    100,
    0,
    0,
    100
   ],
   "AngioFlag": "N",
   "BitsAllocated": 16,
   "BitsStored": 12,
   "BodyPartExamined": "BRAIN",
   "Columns": 900,
   "EchoNumbers": 1,
   "EchoTime": 34.0,
   "EchoTrainLength": 100,
   "FlipAngle": 90.0,
   "HighBit": 11,
   "ImageOrientationPatient": [
    1.0,
    0.0,
    0.0,
    0.0,
    0.973178872716,
    -0.2300497374466
   ],
   "ImagePositionPatient": [
    -902.69879508018,
    -890.85957686743,
    143.96352209423
   ],
   "ImageType": [
    "ORIGINAL",
    "PRIMARY",
    "M",
    "ND",
    "MOSAIC"
   ],
   "ImagedNucleus": "1H",
   "ImagingFrequency": 123.25774,
   "InPlanePhaseEncodingDirection": "COL",
   "MRAcquisitionType": "2D",
   "MagneticFieldStrength": 3.0,
   "Manufacturer": "SIEMENS",
   "ManufacturerModelName": "Prisma",
   "Modality": "MR",
   "NumberOfAverages": 1.0,
   "NumberOfPhaseEncodingSteps": 100,
   "PercentPhaseFieldOfView": 100.0,
   "PercentSampling": 100.0,
   "PerformedProcedureStepStartTime": "085258.449000",
   "PhotometricInterpretation": "MONOCHROME2",
   "PixelBandwidth": 2380.0,
   "PixelRepresentation": 0,
   "PixelSpacing": [
    2.0,
    2.0
   ],
   "ProtocolName": "bold_100x100_s3_2x2x2_static_256",
   "RepetitionTime": 2000.0,
   "Rows": 900,
   "SAR": 0.06631033914613,
   "SamplesPerPixel": 1,
   "ScanOptions": "FS",
   "ScanningSequence": "EP",
   "SequenceName": "*epfid2d1_100",
   "SequenceVariant": "SK",
   "SeriesDescription": "bold_100x100_s3_2x2x2_static_256",
   "SeriesNumber": 7,
   "SeriesTime": "094645.980000",
   "SliceLocation": -64.839753616211,
   "SliceThickness": 2.0,
   "SmallestImagePixelValue": 0,
   "SoftwareVersions": "syngo MR E11",
   "SpacingBetweenSlices": 2.0000000314449,
   "SpecificCharacterSet": "ISO_IR 100",
   "StudyID": "1",
   "StudyTime": "085258.378000",
   "TransmitCoilName": "Body",
   "VariableFlipAngleFlag": "N",
   "WindowCenterWidthExplanation": "Algo1",
   "dBdt": 0.0
  },
  "slices": {}
 },
 "time": {
  "samples": {
   "AcquisitionNumber": [
    1,
    2,
    3,
    4,
    5,
    6,
    7,
    8,
    9,
    10,
    11,
    12,
    13,
    14,
    15,
    16,
    17,
    18,
    19,
    20,
    21,
    22,
    23,
    24,
    25,
    26,
    27,
    28,
    29,
    30,
    31,
    32,
    33,
    34,
    35,
    36,
    37,
    38,
    39,
    40,
    41,
    42,
    43,
    44,
    45,
    46,
    47,
    48,
    49,
    50,
    51,
    52,
    53,
    54,
    55,
    56,
    57,
    58,
    59,
    60,
    61,
    62,
    63,
    64,
    65,
    66,
    67,
    68,
    69,
    70,
    71,
    72,
    73,
    74,
    75,
    76,
    77,
    78,
    79,
    80,
    81,
    82,
    83,
    84,
    85,
    86,
    87,
    88,
    89,
    90,
    91,
    92,
    93,
    94,
    95,
    96,
    97,
    98,
    99,
    100,
    101,
    102,
    103,
    104,
    105,
    106,
    107,
    108,
    109,
    110,
    111,
    112,
    113,
    114,
    115,
    116,
    117,
    118,
    119,
    120,
    121,
    122,
    123,
    124,
    125,
    126,
    127,
    128,
    129,
    130,
    131,
    132,
    133,
    134,
    135,
    136,
    137,
    138,
    139,
    140,
    141,
    142,
    143,
    144,
    145,
    146,
    147,
    148,
    149,
    150,
    151,
    152,
    153,
    154,
    155,
    156,
    157,
    158,
    159,
    160,
    161,
    162,
    163,
    164,
    165,
    166,
    167,
    168,
    169,
    170,
    171,
    172,
    173,
    174,
    175,
    176,
    177,
    178,
    179,
    180,
    181,
    182,
    183,
    184,
    185,
    186,
    187,
    188,
    189,
    190,
    191,
    192,
    193,
    194,
    195,
    196,
    197,
    198,
    199,
    200,
    201,
    202,
    203,
    204,
    205,
    206,
    207,
    208,
    209,
    210,
    211,
    212,
    213,
    214,
    215,
    216,
    217,
    218,
    219,
    220,
    221,
    222,
    223,
    224,
    225,
    226,
    227,
    228,
    229,
    230,
    231,
    232,
    233,
    234,
    235,
    236,
    237,
    238,
    239,
    240,
    241,
    242,
    243,
    244,
    245,
    246,
    247,
    248,
    249,
    250,
    251,
    252,
    253,
    254,
    255,
    256
   ],
   "AcquisitionTime": [
    "094643.915000",
    "094645.915000",
    "094647.915000",
    "094649.915000",
    "094651.915000",
    "094653.915000",
    "094655.915000",
    "094657.915000",
    "094659.915000",
    "094701.915000",
    "094703.915000",
    "094705.915000",
    "094707.915000",
    "094709.915000",
    "094711.915000",
    "094713.915000",
    "094715.915000",
    "094717.915000",
    "094719.915000",
    "094721.915000",
    "094723.915000",
    "094725.915000",
    "094727.915000",
    "094729.915000",
    "094731.915000",
    "094733.915000",
    "094735.915000",
    "094737.915000",
    "094739.915000",
    "094741.915000",
    "094743.915000",
    "094745.915000",
    "094747.915000",
    "094749.915000",
    "094751.915000",
    "094753.915000",
    "094755.915000",
    "094757.915000",
    "094759.915000",
    "094801.915000",
    "094803.915000",
    "094805.915000",
    "094807.915000",
    "094809.915000",
    "094811.915000",
    "094813.915000",
    "094815.915000",
    "094817.915000",
    "094819.915000",
    "094821.915000",
    "094823.915000",
    "094825.915000",
    "094827.915000",
    "094829.915000",
    "094831.915000",
    "094833.915000",
    "094835.915000",
    "094837.915000",
    "094839.915000",
    "094841.915000",
    "094843.915000",
    "094845.915000",
    "094847.915000",
    "094849.915000",
    "094851.915000",
    "094853.915000",
    "094855.915000",
    "094857.915000",
    "094859.915000",
    "094901.915000",
    "094903.915000",
    "094905.915000",
    "094907.915000",
    "094909.915000",
    "094911.915000",
    "094913.915000",
    "094915.915000",
    "094917.915000",
    "094919.915000",
    "094921.915000",
    "094923.915000",
    "094925.915000",
    "094927.915000",
    "094929.915000",
    "094931.915000",
    "094933.915000",
    "094935.915000",
    "094937.915000",
    "094939.915000",
    "094941.915000",
    "094943.915000",
    "094945.915000",
    "094947.915000",
    "094949.915000",
    "094951.915000",
    "094953.915000",
    "094955.915000",
    "094957.915000",
    "094959.915000",
    "095001.915000",
    "095003.915000",
    "095005.915000",
    "095007.915000",
    "095009.915000",
    "095011.915000",
    "095013.915000",
    "095015.915000",
    "095017.915000",
    "095019.915000",
    "095021.915000",
    "095023.915000",
    "095025.915000",
    "095027.915000",
    "095029.915000",
    "095031.915000",
    "095033.915000",
    "095035.915000",
    "095037.915000",
    "095039.915000",
    "095041.915000",
    "095043.915000",
    "095045.915000",
    "095047.915000",
    "095049.915000",
    "095051.915000",
    "095053.915000",
    "095055.915000",
    "095057.915000",
    "095059.915000",
    "095101.915000",
    "095103.915000",
    "095105.915000",
    "095107.915000",
    "095109.915000",
    "095111.915000",
    "095113.915000",
    "095115.915000",
    "095117.915000",
    "095119.915000",
    "095121.915000",
    "095123.915000",
    "095125.915000",
    "095127.915000",
    "095129.915000",
    "095131.915000",
    "095133.915000",
    "095135.915000",
    "095137.915000",
    "095139.915000",
    "095141.915000",
    "095143.915000",
    "095145.915000",
    "095147.915000",
    "095149.915000",
    "095151.915000",
    "095153.915000",
    "095155.915000",
    "095157.915000",
    "095159.915000",
    "095201.915000",
    "095203.915000",
    "095205.915000",
    "095207.915000",
    "095209.915000",
    "095211.915000",
    "095213.915000",
    "095215.915000",
    "095217.915000",
    "095219.915000",
    "095221.915000",
    "095223.915000",
    "095225.915000",
    "095227.915000",
    "095229.915000",
    "095231.915000",
    "095233.915000",
    "095235.915000",
    "095237.915000",
    "095239.915000",
    "095241.915000",
    "095243.915000",
    "095245.915000",
    "095247.915000",
    "095249.915000",
    "095251.915000",
    "095253.915000",
    "095255.915000",
    "095257.915000",
    "095259.915000",
    "095301.915000",
    "095303.915000",
    "095305.915000",
    "095307.915000",
    "095309.915000",
    "095311.915000",
    "095313.915000",
    "095315.915000",
    "095317.915000",
    "095319.915000",
    "095321.915000",
    "095323.915000",
    "095325.915000",
    "095327.915000",
    "095329.915000",
    "095331.915000",
    "095333.915000",
    "095335.915000",
    "095337.915000",
    "095339.915000",
    "095341.915000",
    "095343.915000",
    "095345.915000",
    "095347.915000",
    "095349.915000",
    "095351.915000",
    "095353.915000",
    "095355.915000",
    "095357.915000",
    "095359.915000",
    "095401.915000",
    "095403.915000",
    "095405.915000",
    "095407.915000",
    "095409.915000",
    "095411.915000",
    "095413.915000",
    "095415.915000",
    "095417.915000",
    "095419.915000",
    "095421.915000",
    "095423.915000",
    "095425.915000",
    "095427.915000",
    "095429.915000",
    "095431.915000",
    "095433.915000",
    "095435.915000",
    "095437.915000",
    "095439.915000",
    "095441.915000",
    "095443.915000",
    "095445.915000",
    "095447.915000",
    "095449.915000",
    "095451.915000",
    "095453.915000",
    "095455.915000",
    "095457.915000",
    "095459.915000",
    "095501.915000",
    "095503.915000",
    "095505.915000",
    "095507.915000",
    "095509.915000",
    "095511.915000",
    "095513.915000"
   ],
   "ContentTime": [
    "094645.984000",
    "094647.480000",
    "094649.480000",
    "094651.480000",
    "094653.480000",
    "094655.481000",
    "094657.481000",
    "094659.479000",
    "094701.479000",
    "094703.479000",
    "094705.479000",
    "094707.480000",
    "094709.481000",
    "094711.480000",
    "094713.481000",
    "094715.480000",
    "094717.479000",
    "094719.479000",
    "094721.479000",
    "094723.479000",
    "094725.480000",
    "094727.480000",
    "094729.480000",
    "094731.480000",
    "094733.480000",
    "094735.479000",
    "094737.479000",
    "094739.479000",
    "094741.480000",
    "094743.481000",
    "094745.480000",
    "094747.481000",
    "094749.480000",
    "094751.480000",
    "094753.479000",
    "094755.479000",
    "094757.479000",
    "094759.480000",
    "094801.481000",
    "094803.480000",
    "094805.480000",
    "094807.480000",
    "094809.479000",
    "094811.479000",
    "094813.480000",
    "094815.980000",
    "094817.481000",
    "094819.480000",
    "094821.480000",
    "094823.480000",
    "094825.481000",
    "094827.479000",
    "094829.479000",
    "094831.479000",
    "094833.480000",
    "094835.480000",
    "094837.480000",
    "094839.480000",
    "094841.480000",
    "094843.480000",
    "094845.480000",
    "094847.480000",
    "094849.479000",
    "094851.480000",
    "094853.481000",
    "094855.480000",
    "094857.481000",
    "094859.480000",
    "094901.481000",
    "094903.479000",
    "094905.479000",
    "094907.479000",
    "094909.480000",
    "094911.480000",
    "094913.481000",
    "094915.480000",
    "094917.481000",
    "094919.479000",
    "094921.480000",
    "094923.480000",
    "094925.480000",
    "094927.481000",
    "094929.480000",
    "094931.481000",
    "094933.480000",
    "094935.480000",
    "094937.479000",
    "094939.479000",
    "094941.479000",
    "094943.479000",
    "094945.481000",
    "094947.480000",
    "094949.481000",
    "094951.480000",
    "094953.480000",
    "094955.480000",
    "094957.479000",
    "094959.480000",
    "095001.480000",
    "095003.480000",
    "095005.981000",
    "095007.481000",
    "095009.481000",
    "095011.480000",
    "095013.480000",
    "095015.480000",
    "095017.479000",
    "095019.480000",
    "095021.480000",
    "095023.480000",
    "095025.481000",
    "095027.981000",
    "095029.479000",
    "095031.480000",
    "095033.480000",
    "095035.480000",
    "095037.480000",
    "095039.480000",
    "095041.481000",
    "095043.481000",
    "095045.480000",
    "095047.480000",
    "095049.480000",
    "095051.479000",
    "095053.480000",
    "095055.481000",
    "095057.480000",
    "095059.481000",
    "095101.480000",
    "095103.480000",
    "095105.480000",
    "095107.980000",
    "095109.479000",
    "095111.479000",
    "095113.480000",
    "095115.480000",
    "095117.481000",
    "095119.481000",
    "095121.481000",
    "095123.479000",
    "095125.479000",
    "095127.480000",
    "095129.480000",
    "095131.493000",
    "095133.481000",
    "095135.480000",
    "095137.480000",
    "095139.480000",
    "095141.480000",
    "095143.479000",
    "095145.479000",
    "095147.480000",
    "095149.480000",
    "095151.480000",
    "095153.481000",
    "095155.481000",
    "095157.480000",
    "095159.480000",
    "095201.479000",
    "095203.479000",
    "095205.481000",
    "095207.480000",
    "095209.480000",
    "095211.480000",
    "095213.481000",
    "095215.480000",
    "095217.480000",
    "095219.479000",
    "095221.480000",
    "095223.481000",
    "095225.480000",
    "095227.981000",
    "095229.480000",
    "095231.480000",
    "095233.480000",
    "095235.479000",
    "095237.479000",
    "095239.480000",
    "095241.480000",
    "095243.480000",
    "095245.480000",
    "095247.481000",
    "095249.479000",
    "095251.480000",
    "095253.479000",
    "095255.480000",
    "095257.481000",
    "095259.480000",
    "095301.480000",
    "095303.480000",
    "095305.481000",
    "095307.480000",
    "095309.480000",
    "095311.480000",
    "095313.480000",
    "095315.480000",
    "095317.481000",
    "095319.480000",
    "095321.481000",
    "095323.481000",
    "095325.479000",
    "095327.479000",
    "095329.480000",
    "095331.481000",
    "095333.481000",
    "095335.480000",
    "095337.480000",
    "095339.481000",
    "095341.480000",
    "095343.479000",
    "095345.479000",
    "095347.479000",
    "095349.481000",
    "095351.480000",
    "095353.481000",
    "095355.481000",
    "095357.481000",
    "095359.480000",
    "095401.480000",
    "095403.480000",
    "095405.479000",
    "095407.480000",
    "095409.480000",
    "095411.480000",
    "095413.481000",
    "095415.481000",
    "095417.480000",
    "095419.480000",
    "095421.479000",
    "095423.480000",
    "095425.481000",
    "095427.481000",
    "095429.480000",
    "095431.480000",
    "095433.480000",
    "095435.480000",
    "095437.479000",
    "095439.479000",
    "095441.480000",
    "095443.480000",
    "095445.481000",
    "095447.481000",
    "095449.481000",
    "095451.479000",
    "095453.479000",
    "095455.479000",
    "095457.480000",
    "095459.481000",
    "095501.481000",
    "095503.481000",
    "095505.481000",
    "095507.480000",
    "095509.480000",
    "095511.980000",
    "095513.479000",
    "095515.552000"
   ],
   "InstanceCreationTime": [
    "094645.984000",
    "094647.480000",
    "094649.480000",
    "094651.480000",
    "094653.480000",
    "094655.481000",
    "094657.481000",
    "094659.479000",
    "094701.479000",
    "094703.479000",
    "094705.479000",
    "094707.480000",
    "094709.481000",
    "094711.480000",
    "094713.481000",
    "094715.480000",
    "094717.479000",
    "094719.479000",
    "094721.479000",
    "094723.479000",
    "094725.480000",
    "094727.480000",
    "094729.480000",
    "094731.480000",
    "094733.480000",
    "094735.479000",
    "094737.479000",
    "094739.479000",
    "094741.480000",
    "094743.481000",
    "094745.480000",
    "094747.481000",
    "094749.480000",
    "094751.480000",
    "094753.479000",
    "094755.479000",
    "094757.479000",
    "094759.480000",
    "094801.481000",
    "094803.480000",
    "094805.480000",
    "094807.480000",
    "094809.479000",
    "094811.479000",
    "094813.480000",
    "094815.980000",
    "094817.481000",
    "094819.480000",
    "094821.480000",
    "094823.480000",
    "094825.481000",
    "094827.479000",
    "094829.479000",
    "094831.479000",
    "094833.480000",
    "094835.480000",
    "094837.480000",
    "094839.480000",
    "094841.480000",
    "094843.480000",
    "094845.480000",
    "094847.480000",
    "094849.479000",
    "094851.480000",
    "094853.481000",
    "094855.480000",
    "094857.481000",
    "094859.480000",
    "094901.481000",
    "094903.479000",
    "094905.479000",
    "094907.479000",
    "094909.480000",
    "094911.480000",
    "094913.481000",
    "094915.480000",
    "094917.481000",
    "094919.479000",
    "094921.480000",
    "094923.480000",
    "094925.480000",
    "094927.481000",
    "094929.480000",
    "094931.481000",
    "094933.480000",
    "094935.480000",
    "094937.479000",
    "094939.479000",
    "094941.479000",
    "094943.479000",
    "094945.481000",
    "094947.480000",
    "094949.481000",
    "094951.480000",
    "094953.480000",
    "094955.480000",
    "094957.479000",
    "094959.480000",
    "095001.480000",
    "095003.480000",
    "095005.981000",
    "095007.481000",
    "095009.481000",
    "095011.480000",
    "095013.480000",
    "095015.480000",
    "095017.479000",
    "095019.480000",
    "095021.480000",
    "095023.480000",
    "095025.481000",
    "095027.981000",
    "095029.479000",
    "095031.480000",
    "095033.480000",
    "095035.480000",
    "095037.480000",
    "095039.480000",
    "095041.481000",
    "095043.481000",
    "095045.480000",
    "095047.480000",
    "095049.480000",
    "095051.479000",
    "095053.480000",
    "095055.481000",
    "095057.480000",
    "095059.481000",
    "095101.480000",
    "095103.480000",
    "095105.480000",
    "095107.980000",
    "095109.479000",
    "095111.479000",
    "095113.480000",
    "095115.480000",
    "095117.481000",
    "095119.481000",
    "095121.481000",
    "095123.479000",
    "095125.479000",
    "095127.480000",
    "095129.480000",
    "095131.493000",
    "095133.481000",
    "095135.480000",
    "095137.480000",
    "095139.480000",
    "095141.480000",
    "095143.479000",
    "095145.479000",
    "095147.480000",
    "095149.480000",
    "095151.480000",
    "095153.481000",
    "095155.481000",
    "095157.480000",
    "095159.480000",
    "095201.479000",
    "095203.479000",
    "095205.481000",
    "095207.480000",
    "095209.480000",
    "095211.480000",
    "095213.481000",
    "095215.480000",
    "095217.480000",
    "095219.479000",
    "095221.480000",
    "095223.481000",
    "095225.480000",
    "095227.981000",
    "095229.480000",
    "095231.480000",
    "095233.480000",
    "095235.479000",
    "095237.479000",
    "095239.480000",
    "095241.480000",
    "095243.480000",
    "095245.480000",
    "095247.481000",
    "095249.479000",
    "095251.480000",
    "095253.479000",
    "095255.480000",
    "095257.481000",
    "095259.480000",
    "095301.480000",
    "095303.480000",
    "095305.481000",
    "095307.480000",
    "095309.480000",
    "095311.480000",
    "095313.480000",
    "095315.480000",
    "095317.481000",
    "095319.480000",
    "095321.481000",
    "095323.481000",
    "095325.479000",
    "095327.479000",
    "095329.480000",
    "095331.481000",
    "095333.481000",
    "095335.480000",
    "095337.480000",
    "095339.481000",
    "095341.480000",
    "095343.479000",
    "095345.479000",
    "095347.479000",
    "095349.481000",
    "095351.480000",
    "095353.481000",
    "095355.481000",
    "095357.481000",
    "095359.480000",
    "095401.480000",
    "095403.480000",
    "095405.479000",
    "095407.480000",
    "095409.480000",
    "095411.480000",
    "095413.481000",
    "095415.481000",
    "095417.480000",
    "095419.480000",
    "095421.479000",
    "095423.480000",
    "095425.481000",
    "095427.481000",
    "095429.480000",
    "095431.480000",
    "095433.480000",
    "095435.480000",
    "095437.479000",
    "095439.479000",
    "095441.480000",
    "095443.480000",
    "095445.481000",
    "095447.481000",
    "095449.481000",
    "095451.479000",
    "095453.479000",
    "095455.479000",
    "095457.480000",
    "095459.481000",
    "095501.481000",
    "095503.481000",
    "095505.481000",
    "095507.480000",
    "095509.480000",
    "095511.980000",
    "095513.479000",
    "095515.552000"
   ],
   "InstanceNumber": [
    1,
    2,
    3,
    4,
    5,
    6,
    7,
    8,
    9,
    10,
    11,
    12,
    13,
    14,
    15,
    16,
    17,
    18,
    19,
    20,
    21,
    22,
    23,
    24,
    25,
    26,
    27,
    28,
    29,
    30,
    31,
    32,
    33,
    34,
    35,
    36,
    37,
    38,
    39,
    40,
    41,
    42,
    43,
    44,
    45,
    46,
    47,
    48,
    49,
    50,
    51,
    52,
    53,
    54,
    55,
    56,
    57,
    58,
    59,
    60,
    61,
    62,
    63,
    64,
    65,
    66,
    67,
    68,
    69,
    70,
    71,
    72,
    73,
    74,
    75,
    76,
    77,
    78,
    79,
    80,
    81,
    82,
    83,
    84,
    85,
    86,
    87,
    88,
    89,
    90,
    91,
    92,
    93,
    94,
    95,
    96,
    97,
    98,
    99,
    100,
    101,
    102,
    103,
    104,
    105,
    106,
    107,
    108,
    109,
    110,
    111,
    112,
    113,
    114,
    115,
    116,
    117,
    118,
    119,
    120,
    121,
    122,
    123,
    124,
    125,
    126,
    127,
    128,
    129,
    130,
    131,
    132,
    133,
    134,
    135,
    136,
    137,
    138,
    139,
    140,
    141,
    142,
    143,
    144,
    145,
    146,
    147,
    148,
    149,
    150,
    151,
    152,
    153,
    154,
    155,
    156,
    157,
    158,
    159,
    160,
    161,
    162,
    163,
    164,
    165,
    166,
    167,
    168,
    169,
    170,
    171,
    172,
    173,
    174,
    175,
    176,
    177,
    178,
    179,
    180,
    181,
    182,
    183,
    184,
    185,
    186,
    187,
    188,
    189,
    190,
    191,
    192,
    193,
    194,
    195,
    196,
    197,
    198,
    199,
    200,
    201,
    202,
    203,
    204,
    205,
    206,
    207,
    208,
    209,
    210,
    211,
    212,
    213,
    214,
    215,
    216,
    217,
    218,
    219,
    220,
    221,
    222,
    223,
    224,
    225,
    226,
    227,
    228,
    229,
    230,
    231,
    232,
    233,
    234,
    235,
    236,
    237,
    238,
    239,
    240,
    241,
    242,
    243,
    244,
    245,
    246,
    247,
    248,
    249,
    250,
    251,
    252,
    253,
    254,
    255,
    256
   ],
   "LargestImagePixelValue": [
    3484,
    3466,
    3464,
    3492,
    3418,
    3429,
    3474,
    3456,
    3432,
    3412,
    3453,
    3412,
    3431,
    3428,
    3447,
    3456,
    3451,
    3470,
    3468,
    3444,
    3455,
    3474,
    3478,
    3451,
    3485,
    3471,
    3485,
    3479,
    3482,
    3466,
    3471,
    3487,
    3481,
    3472,
    3473,
    3440,
    3495,
    3440,
    3448,
    3446,
    3477,
    3476,
    3497,
    3464,
    3496,
    3449,
    3469,
    3454,
    3469,
    3446,
    3484,
    3459,
    3502,
    3461,
    3476,
    3451,
    3479,
    3451,
    3464,
    3437,
    3486,
    3441,
    3488,
    3453,
    3491,
    3450,
    3487,
    3433,
    3475,
    3431,
    3464,
    3433,
    3448,
    3412,
    3456,
    3425,
    3442,
    3456,
    3410,
    3440,
    3422,
    3382,
    3394,
    3408,
    3426,
    3409,
    3427,
    3407,
    3421,
    3439,
    3453,
    3384,
    3423,
    3386,
    3451,
    3409,
    3366,
    3424,
    3414,
    3463,
    3467,
    3434,
    3426,
    3373,
    3560,
    3427,
    3421,
    3366,
    3395,
    3367,
    3407,
    3420,
    3376,
    3414,
    3381,
    3398,
    3366,
    3350,
    3426,
    3399,
    3382,
    3369,
    3343,
    3377,
    3379,
    3383,
    3386,
    3408,
    3345,
    3411,
    3336,
    3392,
    3349,
    3402,
    3375,
    3383,
    3393,
    3411,
    3342,
    3407,
    3382,
    3369,
    3381,
    3365,
    3342,
    3413,
    3355,
    3374,
    3325,
    3358,
    3324,
    3390,
    3349,
    3370,
    3384,
    3366,
    3390,
    3353,
    3337,
    3408,
    3346,
    3325,
    3361,
    3384,
    3320,
    3348,
    3407,
    3326,
    3400,
    3340,
    3351,
    3365,
    3345,
    3387,
    3388,
    3398,
    3402,
    3403,
    3293,
    3318,
    3290,
    3272,
    3294,
    3281,
    3297,
    3290,
    3326,
    3279,
    3342,
    3294,
    3333,
    3321,
    3328,
    3330,
    3328,
    3335,
    3291,
    3282,
    3253,
    3289,
    3315,
    3338,
    3302,
    3321,
    3300,
    3345,
    3337,
    3338,
    3375,
    3320,
    3392,
    3322,
    3366,
    3425,
    3377,
    3406,
    3374,
    3373,
    3367,
    3398,
    3353,
    3368,
    3767,
    3350,
    3305,
    3362,
    3330,
    3358,
    3300,
    3390,
    3343,
    3384,
    3333,
    3401,
    3289,
    3296,
    3316,
    3362,
    3340,
    3378,
    3302,
    3381,
    3353,
    3385,
    3376,
    3380,
    3308,
    3395,
    3291,
    3348,
    3327,
    3412,
    3338,
    3390,
    3353,
    3491
   ],
   "WindowCenter": [
    821.0,
    819.0,
    819.0,
    819.0,
    818.0,
    819.0,
    819.0,
    819.0,
    818.0,
    818.0,
    819.0,
    818.0,
    816.0,
    815.0,
    816.0,
    816.0,
    817.0,
    817.0,
    815.0,
    815.0,
    816.0,
    818.0,
    819.0,
    818.0,
    818.0,
    817.0,
    818.0,
    817.0,
    817.0,
    818.0,
    818.0,
    818.0,
    817.0,
    817.0,
    817.0,
    816.0,
    816.0,
    816.0,
    816.0,
    816.0,
    817.0,
    816.0,
    816.0,
    817.0,
    818.0,
    816.0,
    816.0,
    817.0,
    818.0,
    818.0,
    816.0,
    816.0,
    816.0,
    817.0,
    818.0,
    817.0,
    815.0,
    816.0,
    817.0,
    818.0,
    817.0,
    816.0,
    815.0,
    814.0,
    815.0,
    816.0,
    817.0,
    817.0,
    817.0,
    816.0,
    816.0,
    816.0,
    816.0,
    816.0,
    817.0,
    816.0,
    817.0,
    817.0,
    818.0,
    819.0,
    819.0,
    816.0,
    815.0,
    814.0,
    814.0,
    813.0,
    814.0,
    815.0,
    816.0,
    818.0,
    819.0,
    818.0,
    816.0,
    815.0,
    816.0,
    816.0,
    818.0,
    819.0,
    818.0,
    817.0,
    816.0,
    816.0,
    818.0,
    817.0,
    815.0,
    815.0,
    816.0,
    817.0,
    817.0,
    815.0,
    815.0,
    814.0,
    815.0,
    815.0,
    815.0,
    815.0,
    814.0,
    814.0,
    815.0,
    815.0,
    817.0,
    817.0,
    818.0,
    816.0,
    816.0,
