{
  "AcquisitionMatrixPE": 100,
  "AcquisitionNumber": 1,
  "AcquisitionTime": "16:22:26.130000",
  "BandwidthPerPixelPhaseEncode": 18.519,
  "BaseResolution": 100,
  "BodyPartExamined": "BRAIN",
  "ConsistencyInfo": "N4_VE11C_LATEST_20160120",
  "ConversionSoftware": "dcm2niix",
  "ConversionSoftwareVersion": "v1.0.20180622 GCC4.9.2",
  "DerivedVendorReportedEchoSpacing": 0.000539986,
  "DeviceSerialNumber": "166078",
  "DwellTime": 2.1e-06,
  "EchoTime": 0.034,
  "EchoTrainLength": 100,
  "EffectiveEchoSpacing": 0.000539986,
  "FlipAngle": 90,
  "ImageOrientationPatientDICOM": [0.999893, 0.00262549, -0.0143657, -0.00698067, 0.949972, -0.312256],
  "ImageType": [
    "ORIGINAL",
    "PRIMARY",
    "M",
    "ND",
    "MOSAIC"
],
  "InPlanePhaseEncodingDirectionDICOM": "COL",
  "InstitutionAddress": "Street_StreetNo_Bei_Jing_District_CN_ZIP",
  "InstitutionName": "BeiJing_Normal_University",
  "InstitutionalDepartmentName": "Department",
  "MRAcquisitionType": "2D",
  "MagneticFieldStrength": 3,
  "Manufacturer": "Siemens",
  "ManufacturersModelName": "Prisma",
  "Modality": "MR",
  "MultibandAccelerationFactor": 3,
  "PartialFourier": 1,
  "PatientPosition": "HFS",
  "PercentPhaseFOV": 100,
  "PhaseEncodingDirection": "j-",
  "PhaseEncodingSteps": 100,
  "PhaseResolution": 1,
  "PixelBandwidth": 2380,
  "ProcedureStepDescription": "BNU_P2018_64CH_Zhen.ZongLei",
  "ProtocolName": "bold_100x100_s3_2x2x2_static_test_241",
  "PulseSequenceDetails": "%SiemensSeq%_ep2d_bold",
  "ReceiveCoilActiveElements": "HC1-7;NC1",
  "ReceiveCoilName": "HeadNeck_64",
  "ReconMatrixPE": 100,
  "RepetitionTime": 2,
  "SAR": 0.0689345,
  "ScanOptions": "FS",
  "ScanningSequence": "EP",
  "SequenceName": "_epfid2d1_100",
  "SequenceVariant": "SK",
  "SeriesDescription": "bold_100x100_s3_2x2x2_static_test_241",
  "SeriesNumber": 14,
  "ShimSetting": [-5463, -11479, -1282, 476, 19, -355, -225, 70],
  "SliceThickness": 2,
  "SliceTiming": [1.485, 0, 0.99, 0.0825, 1.0725, 0.165, 1.155, 0.2475, 1.2375, 0.33, 1.32, 0.4125, 1.4025, 0.5775, 1.5675, 0.66, 1.65, 0.7425, 1.7325, 0.825, 1.815, 0.9075, 1.8975, 0.495, 1.485, 0, 0.99, 0.0825, 1.0725, 0.165, 1.155, 0.2475, 1.2375, 0.33, 1.32, 0.4125, 1.4025, 0.5775, 1.5675, 0.66, 1.65, 0.7425, 1.7325, 0.825, 1.815, 0.9075, 1.8975, 0.495, 1.485, 0, 0.99, 0.0825, 1.0725, 0.165, 1.155, 0.2475, 1.2375, 0.33, 1.32, 0.4125, 1.4025, 0.5775, 1.5675, 0.66, 1.65, 0.7425, 1.7325, 0.825, 1.815, 0.9075, 1.8975, 0.495],
  "SoftwareVersions": "syngo_MR_E11",
  "SpacingBetweenSlices": 2,
  "StationName": "AWP166078",
  "TaskName": "naturalvision2",
  "TotalReadoutTime": 0.0534586,
  "TxRefAmp": 213.025,
  "dcmmeta_affine": [
    [-1.9997867345809937, -0.01396134402602911, -0.025654451921582222, 102.93708801269531],
    [-0.005250974558293819, 1.8999446630477905, -0.6246460676193237, -71.14349365234375],
    [-0.028731469064950943, 0.6245120763778687, 1.8997787237167358, -104.50528717041016],
    [0.0, 0.0, 0.0, 1.0]
],
  "dcmmeta_reorient_transform": [
    [0.0, -1.0, 0.0, 99.0],
    [1.0, 0.0, 0.0, 0.0],
    [0.0, 0.0, 1.0, 0.0],
    [0.0, 0.0, 0.0, 1.0]
],
  "dcmmeta_shape": [100, 100, 72, 241],
  "dcmmeta_slice_dim": 2,
  "dcmmeta_version": 0.6,
  "global": {
    "const": {
      "AcquisitionMatrix": [100, 0, 0, 100],
      "AngioFlag": "N",
      "BitsAllocated": 16,
      "BitsStored": 12,
      "BodyPartExamined": "BRAIN",
      "Columns": 900,
      "EchoNumbers": 1,
      "EchoTime": 34.0,
      "EchoTrainLength": 100,
      "FlipAngle": 90.0,
      "HighBit": 11,
      "ImageOrientationPatient": [0.99989336056034, 0.00262548721514, -0.0143657343787, -0.0069806719624, 0.94997233416477, -0.3122560400384],
      "ImagePositionPatient": [-895.88506204926, -879.02928718198, 218.61883006871],
      "ImageType": [
        "ORIGINAL",
        "PRIMARY",
        "M",
        "ND",
        "MOSAIC"
],
      "ImagedNucleus": "1H",
      "ImagingFrequency": 123.257792,
      "InPlanePhaseEncodingDirection": "COL",
      "MRAcquisitionType": "2D",
      "MagneticFieldStrength": 3.0,
      "Manufacturer": "SIEMENS",
      "ManufacturerModelName": "Prisma",
      "Modality": "MR",
      "NumberOfAverages": 1.0,
      "NumberOfPhaseEncodingSteps": 100,
      "PercentPhaseFieldOfView": 100.0,
      "PercentSampling": 100.0,
      "PerformedProcedureStepStartTime": "150705.759000",
      "PhotometricInterpretation": "MONOCHROME2",
      "PixelBandwidth": 2380.0,
      "PixelRepresentation": 0,
      "PixelSpacing": [2.0, 2.0],
      "ProtocolName": "bold_100x100_s3_2x2x2_static_test_241",
      "RepetitionTime": 2000.0,
      "Rows": 900,
      "SAR": 0.06893445742794,
      "SamplesPerPixel": 1,
      "ScanOptions": "FS",
      "ScanningSequence": "EP",
      "SequenceName": "*epfid2d1_100",
      "SequenceVariant": "SK",
      "SeriesDescription": "bold_100x100_s3_2x2x2_static_test_241",
      "SeriesNumber": 14,
      "SeriesTime": "162229.220000",
      "SliceLocation": -78.369105052572,
      "SliceThickness": 2.0,
      "SmallestImagePixelValue": 0,
      "SoftwareVersions": "syngo MR E11",
      "SpacingBetweenSlices": 1.9999999979547,
      "SpecificCharacterSet": "ISO_IR 100",
      "StudyID": "1",
      "StudyTime": "150705.681000",
      "TransmitCoilName": "Body",
      "VariableFlipAngleFlag": "N",
      "WindowCenterWidthExplanation": "Algo1",
      "dBdt": 0.0},
    "slices": {}
  },
  "time": {
    "samples": {
      "AcquisitionNumber": [1, 2, 3, 4, 5, 6, 7, 8, 9, 10, 11, 12, 13, 14, 15, 16, 17, 18, 19, 20, 21, 22, 23, 24, 25, 26, 27, 28, 29, 30, 31, 32, 33, 34, 35, 36, 37, 38, 39, 40, 41, 42, 43, 44, 45, 46, 47, 48, 49, 50, 51, 52, 53, 54, 55, 56, 57, 58, 59, 60, 61, 62, 63, 64, 65, 66, 67, 68, 69, 70, 71, 72, 73, 74, 75, 76, 77, 78, 79, 80, 81, 82, 83, 84, 85, 86, 87, 88, 89, 90, 91, 92, 93, 94, 95, 96, 97, 98, 99, 100, 101, 102, 103, 104, 105, 106, 107, 108, 109, 110, 111, 112, 113, 114, 115, 116, 117, 118, 119, 120, 121, 122, 123, 124, 125, 126, 127, 128, 129, 130, 131, 132, 133, 134, 135, 136, 137, 138, 139, 140, 141, 142, 143, 144, 145, 146, 147, 148, 149, 150, 151, 152, 153, 154, 155, 156, 157, 158, 159, 160, 161, 162, 163, 164, 165, 166, 167, 168, 169, 170, 171, 172, 173, 174, 175, 176, 177, 178, 179, 180, 181, 182, 183, 184, 185, 186, 187, 188, 189, 190, 191, 192, 193, 194, 195, 196, 197, 198, 199, 200, 201, 202, 203, 204, 205, 206, 207, 208, 209, 210, 211, 212, 213, 214, 215, 216, 217, 218, 219, 220, 221, 222, 223, 224, 225, 226, 227, 228, 229, 230, 231, 232, 233, 234, 235, 236, 237, 238, 239, 240, 241],
      "AcquisitionTime": ["162226.130000", "162228.130000", "162230.130000", "162232.130000", "162234.130000", "162236.130000", "162238.130000", "162240.130000", "162242.130000", "162244.130000", "162246.130000", "162248.130000", "162250.130000", "162252.130000", "162254.130000", "162256.130000", "162258.130000", "162300.130000", "162302.130000", "162304.130000", "162306.130000", "162308.130000", "162310.130000", "162312.130000", "162314.130000", "162316.130000", "162318.130000", "162320.130000", "162322.130000", "162324.130000", "162326.130000", "162328.130000", "162330.130000", "162332.130000", "162334.130000", "162336.130000", "162338.130000", "162340.130000", "162342.130000", "162344.130000", "162346.130000", "162348.130000", "162350.130000", "162352.130000", "162354.130000", "162356.130000", "162358.130000", "162400.130000", "162402.130000", "162404.130000", "162406.130000", "162408.130000", "162410.130000", "162412.130000", "162414.130000", "162416.130000", "162418.130000", "162420.130000", "162422.130000", "162424.130000", "162426.130000", "162428.130000", "162430.130000", "162432.130000", "162434.130000", "162436.130000", "162438.130000", "162440.130000", "162442.130000", "162444.130000", "162446.130000", "162448.130000", "162450.130000", "162452.130000", "162454.130000", "162456.130000", "162458.130000", "162500.130000", "162502.130000", "162504.130000", "162506.130000", "162508.130000", "162510.130000", "162512.130000", "162514.130000", "162516.130000", "162518.130000", "162520.130000", "162522.130000", "162524.130000", "162526.130000", "162528.130000", "162530.130000", "162532.130000", "162534.130000", "162536.130000", "162538.130000", "162540.130000", "162542.130000", "162544.130000", "162546.130000", "162548.130000", "162550.130000", "162552.130000", "162554.130000", "162556.130000", "162558.130000", "162600.130000", "162602.130000", "162604.130000", "162606.130000", "162608.130000", "162610.130000", "162612.130000", "162614.130000", "162616.130000", "162618.130000", "162620.130000", "162622.130000", "162624.130000", "162626.130000", "162628.130000", "162630.130000", "162632.130000", "162634.130000", "162636.130000", "162638.130000", "162640.130000", "162642.130000", "162644.130000", "162646.130000", "162648.130000", "162650.130000", "162652.130000", "162654.130000", "162656.130000", "162658.130000", "162700.130000", "162702.130000", "162704.130000", "162706.130000", "162708.130000", "162710.130000", "162712.130000", "162714.130000", "162716.130000", "162718.130000", "162720.130000", "162722.130000", "162724.130000", "162726.130000", "162728.130000", "162730.130000", "162732.130000", "162734.130000", "162736.130000", "162738.130000", "162740.130000", "162742.130000", "162744.130000", "162746.130000", "162748.130000", "162750.130000", "162752.130000", "162754.130000", "162756.130000", "162758.130000", "162800.130000", "162802.130000", "162804.130000", "162806.130000", "162808.130000", "162810.130000", "162812.130000", "162814.130000", "162816.130000", "162818.130000", "162820.130000", "162822.130000", "162824.130000", "162826.130000", "162828.130000", "162830.130000", "162832.130000", "162834.130000", "162836.130000", "162838.130000", "162840.130000", "162842.130000", "162844.130000", "162846.130000", "162848.130000", "162850.130000", "162852.130000", "162854.130000", "162856.130000", "162858.130000", "162900.130000", "162902.130000", "162904.130000", "162906.130000", "162908.130000", "162910.130000", "162912.130000", "162914.130000", "162916.130000", "162918.130000", "162920.130000", "162922.130000", "162924.130000", "162926.130000", "162928.130000", "162930.130000", "162932.130000", "162934.130000", "162936.130000", "162938.130000", "162940.130000", "162942.130000", "162944.130000", "162946.130000", "162948.130000", "162950.130000", "162952.130000", "162954.130000", "162956.130000", "162958.130000", "163000.130000", "163002.130000", "163004.130000", "163006.130000", "163008.130000", "163010.130000", "163012.130000", "163014.130000", "163016.130000", "163018.130000", "163020.130000", "163022.130000", "163024.130000", "163026.130000"],
      "ContentTime": ["162229.223000", "162230.718000", "162232.719000", "162234.718000", "162236.719000", "162238.719000", "162240.718000", "162242.718000", "162244.718000", "162246.719000", "162248.719000", "162250.719000", "162252.719000", "162254.719000", "162256.718000", "162258.718000", "162300.718000", "162302.719000", "162304.718000", "162306.718000", "162308.719000", "162310.718000", "162312.718000", "162314.719000", "162316.718000", "162318.718000", "162320.719000", "162322.719000", "162324.719000", "162326.718000", "162328.718000", "162330.719000", "162332.718000", "162334.718000", "162336.719000", "162338.718000", "162340.719000", "162342.718000", "162344.718000", "162346.719000", "162348.719000", "162350.718000", "162352.719000", "162354.719000", "162356.719000", "162358.718000", "162400.719000", "162402.718000", "162404.719000", "162406.719000", "162408.718000", "162410.718000", "162412.719000", "162414.718000", "162416.718000", "162418.719000", "162420.719000", "162422.718000", "162424.718000", "162426.718000", "162428.719000", "162430.719000", "162432.718000", "162434.718000", "162436.718000", "162438.719000", "162440.719000", "162442.719000", "162444.718000", "162446.718000", "162448.718000", "162450.718000", "162452.718000", "162454.719000", "162456.718000", "162458.718000", "162500.718000", "162502.718000", "162504.718000", "162506.719000", "162508.719000", "162510.719000", "162512.719000", "162514.719000", "162516.719000", "162518.719000", "162520.719000", "162522.719000", "162524.719000", "162526.719000", "162528.718000", "162530.718000", "162532.718000", "162534.718000", "162536.719000", "162538.719000", "162540.718000", "162542.718000", "162544.718000", "162546.718000", "162548.719000", "162550.719000", "162552.718000", "162554.718000", "162556.718000", "162558.718000", "162600.719000", "162602.718000", "162604.719000", "162606.719000", "162608.718000", "162610.719000", "162612.719000", "162614.719000", "162616.718000", "162618.719000", "162620.718000", "162622.719000", "162624.718000", "162626.718000", "162628.719000", "162630.718000", "162632.718000", "162634.719000", "162636.718000", "162638.718000", "162640.718000", "162642.718000", "162644.719000", "162646.719000", "162648.718000", "162650.718000", "162652.718000", "162654.719000", "162656.719000", "162658.719000", "162700.719000", "162702.718000", "162704.719000", "162706.719000", "162708.718000", "162710.718000", "162712.718000", "162714.719000", "162716.718000", "162718.719000", "162720.719000", "162722.718000", "162724.718000", "162726.718000", "162728.719000", "162730.718000", "162732.719000", "162734.719000", "162736.719000", "162738.719000", "162740.719000", "162742.718000", "162744.718000", "162746.718000", "162748.719000", "162750.719000", "162752.719000", "162754.719000", "162756.718000", "162758.719000", "162800.719000", "162802.718000", "162804.719000", "162806.719000", "162808.719000", "162810.719000", "162812.719000", "162814.718000", "162816.718000", "162818.719000", "162820.719000", "162822.719000", "162824.718000", "162826.719000", "162828.719000", "162830.719000", "162832.718000", "162834.719000", "162836.718000", "162838.719000", "162840.718000", "162842.719000", "162844.718000", "162846.719000", "162848.719000", "162850.719000", "162852.719000", "162854.719000", "162856.719000", "162858.718000", "162900.719000", "162902.718000", "162904.719000", "162906.718000", "162908.718000", "162910.718000", "162912.719000", "162914.719000", "162916.720000", "162918.718000", "162920.718000", "162922.719000", "162924.718000", "162926.719000", "162928.719000", "162930.719000", "162932.718000", "162934.719000", "162936.719000", "162938.719000", "162940.719000", "162942.719000", "162944.718000", "162946.719000", "162948.726000", "162950.719000", "162952.718000", "162954.719000", "162956.718000", "162958.719000", "163000.719000", "163002.718000", "163004.719000", "163006.718000", "163008.719000", "163010.718000", "163012.718000", "163014.719000", "163016.718000", "163018.719000", "163020.719000", "163022.718000", "163024.719000", "163026.719000", "163028.286000"],
      "InstanceCreationTime": ["162229.223000", "162230.718000", "162232.719000", "162234.718000", "162236.719000", "162238.719000", "162240.718000", "162242.718000", "162244.718000", "162246.719000", "162248.719000", "162250.719000", "162252.719000", "162254.719000", "162256.718000", "162258.718000", "162300.718000", "162302.719000", "162304.718000", "162306.718000", "162308.719000", "162310.718000", "162312.718000", "162314.719000", "162316.718000", "162318.718000", "162320.719000", "162322.719000", "162324.719000", "162326.718000", "162328.718000", "162330.719000", "162332.718000", "162334.718000", "162336.719000", "162338.718000", "162340.719000", "162342.718000", "162344.718000", "162346.719000", "162348.719000", "162350.718000", "162352.719000", "162354.719000", "162356.719000", "162358.718000", "162400.719000", "162402.718000", "162404.719000", "162406.719000", "162408.718000", "162410.718000", "162412.719000", "162414.718000", "162416.718000", "162418.719000", "162420.719000", "162422.718000", "162424.718000", "162426.718000", "162428.719000", "162430.719000", "162432.718000", "162434.718000", "162436.718000", "162438.719000", "162440.719000", "162442.719000", "162444.718000", "162446.718000", "162448.718000", "162450.718000", "162452.718000", "162454.719000", "162456.718000", "162458.718000", "162500.718000", "162502.718000", "162504.718000", "162506.719000", "162508.719000", "162510.719000", "162512.719000", "162514.719000", "162516.719000", "162518.719000", "162520.719000", "162522.719000", "162524.719000", "162526.719000", "162528.718000", "162530.718000", "162532.718000", "162534.718000", "162536.719000", "162538.719000", "162540.718000", "162542.718000", "162544.718000", "162546.718000", "162548.719000", "162550.719000", "162552.718000", "162554.718000", "162556.718000", "162558.718000", "162600.719000", "162602.718000", "162604.719000", "162606.719000", "162608.718000", "162610.719000", "162612.719000", "162614.719000", "162616.718000", "162618.719000", "162620.718000", "162622.719000", "162624.718000", "162626.718000", "162628.719000", "162630.718000", "162632.718000", "162634.719000", "162636.718000", "162638.718000", "162640.718000", "162642.718000", "162644.719000", "162646.719000", "162648.718000", "162650.718000", "162652.718000", "162654.719000", "162656.719000", "162658.719000", "162700.719000", "162702.718000", "162704.719000", "162706.719000", "162708.718000", "162710.718000", "162712.718000", "162714.719000", "162716.718000", "162718.719000", "162720.719000", "162722.718000", "162724.718000", "162726.718000", "162728.719000", "162730.718000", "162732.719000", "162734.719000", "162736.719000", "162738.719000", "162740.719000", "162742.718000", "162744.718000", "162746.718000", "162748.719000", "162750.719000", "162752.719000", "162754.719000", "162756.718000", "162758.719000", "162800.719000", "162802.718000", "162804.719000", "162806.719000", "162808.719000", "162810.719000", "162812.719000", "162814.718000", "162816.718000", "162818.719000", "162820.719000", "162822.719000", "162824.718000", "162826.719000", "162828.719000", "162830.719000", "162832.718000", "162834.719000", "162836.718000", "162838.719000", "162840.718000", "162842.719000", "162844.718000", "162846.719000", "162848.719000", "162850.719000", "162852.719000", "162854.719000", "162856.719000", "162858.718000", "162900.719000", "162902.718000", "162904.719000", "162906.718000", "162908.718000", "162910.718000", "162912.719000", "162914.719000", "162916.720000", "162918.718000", "162920.718000", "162922.719000", "162924.718000", "162926.719000", "162928.719000", "162930.719000", "162932.718000", "162934.719000", "162936.719000", "162938.719000", "162940.719000", "162942.719000", "162944.718000", "162946.719000", "162948.726000", "162950.719000", "162952.718000", "162954.719000", "162956.718000", "162958.719000", "163000.719000", "163002.718000", "163004.719000", "163006.718000", "163008.719000", "163010.718000", "163012.718000", "163014.719000", "163016.718000", "163018.719000", "163020.719000", "163022.718000", "163024.719000", "163026.719000", "163028.286000"],
      "InstanceNumber": [1, 2, 3, 4, 5, 6, 7, 8, 9, 10, 11, 12, 13, 14, 15, 16, 17, 18, 19, 20, 21, 22, 23, 24, 25, 26, 27, 28, 29, 30, 31, 32, 33, 34, 35, 36, 37, 38, 39, 40, 41, 42, 43, 44, 45, 46, 47, 48, 49, 50, 51, 52, 53, 54, 55, 56, 57, 58, 59, 60, 61, 62, 63, 64, 65, 66, 67, 68, 69, 70, 71, 72, 73, 74, 75, 76, 77, 78, 79, 80, 81, 82, 83, 84, 85, 86, 87, 88, 89, 90, 91, 92, 93, 94, 95, 96, 97, 98, 99, 100, 101, 102, 103, 104, 105, 106, 107, 108, 109, 110, 111, 112, 113, 114, 115, 116, 117, 118, 119, 120, 121, 122, 123, 124, 125, 126, 127, 128, 129, 130, 131, 132, 133, 134, 135, 136, 137, 138, 139, 140, 141, 142, 143, 144, 145, 146, 147, 148, 149, 150, 151, 152, 153, 154, 155, 156, 157, 158, 159, 160, 161, 162, 163, 164, 165, 166, 167, 168, 169, 170, 171, 172, 173, 174, 175, 176, 177, 178, 179, 180, 181, 182, 183, 184, 185, 186, 187, 188, 189, 190, 191, 192, 193, 194, 195, 196, 197, 198, 199, 200, 201, 202, 203, 204, 205, 206, 207, 208, 209, 210, 211, 212, 213, 214, 215, 216, 217, 218, 219, 220, 221, 222, 223, 224, 225, 226, 227, 228, 229, 230, 231, 232, 233, 234, 235, 236, 237, 238, 239, 240, 241],
      "LargestImagePixelValue": [3067, 2973, 2976, 3006, 3008, 3038, 3063, 3063, 3029, 3004, 2978, 3028, 3044, 3034, 3000, 3025, 2956, 2934, 2949, 2976, 2953, 2989, 2960, 2961, 2963, 2957, 2999, 3065, 3050, 3012, 3009, 3012, 2993, 2989, 3001, 2975, 3005, 3028, 3010, 2963, 2944, 2971, 2981, 3010, 3041, 3043, 3102, 2990, 3024, 3060, 3021, 3058, 3106, 3031, 3040, 3032, 3094, 3083, 3045, 3006, 3070, 3041, 3063, 3024, 3027, 2996, 3046, 3059, 3072, 3026, 3017, 3029, 3037, 3019, 3032, 3024, 3037, 3060, 3064, 3060, 3037, 3039, 3069, 3120, 3145, 3143, 3113, 3089, 3030, 3089, 3115, 3108, 3073, 3076, 3106, 3073, 3059, 3133, 3090, 3071, 3035, 3034, 3068, 3085, 3104, 3050, 3082, 3071, 3060, 3104, 3058, 3116, 3083, 3050, 3065, 3051, 3030, 3053, 3072, 3065, 3064, 3085, 3109, 3100, 3043, 3053, 3047, 3048, 3016, 3049, 3131, 3127, 3101, 3033, 3083, 3058, 3058, 3099, 3129, 3078, 3066, 3074, 3076, 3065, 3115, 3107, 3122, 3103, 3117, 3160, 3117, 3174, 3150, 3152, 3113, 3138, 3096, 3073, 3103, 3157, 3130, 3091, 3158, 3118, 3123, 3090, 3073, 3150, 3139, 3072, 3126, 3100, 3076, 3167, 3140, 3086, 3136, 3186, 3089, 3096, 3100, 3099, 3096, 3103, 3141, 3169, 3171, 3160, 3149, 3144, 3117, 3146, 3166, 3138, 3141, 3100, 3148, 3124, 3217, 3204, 3200, 3196, 3167, 3167, 3151, 3160, 3154, 3141, 3150, 3169, 3221, 3208, 3206, 3143, 3256, 3261, 3229, 3276, 3274, 3235, 3242, 3201, 3222, 3188, 3237, 3263, 3202, 3169, 3235, 3204, 3253, 3249, 3202, 3251, 3257, 3204, 3192, 3159, 3199, 3185, 3144],
      "WindowCenter": [764.0, 763.0, 763.0, 762.0, 762.0, 763.0, 764.0, 764.0, 762.0, 762.0, 762.0, 763.0, 764.0, 765.0, 764.0, 762.0, 761.0, 760.0, 760.0, 760.0, 760.0, 761.0, 760.0, 760.0, 759.0, 759.0, 760.0, 761.0, 762.0, 762.0, 762.0, 762.0, 762.0, 762.0, 762.0, 762.0, 762.0, 762.0, 762.0, 762.0, 761.0, 760.0, 762.0, 764.0, 763.0, 764.0, 763.0, 762.0, 761.0, 761.0, 761.0, 762.0, 764.0, 764.0, 762.0, 762.0, 763.0, 764.0, 763.0, 762.0, 763.0, 763.0, 763.0, 762.0, 762.0, 762.0, 763.0, 763.0, 763.0, 763.0, 762.0, 762.0, 762.0, 761.0, 762.0, 762.0, 763.0, 762.0, 762.0, 762.0, 762.0, 763.0, 764.0, 765.0, 765.0, 765.0, 764.0, 763.0, 763.0, 763.0, 764.0, 764.0, 764.0, 764.0, 764.0, 765.0, 766.0, 766.0, 765.0, 764.0, 763.0, 762.0, 763.0, 763.0, 764.0, 763.0, 763.0, 763.0, 764.0, 763.0, 763.0, 764.0, 764.0, 764.0, 763.0, 763.0, 764.0, 763.0, 763.0, 763.0, 762.0, 763.0, 763.0, 763.0, 762.0, 762.0, 761.0, 762.0, 762.0, 762.0, 764.0, 764.0, 764.0, 762.0, 761.0, 761.0, 761.0, 762.0, 763.0, 762.0, 761.0, 761.0, 761.0, 762.0, 762.0, 762.0, 762.0, 763.0, 763.0, 764.0, 764.0, 764.0, 764.0, 763.0, 764.0, 765.0, 764.0, 763.0, 763.0, 764.0, 764.0, 763.0, 763.0, 763.0, 763.0, 763.0, 763.0, 763.0, 763.0, 763.0, 763.0, 763.0, 763.0, 764.0, 763.0, 763.0, 764.0, 764.0, 763.0, 763.0, 763.0, 763.0, 763.0, 763.0, 764.0, 765.0, 765.0, 765.0, 764.0, 764.0, 764.0, 765.0, 765.0, 764.0, 764.0, 764.0, 764.0, 764.0, 766.0, 767.0, 765.0, 764.0, 763.0, 763.0, 763.0, 763.0, 762.0, 762.0, 762.0, 762.0, 763.0, 763.0, 763.0, 763.0, 765.0, 765.0, 765.0, 766.0, 766.0, 766.0, 765.0, 766.0, 766.0, 765.0, 765.0, 766.0, 765.0, 764.0, 765.0, 764.0, 765.0, 765.0, 764.0, 764.0, 764.0, 763.0, 765.0, 766.0, 767.0, 765.0, 764.0],
      "WindowWidth": [1650.0, 1647.0, 1646.0, 1644.0, 1642.0, 1646.0, 1647.0, 1648.0, 1644.0, 1642.0, 1642.0, 1645.0, 1648.0, 1650.0, 1647.0, 1643.0, 1639.0, 1637.0, 1638.0, 1638.0, 1639.0, 1640.0, 1639.0, 1638.0, 1636.0, 1635.0, 1637.0, 1642.0, 1643.0, 1643.0, 1642.0, 1643.0, 1643.0, 1642.0, 1642.0, 1642.0, 1642.0, 1643.0, 1643.0, 1643.0, 1640.0, 1638.0, 1643.0, 1647.0, 1648.0, 1648.0, 1647.0, 1642.0, 1639.0, 1640.0, 1639.0, 1643.0, 1649.0, 1647.0, 1644.0, 1644.0, 1647.0, 1648.0, 1646.0, 1644.0, 1647.0, 1646.0, 1645.0, 1642.0, 1643.0, 1644.0, 1646.0, 1646.0, 1647.0, 1645.0, 1644.0, 1644.0, 1643.0, 1642.0, 1643.0, 1643.0, 1645.0, 1644.0, 1643.0, 1642.0, 1644.0, 1646.0, 1649.0, 1651.0, 1651.0, 1651.0, 1649.0, 1647.0, 1646.0, 1647.0, 1647.0, 1647.0, 1648.0, 1650.0, 1649.0, 1652.0, 1655.0, 1653.0, 1651.0, 1647.0, 1646.0, 1644.0, 1644.0, 1646.0, 1647.0, 1647.0, 1646.0, 1646.0, 1647.0, 1646.0, 1645.0, 1650.0, 1648.0, 1647.0, 1646.0, 1646.0, 1648.0, 1646.0, 1646.0, 1645.0, 1644.0, 1645.0, 1646.0, 1645.0, 1642.0, 1642.0, 1641.0, 1644.0, 1643.0, 1644.0, 1649.0, 1649.0, 1648.0, 1643.0, 1641.0, 1640.0, 1639.0, 1642.0, 1645.0, 1643.0, 1640.0, 1640.0, 1641.0, 1643.0, 1643.0, 1643.0, 1644.0, 1645.0, 1646.0, 1648.0, 1648.0, 1648.0, 1648.0, 1647.0, 1647.0, 1650.0, 1649.0, 1646.0, 1646.0, 1647.0, 1647.0, 1646.0, 1646.0, 1646.0, 1645.0, 1645.0, 1645.0, 1646.0, 1646.0, 1645.0, 1645.0, 1645.0, 1646.0, 1647.0, 1646.0, 1646.0, 1649.0, 1649.0, 1645.0, 1644.0, 1646.0, 1646.0, 1646.0, 1646.0, 1648.0, 1650.0, 1651.0, 1651.0, 1648.0, 1648.0, 1649.0, 1650.0, 1650.0, 1649.0, 1648.0, 1647.0, 1649.0, 1649.0, 1655.0, 1657.0, 1651.0, 1647.0, 1645.0, 1644.0, 1646.0, 1646.0, 1643.0, 1642.0, 1643.0, 1643.0, 1644.0, 1645.0, 1646.0, 1647.0, 1651.0, 1652.0, 1652.0, 1653.0, 1654.0, 1652.0, 1652.0, 1654.0, 1653.0, 1651.0, 1651.0, 1653.0, 1650.0, 1648.0, 1651.0, 1648.0, 1650.0, 1651.0, 1650.0, 1648.0, 1649.0, 1646.0, 1652.0, 1653.0, 1655.0, 1650.0, 1647.0]
    },
    "slices": {}
  }
}