{
  "AcquisitionMatrixPE": 100,
  "AcquisitionNumber": 1,
  "AcquisitionTime": "16:04:54.900000",
  "BandwidthPerPixelPhaseEncode": 18.519,
  "BaseResolution": 100,
  "BodyPartExamined": "BRAIN",
  "ConsistencyInfo": "N4_VE11C_LATEST_20160120",
  "ConversionSoftware": "dcm2niix",
  "ConversionSoftwareVersion": "v1.0.20180622 GCC4.9.2",
  "DerivedVendorReportedEchoSpacing": 0.000539986,
  "DeviceSerialNumber": "166078",
  "DwellTime": 2.1e-06,
  "EchoTime": 0.034,
  "EchoTrainLength": 100,
  "EffectiveEchoSpacing": 0.000539986,
  "FlipAngle": 90,
  "ImageOrientationPatientDICOM": [0.999893, 0.00262549, -0.0143657, -0.00698067, 0.949972, -0.312256],
  "ImageType": [
    "ORIGINAL",
    "PRIMARY",
    "M",
    "ND",
    "MOSAIC"
],
  "InPlanePhaseEncodingDirectionDICOM": "COL",
  "InstitutionAddress": "Street_StreetNo_Bei_Jing_District_CN_ZIP",
  "InstitutionName": "BeiJing_Normal_University",
  "InstitutionalDepartmentName": "Department",
  "MRAcquisitionType": "2D",
  "MagneticFieldStrength": 3,
  "Manufacturer": "Siemens",
  "ManufacturersModelName": "Prisma",
  "Modality": "MR",
  "MultibandAccelerationFactor": 3,
  "PartialFourier": 1,
  "PatientPosition": "HFS",
  "PercentPhaseFOV": 100,
  "PhaseEncodingDirection": "j-",
  "PhaseEncodingSteps": 100,
  "PhaseResolution": 1,
  "PixelBandwidth": 2380,
  "ProcedureStepDescription": "BNU_P2018_64CH_Zhen.ZongLei",
  "ProtocolName": "bold_100x100_s3_2x2x2_static_test_241",
  "PulseSequenceDetails": "%SiemensSeq%_ep2d_bold",
  "ReceiveCoilActiveElements": "HC1-7;NC1",
  "ReceiveCoilName": "HeadNeck_64",
  "ReconMatrixPE": 100,
  "RepetitionTime": 2,
  "SAR": 0.0689345,
  "ScanOptions": "FS",
  "ScanningSequence": "EP",
  "SequenceName": "_epfid2d1_100",
  "SequenceVariant": "SK",
  "SeriesDescription": "bold_100x100_s3_2x2x2_static_test_241",
  "SeriesNumber": 12,
  "ShimSetting": [-5463, -11479, -1282, 476, 19, -355, -225, 70],
  "SliceThickness": 2,
  "SliceTiming": [1.485, 0, 0.99, 0.0825, 1.0725, 0.165, 1.155, 0.2475, 1.2375, 0.33, 1.32, 0.4125, 1.4025, 0.5775, 1.5675, 0.66, 1.65, 0.7425, 1.7325, 0.825, 1.815, 0.9075, 1.8975, 0.495, 1.485, 0, 0.99, 0.0825, 1.0725, 0.165, 1.155, 0.2475, 1.2375, 0.33, 1.32, 0.4125, 1.4025, 0.5775, 1.5675, 0.66, 1.65, 0.7425, 1.7325, 0.825, 1.815, 0.9075, 1.8975, 0.495, 1.485, 0, 0.99, 0.0825, 1.0725, 0.165, 1.155, 0.2475, 1.2375, 0.33, 1.32, 0.4125, 1.4025, 0.5775, 1.5675, 0.66, 1.65, 0.7425, 1.7325, 0.825, 1.815, 0.9075, 1.8975, 0.495],
  "SoftwareVersions": "syngo_MR_E11",
  "SpacingBetweenSlices": 2,
  "StationName": "AWP166078",
  "TaskName": "naturalvision2",
  "TotalReadoutTime": 0.0534586,
  "TxRefAmp": 213.025,
  "dcmmeta_affine": [
    [-1.9997867345809937, -0.01396134402602911, -0.025654451921582222, 102.93708801269531],
    [-0.005250974558293819, 1.8999446630477905, -0.6246460676193237, -71.14349365234375],
    [-0.028731469064950943, 0.6245120763778687, 1.8997787237167358, -104.50528717041016],
    [0.0, 0.0, 0.0, 1.0]
],
  "dcmmeta_reorient_transform": [
    [0.0, -1.0, 0.0, 99.0],
    [1.0, 0.0, 0.0, 0.0],
    [0.0, 0.0, 1.0, 0.0],
    [0.0, 0.0, 0.0, 1.0]
],
  "dcmmeta_shape": [100, 100, 72, 241],
  "dcmmeta_slice_dim": 2,
  "dcmmeta_version": 0.6,
  "global": {
    "const": {
      "AcquisitionMatrix": [100, 0, 0, 100],
      "AngioFlag": "N",
      "BitsAllocated": 16,
      "BitsStored": 12,
      "BodyPartExamined": "BRAIN",
      "Columns": 900,
      "EchoNumbers": 1,
      "EchoTime": 34.0,
      "EchoTrainLength": 100,
      "FlipAngle": 90.0,
      "HighBit": 11,
      "ImageOrientationPatient": [0.99989336056034, 0.00262548721514, -0.0143657343787, -0.0069806719624, 0.94997233416477, -0.3122560400384],
      "ImagePositionPatient": [-895.88506204926, -879.02928718198, 218.61883006871],
      "ImageType": [
        "ORIGINAL",
        "PRIMARY",
        "M",
        "ND",
        "MOSAIC"
],
      "ImagedNucleus": "1H",
      "ImagingFrequency": 123.257785,
      "InPlanePhaseEncodingDirection": "COL",
      "MRAcquisitionType": "2D",
      "MagneticFieldStrength": 3.0,
      "Manufacturer": "SIEMENS",
      "ManufacturerModelName": "Prisma",
      "Modality": "MR",
      "NumberOfAverages": 1.0,
      "NumberOfPhaseEncodingSteps": 100,
      "PercentPhaseFieldOfView": 100.0,
      "PercentSampling": 100.0,
      "PerformedProcedureStepStartTime": "150705.759000",
      "PhotometricInterpretation": "MONOCHROME2",
      "PixelBandwidth": 2380.0,
      "PixelRepresentation": 0,
      "PixelSpacing": [2.0, 2.0],
      "ProtocolName": "bold_100x100_s3_2x2x2_static_test_241",
      "RepetitionTime": 2000.0,
      "Rows": 900,
      "SAR": 0.06893445742794,
      "SamplesPerPixel": 1,
      "ScanOptions": "FS",
      "ScanningSequence": "EP",
      "SequenceName": "*epfid2d1_100",
      "SequenceVariant": "SK",
      "SeriesDescription": "bold_100x100_s3_2x2x2_static_test_241",
      "SeriesNumber": 12,
      "SeriesTime": "160457.074000",
      "SliceLocation": -78.369105052572,
      "SliceThickness": 2.0,
      "SmallestImagePixelValue": 0,
      "SoftwareVersions": "syngo MR E11",
      "SpacingBetweenSlices": 1.9999999979547,
      "SpecificCharacterSet": "ISO_IR 100",
      "StudyID": "1",
      "StudyTime": "150705.681000",
      "TransmitCoilName": "Body",
      "VariableFlipAngleFlag": "N",
      "WindowCenterWidthExplanation": "Algo1",
      "dBdt": 0.0},
    "slices": {}
  },
  "time": {
    "samples": {
      "AcquisitionNumber": [1, 2, 3, 4, 5, 6, 7, 8, 9, 10, 11, 12, 13, 14, 15, 16, 17, 18, 19, 20, 21, 22, 23, 24, 25, 26, 27, 28, 29, 30, 31, 32, 33, 34, 35, 36, 37, 38, 39, 40, 41, 42, 43, 44, 45, 46, 47, 48, 49, 50, 51, 52, 53, 54, 55, 56, 57, 58, 59, 60, 61, 62, 63, 64, 65, 66, 67, 68, 69, 70, 71, 72, 73, 74, 75, 76, 77, 78, 79, 80, 81, 82, 83, 84, 85, 86, 87, 88, 89, 90, 91, 92, 93, 94, 95, 96, 97, 98, 99, 100, 101, 102, 103, 104, 105, 106, 107, 108, 109, 110, 111, 112, 113, 114, 115, 116, 117, 118, 119, 120, 121, 122, 123, 124, 125, 126, 127, 128, 129, 130, 131, 132, 133, 134, 135, 136, 137, 138, 139, 140, 141, 142, 143, 144, 145, 146, 147, 148, 149, 150, 151, 152, 153, 154, 155, 156, 157, 158, 159, 160, 161, 162, 163, 164, 165, 166, 167, 168, 169, 170, 171, 172, 173, 174, 175, 176, 177, 178, 179, 180, 181, 182, 183, 184, 185, 186, 187, 188, 189, 190, 191, 192, 193, 194, 195, 196, 197, 198, 199, 200, 201, 202, 203, 204, 205, 206, 207, 208, 209, 210, 211, 212, 213, 214, 215, 216, 217, 218, 219, 220, 221, 222, 223, 224, 225, 226, 227, 228, 229, 230, 231, 232, 233, 234, 235, 236, 237, 238, 239, 240, 241],
      "AcquisitionTime": ["160454.900000", "160456.900000", "160458.900000", "160500.900000", "160502.900000", "160504.900000", "160506.900000", "160508.900000", "160510.900000", "160512.900000", "160514.900000", "160516.900000", "160518.900000", "160520.900000", "160522.900000", "160524.900000", "160526.900000", "160528.900000", "160530.900000", "160532.900000", "160534.900000", "160536.900000", "160538.900000", "160540.900000", "160542.900000", "160544.900000", "160546.900000", "160548.900000", "160550.900000", "160552.900000", "160554.900000", "160556.900000", "160558.900000", "160600.900000", "160602.900000", "160604.900000", "160606.900000", "160608.900000", "160610.900000", "160612.900000", "160614.900000", "160616.900000", "160618.900000", "160620.900000", "160622.900000", "160624.900000", "160626.900000", "160628.900000", "160630.900000", "160632.900000", "160634.900000", "160636.900000", "160638.900000", "160640.900000", "160642.900000", "160644.900000", "160646.900000", "160648.900000", "160650.900000", "160652.900000", "160654.900000", "160656.900000", "160658.900000", "160700.900000", "160702.900000", "160704.900000", "160706.900000", "160708.900000", "160710.900000", "160712.900000", "160714.900000", "160716.900000", "160718.900000", "160720.900000", "160722.900000", "160724.900000", "160726.900000", "160728.900000", "160730.900000", "160732.900000", "160734.900000", "160736.900000", "160738.900000", "160740.900000", "160742.900000", "160744.900000", "160746.900000", "160748.900000", "160750.900000", "160752.900000", "160754.900000", "160756.900000", "160758.900000", "160800.900000", "160802.900000", "160804.900000", "160806.900000", "160808.900000", "160810.900000", "160812.900000", "160814.900000", "160816.900000", "160818.900000", "160820.900000", "160822.900000", "160824.900000", "160826.900000", "160828.900000", "160830.900000", "160832.900000", "160834.900000", "160836.900000", "160838.900000", "160840.900000", "160842.900000", "160844.900000", "160846.900000", "160848.900000", "160850.900000", "160852.900000", "160854.900000", "160856.900000", "160858.900000", "160900.900000", "160902.900000", "160904.900000", "160906.900000", "160908.900000", "160910.900000", "160912.900000", "160914.900000", "160916.900000", "160918.900000", "160920.900000", "160922.900000", "160924.900000", "160926.900000", "160928.900000", "160930.900000", "160932.900000", "160934.900000", "160936.900000", "160938.900000", "160940.900000", "160942.900000", "160944.900000", "160946.900000", "160948.900000", "160950.900000", "160952.900000", "160954.900000", "160956.900000", "160958.900000", "161000.900000", "161002.900000", "161004.900000", "161006.900000", "161008.900000", "161010.900000", "161012.900000", "161014.900000", "161016.900000", "161018.900000", "161020.900000", "161022.900000", "161024.900000", "161026.900000", "161028.900000", "161030.900000", "161032.900000", "161034.900000", "161036.900000", "161038.900000", "161040.900000", "161042.900000", "161044.900000", "161046.900000", "161048.900000", "161050.900000", "161052.900000", "161054.900000", "161056.900000", "161058.900000", "161100.900000", "161102.900000", "161104.900000", "161106.900000", "161108.900000", "161110.900000", "161112.900000", "161114.900000", "161116.900000", "161118.900000", "161120.900000", "161122.900000", "161124.900000", "161126.900000", "161128.900000", "161130.900000", "161132.900000", "161134.900000", "161136.900000", "161138.900000", "161140.900000", "161142.900000", "161144.900000", "161146.900000", "161148.900000", "161150.900000", "161152.900000", "161154.900000", "161156.900000", "161158.900000", "161200.900000", "161202.900000", "161204.900000", "161206.900000", "161208.900000", "161210.900000", "161212.900000", "161214.900000", "161216.900000", "161218.900000", "161220.900000", "161222.900000", "161224.900000", "161226.900000", "161228.900000", "161230.900000", "161232.900000", "161234.900000", "161236.900000", "161238.900000", "161240.900000", "161242.900000", "161244.900000", "161246.900000", "161248.900000", "161250.900000", "161252.900000", "161254.900000"],
      "ContentTime": ["160457.078000", "160458.573000", "160500.574000", "160502.573000", "160504.573000", "160506.574000", "160508.574000", "160510.574000", "160512.574000", "160514.574000", "160516.573000", "160518.574000", "160520.573000", "160522.573000", "160524.575000", "160526.573000", "160528.573000", "160530.573000", "160532.573000", "160534.573000", "160536.573000", "160538.574000", "160540.574000", "160542.575000", "160544.574000", "160546.574000", "160548.574000", "160550.573000", "160552.574000", "160554.573000", "160556.573000", "160558.575000", "160600.574000", "160602.574000", "160604.573000", "160606.573000", "160608.573000", "160610.574000", "160612.573000", "160614.574000", "160616.575000", "160618.575000", "160620.574000", "160622.573000", "160624.573000", "160626.573000", "160628.573000", "160630.573000", "160632.573000", "160634.575000", "160636.574000", "160638.574000", "160640.573000", "160642.573000", "160644.573000", "160646.574000", "160648.573000", "160650.574000", "160652.575000", "160654.574000", "160656.574000", "160658.573000", "160700.573000", "160702.574000", "160704.574000", "160706.573000", "160708.575000", "160710.574000", "160712.573000", "160714.574000", "160716.573000", "160718.573000", "160720.573000", "160722.574000", "160724.574000", "160726.574000", "160728.574000", "160730.573000", "160732.573000", "160734.573000", "160736.573000", "160738.574000", "160740.574000", "160742.574000", "160744.574000", "160746.573000", "160748.573000", "160750.573000", "160752.574000", "160754.573000", "160756.573000", "160758.574000", "160800.575000", "160802.575000", "160804.573000", "160806.573000", "160809.074000", "160810.573000", "160812.573000", "160814.573000", "160816.573000", "160818.574000", "160820.575000", "160822.574000", "160824.573000", "160826.574000", "160828.573000", "160830.574000", "160832.573000", "160834.573000", "160836.574000", "160838.574000", "160840.574000", "160842.573000", "160844.574000", "160846.573000", "160848.573000", "160850.574000", "160852.574000", "160854.575000", "160856.574000", "160858.573000", "160900.573000", "160902.574000", "160904.573000", "160906.573000", "160908.573000", "160910.575000", "160912.574000", "160914.573000", "160916.574000", "160918.573000", "160920.587000", "160922.573000", "160924.574000", "160926.573000", "160928.574000", "160930.574000", "160932.574000", "160934.573000", "160936.573000", "160938.573000", "160940.573000", "160942.574000", "160944.573000", "160946.574000", "160948.574000", "160950.574000", "160952.574000", "160954.573000", "160956.574000", "160958.573000", "161000.574000", "161003.075000", "161004.575000", "161006.573000", "161008.574000", "161010.573000", "161012.574000", "161014.574000", "161016.573000", "161018.574000", "161020.574000", "161022.575000", "161024.574000", "161026.574000", "161028.574000", "161030.574000", "161032.574000", "161034.574000", "161036.573000", "161038.575000", "161040.575000", "161042.574000", "161044.574000", "161046.574000", "161048.574000", "161050.573000", "161052.574000", "161054.574000", "161056.575000", "161058.574000", "161100.574000", "161102.574000", "161104.573000", "161106.574000", "161108.573000", "161110.574000", "161112.574000", "161114.575000", "161116.574000", "161118.574000", "161120.574000", "161122.573000", "161124.574000", "161126.574000", "161128.573000", "161130.575000", "161133.075000", "161134.573000", "161136.574000", "161138.574000", "161140.574000", "161142.574000", "161144.573000", "161146.574000", "161148.575000", "161150.575000", "161152.574000", "161154.574000", "161156.573000", "161158.574000", "161201.073000", "161202.573000", "161204.573000", "161206.575000", "161208.575000", "161210.574000", "161212.573000", "161214.573000", "161216.574000", "161218.573000", "161220.573000", "161222.573000", "161224.574000", "161227.074000", "161228.574000", "161230.574000", "161232.573000", "161234.573000", "161236.574000", "161238.574000", "161240.574000", "161242.574000", "161244.574000", "161246.574000", "161248.574000", "161250.573000", "161252.574000", "161254.573000", "161256.468000"],
      "InstanceCreationTime": ["160457.078000", "160458.573000", "160500.574000", "160502.573000", "160504.573000", "160506.574000", "160508.574000", "160510.574000", "160512.574000", "160514.574000", "160516.573000", "160518.574000", "160520.573000", "160522.573000", "160524.575000", "160526.573000", "160528.573000", "160530.573000", "160532.573000", "160534.573000", "160536.573000", "160538.574000", "160540.574000", "160542.575000", "160544.574000", "160546.574000", "160548.574000", "160550.573000", "160552.574000", "160554.573000", "160556.573000", "160558.575000", "160600.574000", "160602.574000", "160604.573000", "160606.573000", "160608.573000", "160610.574000", "160612.573000", "160614.574000", "160616.575000", "160618.575000", "160620.574000", "160622.573000", "160624.573000", "160626.573000", "160628.573000", "160630.573000", "160632.573000", "160634.575000", "160636.574000", "160638.574000", "160640.573000", "160642.573000", "160644.573000", "160646.574000", "160648.573000", "160650.574000", "160652.575000", "160654.574000", "160656.574000", "160658.573000", "160700.573000", "160702.574000", "160704.574000", "160706.573000", "160708.575000", "160710.574000", "160712.573000", "160714.574000", "160716.573000", "160718.573000", "160720.573000", "160722.574000", "160724.574000", "160726.574000", "160728.574000", "160730.573000", "160732.573000", "160734.573000", "160736.573000", "160738.574000", "160740.574000", "160742.574000", "160744.574000", "160746.573000", "160748.573000", "160750.573000", "160752.574000", "160754.573000", "160756.573000", "160758.574000", "160800.575000", "160802.575000", "160804.573000", "160806.573000", "160809.074000", "160810.573000", "160812.573000", "160814.573000", "160816.573000", "160818.574000", "160820.575000", "160822.574000", "160824.573000", "160826.574000", "160828.573000", "160830.574000", "160832.573000", "160834.573000", "160836.574000", "160838.574000", "160840.574000", "160842.573000", "160844.574000", "160846.573000", "160848.573000", "160850.574000", "160852.574000", "160854.575000", "160856.574000", "160858.573000", "160900.573000", "160902.574000", "160904.573000", "160906.573000", "160908.573000", "160910.575000", "160912.574000", "160914.573000", "160916.574000", "160918.573000", "160920.587000", "160922.573000", "160924.574000", "160926.573000", "160928.574000", "160930.574000", "160932.574000", "160934.573000", "160936.573000", "160938.573000", "160940.573000", "160942.574000", "160944.573000", "160946.574000", "160948.574000", "160950.574000", "160952.574000", "160954.573000", "160956.574000", "160958.573000", "161000.574000", "161003.075000", "161004.575000", "161006.573000", "161008.574000", "161010.573000", "161012.574000", "161014.574000", "161016.573000", "161018.574000", "161020.574000", "161022.575000", "161024.574000", "161026.574000", "161028.574000", "161030.574000", "161032.574000", "161034.574000", "161036.573000", "161038.575000", "161040.575000", "161042.574000", "161044.574000", "161046.574000", "161048.574000", "161050.573000", "161052.574000", "161054.574000", "161056.575000", "161058.574000", "161100.574000", "161102.574000", "161104.573000", "161106.574000", "161108.573000", "161110.574000", "161112.574000", "161114.575000", "161116.574000", "161118.574000", "161120.574000", "161122.573000", "161124.574000", "161126.574000", "161128.573000", "161130.575000", "161133.075000", "161134.573000", "161136.574000", "161138.574000", "161140.574000", "161142.574000", "161144.573000", "161146.574000", "161148.575000", "161150.575000", "161152.574000", "161154.574000", "161156.573000", "161158.574000", "161201.073000", "161202.573000", "161204.573000", "161206.575000", "161208.575000", "161210.574000", "161212.573000", "161214.573000", "161216.574000", "161218.573000", "161220.573000", "161222.573000", "161224.574000", "161227.074000", "161228.574000", "161230.574000", "161232.573000", "161234.573000", "161236.574000", "161238.574000", "161240.574000", "161242.574000", "161244.574000", "161246.574000", "161248.574000", "161250.573000", "161252.574000", "161254.573000", "161256.468000"],
      "InstanceNumber": [1, 2, 3, 4, 5, 6, 7, 8, 9, 10, 11, 12, 13, 14, 15, 16, 17, 18, 19, 20, 21, 22, 23, 24, 25, 26, 27, 28, 29, 30, 31, 32, 33, 34, 35, 36, 37, 38, 39, 40, 41, 42, 43, 44, 45, 46, 47, 48, 49, 50, 51, 52, 53, 54, 55, 56, 57, 58, 59, 60, 61, 62, 63, 64, 65, 66, 67, 68, 69, 70, 71, 72, 73, 74, 75, 76, 77, 78, 79, 80, 81, 82, 83, 84, 85, 86, 87, 88, 89, 90, 91, 92, 93, 94, 95, 96, 97, 98, 99, 100, 101, 102, 103, 104, 105, 106, 107, 108, 109, 110, 111, 112, 113, 114, 115, 116, 117, 118, 119, 120, 121, 122, 123, 124, 125, 126, 127, 128, 129, 130, 131, 132, 133, 134, 135, 136, 137, 138, 139, 140, 141, 142, 143, 144, 145, 146, 147, 148, 149, 150, 151, 152, 153, 154, 155, 156, 157, 158, 159, 160, 161, 162, 163, 164, 165, 166, 167, 168, 169, 170, 171, 172, 173, 174, 175, 176, 177, 178, 179, 180, 181, 182, 183, 184, 185, 186, 187, 188, 189, 190, 191, 192, 193, 194, 195, 196, 197, 198, 199, 200, 201, 202, 203, 204, 205, 206, 207, 208, 209, 210, 211, 212, 213, 214, 215, 216, 217, 218, 219, 220, 221, 222, 223, 224, 225, 226, 227, 228, 229, 230, 231, 232, 233, 234, 235, 236, 237, 238, 239, 240, 241],
      "LargestImagePixelValue": [3332, 3300, 3318, 3299, 3282, 3346, 3387, 3321, 3291, 3276, 3315, 3324, 3268, 3287, 3308, 3292, 3280, 3297, 3309, 3302, 3302, 3345, 3365, 3314, 3289, 3341, 3321, 3293, 3290, 3297, 3281, 3275, 3279, 3269, 3286, 3273, 3283, 3242, 3236, 3271, 3248, 3274, 3254, 3235, 3290, 3322, 3268, 3230, 3253, 3305, 3286, 3242, 3251, 3240, 3245, 3194, 3251, 3258, 3301, 3325, 3280, 3203, 3254, 3247, 3236, 3131, 3217, 3207, 3181, 3139, 3207, 3194, 3198, 3233, 3207, 3231, 3208, 3150, 3178, 3231, 3211, 3172, 3144, 3144, 3140, 3133, 3139, 3128, 3172, 3093, 3090, 3129, 3148, 3110, 3110, 3118, 3159, 3163, 3201, 3193, 3114, 3129, 3140, 3123, 3121, 3158, 3142, 3085, 3078, 3169, 3140, 3129, 3113, 3150, 3176, 3106, 3136, 3167, 3160, 3119, 3111, 3175, 3172, 3189, 3206, 3174, 3114, 3152, 3170, 3159, 3149, 3109, 3120, 3114, 3129, 3118, 3220, 3207, 3130, 3131, 3125, 3077, 3089, 3077, 3083, 3139, 3124, 3092, 3083, 3087, 3046, 3067, 3126, 3122, 3117, 3140, 3110, 3116, 3116, 3107, 3111, 3099, 3105, 3110, 3125, 3118, 3090, 3142, 3101, 3026, 3055, 3148, 3150, 3105, 3055, 3115, 3125, 3104, 3115, 3115, 3039, 3084, 3093, 3145, 3166, 3162, 3158, 3138, 3119, 3176, 3117, 3130, 3156, 3219, 3218, 3200, 3125, 3137, 3156, 3135, 3111, 3106, 3089, 3106, 3093, 3093, 3149, 3112, 3061, 3062, 3082, 3033, 3076, 3120, 3077, 3045, 3078, 3100, 3018, 3062, 3090, 3090, 3054, 3067, 3094, 3041, 3017, 3052, 3062, 3037, 3036, 2996, 3047, 3031, 3073, 3117, 3145, 3076, 3107, 3140, 3068],
      "WindowCenter": [765.0, 764.0, 764.0, 764.0, 765.0, 765.0, 766.0, 765.0, 764.0, 764.0, 765.0, 766.0, 765.0, 764.0, 764.0, 764.0, 764.0, 764.0, 764.0, 764.0, 764.0, 764.0, 765.0, 765.0, 764.0, 764.0, 765.0, 765.0, 765.0, 764.0, 765.0, 765.0, 765.0, 765.0, 765.0, 765.0, 764.0, 764.0, 763.0, 764.0, 764.0, 765.0, 765.0, 764.0, 765.0, 766.0, 765.0, 765.0, 765.0, 765.0, 765.0, 764.0, 763.0, 762.0, 762.0, 762.0, 764.0, 764.0, 766.0, 765.0, 763.0, 762.0, 763.0, 764.0, 763.0, 762.0, 763.0, 762.0, 762.0, 762.0, 762.0, 763.0, 764.0, 764.0, 764.0, 764.0, 764.0, 762.0, 763.0, 764.0, 764.0, 763.0, 762.0, 762.0, 763.0, 763.0, 762.0, 761.0, 762.0, 761.0, 761.0, 762.0, 762.0, 762.0, 763.0, 764.0, 764.0, 764.0, 763.0, 763.0, 762.0, 763.0, 763.0, 764.0, 763.0, 763.0, 762.0, 762.0, 762.0, 763.0, 762.0, 762.0, 762.0, 763.0, 765.0, 764.0, 764.0, 764.0, 763.0, 762.0, 762.0, 763.0, 764.0, 764.0, 764.0, 764.0, 763.0, 763.0, 763.0, 763.0, 762.0, 762.0, 763.0, 763.0, 763.0, 762.0, 764.0, 765.0, 764.0, 763.0, 763.0, 762.0, 763.0, 763.0, 763.0, 764.0, 763.0, 763.0, 762.0, 763.0, 763.0, 763.0, 764.0, 764.0, 764.0, 765.0, 764.0, 763.0, 763.0, 764.0, 765.0, 764.0, 763.0, 764.0, 765.0, 765.0, 764.0, 763.0, 762.0, 762.0, 762.0, 763.0, 764.0, 764.0, 763.0, 763.0, 763.0, 763.0, 763.0, 763.0, 763.0, 763.0, 762.0, 763.0, 764.0, 764.0, 764.0, 763.0, 763.0, 764.0, 763.0, 763.0, 763.0, 762.0, 763.0, 764.0, 766.0, 766.0, 765.0, 763.0, 762.0, 762.0, 762.0, 762.0, 762.0, 761.0, 763.0, 763.0, 763.0, 763.0, 763.0, 762.0, 762.0, 763.0, 763.0, 763.0, 764.0, 763.0, 763.0, 763.0, 764.0, 764.0, 763.0, 762.0, 763.0, 763.0, 763.0, 764.0, 763.0, 762.0, 762.0, 761.0, 762.0, 762.0, 763.0, 764.0, 765.0, 764.0, 763.0, 763.0, 762.0],
      "WindowWidth": [1652.0, 1649.0, 1650.0, 1649.0, 1651.0, 1652.0, 1654.0, 1651.0, 1648.0, 1647.0, 1652.0, 1655.0, 1650.0, 1647.0, 1649.0, 1649.0, 1648.0, 1648.0, 1649.0, 1650.0, 1650.0, 1650.0, 1652.0, 1652.0, 1649.0, 1649.0, 1651.0, 1650.0, 1650.0, 1650.0, 1650.0, 1651.0, 1651.0, 1651.0, 1651.0, 1650.0, 1648.0, 1647.0, 1647.0, 1648.0, 1648.0, 1650.0, 1650.0, 1648.0, 1651.0, 1654.0, 1652.0, 1650.0, 1650.0, 1652.0, 1652.0, 1649.0, 1646.0, 1643.0, 1644.0, 1645.0, 1648.0, 1650.0, 1653.0, 1652.0, 1646.0, 1643.0, 1648.0, 1648.0, 1646.0, 1644.0, 1646.0, 1644.0, 1643.0, 1642.0, 1645.0, 1646.0, 1648.0, 1649.0, 1649.0, 1649.0, 1648.0, 1645.0, 1647.0, 1649.0, 1648.0, 1646.0, 1643.0, 1644.0, 1645.0, 1645.0, 1644.0, 1642.0, 1643.0, 1641.0, 1642.0, 1644.0, 1644.0, 1644.0, 1646.0, 1647.0, 1649.0, 1648.0, 1647.0, 1647.0, 1644.0, 1645.0, 1646.0, 1648.0, 1646.0, 1646.0, 1645.0, 1643.0, 1644.0, 1646.0, 1645.0, 1643.0, 1644.0, 1648.0, 1651.0, 1648.0, 1648.0, 1647.0, 1647.0, 1645.0, 1643.0, 1646.0, 1648.0, 1649.0, 1649.0, 1648.0, 1646.0, 1646.0, 1646.0, 1646.0, 1645.0, 1644.0, 1646.0, 1645.0, 1645.0, 1644.0, 1649.0, 1651.0, 1648.0, 1646.0, 1645.0, 1644.0, 1646.0, 1645.0, 1645.0, 1647.0, 1646.0, 1646.0, 1644.0, 1646.0, 1645.0, 1645.0, 1647.0, 1648.0, 1649.0, 1650.0, 1647.0, 1646.0, 1647.0, 1649.0, 1650.0, 1647.0, 1646.0, 1648.0, 1650.0, 1651.0, 1648.0, 1646.0, 1644.0, 1642.0, 1642.0, 1646.0, 1650.0, 1649.0, 1646.0, 1646.0, 1646.0, 1647.0, 1647.0, 1646.0, 1645.0, 1644.0, 1644.0, 1645.0, 1648.0, 1649.0, 1648.0, 1644.0, 1645.0, 1647.0, 1647.0, 1647.0, 1645.0, 1644.0, 1645.0, 1649.0, 1653.0, 1653.0, 1650.0, 1647.0, 1643.0, 1642.0, 1642.0, 1644.0, 1644.0, 1642.0, 1646.0, 1646.0, 1646.0, 1646.0, 1645.0, 1643.0, 1644.0, 1645.0, 1645.0, 1646.0, 1648.0, 1646.0, 1644.0, 1645.0, 1647.0, 1647.0, 1645.0, 1644.0, 1646.0, 1645.0, 1645.0, 1647.0, 1645.0, 1643.0, 1643.0, 1641.0, 1643.0, 1643.0, 1645.0, 1648.0, 1650.0, 1648.0, 1647.0, 1646.0, 1642.0]
    },
    "slices": {}
  }
}