{
  "AcquisitionMatrixPE": 100,
  "AcquisitionNumber": 1,
  "AcquisitionTime": "15:28:16.235000",
  "BandwidthPerPixelPhaseEncode": 18.519,
  "BaseResolution": 100,
  "BodyPartExamined": "BRAIN",
  "ConsistencyInfo": "N4_VE11C_LATEST_20160120",
  "ConversionSoftware": "dcm2niix",
  "ConversionSoftwareVersion": "v1.0.20180622 GCC4.9.2",
  "DerivedVendorReportedEchoSpacing": 0.000539986,
  "DeviceSerialNumber": "166078",
  "DwellTime": 2.1e-06,
  "EchoTime": 0.034,
  "EchoTrainLength": 100,
  "EffectiveEchoSpacing": 0.000539986,
  "FlipAngle": 90,
  "ImageOrientationPatientDICOM": [0.999938, 0.00935759, 0.00610927, -0.00698104, 0.94993, -0.312385],
  "ImageType": [
    "ORIGINAL",
    "PRIMARY",
    "M",
    "ND",
    "MOSAIC"
],
  "InPlanePhaseEncodingDirectionDICOM": "COL",
  "InstitutionAddress": "Street_StreetNo_Bei_Jing_District_CN_ZIP",
  "InstitutionName": "BeiJing_Normal_University",
  "InstitutionalDepartmentName": "Department",
  "MRAcquisitionType": "2D",
  "MagneticFieldStrength": 3,
  "Manufacturer": "Siemens",
  "ManufacturersModelName": "Prisma",
  "Modality": "MR",
  "MultibandAccelerationFactor": 3,
  "PartialFourier": 1,
  "PatientPosition": "HFS",
  "PercentPhaseFOV": 100,
  "PhaseEncodingDirection": "j-",
  "PhaseEncodingSteps": 100,
  "PhaseResolution": 1,
  "PixelBandwidth": 2380,
  "ProcedureStepDescription": "BNU_P2018_64CH_Zhen.ZongLei",
  "ProtocolName": "bold_100x100_s3_2x2x2_static_test_241",
  "PulseSequenceDetails": "%SiemensSeq%_ep2d_bold",
  "ReceiveCoilActiveElements": "HC1-7;NC1",
  "ReceiveCoilName": "HeadNeck_64",
  "ReconMatrixPE": 100,
  "RepetitionTime": 2,
  "SAR": 0.0687371,
  "ScanOptions": "FS",
  "ScanningSequence": "EP",
  "SequenceName": "_epfid2d1_100",
  "SequenceVariant": "SK",
  "SeriesDescription": "bold_100x100_s3_2x2x2_static_test_241",
  "SeriesNumber": 5,
  "ShimSetting": [-5456, -11436, -1321, 438, -13, -465, -309, 47],
  "SliceThickness": 2,
  "SliceTiming": [1.485, 0, 0.99, 0.0825, 1.0725, 0.165, 1.155, 0.2475, 1.2375, 0.33, 1.32, 0.4125, 1.4025, 0.5775, 1.5675, 0.66, 1.65, 0.7425, 1.7325, 0.825, 1.815, 0.9075, 1.8975, 0.495, 1.485, 0, 0.99, 0.0825, 1.0725, 0.165, 1.155, 0.2475, 1.2375, 0.33, 1.32, 0.4125, 1.4025, 0.5775, 1.5675, 0.66, 1.65, 0.7425, 1.7325, 0.825, 1.815, 0.9075, 1.8975, 0.495, 1.485, 0, 0.99, 0.0825, 1.0725, 0.165, 1.155, 0.2475, 1.2375, 0.33, 1.32, 0.4125, 1.4025, 0.5775, 1.5675, 0.66, 1.65, 0.7425, 1.7325, 0.825, 1.815, 0.9075, 1.8975, 0.495],
  "SoftwareVersions": "syngo_MR_E11",
  "SpacingBetweenSlices": 2,
  "StationName": "AWP166078",
  "TaskName": "naturalvision2",
  "TotalReadoutTime": 0.0534586,
  "TxRefAmp": 215.371,
  "dcmmeta_affine": [
    [-1.9998750686645508, -0.01396208256483078, 0.017453106120228767, 101.40771484375],
    [-0.01871517486870289, 1.8998597860336304, -0.6246460676193237, -71.0829849243164],
    [0.01221854705363512, 0.6247703433036804, 1.8998717069625854, -113.97283935546875],
    [0.0, 0.0, 0.0, 1.0]
],
  "dcmmeta_reorient_transform": [
    [0.0, -1.0, 0.0, 99.0],
    [1.0, 0.0, 0.0, 0.0],
    [0.0, 0.0, 1.0, 0.0],
    [0.0, 0.0, 0.0, 1.0]
],
  "dcmmeta_shape": [100, 100, 72, 241],
  "dcmmeta_slice_dim": 2,
  "dcmmeta_version": 0.6,
  "global": {
    "const": {
      "AcquisitionMatrix": [100, 0, 0, 100],
      "AngioFlag": "N",
      "BitsAllocated": 16,
      "BitsStored": 12,
      "BodyPartExamined": "BRAIN",
      "Columns": 900,
      "EchoNumbers": 1,
      "EchoTime": 34.0,
      "EchoTrainLength": 100,
      "FlipAngle": 90.0,
      "HighBit": 11,
      "ImageOrientationPatient": [0.99993755421714, 0.00935758761115, 0.00610927330787, -0.006981041455, 0.94992987145245, -0.3123851859204],
      "ImagePositionPatient": [-894.39067506163, -884.43309403187, 192.90016003537],
      "ImageType": [
        "ORIGINAL",
        "PRIMARY",
        "M",
        "ND",
        "MOSAIC"
],
      "ImagedNucleus": "1H",
      "ImagingFrequency": 123.257796,
      "InPlanePhaseEncodingDirection": "COL",
      "MRAcquisitionType": "2D",
      "MagneticFieldStrength": 3.0,
      "Manufacturer": "SIEMENS",
      "ManufacturerModelName": "Prisma",
      "Modality": "MR",
      "NumberOfAverages": 1.0,
      "NumberOfPhaseEncodingSteps": 100,
      "PercentPhaseFieldOfView": 100.0,
      "PercentSampling": 100.0,
      "PerformedProcedureStepStartTime": "150705.759000",
      "PhotometricInterpretation": "MONOCHROME2",
      "PixelBandwidth": 2380.0,
      "PixelRepresentation": 0,
      "PixelSpacing": [2.0, 2.0],
      "ProtocolName": "bold_100x100_s3_2x2x2_static_test_241",
      "RepetitionTime": 2000.0,
      "Rows": 900,
      "SAR": 0.06873709161607,
      "SamplesPerPixel": 1,
      "ScanOptions": "FS",
      "ScanningSequence": "EP",
      "SequenceName": "*epfid2d1_100",
      "SequenceVariant": "SK",
      "SeriesDescription": "bold_100x100_s3_2x2x2_static_test_241",
      "SeriesNumber": 5,
      "SeriesTime": "152818.711000",
      "SliceLocation": -85.181093003094,
      "SliceThickness": 2.0,
      "SmallestImagePixelValue": 0,
      "SoftwareVersions": "syngo MR E11",
      "SpacingBetweenSlices": 2.0000000088882,
      "SpecificCharacterSet": "ISO_IR 100",
      "StudyID": "1",
      "StudyTime": "150705.681000",
      "TransmitCoilName": "Body",
      "VariableFlipAngleFlag": "N",
      "WindowCenterWidthExplanation": "Algo1",
      "dBdt": 0.0},
    "slices": {}
  },
  "time": {
    "samples": {
      "AcquisitionNumber": [1, 2, 3, 4, 5, 6, 7, 8, 9, 10, 11, 12, 13, 14, 15, 16, 17, 18, 19, 20, 21, 22, 23, 24, 25, 26, 27, 28, 29, 30, 31, 32, 33, 34, 35, 36, 37, 38, 39, 40, 41, 42, 43, 44, 45, 46, 47, 48, 49, 50, 51, 52, 53, 54, 55, 56, 57, 58, 59, 60, 61, 62, 63, 64, 65, 66, 67, 68, 69, 70, 71, 72, 73, 74, 75, 76, 77, 78, 79, 80, 81, 82, 83, 84, 85, 86, 87, 88, 89, 90, 91, 92, 93, 94, 95, 96, 97, 98, 99, 100, 101, 102, 103, 104, 105, 106, 107, 108, 109, 110, 111, 112, 113, 114, 115, 116, 117, 118, 119, 120, 121, 122, 123, 124, 125, 126, 127, 128, 129, 130, 131, 132, 133, 134, 135, 136, 137, 138, 139, 140, 141, 142, 143, 144, 145, 146, 147, 148, 149, 150, 151, 152, 153, 154, 155, 156, 157, 158, 159, 160, 161, 162, 163, 164, 165, 166, 167, 168, 169, 170, 171, 172, 173, 174, 175, 176, 177, 178, 179, 180, 181, 182, 183, 184, 185, 186, 187, 188, 189, 190, 191, 192, 193, 194, 195, 196, 197, 198, 199, 200, 201, 202, 203, 204, 205, 206, 207, 208, 209, 210, 211, 212, 213, 214, 215, 216, 217, 218, 219, 220, 221, 222, 223, 224, 225, 226, 227, 228, 229, 230, 231, 232, 233, 234, 235, 236, 237, 238, 239, 240, 241],
      "AcquisitionTime": ["152816.235000", "152818.235000", "152820.235000", "152822.235000", "152824.235000", "152826.235000", "152828.235000", "152830.235000", "152832.235000", "152834.235000", "152836.235000", "152838.235000", "152840.235000", "152842.235000", "152844.235000", "152846.235000", "152848.235000", "152850.235000", "152852.235000", "152854.235000", "152856.235000", "152858.235000", "152900.235000", "152902.235000", "152904.235000", "152906.235000", "152908.235000", "152910.235000", "152912.235000", "152914.235000", "152916.235000", "152918.235000", "152920.235000", "152922.235000", "152924.235000", "152926.235000", "152928.235000", "152930.235000", "152932.235000", "152934.235000", "152936.235000", "152938.235000", "152940.235000", "152942.235000", "152944.235000", "152946.235000", "152948.235000", "152950.235000", "152952.235000", "152954.235000", "152956.235000", "152958.235000", "153000.235000", "153002.235000", "153004.235000", "153006.235000", "153008.235000", "153010.235000", "153012.235000", "153014.235000", "153016.235000", "153018.235000", "153020.235000", "153022.235000", "153024.235000", "153026.235000", "153028.235000", "153030.235000", "153032.235000", "153034.235000", "153036.235000", "153038.235000", "153040.235000", "153042.235000", "153044.235000", "153046.235000", "153048.235000", "153050.235000", "153052.235000", "153054.235000", "153056.235000", "153058.235000", "153100.235000", "153102.235000", "153104.235000", "153106.235000", "153108.235000", "153110.235000", "153112.235000", "153114.235000", "153116.235000", "153118.235000", "153120.235000", "153122.235000", "153124.235000", "153126.235000", "153128.235000", "153130.235000", "153132.235000", "153134.235000", "153136.235000", "153138.235000", "153140.235000", "153142.235000", "153144.235000", "153146.235000", "153148.235000", "153150.235000", "153152.235000", "153154.235000", "153156.235000", "153158.235000", "153200.235000", "153202.235000", "153204.235000", "153206.235000", "153208.235000", "153210.235000", "153212.235000", "153214.235000", "153216.235000", "153218.235000", "153220.235000", "153222.235000", "153224.235000", "153226.235000", "153228.235000", "153230.235000", "153232.235000", "153234.235000", "153236.235000", "153238.235000", "153240.235000", "153242.235000", "153244.235000", "153246.235000", "153248.235000", "153250.235000", "153252.235000", "153254.235000", "153256.235000", "153258.235000", "153300.235000", "153302.235000", "153304.235000", "153306.235000", "153308.235000", "153310.235000", "153312.235000", "153314.235000", "153316.235000", "153318.235000", "153320.235000", "153322.235000", "153324.235000", "153326.235000", "153328.235000", "153330.235000", "153332.235000", "153334.235000", "153336.235000", "153338.235000", "153340.235000", "153342.235000", "153344.235000", "153346.235000", "153348.235000", "153350.235000", "153352.235000", "153354.235000", "153356.235000", "153358.235000", "153400.235000", "153402.235000", "153404.235000", "153406.235000", "153408.235000", "153410.235000", "153412.235000", "153414.235000", "153416.235000", "153418.235000", "153420.235000", "153422.235000", "153424.235000", "153426.235000", "153428.235000", "153430.235000", "153432.235000", "153434.235000", "153436.235000", "153438.235000", "153440.235000", "153442.235000", "153444.235000", "153446.235000", "153448.235000", "153450.235000", "153452.235000", "153454.235000", "153456.235000", "153458.235000", "153500.235000", "153502.235000", "153504.235000", "153506.235000", "153508.235000", "153510.235000", "153512.235000", "153514.235000", "153516.235000", "153518.235000", "153520.235000", "153522.235000", "153524.235000", "153526.235000", "153528.235000", "153530.235000", "153532.235000", "153534.235000", "153536.235000", "153538.235000", "153540.235000", "153542.235000", "153544.235000", "153546.235000", "153548.235000", "153550.235000", "153552.235000", "153554.235000", "153556.235000", "153558.235000", "153600.235000", "153602.235000", "153604.235000", "153606.235000", "153608.235000", "153610.235000", "153612.235000", "153614.235000", "153616.235000"],
      "ContentTime": ["152818.715000", "152820.211000", "152822.210000", "152824.210000", "152826.211000", "152828.211000", "152830.210000", "152832.210000", "152834.211000", "152836.210000", "152838.211000", "152840.211000", "152842.210000", "152844.211000", "152846.210000", "152848.211000", "152850.211000", "152852.211000", "152854.210000", "152856.211000", "152858.211000", "152900.211000", "152902.211000", "152904.211000", "152906.211000", "152908.211000", "152910.210000", "152912.211000", "152914.209000", "152916.211000", "152918.210000", "152920.211000", "152922.211000", "152924.211000", "152926.210000", "152928.210000", "152930.210000", "152932.209000", "152934.211000", "152936.210000", "152938.211000", "152940.210000", "152942.210000", "152944.211000", "152946.210000", "152948.210000", "152950.211000", "152952.211000", "152954.210000", "152956.210000", "152958.211000", "153000.210000", "153002.211000", "153004.211000", "153006.211000", "153008.210000", "153010.210000", "153012.211000", "153014.211000", "153016.210000", "153018.211000", "153020.210000", "153022.211000", "153024.209000", "153026.211000", "153028.211000", "153030.211000", "153032.211000", "153034.211000", "153036.211000", "153038.210000", "153040.211000", "153042.210000", "153044.211000", "153046.210000", "153048.210000", "153050.211000", "153052.210000", "153054.210000", "153056.210000", "153058.210000", "153100.210000", "153102.211000", "153104.211000", "153106.211000", "153108.210000", "153110.211000", "153112.211000", "153114.210000", "153116.211000", "153118.210000", "153120.211000", "153122.210000", "153124.211000", "153126.211000", "153128.210000", "153130.211000", "153132.211000", "153134.210000", "153136.210000", "153138.211000", "153140.211000", "153142.210000", "153144.211000", "153146.211000", "153148.210000", "153150.210000", "153152.210000", "153154.210000", "153156.211000", "153158.210000", "153200.211000", "153202.211000", "153204.210000", "153206.211000", "153208.211000", "153210.211000", "153212.210000", "153214.211000", "153216.210000", "153218.211000", "153220.210000", "153222.211000", "153224.211000", "153226.210000", "153228.211000", "153230.210000", "153232.211000", "153234.210000", "153236.210000", "153238.211000", "153240.211000", "153242.211000", "153244.210000", "153246.210000", "153248.211000", "153250.211000", "153252.210000", "153254.211000", "153256.210000", "153258.211000", "153300.210000", "153302.210000", "153304.210000", "153306.210000", "153308.211000", "153310.210000", "153312.211000", "153314.210000", "153316.211000", "153318.211000", "153320.210000", "153322.211000", "153324.210000", "153326.210000", "153328.211000", "153330.211000", "153332.210000", "153334.211000", "153336.211000", "153338.211000", "153340.210000", "153342.210000", "153344.210000", "153346.211000", "153348.211000", "153350.210000", "153352.211000", "153354.209000", "153356.211000", "153358.210000", "153400.211000", "153402.211000", "153404.210000", "153406.210000", "153408.210000", "153410.211000", "153412.210000", "153414.211000", "153416.210000", "153418.210000", "153420.210000", "153422.210000", "153424.210000", "153426.210000", "153428.211000", "153430.211000", "153432.210000", "153434.210000", "153436.210000", "153438.210000", "153440.210000", "153442.211000", "153444.210000", "153446.211000", "153448.210000", "153450.210000", "153452.210000", "153454.210000", "153456.210000", "153458.210000", "153500.210000", "153502.210000", "153504.210000", "153506.211000", "153508.211000", "153510.211000", "153512.211000", "153514.211000", "153516.211000", "153518.210000", "153520.211000", "153522.210000", "153524.210000", "153526.210000", "153528.211000", "153530.211000", "153532.210000", "153534.211000", "153536.210000", "153538.210000", "153540.210000", "153542.211000", "153544.210000", "153546.210000", "153548.210000", "153550.211000", "153552.211000", "153554.211000", "153556.211000", "153558.211000", "153600.210000", "153602.211000", "153604.211000", "153606.211000", "153608.210000", "153610.211000", "153612.211000", "153614.209000", "153616.210000", "153617.952000"],
      "InstanceCreationTime": ["152818.715000", "152820.211000", "152822.210000", "152824.210000", "152826.211000", "152828.211000", "152830.210000", "152832.210000", "152834.211000", "152836.210000", "152838.211000", "152840.211000", "152842.210000", "152844.211000", "152846.210000", "152848.211000", "152850.211000", "152852.211000", "152854.210000", "152856.211000", "152858.211000", "152900.211000", "152902.211000", "152904.211000", "152906.211000", "152908.211000", "152910.210000", "152912.211000", "152914.209000", "152916.211000", "152918.210000", "152920.211000", "152922.211000", "152924.211000", "152926.210000", "152928.210000", "152930.210000", "152932.209000", "152934.211000", "152936.210000", "152938.211000", "152940.210000", "152942.210000", "152944.211000", "152946.210000", "152948.210000", "152950.211000", "152952.211000", "152954.210000", "152956.210000", "152958.211000", "153000.210000", "153002.211000", "153004.211000", "153006.211000", "153008.210000", "153010.210000", "153012.211000", "153014.211000", "153016.210000", "153018.211000", "153020.210000", "153022.211000", "153024.209000", "153026.211000", "153028.211000", "153030.211000", "153032.211000", "153034.211000", "153036.211000", "153038.210000", "153040.211000", "153042.210000", "153044.211000", "153046.210000", "153048.210000", "153050.211000", "153052.210000", "153054.210000", "153056.210000", "153058.210000", "153100.210000", "153102.211000", "153104.211000", "153106.211000", "153108.210000", "153110.211000", "153112.211000", "153114.210000", "153116.211000", "153118.210000", "153120.211000", "153122.210000", "153124.211000", "153126.211000", "153128.210000", "153130.211000", "153132.211000", "153134.210000", "153136.210000", "153138.211000", "153140.211000", "153142.210000", "153144.211000", "153146.211000", "153148.210000", "153150.210000", "153152.210000", "153154.210000", "153156.211000", "153158.210000", "153200.211000", "153202.211000", "153204.210000", "153206.211000", "153208.211000", "153210.211000", "153212.210000", "153214.211000", "153216.210000", "153218.211000", "153220.210000", "153222.211000", "153224.211000", "153226.210000", "153228.211000", "153230.210000", "153232.211000", "153234.210000", "153236.210000", "153238.211000", "153240.211000", "153242.211000", "153244.210000", "153246.210000", "153248.211000", "153250.211000", "153252.210000", "153254.211000", "153256.210000", "153258.211000", "153300.210000", "153302.210000", "153304.210000", "153306.210000", "153308.211000", "153310.210000", "153312.211000", "153314.210000", "153316.211000", "153318.211000", "153320.210000", "153322.211000", "153324.210000", "153326.210000", "153328.211000", "153330.211000", "153332.210000", "153334.211000", "153336.211000", "153338.211000", "153340.210000", "153342.210000", "153344.210000", "153346.211000", "153348.211000", "153350.210000", "153352.211000", "153354.209000", "153356.211000", "153358.210000", "153400.211000", "153402.211000", "153404.210000", "153406.210000", "153408.210000", "153410.211000", "153412.210000", "153414.211000", "153416.210000", "153418.210000", "153420.210000", "153422.210000", "153424.210000", "153426.210000", "153428.211000", "153430.211000", "153432.210000", "153434.210000", "153436.210000", "153438.210000", "153440.210000", "153442.211000", "153444.210000", "153446.211000", "153448.210000", "153450.210000", "153452.210000", "153454.210000", "153456.210000", "153458.210000", "153500.210000", "153502.210000", "153504.210000", "153506.211000", "153508.211000", "153510.211000", "153512.211000", "153514.211000", "153516.211000", "153518.210000", "153520.211000", "153522.210000", "153524.210000", "153526.210000", "153528.211000", "153530.211000", "153532.210000", "153534.211000", "153536.210000", "153538.210000", "153540.210000", "153542.211000", "153544.210000", "153546.210000", "153548.210000", "153550.211000", "153552.211000", "153554.211000", "153556.211000", "153558.211000", "153600.210000", "153602.211000", "153604.211000", "153606.211000", "153608.210000", "153610.211000", "153612.211000", "153614.209000", "153616.210000", "153617.952000"],
      "InstanceNumber": [1, 2, 3, 4, 5, 6, 7, 8, 9, 10, 11, 12, 13, 14, 15, 16, 17, 18, 19, 20, 21, 22, 23, 24, 25, 26, 27, 28, 29, 30, 31, 32, 33, 34, 35, 36, 37, 38, 39, 40, 41, 42, 43, 44, 45, 46, 47, 48, 49, 50, 51, 52, 53, 54, 55, 56, 57, 58, 59, 60, 61, 62, 63, 64, 65, 66, 67, 68, 69, 70, 71, 72, 73, 74, 75, 76, 77, 78, 79, 80, 81, 82, 83, 84, 85, 86, 87, 88, 89, 90, 91, 92, 93, 94, 95, 96, 97, 98, 99, 100, 101, 102, 103, 104, 105, 106, 107, 108, 109, 110, 111, 112, 113, 114, 115, 116, 117, 118, 119, 120, 121, 122, 123, 124, 125, 126, 127, 128, 129, 130, 131, 132, 133, 134, 135, 136, 137, 138, 139, 140, 141, 142, 143, 144, 145, 146, 147, 148, 149, 150, 151, 152, 153, 154, 155, 156, 157, 158, 159, 160, 161, 162, 163, 164, 165, 166, 167, 168, 169, 170, 171, 172, 173, 174, 175, 176, 177, 178, 179, 180, 181, 182, 183, 184, 185, 186, 187, 188, 189, 190, 191, 192, 193, 194, 195, 196, 197, 198, 199, 200, 201, 202, 203, 204, 205, 206, 207, 208, 209, 210, 211, 212, 213, 214, 215, 216, 217, 218, 219, 220, 221, 222, 223, 224, 225, 226, 227, 228, 229, 230, 231, 232, 233, 234, 235, 236, 237, 238, 239, 240, 241],
      "LargestImagePixelValue": [3335, 3275, 3230, 3170, 3151, 3236, 3252, 3166, 3147, 3231, 3224, 3180, 3157, 3200, 3232, 3182, 3178, 3213, 3240, 3222, 3181, 3182, 3207, 3173, 3149, 3163, 3200, 3197, 3197, 3144, 3190, 3213, 3196, 3174, 3221, 3181, 3167, 3177, 3186, 3201, 3135, 3114, 3148, 3152, 3130, 3067, 3099, 3160, 3140, 3092, 3123, 3179, 3136, 3139, 3127, 3094, 3073, 3157, 3148, 3120, 3123, 3130, 3167, 3159, 3133, 3129, 3164, 3212, 3164, 3165, 3158, 3163, 3132, 3126, 3132, 3181, 3172, 3133, 3169, 3213, 3165, 3215, 3238, 3205, 3152, 3141, 3132, 3152, 3130, 3133, 3119, 3072, 3117, 3121, 3161, 3113, 3108, 3190, 3128, 3100, 3159, 3101, 3138, 3154, 3151, 3148, 3195, 3181, 3182, 3167, 3058, 3109, 3136, 3112, 3105, 3112, 3115, 3129, 3152, 3135, 3146, 3196, 3229, 3195, 3117, 3157, 3163, 3103, 3042, 3101, 3162, 3130, 3093, 3075, 3088, 3148, 3113, 3131, 3120, 3154, 3163, 3157, 3144, 3140, 3179, 3140, 3142, 3114, 3106, 3154, 3148, 3110, 3100, 3123, 3150, 3146, 3120, 3084, 3086, 3126, 3149, 3178, 3139, 3139, 3157, 3178, 3116, 3090, 3138, 3104, 3143, 3173, 3177, 3195, 3165, 3144, 3161, 3156, 3145, 3111, 3128, 3136, 3157, 3174, 3191, 3110, 3161, 3167, 3132, 3129, 3111, 3143, 3114, 3132, 3138, 3136, 3115, 3148, 3142, 3190, 3148, 3148, 3132, 3166, 3175, 3137, 3111, 3150, 3169, 3160, 3183, 3160, 3156, 3170, 3157, 3130, 3118, 3154, 3199, 3138, 3104, 3151, 3194, 3128, 3128, 3138, 3176, 3224, 3194, 3184, 3122, 3144, 3120, 3129, 3139, 3188, 3186, 3116, 3134, 3182, 3166],
      "WindowCenter": [768.0, 766.0, 765.0, 764.0, 764.0, 764.0, 765.0, 764.0, 764.0, 765.0, 765.0, 766.0, 766.0, 766.0, 766.0, 765.0, 765.0, 766.0, 766.0, 765.0, 765.0, 765.0, 765.0, 765.0, 764.0, 765.0, 765.0, 765.0, 764.0, 764.0, 765.0, 765.0, 764.0, 765.0, 766.0, 765.0, 765.0, 765.0, 765.0, 765.0, 764.0, 764.0, 764.0, 764.0, 763.0, 763.0, 764.0, 766.0, 765.0, 766.0, 765.0, 765.0, 765.0, 765.0, 764.0, 764.0, 764.0, 764.0, 765.0, 764.0, 765.0, 765.0, 765.0, 765.0, 765.0, 764.0, 765.0, 766.0, 765.0, 765.0, 765.0, 764.0, 764.0, 764.0, 764.0, 765.0, 765.0, 765.0, 765.0, 765.0, 763.0, 763.0, 764.0, 765.0, 765.0, 765.0, 765.0, 765.0, 765.0, 765.0, 765.0, 765.0, 765.0, 765.0, 765.0, 765.0, 765.0, 765.0, 765.0, 765.0, 765.0, 764.0, 764.0, 765.0, 765.0, 765.0, 766.0, 765.0, 765.0, 765.0, 764.0, 764.0, 764.0, 763.0, 763.0, 763.0, 763.0, 763.0, 763.0, 763.0, 764.0, 764.0, 764.0, 765.0, 764.0, 765.0, 765.0, 764.0, 764.0, 764.0, 765.0, 765.0, 765.0, 765.0, 765.0, 765.0, 764.0, 764.0, 764.0, 765.0, 766.0, 766.0, 766.0, 766.0, 767.0, 767.0, 766.0, 766.0, 764.0, 764.0, 764.0, 764.0, 764.0, 765.0, 766.0, 765.0, 765.0, 764.0, 764.0, 765.0, 765.0, 766.0, 765.0, 765.0, 765.0, 765.0, 765.0, 764.0, 764.0, 764.0, 764.0, 765.0, 765.0, 765.0, 765.0, 764.0, 764.0, 764.0, 764.0, 764.0, 765.0, 765.0, 765.0, 765.0, 765.0, 766.0, 765.0, 766.0, 766.0, 765.0, 764.0, 763.0, 764.0, 765.0, 765.0, 764.0, 764.0, 765.0, 765.0, 765.0, 765.0, 765.0, 765.0, 765.0, 765.0, 765.0, 765.0, 765.0, 765.0, 765.0, 766.0, 766.0, 767.0, 766.0, 765.0, 765.0, 765.0, 765.0, 766.0, 765.0, 765.0, 765.0, 765.0, 764.0, 764.0, 765.0, 767.0, 767.0, 766.0, 765.0, 765.0, 765.0, 766.0, 765.0, 765.0, 766.0, 766.0, 765.0, 765.0, 766.0, 766.0],
      "WindowWidth": [1664.0, 1659.0, 1654.0, 1653.0, 1651.0, 1653.0, 1654.0, 1653.0, 1652.0, 1655.0, 1656.0, 1657.0, 1657.0, 1658.0, 1657.0, 1656.0, 1656.0, 1658.0, 1657.0, 1656.0, 1656.0, 1655.0, 1654.0, 1654.0, 1653.0, 1655.0, 1655.0, 1654.0, 1653.0, 1652.0, 1655.0, 1655.0, 1653.0, 1654.0, 1658.0, 1655.0, 1654.0, 1654.0, 1655.0, 1655.0, 1652.0, 1652.0, 1652.0, 1652.0, 1651.0, 1650.0, 1653.0, 1657.0, 1656.0, 1657.0, 1656.0, 1656.0, 1656.0, 1655.0, 1653.0, 1652.0, 1653.0, 1653.0, 1654.0, 1653.0, 1655.0, 1655.0, 1656.0, 1655.0, 1655.0, 1653.0, 1654.0, 1658.0, 1656.0, 1654.0, 1654.0, 1654.0, 1652.0, 1652.0, 1652.0, 1654.0, 1655.0, 1654.0, 1654.0, 1653.0, 1649.0, 1649.0, 1653.0, 1654.0, 1655.0, 1655.0, 1655.0, 1656.0, 1656.0, 1655.0, 1656.0, 1655.0, 1656.0, 1655.0, 1656.0, 1656.0, 1656.0, 1656.0, 1654.0, 1654.0, 1654.0, 1653.0, 1653.0, 1654.0, 1655.0, 1655.0, 1657.0, 1655.0, 1655.0, 1654.0, 1652.0, 1652.0, 1652.0, 1650.0, 1650.0, 1649.0, 1650.0, 1650.0, 1650.0, 1650.0, 1652.0, 1652.0, 1654.0, 1654.0, 1653.0, 1656.0, 1656.0, 1652.0, 1652.0, 1653.0, 1655.0, 1655.0, 1655.0, 1656.0, 1655.0, 1654.0, 1653.0, 1653.0, 1653.0, 1656.0, 1657.0, 1658.0, 1658.0, 1659.0, 1661.0, 1660.0, 1659.0, 1657.0, 1653.0, 1653.0, 1652.0, 1651.0, 1653.0, 1654.0, 1657.0, 1655.0, 1653.0, 1652.0, 1652.0, 1654.0, 1655.0, 1658.0, 1655.0, 1654.0, 1655.0, 1656.0, 1654.0, 1652.0, 1652.0, 1652.0, 1653.0, 1654.0, 1655.0, 1655.0, 1654.0, 1653.0, 1653.0, 1652.0, 1653.0, 1653.0, 1654.0, 1655.0, 1654.0, 1654.0, 1656.0, 1656.0, 1655.0, 1657.0, 1658.0, 1656.0, 1652.0, 1650.0, 1652.0, 1654.0, 1655.0, 1653.0, 1653.0, 1654.0, 1655.0, 1656.0, 1654.0, 1654.0, 1654.0, 1654.0, 1654.0, 1654.0, 1654.0, 1655.0, 1655.0, 1655.0, 1657.0, 1658.0, 1660.0, 1658.0, 1656.0, 1655.0, 1654.0, 1656.0, 1656.0, 1654.0, 1655.0, 1655.0, 1654.0, 1651.0, 1652.0, 1656.0, 1661.0, 1660.0, 1658.0, 1655.0, 1654.0, 1656.0, 1656.0, 1655.0, 1655.0, 1656.0, 1657.0, 1654.0, 1655.0, 1656.0, 1657.0]
    },
    "slices": {}
  }
}