{
  "AcquisitionMatrixPE": 100,
  "AcquisitionNumber": 1,
  "AcquisitionTime": "16:13:39.202500",
  "BandwidthPerPixelPhaseEncode": 18.519,
  "BaseResolution": 100,
  "BodyPartExamined": "BRAIN",
  "ConsistencyInfo": "N4_VE11C_LATEST_20160120",
  "ConversionSoftware": "dcm2niix",
  "ConversionSoftwareVersion": "v1.0.20180622 GCC4.9.2",
  "DerivedVendorReportedEchoSpacing": 0.000539986,
  "DeviceSerialNumber": "166078",
  "DwellTime": 2.1e-06,
  "EchoTime": 0.034,
  "EchoTrainLength": 100,
  "EffectiveEchoSpacing": 0.000539986,
  "FlipAngle": 90,
  "ImageOrientationPatientDICOM": [0.999893, 0.00262549, -0.0143657, -0.00698067, 0.949972, -0.312256],
  "ImageType": [
    "ORIGINAL",
    "PRIMARY",
    "M",
    "ND",
    "MOSAIC"
],
  "InPlanePhaseEncodingDirectionDICOM": "COL",
  "InstitutionAddress": "Street_StreetNo_Bei_Jing_District_CN_ZIP",
  "InstitutionName": "BeiJing_Normal_University",
  "InstitutionalDepartmentName": "Department",
  "MRAcquisitionType": "2D",
  "MagneticFieldStrength": 3,
  "Manufacturer": "Siemens",
  "ManufacturersModelName": "Prisma",
  "Modality": "MR",
  "MultibandAccelerationFactor": 3,
  "PartialFourier": 1,
  "PatientPosition": "HFS",
  "PercentPhaseFOV": 100,
  "PhaseEncodingDirection": "j-",
  "PhaseEncodingSteps": 100,
  "PhaseResolution": 1,
  "PixelBandwidth": 2380,
  "ProcedureStepDescription": "BNU_P2018_64CH_Zhen.ZongLei",
  "ProtocolName": "bold_100x100_s3_2x2x2_static_test_241",
  "PulseSequenceDetails": "%SiemensSeq%_ep2d_bold",
  "ReceiveCoilActiveElements": "HC1-7;NC1",
  "ReceiveCoilName": "HeadNeck_64",
  "ReconMatrixPE": 100,
  "RepetitionTime": 2,
  "SAR": 0.0689345,
  "ScanOptions": "FS",
  "ScanningSequence": "EP",
  "SequenceName": "_epfid2d1_100",
  "SequenceVariant": "SK",
  "SeriesDescription": "bold_100x100_s3_2x2x2_static_test_241",
  "SeriesNumber": 13,
  "ShimSetting": [-5463, -11479, -1282, 476, 19, -355, -225, 70],
  "SliceThickness": 2,
  "SliceTiming": [1.485, 0, 0.99, 0.0825, 1.0725, 0.165, 1.155, 0.2475, 1.2375, 0.33, 1.32, 0.4125, 1.4025, 0.5775, 1.5675, 0.66, 1.65, 0.7425, 1.7325, 0.825, 1.815, 0.9075, 1.8975, 0.495, 1.485, 0, 0.99, 0.0825, 1.0725, 0.165, 1.155, 0.2475, 1.2375, 0.33, 1.32, 0.4125, 1.4025, 0.5775, 1.5675, 0.66, 1.65, 0.7425, 1.7325, 0.825, 1.815, 0.9075, 1.8975, 0.495, 1.485, 0, 0.99, 0.0825, 1.0725, 0.165, 1.155, 0.2475, 1.2375, 0.33, 1.32, 0.4125, 1.4025, 0.5775, 1.5675, 0.66, 1.65, 0.7425, 1.7325, 0.825, 1.815, 0.9075, 1.8975, 0.495],
  "SoftwareVersions": "syngo_MR_E11",
  "SpacingBetweenSlices": 2,
  "StationName": "AWP166078",
  "TaskName": "naturalvision2",
  "TotalReadoutTime": 0.0534586,
  "TxRefAmp": 213.025,
  "dcmmeta_affine": [
    [-1.9997867345809937, -0.01396134402602911, -0.025654451921582222, 102.93708801269531],
    [-0.005250974558293819, 1.8999446630477905, -0.6246460676193237, -71.14349365234375],
    [-0.028731469064950943, 0.6245120763778687, 1.8997787237167358, -104.50528717041016],
    [0.0, 0.0, 0.0, 1.0]
],
  "dcmmeta_reorient_transform": [
    [0.0, -1.0, 0.0, 99.0],
    [1.0, 0.0, 0.0, 0.0],
    [0.0, 0.0, 1.0, 0.0],
    [0.0, 0.0, 0.0, 1.0]
],
  "dcmmeta_shape": [100, 100, 72, 241],
  "dcmmeta_slice_dim": 2,
  "dcmmeta_version": 0.6,
  "global": {
    "const": {
      "AcquisitionMatrix": [100, 0, 0, 100],
      "AngioFlag": "N",
      "BitsAllocated": 16,
      "BitsStored": 12,
      "BodyPartExamined": "BRAIN",
      "Columns": 900,
      "EchoNumbers": 1,
      "EchoTime": 34.0,
      "EchoTrainLength": 100,
      "FlipAngle": 90.0,
      "HighBit": 11,
      "ImageOrientationPatient": [0.99989336056034, 0.00262548721514, -0.0143657343787, -0.0069806719624, 0.94997233416477, -0.3122560400384],
      "ImagePositionPatient": [-895.88506204926, -879.02928718198, 218.61883006871],
      "ImageType": [
        "ORIGINAL",
        "PRIMARY",
        "M",
        "ND",
        "MOSAIC"
],
      "ImagedNucleus": "1H",
      "ImagingFrequency": 123.25779,
      "InPlanePhaseEncodingDirection": "COL",
      "MRAcquisitionType": "2D",
      "MagneticFieldStrength": 3.0,
      "Manufacturer": "SIEMENS",
      "ManufacturerModelName": "Prisma",
      "Modality": "MR",
      "NumberOfAverages": 1.0,
      "NumberOfPhaseEncodingSteps": 100,
      "PercentPhaseFieldOfView": 100.0,
      "PercentSampling": 100.0,
      "PerformedProcedureStepStartTime": "150705.759000",
      "PhotometricInterpretation": "MONOCHROME2",
      "PixelBandwidth": 2380.0,
      "PixelRepresentation": 0,
      "PixelSpacing": [2.0, 2.0],
      "ProtocolName": "bold_100x100_s3_2x2x2_static_test_241",
      "RepetitionTime": 2000.0,
      "Rows": 900,
      "SAR": 0.06893445742794,
      "SamplesPerPixel": 1,
      "ScanOptions": "FS",
      "ScanningSequence": "EP",
      "SequenceName": "*epfid2d1_100",
      "SequenceVariant": "SK",
      "SeriesDescription": "bold_100x100_s3_2x2x2_static_test_241",
      "SeriesNumber": 13,
      "SeriesTime": "161341.741000",
      "SliceLocation": -78.369105052572,
      "SliceThickness": 2.0,
      "SmallestImagePixelValue": 0,
      "SoftwareVersions": "syngo MR E11",
      "SpacingBetweenSlices": 1.9999999979547,
      "SpecificCharacterSet": "ISO_IR 100",
      "StudyID": "1",
      "StudyTime": "150705.681000",
      "TransmitCoilName": "Body",
      "VariableFlipAngleFlag": "N",
      "WindowCenterWidthExplanation": "Algo1",
      "dBdt": 0.0},
    "slices": {}
  },
  "time": {
    "samples": {
      "AcquisitionNumber": [1, 2, 3, 4, 5, 6, 7, 8, 9, 10, 11, 12, 13, 14, 15, 16, 17, 18, 19, 20, 21, 22, 23, 24, 25, 26, 27, 28, 29, 30, 31, 32, 33, 34, 35, 36, 37, 38, 39, 40, 41, 42, 43, 44, 45, 46, 47, 48, 49, 50, 51, 52, 53, 54, 55, 56, 57, 58, 59, 60, 61, 62, 63, 64, 65, 66, 67, 68, 69, 70, 71, 72, 73, 74, 75, 76, 77, 78, 79, 80, 81, 82, 83, 84, 85, 86, 87, 88, 89, 90, 91, 92, 93, 94, 95, 96, 97, 98, 99, 100, 101, 102, 103, 104, 105, 106, 107, 108, 109, 110, 111, 112, 113, 114, 115, 116, 117, 118, 119, 120, 121, 122, 123, 124, 125, 126, 127, 128, 129, 130, 131, 132, 133, 134, 135, 136, 137, 138, 139, 140, 141, 142, 143, 144, 145, 146, 147, 148, 149, 150, 151, 152, 153, 154, 155, 156, 157, 158, 159, 160, 161, 162, 163, 164, 165, 166, 167, 168, 169, 170, 171, 172, 173, 174, 175, 176, 177, 178, 179, 180, 181, 182, 183, 184, 185, 186, 187, 188, 189, 190, 191, 192, 193, 194, 195, 196, 197, 198, 199, 200, 201, 202, 203, 204, 205, 206, 207, 208, 209, 210, 211, 212, 213, 214, 215, 216, 217, 218, 219, 220, 221, 222, 223, 224, 225, 226, 227, 228, 229, 230, 231, 232, 233, 234, 235, 236, 237, 238, 239, 240, 241],
      "AcquisitionTime": ["161339.202500", "161341.202500", "161343.202500", "161345.202500", "161347.202500", "161349.202500", "161351.202500", "161353.202500", "161355.202500", "161357.202500", "161359.202500", "161401.202500", "161403.202500", "161405.202500", "161407.202500", "161409.202500", "161411.202500", "161413.202500", "161415.202500", "161417.202500", "161419.202500", "161421.202500", "161423.202500", "161425.202500", "161427.202500", "161429.202500", "161431.202500", "161433.202500", "161435.202500", "161437.202500", "161439.202500", "161441.202500", "161443.202500", "161445.202500", "161447.202500", "161449.202500", "161451.202500", "161453.202500", "161455.202500", "161457.202500", "161459.202500", "161501.202500", "161503.202500", "161505.202500", "161507.202500", "161509.202500", "161511.202500", "161513.202500", "161515.202500", "161517.202500", "161519.202500", "161521.202500", "161523.202500", "161525.202500", "161527.202500", "161529.202500", "161531.202500", "161533.202500", "161535.202500", "161537.202500", "161539.202500", "161541.202500", "161543.202500", "161545.202500", "161547.202500", "161549.202500", "161551.202500", "161553.202500", "161555.202500", "161557.202500", "161559.202500", "161601.202500", "161603.202500", "161605.202500", "161607.202500", "161609.202500", "161611.202500", "161613.202500", "161615.202500", "161617.202500", "161619.202500", "161621.202500", "161623.202500", "161625.202500", "161627.202500", "161629.202500", "161631.202500", "161633.202500", "161635.202500", "161637.202500", "161639.202500", "161641.202500", "161643.202500", "161645.202500", "161647.202500", "161649.202500", "161651.202500", "161653.202500", "161655.202500", "161657.202500", "161659.202500", "161701.202500", "161703.202500", "161705.202500", "161707.202500", "161709.202500", "161711.202500", "161713.202500", "161715.202500", "161717.202500", "161719.202500", "161721.202500", "161723.202500", "161725.202500", "161727.202500", "161729.202500", "161731.202500", "161733.202500", "161735.202500", "161737.202500", "161739.202500", "161741.202500", "161743.202500", "161745.202500", "161747.202500", "161749.202500", "161751.202500", "161753.202500", "161755.202500", "161757.202500", "161759.202500", "161801.202500", "161803.202500", "161805.202500", "161807.202500", "161809.202500", "161811.202500", "161813.202500", "161815.202500", "161817.202500", "161819.202500", "161821.202500", "161823.202500", "161825.202500", "161827.202500", "161829.202500", "161831.202500", "161833.202500", "161835.202500", "161837.202500", "161839.202500", "161841.202500", "161843.202500", "161845.202500", "161847.202500", "161849.202500", "161851.202500", "161853.202500", "161855.202500", "161857.202500", "161859.202500", "161901.202500", "161903.202500", "161905.202500", "161907.202500", "161909.202500", "161911.202500", "161913.202500", "161915.202500", "161917.202500", "161919.202500", "161921.202500", "161923.202500", "161925.202500", "161927.202500", "161929.202500", "161931.202500", "161933.202500", "161935.202500", "161937.202500", "161939.202500", "161941.202500", "161943.202500", "161945.202500", "161947.202500", "161949.202500", "161951.202500", "161953.202500", "161955.202500", "161957.202500", "161959.202500", "162001.202500", "162003.202500", "162005.202500", "162007.202500", "162009.202500", "162011.202500", "162013.202500", "162015.202500", "162017.202500", "162019.202500", "162021.202500", "162023.202500", "162025.202500", "162027.202500", "162029.202500", "162031.202500", "162033.202500", "162035.202500", "162037.202500", "162039.202500", "162041.202500", "162043.202500", "162045.202500", "162047.202500", "162049.202500", "162051.202500", "162053.202500", "162055.202500", "162057.202500", "162059.202500", "162101.202500", "162103.202500", "162105.202500", "162107.202500", "162109.202500", "162111.202500", "162113.202500", "162115.202500", "162117.202500", "162119.202500", "162121.202500", "162123.202500", "162125.202500", "162127.202500", "162129.202500", "162131.202500", "162133.202500", "162135.202500", "162137.202500", "162139.202500"],
      "ContentTime": ["161341.745000", "161343.241000", "161345.241000", "161347.240000", "161349.241000", "161351.240000", "161353.240000", "161355.241000", "161357.241000", "161359.240000", "161401.240000", "161403.241000", "161405.240000", "161407.240000", "161409.240000", "161411.241000", "161413.241000", "161415.240000", "161417.240000", "161419.241000", "161421.240000", "161423.240000", "161425.240000", "161427.240000", "161429.241000", "161431.241000", "161433.240000", "161435.240000", "161437.241000", "161439.241000", "161441.240000", "161443.241000", "161445.240000", "161447.240000", "161449.241000", "161451.240000", "161453.240000", "161455.241000", "161457.240000", "161459.240000", "161501.241000", "161503.241000", "161505.240000", "161507.240000", "161509.241000", "161511.241000", "161513.241000", "161515.240000", "161517.241000", "161519.241000", "161521.240000", "161523.240000", "161525.241000", "161527.241000", "161529.240000", "161531.241000", "161533.240000", "161535.240000", "161537.240000", "161539.240000", "161541.240000", "161543.241000", "161545.241000", "161547.241000", "161549.241000", "161551.241000", "161553.241000", "161555.240000", "161557.241000", "161559.240000", "161601.241000", "161603.240000", "161605.241000", "161607.240000", "161609.240000", "161611.241000", "161613.240000", "161615.240000", "161617.241000", "161619.240000", "161621.240000", "161623.241000", "161625.241000", "161627.240000", "161629.240000", "161631.240000", "161633.240000", "161635.241000", "161637.241000", "161639.241000", "161641.241000", "161643.241000", "161645.240000", "161647.241000", "161649.241000", "161651.241000", "161653.240000", "161655.240000", "161657.241000", "161659.241000", "161701.241000", "161703.240000", "161705.240000", "161707.241000", "161709.241000", "161711.241000", "161713.241000", "161715.241000", "161717.241000", "161719.241000", "161721.241000", "161723.241000", "161725.240000", "161727.240000", "161729.241000", "161731.241000", "161733.240000", "161735.241000", "161737.240000", "161739.241000", "161741.241000", "161743.241000", "161745.241000", "161747.241000", "161749.241000", "161751.241000", "161753.240000", "161755.241000", "161757.241000", "161759.241000", "161801.241000", "161803.241000", "161805.240000", "161807.241000", "161809.240000", "161811.240000", "161813.241000", "161815.241000", "161817.241000", "161819.241000", "161821.240000", "161823.240000", "161825.240000", "161827.241000", "161829.241000", "161831.241000", "161833.240000", "161835.241000", "161837.241000", "161839.241000", "161841.241000", "161843.241000", "161845.241000", "161847.240000", "161849.240000", "161851.241000", "161853.241000", "161855.241000", "161857.241000", "161859.241000", "161901.241000", "161903.241000", "161905.241000", "161907.241000", "161909.241000", "161911.241000", "161913.240000", "161915.240000", "161917.241000", "161919.241000", "161921.241000", "161923.240000", "161925.241000", "161927.240000", "161929.240000", "161931.241000", "161933.246000", "161935.241000", "161937.240000", "161939.240000", "161941.240000", "161943.241000", "161945.241000", "161947.241000", "161949.240000", "161951.240000", "161953.240000", "161955.241000", "161957.241000", "161959.241000", "162001.241000", "162003.241000", "162005.241000", "162007.241000", "162009.241000", "162011.240000", "162013.240000", "162015.241000", "162017.241000", "162019.241000", "162021.241000", "162023.241000", "162025.241000", "162027.240000", "162029.241000", "162031.241000", "162033.241000", "162035.241000", "162037.241000", "162039.241000", "162041.240000", "162043.240000", "162045.241000", "162047.241000", "162049.241000", "162051.241000", "162053.240000", "162055.241000", "162057.240000", "162059.240000", "162101.241000", "162103.240000", "162105.241000", "162107.241000", "162109.241000", "162111.240000", "162113.241000", "162115.241000", "162117.241000", "162119.241000", "162121.241000", "162123.241000", "162125.241000", "162127.241000", "162129.240000", "162131.241000", "162133.241000", "162135.241000", "162137.240000", "162139.241000", "162140.967000"],
      "InstanceCreationTime": ["161341.745000", "161343.241000", "161345.241000", "161347.240000", "161349.241000", "161351.240000", "161353.240000", "161355.241000", "161357.241000", "161359.240000", "161401.240000", "161403.241000", "161405.240000", "161407.240000", "161409.240000", "161411.241000", "161413.241000", "161415.240000", "161417.240000", "161419.241000", "161421.240000", "161423.240000", "161425.240000", "161427.240000", "161429.241000", "161431.241000", "161433.240000", "161435.240000", "161437.241000", "161439.241000", "161441.240000", "161443.241000", "161445.240000", "161447.240000", "161449.241000", "161451.240000", "161453.240000", "161455.241000", "161457.240000", "161459.240000", "161501.241000", "161503.241000", "161505.240000", "161507.240000", "161509.241000", "161511.241000", "161513.241000", "161515.240000", "161517.241000", "161519.241000", "161521.240000", "161523.240000", "161525.241000", "161527.241000", "161529.240000", "161531.241000", "161533.240000", "161535.240000", "161537.240000", "161539.240000", "161541.240000", "161543.241000", "161545.241000", "161547.241000", "161549.241000", "161551.241000", "161553.241000", "161555.240000", "161557.241000", "161559.240000", "161601.241000", "161603.240000", "161605.241000", "161607.240000", "161609.240000", "161611.241000", "161613.240000", "161615.240000", "161617.241000", "161619.240000", "161621.240000", "161623.241000", "161625.241000", "161627.240000", "161629.240000", "161631.240000", "161633.240000", "161635.241000", "161637.241000", "161639.241000", "161641.241000", "161643.241000", "161645.240000", "161647.241000", "161649.241000", "161651.241000", "161653.240000", "161655.240000", "161657.241000", "161659.241000", "161701.241000", "161703.240000", "161705.240000", "161707.241000", "161709.241000", "161711.241000", "161713.241000", "161715.241000", "161717.241000", "161719.241000", "161721.241000", "161723.241000", "161725.240000", "161727.240000", "161729.241000", "161731.241000", "161733.240000", "161735.241000", "161737.240000", "161739.241000", "161741.241000", "161743.241000", "161745.241000", "161747.241000", "161749.241000", "161751.241000", "161753.240000", "161755.241000", "161757.241000", "161759.241000", "161801.241000", "161803.241000", "161805.240000", "161807.241000", "161809.240000", "161811.240000", "161813.241000", "161815.241000", "161817.241000", "161819.241000", "161821.240000", "161823.240000", "161825.240000", "161827.241000", "161829.241000", "161831.241000", "161833.240000", "161835.241000", "161837.241000", "161839.241000", "161841.241000", "161843.241000", "161845.241000", "161847.240000", "161849.240000", "161851.241000", "161853.241000", "161855.241000", "161857.241000", "161859.241000", "161901.241000", "161903.241000", "161905.241000", "161907.241000", "161909.241000", "161911.241000", "161913.240000", "161915.240000", "161917.241000", "161919.241000", "161921.241000", "161923.240000", "161925.241000", "161927.240000", "161929.240000", "161931.241000", "161933.246000", "161935.241000", "161937.240000", "161939.240000", "161941.240000", "161943.241000", "161945.241000", "161947.241000", "161949.240000", "161951.240000", "161953.240000", "161955.241000", "161957.241000", "161959.241000", "162001.241000", "162003.241000", "162005.241000", "162007.241000", "162009.241000", "162011.240000", "162013.240000", "162015.241000", "162017.241000", "162019.241000", "162021.241000", "162023.241000", "162025.241000", "162027.240000", "162029.241000", "162031.241000", "162033.241000", "162035.241000", "162037.241000", "162039.241000", "162041.240000", "162043.240000", "162045.241000", "162047.241000", "162049.241000", "162051.241000", "162053.240000", "162055.241000", "162057.240000", "162059.240000", "162101.241000", "162103.240000", "162105.241000", "162107.241000", "162109.241000", "162111.240000", "162113.241000", "162115.241000", "162117.241000", "162119.241000", "162121.241000", "162123.241000", "162125.241000", "162127.241000", "162129.240000", "162131.241000", "162133.241000", "162135.241000", "162137.240000", "162139.241000", "162140.967000"],
      "InstanceNumber": [1, 2, 3, 4, 5, 6, 7, 8, 9, 10, 11, 12, 13, 14, 15, 16, 17, 18, 19, 20, 21, 22, 23, 24, 25, 26, 27, 28, 29, 30, 31, 32, 33, 34, 35, 36, 37, 38, 39, 40, 41, 42, 43, 44, 45, 46, 47, 48, 49, 50, 51, 52, 53, 54, 55, 56, 57, 58, 59, 60, 61, 62, 63, 64, 65, 66, 67, 68, 69, 70, 71, 72, 73, 74, 75, 76, 77, 78, 79, 80, 81, 82, 83, 84, 85, 86, 87, 88, 89, 90, 91, 92, 93, 94, 95, 96, 97, 98, 99, 100, 101, 102, 103, 104, 105, 106, 107, 108, 109, 110, 111, 112, 113, 114, 115, 116, 117, 118, 119, 120, 121, 122, 123, 124, 125, 126, 127, 128, 129, 130, 131, 132, 133, 134, 135, 136, 137, 138, 139, 140, 141, 142, 143, 144, 145, 146, 147, 148, 149, 150, 151, 152, 153, 154, 155, 156, 157, 158, 159, 160, 161, 162, 163, 164, 165, 166, 167, 168, 169, 170, 171, 172, 173, 174, 175, 176, 177, 178, 179, 180, 181, 182, 183, 184, 185, 186, 187, 188, 189, 190, 191, 192, 193, 194, 195, 196, 197, 198, 199, 200, 201, 202, 203, 204, 205, 206, 207, 208, 209, 210, 211, 212, 213, 214, 215, 216, 217, 218, 219, 220, 221, 222, 223, 224, 225, 226, 227, 228, 229, 230, 231, 232, 233, 234, 235, 236, 237, 238, 239, 240, 241],
      "LargestImagePixelValue": [3091, 3007, 3033, 2977, 2991, 3010, 3039, 3025, 3040, 3085, 3007, 3021, 3056, 3028, 3052, 3075, 3027, 3014, 3000, 3035, 3021, 3025, 3078, 3104, 3104, 3090, 3137, 3082, 3122, 3185, 3147, 3022, 2973, 3007, 3018, 2936, 3003, 3018, 2984, 2934, 2935, 2967, 2970, 2972, 2989, 2993, 2994, 3016, 3006, 2978, 2993, 2987, 2977, 2955, 2962, 2960, 2927, 2937, 3030, 3087, 3024, 2987, 2964, 2937, 2971, 3025, 3049, 3071, 3074, 3081, 3037, 2984, 2979, 2972, 2962, 2975, 2959, 2974, 2997, 3061, 3136, 3045, 3023, 3046, 3030, 3038, 3041, 3070, 3022, 2996, 3028, 3018, 3032, 2998, 2975, 3003, 3017, 3022, 2997, 3070, 3072, 2999, 3004, 2994, 3031, 3089, 3114, 3100, 3114, 3071, 3079, 3117, 3167, 3134, 3113, 3060, 3059, 3038, 3013, 3077, 3055, 3055, 3078, 3087, 3106, 3078, 3098, 3102, 3039, 2989, 3041, 3062, 3071, 3093, 3104, 3038, 3049, 3041, 3025, 3037, 3058, 3108, 3089, 3084, 3076, 2979, 3011, 3070, 2973, 2960, 3022, 3052, 3065, 3016, 3031, 3063, 3064, 3021, 2990, 3005, 2998, 3066, 3070, 3042, 3021, 3003, 3059, 3041, 3024, 3028, 3041, 3003, 2999, 2979, 3016, 3120, 3140, 3124, 3057, 2968, 3003, 3062, 3059, 2970, 2965, 2973, 2974, 3012, 3020, 2992, 2970, 2970, 2998, 3030, 2992, 2989, 3017, 3011, 2975, 3021, 2986, 2944, 3019, 3071, 3107, 3085, 3017, 3021, 3021, 3007, 3007, 3082, 3055, 3106, 3083, 3098, 3075, 3070, 3125, 3112, 3120, 3104, 3066, 3107, 3080, 3073, 3115, 3102, 3008, 3091, 3096, 3055, 3070, 3063, 3077, 3114, 3113, 3026, 3050, 3053, 3042],
      "WindowCenter": [764.0, 762.0, 762.0, 761.0, 761.0, 761.0, 761.0, 761.0, 761.0, 762.0, 761.0, 762.0, 762.0, 762.0, 763.0, 763.0, 762.0, 762.0, 762.0, 763.0, 762.0, 763.0, 764.0, 763.0, 763.0, 763.0, 764.0, 764.0, 764.0, 764.0, 763.0, 762.0, 761.0, 761.0, 762.0, 762.0, 763.0, 763.0, 762.0, 761.0, 762.0, 763.0, 763.0, 763.0, 763.0, 763.0, 764.0, 763.0, 763.0, 762.0, 762.0, 762.0, 761.0, 761.0, 761.0, 760.0, 760.0, 760.0, 762.0, 763.0, 762.0, 762.0, 762.0, 762.0, 762.0, 763.0, 763.0, 764.0, 764.0, 764.0, 765.0, 764.0, 763.0, 763.0, 764.0, 764.0, 763.0, 762.0, 762.0, 763.0, 763.0, 763.0, 764.0, 764.0, 764.0, 763.0, 762.0, 762.0, 761.0, 762.0, 763.0, 763.0, 762.0, 761.0, 762.0, 762.0, 763.0, 764.0, 764.0, 764.0, 764.0, 763.0, 763.0, 763.0, 763.0, 763.0, 763.0, 764.0, 764.0, 763.0, 763.0, 764.0, 763.0, 763.0, 763.0, 763.0, 762.0, 762.0, 761.0, 762.0, 762.0, 763.0, 763.0, 763.0, 763.0, 763.0, 763.0, 763.0, 763.0, 762.0, 762.0, 763.0, 763.0, 763.0, 763.0, 762.0, 762.0, 763.0, 763.0, 763.0, 764.0, 764.0, 764.0, 763.0, 764.0, 763.0, 764.0, 764.0, 762.0, 762.0, 762.0, 763.0, 764.0, 763.0, 763.0, 764.0, 765.0, 764.0, 763.0, 763.0, 763.0, 764.0, 765.0, 764.0, 763.0, 764.0, 764.0, 763.0, 763.0, 764.0, 764.0, 763.0, 764.0, 764.0, 763.0, 764.0, 764.0, 764.0, 763.0, 762.0, 763.0, 764.0, 763.0, 762.0, 761.0, 762.0, 762.0, 763.0, 763.0, 763.0, 762.0, 762.0, 763.0, 763.0, 763.0, 763.0, 763.0, 763.0, 763.0, 763.0, 762.0, 762.0, 763.0, 763.0, 764.0, 764.0, 764.0, 763.0, 761.0, 760.0, 758.0, 759.0, 760.0, 760.0, 761.0, 761.0, 761.0, 761.0, 762.0, 763.0, 763.0, 763.0, 763.0, 763.0, 763.0, 763.0, 763.0, 763.0, 763.0, 764.0, 764.0, 764.0, 763.0, 763.0, 763.0, 763.0, 762.0, 762.0, 763.0, 765.0, 764.0],
      "WindowWidth": [1649.0, 1645.0, 1644.0, 1641.0, 1640.0, 1640.0, 1640.0, 1641.0, 1642.0, 1642.0, 1641.0, 1644.0, 1644.0, 1644.0, 1645.0, 1645.0, 1644.0, 1643.0, 1644.0, 1645.0, 1645.0, 1646.0, 1648.0, 1647.0, 1647.0, 1646.0, 1648.0, 1648.0, 1648.0, 1648.0, 1647.0, 1643.0, 1642.0, 1642.0, 1643.0, 1643.0, 1647.0, 1647.0, 1643.0, 1642.0, 1644.0, 1647.0, 1645.0, 1645.0, 1645.0, 1646.0, 1649.0, 1647.0, 1645.0, 1644.0, 1643.0, 1644.0, 1642.0, 1640.0, 1641.0, 1640.0, 1637.0, 1639.0, 1644.0, 1646.0, 1644.0, 1644.0, 1644.0, 1643.0, 1645.0, 1646.0, 1645.0, 1648.0, 1649.0, 1650.0, 1651.0, 1649.0, 1647.0, 1647.0, 1648.0, 1648.0, 1645.0, 1644.0, 1645.0, 1646.0, 1647.0, 1646.0, 1648.0, 1649.0, 1649.0, 1646.0, 1644.0, 1643.0, 1642.0, 1643.0, 1646.0, 1647.0, 1642.0, 1639.0, 1642.0, 1644.0, 1646.0, 1648.0, 1647.0, 1648.0, 1648.0, 1645.0, 1645.0, 1646.0, 1646.0, 1645.0, 1647.0, 1649.0, 1649.0, 1646.0, 1647.0, 1648.0, 1647.0, 1645.0, 1645.0, 1645.0, 1643.0, 1642.0, 1641.0, 1642.0, 1643.0, 1645.0, 1645.0, 1645.0, 1645.0, 1645.0, 1646.0, 1647.0, 1645.0, 1644.0, 1644.0, 1645.0, 1646.0, 1646.0, 1646.0, 1644.0, 1643.0, 1645.0, 1646.0, 1647.0, 1648.0, 1648.0, 1647.0, 1647.0, 1648.0, 1646.0, 1649.0, 1648.0, 1643.0, 1642.0, 1644.0, 1647.0, 1647.0, 1646.0, 1647.0, 1649.0, 1650.0, 1648.0, 1645.0, 1645.0, 1647.0, 1650.0, 1651.0, 1649.0, 1647.0, 1647.0, 1648.0, 1646.0, 1646.0, 1647.0, 1647.0, 1647.0, 1649.0, 1648.0, 1645.0, 1647.0, 1649.0, 1648.0, 1646.0, 1643.0, 1646.0, 1649.0, 1646.0, 1641.0, 1640.0, 1642.0, 1644.0, 1646.0, 1646.0, 1645.0, 1644.0, 1644.0, 1645.0, 1646.0, 1646.0, 1645.0, 1645.0, 1645.0, 1644.0, 1646.0, 1644.0, 1642.0, 1646.0, 1645.0, 1647.0, 1647.0, 1647.0, 1645.0, 1641.0, 1636.0, 1634.0, 1637.0, 1639.0, 1639.0, 1640.0, 1640.0, 1640.0, 1641.0, 1643.0, 1645.0, 1645.0, 1645.0, 1645.0, 1646.0, 1645.0, 1645.0, 1646.0, 1647.0, 1646.0, 1648.0, 1647.0, 1647.0, 1647.0, 1646.0, 1646.0, 1646.0, 1644.0, 1643.0, 1647.0, 1650.0, 1648.0]
    },
    "slices": {}
  }
}