{
  "AcquisitionMatrixPE": 100,
  "AcquisitionNumber": 1,
  "AcquisitionTime": "15:15:3.532500",
  "BandwidthPerPixelPhaseEncode": 18.519,
  "BaseResolution": 100,
  "BodyPartExamined": "BRAIN",
  "ConsistencyInfo": "N4_VE11C_LATEST_20160120",
  "ConversionSoftware": "dcm2niix",
  "ConversionSoftwareVersion": "v1.0.20180622 GCC4.9.2",
  "DerivedVendorReportedEchoSpacing": 0.000539986,
  "DeviceSerialNumber": "166078",
  "DwellTime": 2.1e-06,
  "EchoTime": 0.034,
  "EchoTrainLength": 100,
  "EffectiveEchoSpacing": 0.000539986,
  "FlipAngle": 90,
  "ImageOrientationPatientDICOM": [1, 0, 0, 0, 0.994151, -0.107999],
  "ImageType": [
    "ORIGINAL",
    "PRIMARY",
    "M",
    "ND",
    "MOSAIC"
],
  "InPlanePhaseEncodingDirectionDICOM": "COL",
  "InstitutionAddress": "Street_StreetNo_Bei_Jing_District_CN_ZIP",
  "InstitutionName": "BeiJing_Normal_University",
  "InstitutionalDepartmentName": "Department",
  "MRAcquisitionType": "2D",
  "MagneticFieldStrength": 3,
  "Manufacturer": "Siemens",
  "ManufacturersModelName": "Prisma",
  "Modality": "MR",
  "MultibandAccelerationFactor": 3,
  "PartialFourier": 1,
  "PatientPosition": "HFS",
  "PercentPhaseFOV": 100,
  "PhaseEncodingDirection": "j-",
  "PhaseEncodingSteps": 100,
  "PhaseResolution": 1,
  "PixelBandwidth": 2380,
  "ProcedureStepDescription": "BNU_P2018_64CH_Zhen.ZongLei",
  "ProtocolName": "bold_100x100_s3_2x2x2_static_256",
  "PulseSequenceDetails": "%SiemensSeq%_ep2d_bold",
  "ReceiveCoilActiveElements": "HC1-7;NC1",
  "ReceiveCoilName": "HeadNeck_64",
  "ReconMatrixPE": 100,
  "RepetitionTime": 2,
  "SAR": 0.0697197,
  "ScanOptions": "FS",
  "ScanningSequence": "EP",
  "SequenceName": "_epfid2d1_100",
  "SequenceVariant": "SK",
  "SeriesDescription": "bold_100x100_s3_2x2x2_static_256",
  "SeriesNumber": 4,
  "ShimSetting": [-5448, -11500, -1254, 210, -40, -222, -179, 52],
  "SliceThickness": 2,
  "SliceTiming": [1.485, 0, 0.99, 0.0825, 1.0725, 0.165, 1.155, 0.2475, 1.2375, 0.33, 1.32, 0.4125, 1.4025, 0.5775, 1.5675, 0.66, 1.65, 0.7425, 1.7325, 0.825, 1.815, 0.9075, 1.8975, 0.495, 1.485, 0, 0.99, 0.0825, 1.0725, 0.165, 1.155, 0.2475, 1.2375, 0.33, 1.32, 0.4125, 1.4025, 0.5775, 1.5675, 0.66, 1.65, 0.7425, 1.7325, 0.825, 1.815, 0.9075, 1.8975, 0.495, 1.485, 0, 0.99, 0.0825, 1.0725, 0.165, 1.155, 0.2475, 1.2375, 0.33, 1.32, 0.4125, 1.4025, 0.5775, 1.5675, 0.66, 1.65, 0.7425, 1.7325, 0.825, 1.815, 0.9075, 1.8975, 0.495],
  "SoftwareVersions": "syngo_MR_E11",
  "SpacingBetweenSlices": 2,
  "StationName": "AWP166078",
  "TaskName": "naturalvision",
  "TotalReadoutTime": 0.0534586,
  "TxRefAmp": 217.329,
  "dcmmeta_affine": [
    [-2.0, 0.0, 0.0, 101.34939575195312],
    [0.0, 1.9883018732070923, -0.21599870920181274, -86.39016723632812],
    [0.0, 0.21599870920181274, 1.9883019924163818, -74.15178680419922],
    [0.0, 0.0, 0.0, 1.0]
],
  "dcmmeta_reorient_transform": [
    [0.0, -1.0, 0.0, 99.0],
    [1.0, 0.0, 0.0, 0.0],
    [0.0, 0.0, 1.0, 0.0],
    [0.0, 0.0, 0.0, 1.0]
],
  "dcmmeta_shape": [100, 100, 72, 256],
  "dcmmeta_slice_dim": 2,
  "dcmmeta_version": 0.6,
  "global": {
    "const": {
      "AcquisitionMatrix": [100, 0, 0, 100],
      "AngioFlag": "N",
      "BitsAllocated": 16,
      "BitsStored": 12,
      "BodyPartExamined": "BRAIN",
      "Columns": 900,
      "EchoNumbers": 1,
      "EchoTime": 34.0,
      "EchoTrainLength": 100,
      "FlipAngle": 90.0,
      "HighBit": 11,
      "ImageOrientationPatient": [1.0, 0.0, 0.0, 0.0, 0.99415096409965, -0.1079993545339],
      "ImagePositionPatient": [-901.34939754009, -905.77249641283, 33.63156706021],
      "ImageType": [
        "ORIGINAL",
        "PRIMARY",
        "M",
        "ND",
        "MOSAIC"
],
      "ImagedNucleus": "1H",
      "ImagingFrequency": 123.257759,
      "InPlanePhaseEncodingDirection": "COL",
      "LargestImagePixelValue": 4095,
      "MRAcquisitionType": "2D",
      "MagneticFieldStrength": 3.0,
      "Manufacturer": "SIEMENS",
      "ManufacturerModelName": "Prisma",
      "Modality": "MR",
      "NumberOfAverages": 1.0,
      "NumberOfPhaseEncodingSteps": 100,
      "PercentPhaseFieldOfView": 100.0,
      "PercentSampling": 100.0,
      "PerformedProcedureStepStartTime": "150127.919000",
      "PhotometricInterpretation": "MONOCHROME2",
      "PixelBandwidth": 2380.0,
      "PixelRepresentation": 0,
      "PixelSpacing": [2.0, 2.0],
      "ProtocolName": "bold_100x100_s3_2x2x2_static_256",
      "RepetitionTime": 2000.0,
      "Rows": 900,
      "SAR": 0.06971969445879,
      "SamplesPerPixel": 1,
      "ScanOptions": "FS",
      "ScanningSequence": "EP",
      "SequenceName": "*epfid2d1_100",
      "SequenceVariant": "SK",
      "SeriesDescription": "bold_100x100_s3_2x2x2_static_256",
      "SeriesNumber": 4,
      "SeriesTime": "151506.422000",
      "SliceLocation": -64.387990150019,
      "SliceThickness": 2.0,
      "SmallestImagePixelValue": 0,
      "SoftwareVersions": "syngo MR E11",
      "SpacingBetweenSlices": 2.0000000071944,
      "SpecificCharacterSet": "ISO_IR 100",
      "StudyID": "1",
      "StudyTime": "150127.834000",
      "TransmitCoilName": "Body",
      "VariableFlipAngleFlag": "N",
      "WindowCenterWidthExplanation": "Algo1",
      "dBdt": 0.0},
    "slices": {}
  },
  "time": {
    "samples": {
      "AcquisitionNumber": [1, 2, 3, 4, 5, 6, 7, 8, 9, 10, 11, 12, 13, 14, 15, 16, 17, 18, 19, 20, 21, 22, 23, 24, 25, 26, 27, 28, 29, 30, 31, 32, 33, 34, 35, 36, 37, 38, 39, 40, 41, 42, 43, 44, 45, 46, 47, 48, 49, 50, 51, 52, 53, 54, 55, 56, 57, 58, 59, 60, 61, 62, 63, 64, 65, 66, 67, 68, 69, 70, 71, 72, 73, 74, 75, 76, 77, 78, 79, 80, 81, 82, 83, 84, 85, 86, 87, 88, 89, 90, 91, 92, 93, 94, 95, 96, 97, 98, 99, 100, 101, 102, 103, 104, 105, 106, 107, 108, 109, 110, 111, 112, 113, 114, 115, 116, 117, 118, 119, 120, 121, 122, 123, 124, 125, 126, 127, 128, 129, 130, 131, 132, 133, 134, 135, 136, 137, 138, 139, 140, 141, 142, 143, 144, 145, 146, 147, 148, 149, 150, 151, 152, 153, 154, 155, 156, 157, 158, 159, 160, 161, 162, 163, 164, 165, 166, 167, 168, 169, 170, 171, 172, 173, 174, 175, 176, 177, 178, 179, 180, 181, 182, 183, 184, 185, 186, 187, 188, 189, 190, 191, 192, 193, 194, 195, 196, 197, 198, 199, 200, 201, 202, 203, 204, 205, 206, 207, 208, 209, 210, 211, 212, 213, 214, 215, 216, 217, 218, 219, 220, 221, 222, 223, 224, 225, 226, 227, 228, 229, 230, 231, 232, 233, 234, 235, 236, 237, 238, 239, 240, 241, 242, 243, 244, 245, 246, 247, 248, 249, 250, 251, 252, 253, 254, 255, 256],
      "AcquisitionTime": ["151503.532500", "151505.532500", "151507.532500", "151509.532500", "151511.532500", "151513.532500", "151515.532500", "151517.532500", "151519.532500", "151521.532500", "151523.532500", "151525.532500", "151527.532500", "151529.532500", "151531.532500", "151533.532500", "151535.532500", "151537.532500", "151539.532500", "151541.532500", "151543.532500", "151545.532500", "151547.532500", "151549.532500", "151551.532500", "151553.532500", "151555.532500", "151557.532500", "151559.532500", "151601.532500", "151603.532500", "151605.532500", "151607.532500", "151609.532500", "151611.532500", "151613.532500", "151615.532500", "151617.532500", "151619.532500", "151621.532500", "151623.532500", "151625.532500", "151627.532500", "151629.532500", "151631.532500", "151633.532500", "151635.532500", "151637.532500", "151639.532500", "151641.532500", "151643.532500", "151645.532500", "151647.532500", "151649.532500", "151651.532500", "151653.532500", "151655.532500", "151657.532500", "151659.532500", "151701.532500", "151703.532500", "151705.532500", "151707.532500", "151709.532500", "151711.532500", "151713.532500", "151715.532500", "151717.532500", "151719.532500", "151721.532500", "151723.532500", "151725.532500", "151727.532500", "151729.532500", "151731.532500", "151733.532500", "151735.532500", "151737.532500", "151739.532500", "151741.532500", "151743.532500", "151745.532500", "151747.532500", "151749.532500", "151751.532500", "151753.532500", "151755.532500", "151757.532500", "151759.532500", "151801.532500", "151803.532500", "151805.532500", "151807.532500", "151809.532500", "151811.532500", "151813.532500", "151815.532500", "151817.532500", "151819.532500", "151821.532500", "151823.532500", "151825.532500", "151827.532500", "151829.532500", "151831.532500", "151833.532500", "151835.532500", "151837.532500", "151839.532500", "151841.532500", "151843.532500", "151845.532500", "151847.532500", "151849.532500", "151851.532500", "151853.532500", "151855.532500", "151857.532500", "151859.532500", "151901.532500", "151903.532500", "151905.532500", "151907.532500", "151909.532500", "151911.532500", "151913.532500", "151915.532500", "151917.532500", "151919.532500", "151921.532500", "151923.532500", "151925.532500", "151927.532500", "151929.532500", "151931.532500", "151933.532500", "151935.532500", "151937.532500", "151939.532500", "151941.532500", "151943.532500", "151945.532500", "151947.532500", "151949.532500", "151951.532500", "151953.532500", "151955.532500", "151957.532500", "151959.532500", "152001.532500", "152003.532500", "152005.532500", "152007.532500", "152009.532500", "152011.532500", "152013.532500", "152015.532500", "152017.532500", "152019.532500", "152021.532500", "152023.532500", "152025.532500", "152027.532500", "152029.532500", "152031.532500", "152033.532500", "152035.532500", "152037.532500", "152039.532500", "152041.532500", "152043.532500", "152045.532500", "152047.532500", "152049.532500", "152051.532500", "152053.532500", "152055.532500", "152057.532500", "152059.532500", "152101.532500", "152103.532500", "152105.532500", "152107.532500", "152109.532500", "152111.532500", "152113.532500", "152115.532500", "152117.532500", "152119.532500", "152121.532500", "152123.532500", "152125.532500", "152127.532500", "152129.532500", "152131.532500", "152133.532500", "152135.532500", "152137.532500", "152139.532500", "152141.532500", "152143.532500", "152145.532500", "152147.532500", "152149.532500", "152151.532500", "152153.532500", "152155.532500", "152157.532500", "152159.532500", "152201.532500", "152203.532500", "152205.532500", "152207.532500", "152209.532500", "152211.532500", "152213.532500", "152215.532500", "152217.532500", "152219.532500", "152221.532500", "152223.532500", "152225.532500", "152227.532500", "152229.532500", "152231.532500", "152233.532500", "152235.532500", "152237.532500", "152239.532500", "152241.532500", "152243.532500", "152245.532500", "152247.532500", "152249.532500", "152251.532500", "152253.532500", "152255.532500", "152257.532500", "152259.532500", "152301.532500", "152303.532500", "152305.532500", "152307.532500", "152309.532500", "152311.532500", "152313.532500", "152315.532500", "152317.532500", "152319.532500", "152321.532500", "152323.532500", "152325.532500", "152327.532500", "152329.532500", "152331.532500", "152333.532500"],
      "ContentTime": ["151506.426000", "151507.922000", "151509.422000", "151511.921000", "151513.920000", "151515.920000", "151517.921000", "151519.920000", "151521.921000", "151523.922000", "151525.922000", "151527.421000", "151529.422000", "151531.920000", "151533.921000", "151535.920000", "151537.420000", "151539.922000", "151541.422000", "151543.921000", "151545.921000", "151547.920000", "151549.921000", "151551.421000", "151553.920000", "151555.420000", "151557.921000", "151559.921000", "151601.921000", "151603.921000", "151605.921000", "151607.920000", "151609.920000", "151611.921000", "151613.922000", "151615.921000", "151617.421000", "151619.921000", "151621.922000", "151623.920000", "151625.420000", "151627.920000", "151629.920000", "151631.421000", "151633.421000", "151635.922000", "151637.921000", "151639.921000", "151641.421000", "151643.921000", "151645.921000", "151647.920000", "151649.921000", "151651.921000", "151653.921000", "151655.422000", "151657.921000", "151659.420000", "151701.921000", "151703.921000", "151705.921000", "151707.922000", "151709.921000", "151711.922000", "151713.921000", "151715.920000", "151717.921000", "151719.921000", "151721.420000", "151723.420000", "151725.921000", "151727.921000", "151729.922000", "151731.421000", "151733.920000", "151735.921000", "151737.420000", "151739.921000", "151741.922000", "151743.921000", "151745.922000", "151747.921000", "151749.921000", "151751.921000", "151753.921000", "151755.920000", "151757.920000", "151759.921000", "151801.921000", "151803.421000", "151805.921000", "151807.921000", "151809.921000", "151811.420000", "151813.921000", "151815.920000", "151817.922000", "151819.922000", "151821.922000", "151823.921000", "151825.921000", "151827.920000", "151829.921000", "151831.920000", "151833.420000", "151835.921000", "151837.922000", "151839.921000", "151841.921000", "151843.920000", "151845.920000", "151847.921000", "151849.920000", "151851.921000", "151853.921000", "151855.421000", "151857.921000", "151859.920000", "151901.921000", "151903.921000", "151905.921000", "151907.934000", "151909.921000", "151911.922000", "151913.921000", "151915.922000", "151917.920000", "151919.920000", "151921.920000", "151923.921000", "151925.921000", "151927.921000", "151929.922000", "151931.422000", "151933.922000", "151935.920000", "151937.920000", "151939.921000", "151941.921000", "151943.921000", "151945.921000", "151947.921000", "151949.921000", "151951.921000", "151953.921000", "151955.921000", "151957.920000", "151959.920000", "152001.922000", "152003.422000", "152005.922000", "152007.922000", "152009.421000", "152011.921000", "152013.920000", "152015.921000", "152017.921000", "152019.921000", "152021.921000", "152023.922000", "152025.922000", "152027.921000", "152029.420000", "152031.921000", "152033.920000", "152035.921000", "152037.921000", "152039.921000", "152041.921000", "152043.922000", "152045.420000", "152047.921000", "152049.920000", "152051.920000", "152053.921000", "152055.922000", "152057.922000", "152059.922000", "152101.922000", "152103.921000", "152105.920000", "152107.921000", "152109.421000", "152111.421000", "152113.922000", "152115.922000", "152117.421000", "152119.921000", "152121.921000", "152123.921000", "152125.921000", "152127.921000", "152129.922000", "152131.922000", "152133.921000", "152135.421000", "152137.921000", "152139.921000", "152141.921000", "152143.921000", "152145.922000", "152147.421000", "152149.922000", "152151.922000", "152153.921000", "152155.920000", "152157.420000", "152159.921000", "152201.420000", "152203.922000", "152205.422000", "152207.922000", "152209.922000", "152211.922000", "152213.921000", "152215.421000", "152217.921000", "152219.921000", "152221.922000", "152223.922000", "152225.922000", "152227.921000", "152229.921000", "152231.922000", "152233.921000", "152235.420000", "152237.921000", "152239.922000", "152241.922000", "152243.922000", "152245.421000", "152247.921000", "152249.921000", "152251.421000", "152253.921000", "152255.922000", "152257.922000", "152259.922000", "152301.922000", "152303.922000", "152305.921000", "152307.921000", "152309.420000", "152311.921000", "152313.921000", "152315.921000", "152317.421000", "152319.922000", "152321.422000", "152323.922000", "152325.921000", "152327.922000", "152329.920000", "152331.922000", "152333.922000", "152335.428000"],
      "InstanceCreationTime": ["151506.426000", "151507.922000", "151509.422000", "151511.921000", "151513.920000", "151515.920000", "151517.921000", "151519.920000", "151521.921000", "151523.922000", "151525.922000", "151527.421000", "151529.422000", "151531.920000", "151533.921000", "151535.920000", "151537.420000", "151539.922000", "151541.422000", "151543.921000", "151545.921000", "151547.920000", "151549.921000", "151551.421000", "151553.920000", "151555.420000", "151557.921000", "151559.921000", "151601.921000", "151603.921000", "151605.921000", "151607.920000", "151609.920000", "151611.921000", "151613.922000", "151615.921000", "151617.421000", "151619.921000", "151621.922000", "151623.920000", "151625.420000", "151627.920000", "151629.920000", "151631.421000", "151633.421000", "151635.922000", "151637.921000", "151639.921000", "151641.421000", "151643.921000", "151645.921000", "151647.920000", "151649.921000", "151651.921000", "151653.921000", "151655.422000", "151657.921000", "151659.420000", "151701.921000", "151703.921000", "151705.921000", "151707.922000", "151709.921000", "151711.922000", "151713.921000", "151715.920000", "151717.921000", "151719.921000", "151721.420000", "151723.420000", "151725.921000", "151727.921000", "151729.922000", "151731.421000", "151733.920000", "151735.921000", "151737.420000", "151739.921000", "151741.922000", "151743.921000", "151745.922000", "151747.921000", "151749.921000", "151751.921000", "151753.921000", "151755.920000", "151757.920000", "151759.921000", "151801.921000", "151803.421000", "151805.921000", "151807.921000", "151809.921000", "151811.420000", "151813.921000", "151815.920000", "151817.922000", "151819.922000", "151821.922000", "151823.921000", "151825.921000", "151827.920000", "151829.921000", "151831.920000", "151833.420000", "151835.921000", "151837.922000", "151839.921000", "151841.921000", "151843.920000", "151845.920000", "151847.921000", "151849.920000", "151851.921000", "151853.921000", "151855.421000", "151857.921000", "151859.920000", "151901.921000", "151903.921000", "151905.921000", "151907.934000", "151909.921000", "151911.922000", "151913.921000", "151915.922000", "151917.920000", "151919.920000", "151921.920000", "151923.921000", "151925.921000", "151927.921000", "151929.922000", "151931.422000", "151933.922000", "151935.920000", "151937.920000", "151939.921000", "151941.921000", "151943.921000", "151945.921000", "151947.921000", "151949.921000", "151951.921000", "151953.921000", "151955.921000", "151957.920000", "151959.920000", "152001.922000", "152003.422000", "152005.922000", "152007.922000", "152009.421000", "152011.921000", "152013.920000", "152015.921000", "152017.921000", "152019.921000", "152021.921000", "152023.922000", "152025.922000", "152027.921000", "152029.420000", "152031.921000", "152033.920000", "152035.921000", "152037.921000", "152039.921000", "152041.921000", "152043.922000", "152045.420000", "152047.921000", "152049.920000", "152051.920000", "152053.921000", "152055.922000", "152057.922000", "152059.922000", "152101.922000", "152103.921000", "152105.920000", "152107.921000", "152109.421000", "152111.421000", "152113.922000", "152115.922000", "152117.421000", "152119.921000", "152121.921000", "152123.921000", "152125.921000", "152127.921000", "152129.922000", "152131.922000", "152133.921000", "152135.421000", "152137.921000", "152139.921000", "152141.921000", "152143.921000", "152145.922000", "152147.421000", "152149.922000", "152151.922000", "152153.921000", "152155.920000", "152157.420000", "152159.921000", "152201.420000", "152203.922000", "152205.422000", "152207.922000", "152209.922000", "152211.922000", "152213.921000", "152215.421000", "152217.921000", "152219.921000", "152221.922000", "152223.922000", "152225.922000", "152227.921000", "152229.921000", "152231.922000", "152233.921000", "152235.420000", "152237.921000", "152239.922000", "152241.922000", "152243.922000", "152245.421000", "152247.921000", "152249.921000", "152251.421000", "152253.921000", "152255.922000", "152257.922000", "152259.922000", "152301.922000", "152303.922000", "152305.921000", "152307.921000", "152309.420000", "152311.921000", "152313.921000", "152315.921000", "152317.421000", "152319.922000", "152321.422000", "152323.922000", "152325.921000", "152327.922000", "152329.920000", "152331.922000", "152333.922000", "152335.428000"],
      "InstanceNumber": [1, 2, 3, 4, 5, 6, 7, 8, 9, 10, 11, 12, 13, 14, 15, 16, 17, 18, 19, 20, 21, 22, 23, 24, 25, 26, 27, 28, 29, 30, 31, 32, 33, 34, 35, 36, 37, 38, 39, 40, 41, 42, 43, 44, 45, 46, 47, 48, 49, 50, 51, 52, 53, 54, 55, 56, 57, 58, 59, 60, 61, 62, 63, 64, 65, 66, 67, 68, 69, 70, 71, 72, 73, 74, 75, 76, 77, 78, 79, 80, 81, 82, 83, 84, 85, 86, 87, 88, 89, 90, 91, 92, 93, 94, 95, 96, 97, 98, 99, 100, 101, 102, 103, 104, 105, 106, 107, 108, 109, 110, 111, 112, 113, 114, 115, 116, 117, 118, 119, 120, 121, 122, 123, 124, 125, 126, 127, 128, 129, 130, 131, 132, 133, 134, 135, 136, 137, 138, 139, 140, 141, 142, 143, 144, 145, 146, 147, 148, 149, 150, 151, 152, 153, 154, 155, 156, 157, 158, 159, 160, 161, 162, 163, 164, 165, 166, 167, 168, 169, 170, 171, 172, 173, 174, 175, 176, 177, 178, 179, 180, 181, 182, 183, 184, 185, 186, 187, 188, 189, 190, 191, 192, 193, 194, 195, 196, 197, 198, 199, 200, 201, 202, 203, 204, 205, 206, 207, 208, 209, 210, 211, 212, 213, 214, 215, 216, 217, 218, 219, 220, 221, 222, 223, 224, 225, 226, 227, 228, 229, 230, 231, 232, 233, 234, 235, 236, 237, 238, 239, 240, 241, 242, 243, 244, 245, 246, 247, 248, 249, 250, 251, 252, 253, 254, 255, 256],
      "WindowCenter": [850.0, 848.0, 848.0, 847.0, 847.0, 846.0, 846.0, 845.0, 846.0, 846.0, 847.0, 846.0, 847.0, 847.0, 847.0, 845.0, 845.0, 846.0, 846.0, 846.0, 847.0, 847.0, 847.0, 847.0, 846.0, 846.0, 845.0, 845.0, 845.0, 846.0, 845.0, 847.0, 847.0, 846.0, 846.0, 847.0, 847.0, 848.0, 846.0, 846.0, 848.0, 849.0, 848.0, 846.0, 845.0, 845.0, 845.0, 846.0, 846.0, 845.0, 846.0, 848.0, 849.0, 848.0, 848.0, 848.0, 847.0, 847.0, 847.0, 848.0, 848.0, 848.0, 848.0, 849.0, 849.0, 847.0, 847.0, 847.0, 847.0, 846.0, 847.0, 847.0, 846.0, 846.0, 846.0, 848.0, 849.0, 850.0, 848.0, 849.0, 850.0, 850.0, 849.0, 848.0, 848.0, 848.0, 848.0, 847.0, 848.0, 849.0, 850.0, 849.0, 849.0, 848.0, 849.0, 849.0, 849.0, 849.0, 850.0, 849.0, 849.0, 849.0, 848.0, 848.0, 848.0, 848.0, 848.0, 848.0, 848.0, 848.0, 848.0, 848.0, 848.0, 848.0, 850.0, 848.0, 848.0, 847.0, 848.0, 847.0, 848.0, 849.0, 848.0, 848.0, 848.0, 849.0, 848.0, 846.0, 845.0, 844.0, 846.0, 847.0, 848.0, 848.0, 848.0, 847.0, 848.0, 848.0, 848.0, 847.0, 846.0, 846.0, 847.0, 847.0, 849.0, 847.0, 848.0, 847.0, 847.0, 848.0, 850.0, 849.0, 848.0, 846.0, 847.0, 846.0, 847.0, 847.0, 847.0, 847.0, 847.0, 847.0, 848.0, 848.0, 849.0, 849.0, 849.0, 851.0, 851.0, 851.0, 849.0, 848.0, 848.0, 847.0, 847.0, 848.0, 847.0, 846.0, 846.0, 846.0, 846.0, 848.0, 848.0, 847.0, 847.0, 848.0, 848.0, 848.0, 846.0, 848.0, 849.0, 849.0, 849.0, 848.0, 849.0, 849.0, 850.0, 851.0, 851.0, 849.0, 849.0, 850.0, 851.0, 850.0, 849.0, 848.0, 847.0, 847.0, 847.0, 847.0, 848.0, 849.0, 848.0, 850.0, 850.0, 850.0, 849.0, 849.0, 849.0, 850.0, 850.0, 850.0, 851.0, 852.0, 849.0, 849.0, 851.0, 853.0, 853.0, 851.0, 848.0, 847.0, 846.0, 846.0, 847.0, 847.0, 847.0, 848.0, 849.0, 850.0, 852.0, 852.0, 851.0, 850.0, 849.0, 849.0, 848.0, 848.0, 849.0, 851.0, 852.0, 851.0, 850.0, 851.0, 851.0, 851.0],
      "WindowWidth": [1881.0, 1874.0, 1874.0, 1873.0, 1872.0, 1868.0, 1870.0, 1867.0, 1870.0, 1869.0, 1870.0, 1870.0, 1871.0, 1871.0, 1870.0, 1867.0, 1866.0, 1868.0, 1869.0, 1870.0, 1873.0, 1872.0, 1873.0, 1871.0, 1868.0, 1868.0, 1865.0, 1867.0, 1866.0, 1869.0, 1867.0, 1871.0, 1872.0, 1870.0, 1870.0, 1871.0, 1873.0, 1873.0, 1870.0, 1869.0, 1875.0, 1877.0, 1874.0, 1869.0, 1867.0, 1867.0, 1868.0, 1868.0, 1868.0, 1867.0, 1869.0, 1873.0, 1877.0, 1875.0, 1875.0, 1874.0, 1872.0, 1873.0, 1871.0, 1874.0, 1876.0, 1876.0, 1874.0, 1876.0, 1876.0, 1871.0, 1872.0, 1870.0, 1871.0, 1870.0, 1871.0, 1871.0, 1869.0, 1869.0, 1870.0, 1873.0, 1879.0, 1879.0, 1875.0, 1878.0, 1879.0, 1879.0, 1877.0, 1875.0, 1874.0, 1873.0, 1873.0, 1872.0, 1875.0, 1878.0, 1880.0, 1878.0, 1877.0, 1874.0, 1875.0, 1877.0, 1878.0, 1878.0, 1879.0, 1877.0, 1877.0, 1876.0, 1875.0, 1874.0, 1873.0, 1873.0, 1873.0, 1875.0, 1873.0, 1873.0, 1875.0, 1874.0, 1873.0, 1873.0, 1878.0, 1875.0, 1875.0, 1871.0, 1873.0, 1870.0, 1873.0, 1875.0, 1874.0, 1873.0, 1874.0, 1875.0, 1873.0, 1869.0, 1865.0, 1863.0, 1867.0, 1870.0, 1873.0, 1875.0, 1872.0, 1871.0, 1874.0, 1875.0, 1874.0, 1870.0, 1868.0, 1867.0, 1870.0, 1872.0, 1875.0, 1871.0, 1872.0, 1870.0, 1871.0, 1873.0, 1879.0, 1877.0, 1873.0, 1868.0, 1869.0, 1869.0, 1870.0, 1871.0, 1870.0, 1871.0, 1871.0, 1871.0, 1873.0, 1873.0, 1876.0, 1875.0, 1876.0, 1882.0, 1883.0, 1880.0, 1874.0, 1874.0, 1872.0, 1870.0, 1871.0, 1874.0, 1871.0, 1868.0, 1866.0, 1867.0, 1869.0, 1873.0, 1872.0, 1871.0, 1870.0, 1873.0, 1873.0, 1872.0, 1868.0, 1872.0, 1875.0, 1876.0, 1876.0, 1874.0, 1876.0, 1875.0, 1878.0, 1881.0, 1880.0, 1876.0, 1875.0, 1880.0, 1882.0, 1879.0, 1875.0, 1872.0, 1870.0, 1870.0, 1869.0, 1870.0, 1872.0, 1875.0, 1874.0, 1879.0, 1879.0, 1877.0, 1877.0, 1876.0, 1875.0, 1880.0, 1879.0, 1880.0, 1882.0, 1884.0, 1877.0, 1877.0, 1882.0, 1887.0, 1886.0, 1880.0, 1874.0, 1870.0, 1868.0, 1867.0, 1869.0, 1869.0, 1869.0, 1872.0, 1877.0, 1879.0, 1884.0, 1885.0, 1883.0, 1877.0, 1875.0, 1874.0, 1873.0, 1873.0, 1876.0, 1883.0, 1883.0, 1881.0, 1879.0, 1881.0, 1880.0, 1880.0]
    },
    "slices": {}
  }
}