{
  "AcquisitionMatrixPE": 100,
  "AcquisitionNumber": 1,
  "AcquisitionTime": "15:45:8.600000",
  "BandwidthPerPixelPhaseEncode": 18.519,
  "BaseResolution": 100,
  "BodyPartExamined": "BRAIN",
  "ConsistencyInfo": "N4_VE11C_LATEST_20160120",
  "ConversionSoftware": "dcm2niix",
  "ConversionSoftwareVersion": "v1.0.20180622 GCC4.9.2",
  "DerivedVendorReportedEchoSpacing": 0.000539986,
  "DeviceSerialNumber": "166078",
  "DwellTime": 2.1e-06,
  "EchoTime": 0.034,
  "EchoTrainLength": 100,
  "EffectiveEchoSpacing": 0.000539986,
  "FlipAngle": 90,
  "ImageOrientationPatientDICOM": [1, 0, 0, 0, 0.997801, -0.0662739],
  "ImageType": [
    "ORIGINAL",
    "PRIMARY",
    "M",
    "ND",
    "MOSAIC"
],
  "InPlanePhaseEncodingDirectionDICOM": "COL",
  "InstitutionAddress": "Street_StreetNo_Bei_Jing_District_CN_ZIP",
  "InstitutionName": "BeiJing_Normal_University",
  "InstitutionalDepartmentName": "Department",
  "MRAcquisitionType": "2D",
  "MagneticFieldStrength": 3,
  "Manufacturer": "Siemens",
  "ManufacturersModelName": "Prisma",
  "Modality": "MR",
  "MultibandAccelerationFactor": 3,
  "PartialFourier": 1,
  "PatientPosition": "HFS",
  "PercentPhaseFOV": 100,
  "PhaseEncodingDirection": "j-",
  "PhaseEncodingSteps": 100,
  "PhaseResolution": 1,
  "PixelBandwidth": 2380,
  "ProcedureStepDescription": "BNU_P2018_64CH_Zhen.ZongLei",
  "ProtocolName": "bold_100x100_s3_2x2x2_static_256",
  "PulseSequenceDetails": "%SiemensSeq%_ep2d_bold",
  "ReceiveCoilActiveElements": "HC1-7;NC1",
  "ReceiveCoilName": "HeadNeck_64",
  "ReconMatrixPE": 100,
  "RepetitionTime": 2,
  "SAR": 0.0732873,
  "ScanOptions": "FS",
  "ScanningSequence": "EP",
  "SequenceName": "_epfid2d1_100",
  "SequenceVariant": "SK",
  "SeriesDescription": "bold_100x100_s3_2x2x2_static_256",
  "SeriesNumber": 8,
  "ShimSetting": [-5470, -11503, -1261, 194, -47, -248, -201, 60],
  "SliceThickness": 2,
  "SliceTiming": [1.485, 0, 0.99, 0.0825, 1.0725, 0.165, 1.155, 0.2475, 1.2375, 0.33, 1.32, 0.4125, 1.4025, 0.5775, 1.5675, 0.66, 1.65, 0.7425, 1.7325, 0.825, 1.815, 0.9075, 1.8975, 0.495, 1.485, 0, 0.99, 0.0825, 1.0725, 0.165, 1.155, 0.2475, 1.2375, 0.33, 1.32, 0.4125, 1.4025, 0.5775, 1.5675, 0.66, 1.65, 0.7425, 1.7325, 0.825, 1.815, 0.9075, 1.8975, 0.495, 1.485, 0, 0.99, 0.0825, 1.0725, 0.165, 1.155, 0.2475, 1.2375, 0.33, 1.32, 0.4125, 1.4025, 0.5775, 1.5675, 0.66, 1.65, 0.7425, 1.7325, 0.825, 1.815, 0.9075, 1.8975, 0.495],
  "SoftwareVersions": "syngo_MR_E11",
  "SpacingBetweenSlices": 2,
  "StationName": "AWP166078",
  "TaskName": "naturalvision",
  "TotalReadoutTime": 0.0534586,
  "TxRefAmp": 219.2,
  "dcmmeta_affine": [
    [-2.0, 0.0, 0.0, 100.05597686767578],
    [0.0, 1.9956029653549194, -0.13254781067371368, -88.70864868164062],
    [0.0, 0.13254781067371368, 1.9956029653549194, -71.36284637451172],
    [0.0, 0.0, 0.0, 1.0]
],
  "dcmmeta_reorient_transform": [
    [0.0, -1.0, 0.0, 99.0],
    [1.0, 0.0, 0.0, 0.0],
    [0.0, 0.0, 1.0, 0.0],
    [0.0, 0.0, 0.0, 1.0]
],
  "dcmmeta_shape": [100, 100, 72, 256],
  "dcmmeta_slice_dim": 2,
  "dcmmeta_version": 0.6,
  "global": {
    "const": {
      "AcquisitionMatrix": [100, 0, 0, 100],
      "AngioFlag": "N",
      "BitsAllocated": 16,
      "BitsStored": 12,
      "BodyPartExamined": "BRAIN",
      "Columns": 900,
      "EchoNumbers": 1,
      "EchoTime": 34.0,
      "EchoTrainLength": 100,
      "FlipAngle": 90.0,
      "HighBit": 11,
      "ImageOrientationPatient": [1.0, 0.0, 0.0, 0.0, 0.99780146819131, -0.0662739019167],
      "ImagePositionPatient": [-900.05598034337, -907.0972176353, -5.2214921201749],
      "ImageType": [
        "ORIGINAL",
        "PRIMARY",
        "M",
        "ND",
        "MOSAIC"
],
      "ImagedNucleus": "1H",
      "ImagingFrequency": 123.257753,
      "InPlanePhaseEncodingDirection": "COL",
      "LargestImagePixelValue": 4095,
      "MRAcquisitionType": "2D",
      "MagneticFieldStrength": 3.0,
      "Manufacturer": "SIEMENS",
      "ManufacturerModelName": "Prisma",
      "Modality": "MR",
      "NumberOfAverages": 1.0,
      "NumberOfPhaseEncodingSteps": 100,
      "PercentPhaseFieldOfView": 100.0,
      "PercentSampling": 100.0,
      "PerformedProcedureStepStartTime": "150127.919000",
      "PhotometricInterpretation": "MONOCHROME2",
      "PixelBandwidth": 2380.0,
      "PixelRepresentation": 0,
      "PixelSpacing": [2.0, 2.0],
      "ProtocolName": "bold_100x100_s3_2x2x2_static_256",
      "RepetitionTime": 2000.0,
      "Rows": 900,
      "SAR": 0.07328729951489,
      "SamplesPerPixel": 1,
      "ScanOptions": "FS",
      "ScanningSequence": "EP",
      "SequenceName": "*epfid2d1_100",
      "SequenceVariant": "SK",
      "SeriesDescription": "bold_100x100_s3_2x2x2_static_256",
      "SeriesNumber": 8,
      "SeriesTime": "154510.811000",
      "SliceLocation": -65.326884534143,
      "SliceThickness": 2.0,
      "SmallestImagePixelValue": 0,
      "SoftwareVersions": "syngo MR E11",
      "SpacingBetweenSlices": 2.0000000606226,
      "SpecificCharacterSet": "ISO_IR 100",
      "StudyID": "1",
      "StudyTime": "150127.834000",
      "TransmitCoilName": "Body",
      "VariableFlipAngleFlag": "N",
      "WindowCenterWidthExplanation": "Algo1",
      "dBdt": 0.0},
    "slices": {}
  },
  "time": {
    "samples": {
      "AcquisitionNumber": [1, 2, 3, 4, 5, 6, 7, 8, 9, 10, 11, 12, 13, 14, 15, 16, 17, 18, 19, 20, 21, 22, 23, 24, 25, 26, 27, 28, 29, 30, 31, 32, 33, 34, 35, 36, 37, 38, 39, 40, 41, 42, 43, 44, 45, 46, 47, 48, 49, 50, 51, 52, 53, 54, 55, 56, 57, 58, 59, 60, 61, 62, 63, 64, 65, 66, 67, 68, 69, 70, 71, 72, 73, 74, 75, 76, 77, 78, 79, 80, 81, 82, 83, 84, 85, 86, 87, 88, 89, 90, 91, 92, 93, 94, 95, 96, 97, 98, 99, 100, 101, 102, 103, 104, 105, 106, 107, 108, 109, 110, 111, 112, 113, 114, 115, 116, 117, 118, 119, 120, 121, 122, 123, 124, 125, 126, 127, 128, 129, 130, 131, 132, 133, 134, 135, 136, 137, 138, 139, 140, 141, 142, 143, 144, 145, 146, 147, 148, 149, 150, 151, 152, 153, 154, 155, 156, 157, 158, 159, 160, 161, 162, 163, 164, 165, 166, 167, 168, 169, 170, 171, 172, 173, 174, 175, 176, 177, 178, 179, 180, 181, 182, 183, 184, 185, 186, 187, 188, 189, 190, 191, 192, 193, 194, 195, 196, 197, 198, 199, 200, 201, 202, 203, 204, 205, 206, 207, 208, 209, 210, 211, 212, 213, 214, 215, 216, 217, 218, 219, 220, 221, 222, 223, 224, 225, 226, 227, 228, 229, 230, 231, 232, 233, 234, 235, 236, 237, 238, 239, 240, 241, 242, 243, 244, 245, 246, 247, 248, 249, 250, 251, 252, 253, 254, 255, 256],
      "AcquisitionTime": ["154508.600000", "154510.600000", "154512.600000", "154514.600000", "154516.600000", "154518.600000", "154520.600000", "154522.600000", "154524.600000", "154526.600000", "154528.600000", "154530.600000", "154532.600000", "154534.600000", "154536.600000", "154538.600000", "154540.600000", "154542.600000", "154544.600000", "154546.600000", "154548.600000", "154550.600000", "154552.600000", "154554.600000", "154556.600000", "154558.600000", "154600.600000", "154602.600000", "154604.600000", "154606.600000", "154608.600000", "154610.600000", "154612.600000", "154614.600000", "154616.600000", "154618.600000", "154620.600000", "154622.600000", "154624.600000", "154626.600000", "154628.600000", "154630.600000", "154632.600000", "154634.600000", "154636.600000", "154638.600000", "154640.600000", "154642.600000", "154644.600000", "154646.600000", "154648.600000", "154650.600000", "154652.600000", "154654.600000", "154656.600000", "154658.600000", "154700.600000", "154702.600000", "154704.600000", "154706.600000", "154708.600000", "154710.600000", "154712.600000", "154714.600000", "154716.600000", "154718.600000", "154720.600000", "154722.600000", "154724.600000", "154726.600000", "154728.600000", "154730.600000", "154732.600000", "154734.600000", "154736.600000", "154738.600000", "154740.600000", "154742.600000", "154744.600000", "154746.600000", "154748.600000", "154750.600000", "154752.600000", "154754.600000", "154756.600000", "154758.600000", "154800.600000", "154802.600000", "154804.600000", "154806.600000", "154808.600000", "154810.600000", "154812.600000", "154814.600000", "154816.600000", "154818.600000", "154820.600000", "154822.600000", "154824.600000", "154826.600000", "154828.600000", "154830.600000", "154832.600000", "154834.600000", "154836.600000", "154838.600000", "154840.600000", "154842.600000", "154844.600000", "154846.600000", "154848.600000", "154850.600000", "154852.600000", "154854.600000", "154856.600000", "154858.600000", "154900.600000", "154902.600000", "154904.600000", "154906.600000", "154908.600000", "154910.600000", "154912.600000", "154914.600000", "154916.600000", "154918.600000", "154920.600000", "154922.600000", "154924.600000", "154926.600000", "154928.600000", "154930.600000", "154932.600000", "154934.600000", "154936.600000", "154938.600000", "154940.600000", "154942.600000", "154944.600000", "154946.600000", "154948.600000", "154950.600000", "154952.600000", "154954.600000", "154956.600000", "154958.600000", "155000.600000", "155002.600000", "155004.600000", "155006.600000", "155008.600000", "155010.600000", "155012.600000", "155014.600000", "155016.600000", "155018.600000", "155020.600000", "155022.600000", "155024.600000", "155026.600000", "155028.600000", "155030.600000", "155032.600000", "155034.600000", "155036.600000", "155038.600000", "155040.600000", "155042.600000", "155044.600000", "155046.600000", "155048.600000", "155050.600000", "155052.600000", "155054.600000", "155056.600000", "155058.600000", "155100.600000", "155102.600000", "155104.600000", "155106.600000", "155108.600000", "155110.600000", "155112.600000", "155114.600000", "155116.600000", "155118.600000", "155120.600000", "155122.600000", "155124.600000", "155126.600000", "155128.600000", "155130.600000", "155132.600000", "155134.600000", "155136.600000", "155138.600000", "155140.600000", "155142.600000", "155144.600000", "155146.600000", "155148.600000", "155150.600000", "155152.600000", "155154.600000", "155156.600000", "155158.600000", "155200.600000", "155202.600000", "155204.600000", "155206.600000", "155208.600000", "155210.600000", "155212.600000", "155214.600000", "155216.600000", "155218.600000", "155220.600000", "155222.600000", "155224.600000", "155226.600000", "155228.600000", "155230.600000", "155232.600000", "155234.600000", "155236.600000", "155238.600000", "155240.600000", "155242.600000", "155244.600000", "155246.600000", "155248.600000", "155250.600000", "155252.600000", "155254.600000", "155256.600000", "155258.600000", "155300.600000", "155302.600000", "155304.600000", "155306.600000", "155308.600000", "155310.600000", "155312.600000", "155314.600000", "155316.600000", "155318.600000", "155320.600000", "155322.600000", "155324.600000", "155326.600000", "155328.600000", "155330.600000", "155332.600000", "155334.600000", "155336.600000", "155338.600000"],
      "ContentTime": ["154510.815000", "154512.311000", "154514.310000", "154516.310000", "154518.310000", "154520.309000", "154522.310000", "154524.310000", "154526.310000", "154528.310000", "154530.311000", "154532.310000", "154534.310000", "154536.310000", "154538.310000", "154540.311000", "154542.311000", "154544.311000", "154546.311000", "154548.311000", "154550.311000", "154552.310000", "154554.309000", "154556.309000", "154558.310000", "154600.310000", "154602.311000", "154604.311000", "154606.310000", "154608.311000", "154610.310000", "154612.310000", "154614.310000", "154616.310000", "154618.310000", "154620.310000", "154622.310000", "154624.310000", "154626.311000", "154628.310000", "154630.310000", "154632.311000", "154634.311000", "154636.310000", "154638.310000", "154640.310000", "154642.310000", "154644.311000", "154646.311000", "154648.310000", "154650.311000", "154652.310000", "154654.311000", "154656.310000", "154658.310000", "154700.310000", "154702.310000", "154704.310000", "154706.310000", "154708.311000", "154710.310000", "154712.310000", "154714.311000", "154716.310000", "154718.310000", "154720.311000", "154722.310000", "154724.310000", "154726.311000", "154728.310000", "154730.310000", "154732.310000", "154734.310000", "154736.310000", "154738.311000", "154740.310000", "154742.310000", "154744.311000", "154746.311000", "154748.311000", "154750.311000", "154752.311000", "154754.311000", "154756.311000", "154758.309000", "154800.311000", "154802.310000", "154804.310000", "154806.310000", "154808.311000", "154810.310000", "154812.310000", "154814.310000", "154816.309000", "154818.311000", "154820.310000", "154822.310000", "154824.311000", "154826.310000", "154828.311000", "154830.311000", "154832.310000", "154834.309000", "154836.311000", "154838.311000", "154840.311000", "154842.311000", "154844.310000", "154846.310000", "154848.311000", "154850.309000", "154852.310000", "154854.311000", "154856.311000", "154858.310000", "154900.310000", "154902.310000", "154904.310000", "154906.311000", "154908.310000", "154910.310000", "154912.311000", "154914.311000", "154916.310000", "154918.310000", "154920.311000", "154922.310000", "154924.309000", "154926.310000", "154928.311000", "154930.311000", "154932.311000", "154934.311000", "154936.310000", "154938.311000", "154940.311000", "154942.309000", "154944.310000", "154946.311000", "154948.311000", "154950.311000", "154952.310000", "154954.310000", "154956.311000", "154958.310000", "155000.310000", "155002.310000", "155004.310000", "155006.310000", "155008.310000", "155010.311000", "155012.311000", "155014.311000", "155016.311000", "155018.321000", "155020.311000", "155022.310000", "155024.311000", "155026.310000", "155028.310000", "155030.311000", "155032.311000", "155034.310000", "155036.310000", "155038.311000", "155040.311000", "155042.310000", "155044.311000", "155046.311000", "155048.311000", "155050.311000", "155052.310000", "155054.311000", "155056.311000", "155058.310000", "155100.310000", "155102.310000", "155104.311000", "155106.311000", "155108.310000", "155110.309000", "155112.311000", "155114.310000", "155116.310000", "155118.311000", "155120.310000", "155122.310000", "155124.310000", "155126.311000", "155128.309000", "155130.310000", "155132.311000", "155134.310000", "155136.314000", "155138.310000", "155140.311000", "155142.310000", "155144.310000", "155146.309000", "155148.311000", "155150.311000", "155152.310000", "155154.311000", "155156.311000", "155158.311000", "155200.311000", "155202.310000", "155204.311000", "155206.311000", "155208.311000", "155210.311000", "155212.310000", "155214.311000", "155216.311000", "155218.311000", "155220.310000", "155222.311000", "155224.311000", "155226.310000", "155228.311000", "155230.311000", "155232.311000", "155234.311000", "155236.311000", "155238.310000", "155240.311000", "155242.310000", "155244.310000", "155246.311000", "155248.311000", "155250.311000", "155252.310000", "155254.310000", "155256.309000", "155258.310000", "155300.311000", "155302.310000", "155304.311000", "155306.311000", "155308.311000", "155310.311000", "155312.309000", "155314.310000", "155316.310000", "155318.311000", "155320.310000", "155322.310000", "155324.310000", "155326.310000", "155328.311000", "155330.310000", "155332.310000", "155334.311000", "155336.310000", "155338.311000", "155339.949000"],
      "InstanceCreationTime": ["154510.815000", "154512.311000", "154514.310000", "154516.310000", "154518.310000", "154520.309000", "154522.310000", "154524.310000", "154526.310000", "154528.310000", "154530.311000", "154532.310000", "154534.310000", "154536.310000", "154538.310000", "154540.311000", "154542.311000", "154544.311000", "154546.311000", "154548.311000", "154550.311000", "154552.310000", "154554.309000", "154556.309000", "154558.310000", "154600.310000", "154602.311000", "154604.311000", "154606.310000", "154608.311000", "154610.310000", "154612.310000", "154614.310000", "154616.310000", "154618.310000", "154620.310000", "154622.310000", "154624.310000", "154626.311000", "154628.310000", "154630.310000", "154632.311000", "154634.311000", "154636.310000", "154638.310000", "154640.310000", "154642.310000", "154644.311000", "154646.311000", "154648.310000", "154650.311000", "154652.310000", "154654.311000", "154656.310000", "154658.310000", "154700.310000", "154702.310000", "154704.310000", "154706.310000", "154708.311000", "154710.310000", "154712.310000", "154714.311000", "154716.310000", "154718.310000", "154720.311000", "154722.310000", "154724.310000", "154726.311000", "154728.310000", "154730.310000", "154732.310000", "154734.310000", "154736.310000", "154738.311000", "154740.310000", "154742.310000", "154744.311000", "154746.311000", "154748.311000", "154750.311000", "154752.311000", "154754.311000", "154756.311000", "154758.309000", "154800.311000", "154802.310000", "154804.310000", "154806.310000", "154808.311000", "154810.310000", "154812.310000", "154814.310000", "154816.309000", "154818.311000", "154820.310000", "154822.310000", "154824.311000", "154826.310000", "154828.311000", "154830.311000", "154832.310000", "154834.309000", "154836.311000", "154838.311000", "154840.311000", "154842.311000", "154844.310000", "154846.310000", "154848.311000", "154850.309000", "154852.310000", "154854.311000", "154856.311000", "154858.310000", "154900.310000", "154902.310000", "154904.310000", "154906.311000", "154908.310000", "154910.310000", "154912.311000", "154914.311000", "154916.310000", "154918.310000", "154920.311000", "154922.310000", "154924.309000", "154926.310000", "154928.311000", "154930.311000", "154932.311000", "154934.311000", "154936.310000", "154938.311000", "154940.311000", "154942.309000", "154944.310000", "154946.311000", "154948.311000", "154950.311000", "154952.310000", "154954.310000", "154956.311000", "154958.310000", "155000.310000", "155002.310000", "155004.310000", "155006.310000", "155008.310000", "155010.311000", "155012.311000", "155014.311000", "155016.311000", "155018.321000", "155020.311000", "155022.310000", "155024.311000", "155026.310000", "155028.310000", "155030.311000", "155032.311000", "155034.310000", "155036.310000", "155038.311000", "155040.311000", "155042.310000", "155044.311000", "155046.311000", "155048.311000", "155050.311000", "155052.310000", "155054.311000", "155056.311000", "155058.310000", "155100.310000", "155102.310000", "155104.311000", "155106.311000", "155108.310000", "155110.309000", "155112.311000", "155114.310000", "155116.310000", "155118.311000", "155120.310000", "155122.310000", "155124.310000", "155126.311000", "155128.309000", "155130.310000", "155132.311000", "155134.310000", "155136.314000", "155138.310000", "155140.311000", "155142.310000", "155144.310000", "155146.309000", "155148.311000", "155150.311000", "155152.310000", "155154.311000", "155156.311000", "155158.311000", "155200.311000", "155202.310000", "155204.311000", "155206.311000", "155208.311000", "155210.311000", "155212.310000", "155214.311000", "155216.311000", "155218.311000", "155220.310000", "155222.311000", "155224.311000", "155226.310000", "155228.311000", "155230.311000", "155232.311000", "155234.311000", "155236.311000", "155238.310000", "155240.311000", "155242.310000", "155244.310000", "155246.311000", "155248.311000", "155250.311000", "155252.310000", "155254.310000", "155256.309000", "155258.310000", "155300.311000", "155302.310000", "155304.311000", "155306.311000", "155308.311000", "155310.311000", "155312.309000", "155314.310000", "155316.310000", "155318.311000", "155320.310000", "155322.310000", "155324.310000", "155326.310000", "155328.311000", "155330.310000", "155332.310000", "155334.311000", "155336.310000", "155338.311000", "155339.949000"],
      "InstanceNumber": [1, 2, 3, 4, 5, 6, 7, 8, 9, 10, 11, 12, 13, 14, 15, 16, 17, 18, 19, 20, 21, 22, 23, 24, 25, 26, 27, 28, 29, 30, 31, 32, 33, 34, 35, 36, 37, 38, 39, 40, 41, 42, 43, 44, 45, 46, 47, 48, 49, 50, 51, 52, 53, 54, 55, 56, 57, 58, 59, 60, 61, 62, 63, 64, 65, 66, 67, 68, 69, 70, 71, 72, 73, 74, 75, 76, 77, 78, 79, 80, 81, 82, 83, 84, 85, 86, 87, 88, 89, 90, 91, 92, 93, 94, 95, 96, 97, 98, 99, 100, 101, 102, 103, 104, 105, 106, 107, 108, 109, 110, 111, 112, 113, 114, 115, 116, 117, 118, 119, 120, 121, 122, 123, 124, 125, 126, 127, 128, 129, 130, 131, 132, 133, 134, 135, 136, 137, 138, 139, 140, 141, 142, 143, 144, 145, 146, 147, 148, 149, 150, 151, 152, 153, 154, 155, 156, 157, 158, 159, 160, 161, 162, 163, 164, 165, 166, 167, 168, 169, 170, 171, 172, 173, 174, 175, 176, 177, 178, 179, 180, 181, 182, 183, 184, 185, 186, 187, 188, 189, 190, 191, 192, 193, 194, 195, 196, 197, 198, 199, 200, 201, 202, 203, 204, 205, 206, 207, 208, 209, 210, 211, 212, 213, 214, 215, 216, 217, 218, 219, 220, 221, 222, 223, 224, 225, 226, 227, 228, 229, 230, 231, 232, 233, 234, 235, 236, 237, 238, 239, 240, 241, 242, 243, 244, 245, 246, 247, 248, 249, 250, 251, 252, 253, 254, 255, 256],
      "WindowCenter": [836.0, 834.0, 833.0, 833.0, 833.0, 834.0, 834.0, 833.0, 832.0, 831.0, 832.0, 833.0, 833.0, 833.0, 834.0, 835.0, 835.0, 835.0, 835.0, 834.0, 833.0, 832.0, 833.0, 833.0, 833.0, 833.0, 833.0, 833.0, 833.0, 833.0, 834.0, 834.0, 833.0, 832.0, 833.0, 833.0, 833.0, 833.0, 833.0, 833.0, 834.0, 834.0, 834.0, 833.0, 832.0, 832.0, 833.0, 834.0, 834.0, 833.0, 834.0, 834.0, 834.0, 834.0, 834.0, 833.0, 833.0, 834.0, 834.0, 836.0, 837.0, 836.0, 835.0, 834.0, 835.0, 835.0, 835.0, 834.0, 833.0, 833.0, 834.0, 834.0, 835.0, 834.0, 834.0, 835.0, 835.0, 834.0, 834.0, 834.0, 833.0, 835.0, 834.0, 835.0, 835.0, 837.0, 837.0, 835.0, 836.0, 836.0, 836.0, 836.0, 834.0, 834.0, 833.0, 834.0, 834.0, 835.0, 835.0, 838.0, 838.0, 837.0, 836.0, 836.0, 836.0, 835.0, 836.0, 836.0, 836.0, 835.0, 836.0, 836.0, 836.0, 835.0, 836.0, 837.0, 836.0, 835.0, 836.0, 835.0, 835.0, 835.0, 836.0, 838.0, 838.0, 837.0, 836.0, 836.0, 836.0, 836.0, 836.0, 835.0, 835.0, 835.0, 835.0, 835.0, 836.0, 835.0, 836.0, 836.0, 835.0, 836.0, 838.0, 838.0, 838.0, 838.0, 838.0, 837.0, 836.0, 835.0, 836.0, 837.0, 838.0, 837.0, 838.0, 838.0, 837.0, 836.0, 835.0, 834.0, 835.0, 835.0, 835.0, 834.0, 834.0, 834.0, 836.0, 839.0, 840.0, 839.0, 838.0, 837.0, 837.0, 841.0, 841.0, 839.0, 836.0, 835.0, 835.0, 836.0, 836.0, 836.0, 836.0, 836.0, 836.0, 836.0, 838.0, 839.0, 839.0, 839.0, 839.0, 838.0, 837.0, 836.0, 836.0, 835.0, 836.0, 837.0, 838.0, 838.0, 836.0, 835.0, 836.0, 836.0, 836.0, 837.0, 836.0, 835.0, 836.0, 836.0, 837.0, 836.0, 836.0, 836.0, 836.0, 838.0, 838.0, 840.0, 840.0, 839.0, 837.0, 836.0, 836.0, 835.0, 835.0, 835.0, 836.0, 835.0, 836.0, 836.0, 837.0, 836.0, 837.0, 838.0, 839.0, 838.0, 838.0, 839.0, 840.0, 842.0, 840.0, 839.0, 836.0, 836.0, 835.0, 836.0, 837.0, 837.0, 838.0, 837.0, 838.0, 838.0, 839.0, 837.0, 837.0, 837.0],
      "WindowWidth": [1838.0, 1832.0, 1829.0, 1829.0, 1830.0, 1831.0, 1832.0, 1828.0, 1825.0, 1824.0, 1826.0, 1828.0, 1829.0, 1830.0, 1831.0, 1834.0, 1834.0, 1835.0, 1833.0, 1831.0, 1827.0, 1827.0, 1828.0, 1829.0, 1830.0, 1828.0, 1829.0, 1829.0, 1830.0, 1830.0, 1832.0, 1830.0, 1828.0, 1826.0, 1829.0, 1829.0, 1829.0, 1828.0, 1828.0, 1829.0, 1830.0, 1830.0, 1830.0, 1829.0, 1827.0, 1826.0, 1830.0, 1831.0, 1831.0, 1830.0, 1831.0, 1831.0, 1832.0, 1830.0, 1831.0, 1829.0, 1829.0, 1830.0, 1832.0, 1838.0, 1839.0, 1836.0, 1834.0, 1832.0, 1834.0, 1833.0, 1833.0, 1830.0, 1828.0, 1829.0, 1832.0, 1832.0, 1832.0, 1832.0, 1832.0, 1832.0, 1833.0, 1831.0, 1830.0, 1829.0, 1829.0, 1832.0, 1831.0, 1834.0, 1834.0, 1838.0, 1838.0, 1834.0, 1835.0, 1835.0, 1837.0, 1836.0, 1832.0, 1829.0, 1827.0, 1830.0, 1831.0, 1833.0, 1834.0, 1841.0, 1841.0, 1839.0, 1837.0, 1835.0, 1835.0, 1834.0, 1837.0, 1837.0, 1836.0, 1834.0, 1837.0, 1837.0, 1836.0, 1834.0, 1837.0, 1838.0, 1837.0, 1833.0, 1835.0, 1834.0, 1834.0, 1834.0, 1835.0, 1841.0, 1841.0, 1840.0, 1837.0, 1836.0, 1837.0, 1836.0, 1835.0, 1834.0, 1834.0, 1832.0, 1833.0, 1833.0, 1835.0, 1834.0, 1837.0, 1836.0, 1834.0, 1838.0, 1841.0, 1843.0, 1842.0, 1840.0, 1840.0, 1837.0, 1835.0, 1833.0, 1835.0, 1838.0, 1841.0, 1839.0, 1840.0, 1840.0, 1837.0, 1834.0, 1832.0, 1831.0, 1831.0, 1832.0, 1833.0, 1831.0, 1830.0, 1830.0, 1836.0, 1842.0, 1846.0, 1842.0, 1840.0, 1837.0, 1840.0, 1849.0, 1849.0, 1843.0, 1835.0, 1833.0, 1834.0, 1837.0, 1837.0, 1837.0, 1834.0, 1835.0, 1835.0, 1836.0, 1841.0, 1843.0, 1843.0, 1844.0, 1844.0, 1840.0, 1837.0, 1836.0, 1835.0, 1832.0, 1835.0, 1837.0, 1840.0, 1839.0, 1835.0, 1833.0, 1835.0, 1834.0, 1836.0, 1836.0, 1834.0, 1833.0, 1834.0, 1836.0, 1837.0, 1836.0, 1834.0, 1834.0, 1834.0, 1840.0, 1840.0, 1845.0, 1847.0, 1844.0, 1839.0, 1835.0, 1835.0, 1832.0, 1831.0, 1832.0, 1833.0, 1832.0, 1835.0, 1834.0, 1837.0, 1834.0, 1838.0, 1841.0, 1842.0, 1840.0, 1840.0, 1843.0, 1846.0, 1850.0, 1847.0, 1843.0, 1835.0, 1834.0, 1833.0, 1834.0, 1836.0, 1839.0, 1840.0, 1838.0, 1839.0, 1841.0, 1842.0, 1839.0, 1838.0, 1838.0]
    },
    "slices": {}
  }
}