{
 "AcquisitionMatrixPE": 100,
 "AcquisitionNumber": 1,
 "AcquisitionTime": "13:15:15.142500",
 "BandwidthPerPixelPhaseEncode": 18.519,
 "BaseResolution": 100,
 "BodyPartExamined": "BRAIN",
 "ConsistencyInfo": "N4_VE11C_LATEST_20160120",
 "ConversionSoftware": "dcm2niix",
 "ConversionSoftwareVersion": "v1.0.20180622 GCC4.9.2",
 "DerivedVendorReportedEchoSpacing": 0.000539986,
 "DeviceSerialNumber": "166078",
 "DwellTime": 2.1e-06,
 "EchoTime": 0.034,
 "EchoTrainLength": 100,
 "EffectiveEchoSpacing": 0.000539986,
 "FlipAngle": 90,
 "ImageOrientationPatientDICOM": [
  1,
  0,
  0,
  0,
  0.996041,
  -0.0888943
 ],
 "ImageType": [
  "ORIGINAL",
  "PRIMARY",
  "M",
  "ND",
  "MOSAIC"
 ],
 "InPlanePhaseEncodingDirectionDICOM": "COL",
 "InstitutionAddress": "Street_StreetNo_Bei_Jing_District_CN_ZIP",
 "InstitutionName": "BeiJing_Normal_University",
 "InstitutionalDepartmentName": "Department",
 "MRAcquisitionType": "2D",
 "MagneticFieldStrength": 3,
 "Manufacturer": "Siemens",
 "ManufacturersModelName": "Prisma",
 "Modality": "MR",
 "MultibandAccelerationFactor": 3,
 "PartialFourier": 1,
 "PatientPosition": "HFS",
 "PercentPhaseFOV": 100,
 "PhaseEncodingDirection": "j-",
 "PhaseEncodingSteps": 100,
 "PhaseResolution": 1,
 "PixelBandwidth": 2380,
 "ProcedureStepDescription": "BNU_P2018_64CH_Zhen.ZongLei",
 "ProtocolName": "bold_100x100_s3_2x2x2_static_256",
 "PulseSequenceDetails": "%SiemensSeq%_ep2d_bold",
 "ReceiveCoilActiveElements": "HC1-7;NC1",
 "ReceiveCoilName": "HeadNeck_64",
 "ReconMatrixPE": 100,
 "RepetitionTime": 2,
 "SAR": 0.0666708,
 "ScanOptions": "FS",
 "ScanningSequence": "EP",
 "SequenceName": "_epfid2d1_100",
 "SequenceVariant": "SK",
 "SeriesDescription": "bold_100x100_s3_2x2x2_static_256",
 "SeriesNumber": 6,
 "ShimSetting": [
  -5448,
  -11505,
  -1247,
  313,
  -18,
  -263,
  -197,
  53
 ],
 "SliceThickness": 2,
 "SliceTiming": [
  1.485,
  0,
  0.99,
  0.0825,
  1.0725,
  0.165,
  1.155,
  0.2475,
  1.2375,
  0.33,
  1.32,
  0.4125,
  1.4025,
  0.5775,
  1.5675,
  0.66,
  1.65,
  0.7425,
  1.7325,
  0.825,
  1.815,
  0.9075,
  1.8975,
  0.495,
  1.485,
  0,
  0.99,
  0.0825,
  1.0725,
  0.165,
  1.155,
  0.2475,
  1.2375,
  0.33,
  1.32,
  0.4125,
  1.4025,
  0.5775,
  1.5675,
  0.66,
  1.65,
  0.7425,
  1.7325,
  0.825,
  1.815,
  0.9075,
  1.8975,
  0.495,
  1.485,
  0,
  0.99,
  0.0825,
  1.0725,
  0.165,
  1.155,
  0.2475,
  1.2375,
  0.33,
  1.32,
  0.4125,
  1.4025,
  0.5775,
  1.5675,
  0.66,
  1.65,
  0.7425,
  1.7325,
  0.825,
  1.815,
  0.9075,
  1.8975,
  0.495
 ],
 "SoftwareVersions": "syngo_MR_E11",
 "SpacingBetweenSlices": 2,
 "StationName": "AWP166078",
 "TaskName": "imagenet",
 "TotalReadoutTime": 0.0534586,
 "TxRefAmp": 210.806,
 "dcmmeta_affine": [
  [
   -2.0,
   0.0,
   0.0,
   100.0
  ],
  [
   0.0,
   1.992082118988037,
   -0.17778858542442322,
   -92.80657958984375
  ],
  [
   0.0,
   0.17778858542442322,
   1.992082118988037,
   -66.89787292480469
  ],
  [
   0.0,
   0.0,
   0.0,
   1.0
  ]
 ],
 "dcmmeta_reorient_transform": [
  [
   0.0,
   -1.0,
   0.0,
   99.0
  ],
  [
   1.0,
   0.0,
   0.0,
   0.0
  ],
  [
   0.0,
   0.0,
   1.0,
   0.0
  ],
  [
   0.0,
   0.0,
   0.0,
   1.0
  ]
 ],
 "dcmmeta_shape": [
  100,
  100,
  72,
  256
 ],
 "dcmmeta_slice_dim": 2,
 "dcmmeta_version": 0.6,
 "global": {
  "const": {
   "AcquisitionMatrix": [
    100,
    0,
    0,
    100
   ],
   "AngioFlag": "N",
   "BitsAllocated": 16,
   "BitsStored": 12,
   "BodyPartExamined": "BRAIN",
   "Columns": 900,
   "EchoNumbers": 1,
   "EchoTime": 34.0,
   "EchoTrainLength": 100,
   "FlipAngle": 90.0,
   "HighBit": 11,
   "ImageOrientationPatient": [
    1.0,
    0.0,
    0.0,
    0.0,
    0.99604106564855,
    -0.0888942942022
   ],
   "ImagePositionPatient": [
    -900.0,
    -901.24240094008,
    21.818635076159
   ],
   "ImageType": [
    "ORIGINAL",
    "PRIMARY",
    "M",
    "ND",
    "MOSAIC"
   ],
   "ImagedNucleus": "1H",
   "ImagingFrequency": 123.257698,
   "InPlanePhaseEncodingDirection": "COL",
   "MRAcquisitionType": "2D",
   "MagneticFieldStrength": 3.0,
   "Manufacturer": "SIEMENS",
   "ManufacturerModelName": "Prisma",
   "Modality": "MR",
   "NumberOfAverages": 1.0,
   "NumberOfPhaseEncodingSteps": 100,
   "PercentPhaseFieldOfView": 100.0,
   "PercentSampling": 100.0,
   "PerformedProcedureStepStartTime": "124054.037000",
   "PhotometricInterpretation": "MONOCHROME2",
   "PixelBandwidth": 2380.0,
   "PixelRepresentation": 0,
   "PixelSpacing": [
    2.0,
    2.0
   ],
   "ProtocolName": "bold_100x100_s3_2x2x2_static_256",
   "RepetitionTime": 2000.0,
   "Rows": 900,
   "SAR": 0.06667083516362,
   "SamplesPerPixel": 1,
   "ScanOptions": "FS",
   "ScanningSequence": "EP",
   "SequenceName": "*epfid2d1_100",
   "SequenceVariant": "SK",
   "SeriesDescription": "bold_100x100_s3_2x2x2_static_256",
   "SeriesNumber": 6,
   "SeriesTime": "131517.906000",
   "SliceLocation": -58.3830506044,
   "SliceThickness": 2.0,
   "SmallestImagePixelValue": 0,
   "SoftwareVersions": "syngo MR E11",
   "SpacingBetweenSlices": 2.000000008252,
   "SpecificCharacterSet": "ISO_IR 100",
   "StudyID": "1",
   "StudyTime": "124053.962000",
   "TransmitCoilName": "Body",
   "VariableFlipAngleFlag": "N",
   "WindowCenterWidthExplanation": "Algo1",
   "dBdt": 0.0
  },
  "slices": {}
 },
 "time": {
  "samples": {
   "AcquisitionNumber": [
    1,
    2,
    3,
    4,
    5,
    6,
    7,
    8,
    9,
    10,
    11,
    12,
    13,
    14,
    15,
    16,
    17,
    18,
    19,
    20,
    21,
    22,
    23,
    24,
    25,
    26,
    27,
    28,
    29,
    30,
    31,
    32,
    33,
    34,
    35,
    36,
    37,
    38,
    39,
    40,
    41,
    42,
    43,
    44,
    45,
    46,
    47,
    48,
    49,
    50,
    51,
    52,
    53,
    54,
    55,
    56,
    57,
    58,
    59,
    60,
    61,
    62,
    63,
    64,
    65,
    66,
    67,
    68,
    69,
    70,
    71,
    72,
    73,
    74,
    75,
    76,
    77,
    78,
    79,
    80,
    81,
    82,
    83,
    84,
    85,
    86,
    87,
    88,
    89,
    90,
    91,
    92,
    93,
    94,
    95,
    96,
    97,
    98,
    99,
    100,
    101,
    102,
    103,
    104,
    105,
    106,
    107,
    108,
    109,
    110,
    111,
    112,
    113,
    114,
    115,
    116,
    117,
    118,
    119,
    120,
    121,
    122,
    123,
    124,
    125,
    126,
    127,
    128,
    129,
    130,
    131,
    132,
    133,
    134,
    135,
    136,
    137,
    138,
    139,
    140,
    141,
    142,
    143,
    144,
    145,
    146,
    147,
    148,
    149,
    150,
    151,
    152,
    153,
    154,
    155,
    156,
    157,
    158,
    159,
    160,
    161,
    162,
    163,
    164,
    165,
    166,
    167,
    168,
    169,
    170,
    171,
    172,
    173,
    174,
    175,
    176,
    177,
    178,
    179,
    180,
    181,
    182,
    183,
    184,
    185,
    186,
    187,
    188,
    189,
    190,
    191,
    192,
    193,
    194,
    195,
    196,
    197,
    198,
    199,
    200,
    201,
    202,
    203,
    204,
    205,
    206,
    207,
    208,
    209,
    210,
    211,
    212,
    213,
    214,
    215,
    216,
    217,
    218,
    219,
    220,
    221,
    222,
    223,
    224,
    225,
    226,
    227,
    228,
    229,
    230,
    231,
    232,
    233,
    234,
    235,
    236,
    237,
    238,
    239,
    240,
    241,
    242,
    243,
    244,
    245,
    246,
    247,
    248,
    249,
    250,
    251,
    252,
    253,
    254,
    255,
    256
   ],
   "AcquisitionTime": [
    "131515.142500",
    "131517.142500",
    "131519.142500",
    "131521.142500",
    "131523.142500",
    "131525.142500",
    "131527.142500",
    "131529.142500",
    "131531.142500",
    "131533.142500",
    "131535.142500",
    "131537.142500",
    "131539.142500",
    "131541.142500",
    "131543.142500",
    "131545.142500",
    "131547.142500",
    "131549.142500",
    "131551.142500",
    "131553.142500",
    "131555.142500",
    "131557.142500",
    "131559.142500",
    "131601.142500",
    "131603.142500",
    "131605.142500",
    "131607.142500",
    "131609.142500",
    "131611.142500",
    "131613.142500",
    "131615.142500",
    "131617.142500",
    "131619.142500",
    "131621.142500",
    "131623.142500",
    "131625.142500",
    "131627.142500",
    "131629.142500",
    "131631.142500",
    "131633.142500",
    "131635.142500",
    "131637.142500",
    "131639.142500",
    "131641.142500",
    "131643.142500",
    "131645.142500",
    "131647.142500",
    "131649.142500",
    "131651.142500",
    "131653.142500",
    "131655.142500",
    "131657.142500",
    "131659.142500",
    "131701.142500",
    "131703.142500",
    "131705.142500",
    "131707.142500",
    "131709.142500",
    "131711.142500",
    "131713.142500",
    "131715.142500",
    "131717.142500",
    "131719.142500",
    "131721.142500",
    "131723.142500",
    "131725.142500",
    "131727.142500",
    "131729.142500",
    "131731.142500",
    "131733.142500",
    "131735.142500",
    "131737.142500",
    "131739.142500",
    "131741.142500",
    "131743.142500",
    "131745.142500",
    "131747.142500",
    "131749.142500",
    "131751.142500",
    "131753.142500",
    "131755.142500",
    "131757.142500",
    "131759.142500",
    "131801.142500",
    "131803.142500",
    "131805.142500",
    "131807.142500",
    "131809.142500",
    "131811.142500",
    "131813.142500",
    "131815.142500",
    "131817.142500",
    "131819.142500",
    "131821.142500",
    "131823.142500",
    "131825.142500",
    "131827.142500",
    "131829.142500",
    "131831.142500",
    "131833.142500",
    "131835.142500",
    "131837.142500",
    "131839.142500",
    "131841.142500",
    "131843.142500",
    "131845.142500",
    "131847.142500",
    "131849.142500",
    "131851.142500",
    "131853.142500",
    "131855.142500",
    "131857.142500",
    "131859.142500",
    "131901.142500",
    "131903.142500",
    "131905.142500",
    "131907.142500",
    "131909.142500",
    "131911.142500",
    "131913.142500",
    "131915.142500",
    "131917.142500",
    "131919.142500",
    "131921.142500",
    "131923.142500",
    "131925.142500",
    "131927.142500",
    "131929.142500",
    "131931.142500",
    "131933.142500",
    "131935.142500",
    "131937.142500",
    "131939.142500",
    "131941.142500",
    "131943.142500",
    "131945.142500",
    "131947.142500",
    "131949.142500",
    "131951.142500",
    "131953.142500",
    "131955.142500",
    "131957.142500",
    "131959.142500",
    "132001.142500",
    "132003.142500",
    "132005.142500",
    "132007.142500",
    "132009.142500",
    "132011.142500",
    "132013.142500",
    "132015.142500",
    "132017.142500",
    "132019.142500",
    "132021.142500",
    "132023.142500",
    "132025.142500",
    "132027.142500",
    "132029.142500",
    "132031.142500",
    "132033.142500",
    "132035.142500",
    "132037.142500",
    "132039.142500",
    "132041.142500",
    "132043.142500",
    "132045.142500",
    "132047.142500",
    "132049.142500",
    "132051.142500",
    "132053.142500",
    "132055.142500",
    "132057.142500",
    "132059.142500",
    "132101.142500",
    "132103.142500",
    "132105.142500",
    "132107.142500",
    "132109.142500",
    "132111.142500",
    "132113.142500",
    "132115.142500",
    "132117.142500",
    "132119.142500",
    "132121.142500",
    "132123.142500",
    "132125.142500",
    "132127.142500",
    "132129.142500",
    "132131.142500",
    "132133.142500",
    "132135.142500",
    "132137.142500",
    "132139.142500",
    "132141.142500",
    "132143.142500",
    "132145.142500",
    "132147.142500",
    "132149.142500",
    "132151.142500",
    "132153.142500",
    "132155.142500",
    "132157.142500",
    "132159.142500",
    "132201.142500",
    "132203.142500",
    "132205.142500",
    "132207.142500",
    "132209.142500",
    "132211.142500",
    "132213.142500",
    "132215.142500",
    "132217.142500",
    "132219.142500",
    "132221.142500",
    "132223.142500",
    "132225.142500",
    "132227.142500",
    "132229.142500",
    "132231.142500",
    "132233.142500",
    "132235.142500",
    "132237.142500",
    "132239.142500",
    "132241.142500",
    "132243.142500",
    "132245.142500",
    "132247.142500",
    "132249.142500",
    "132251.142500",
    "132253.142500",
    "132255.142500",
    "132257.142500",
    "132259.142500",
    "132301.142500",
    "132303.142500",
    "132305.142500",
    "132307.142500",
    "132309.142500",
    "132311.142500",
    "132313.142500",
    "132315.142500",
    "132317.142500",
    "132319.142500",
    "132321.142500",
    "132323.142500",
    "132325.142500",
    "132327.142500",
    "132329.142500",
    "132331.142500",
    "132333.142500",
    "132335.142500",
    "132337.142500",
    "132339.142500",
    "132341.142500",
    "132343.142500",
    "132345.142500"
   ],
   "ContentTime": [
    "131517.910000",
    "131519.405000",
    "131521.404000",
    "131523.405000",
    "131525.404000",
    "131527.404000",
    "131529.405000",
    "131531.404000",
    "131533.404000",
    "131535.405000",
    "131537.406000",
    "131539.405000",
    "131541.405000",
    "131543.404000",
    "131545.404000",
    "131547.404000",
    "131549.404000",
    "131551.405000",
    "131553.406000",
    "131555.406000",
    "131557.404000",
    "131559.405000",
    "131601.404000",
    "131603.404000",
    "131605.405000",
    "131607.404000",
    "131609.404000",
    "131611.406000",
    "131613.405000",
    "131615.405000",
    "131617.405000",
    "131619.405000",
    "131621.404000",
    "131623.405000",
    "131625.405000",
    "131627.404000",
    "131629.405000",
    "131631.405000",
    "131633.405000",
    "131635.405000",
    "131637.404000",
    "131639.405000",
    "131641.405000",
    "131643.404000",
    "131645.405000",
    "131647.405000",
    "131649.404000",
    "131651.404000",
    "131653.404000",
    "131655.405000",
    "131657.405000",
    "131659.405000",
    "131701.405000",
    "131703.406000",
    "131705.405000",
    "131707.405000",
    "131709.404000",
    "131711.405000",
    "131713.404000",
    "131715.404000",
    "131717.405000",
    "131719.405000",
    "131721.406000",
    "131723.404000",
    "131725.405000",
    "131727.405000",
    "131729.405000",
    "131731.404000",
    "131733.404000",
    "131735.405000",
    "131737.404000",
    "131739.405000",
    "131741.405000",
    "131743.404000",
    "131745.404000",
    "131747.404000",
    "131749.404000",
    "131751.404000",
    "131753.404000",
    "131755.406000",
    "131757.406000",
    "131759.404000",
    "131801.404000",
    "131803.404000",
    "131805.404000",
    "131807.404000",
    "131809.404000",
    "131811.405000",
    "131813.405000",
    "131815.406000",
    "131817.405000",
    "131819.405000",
    "131821.405000",
    "131823.405000",
    "131825.404000",
    "131827.405000",
    "131829.405000",
    "131831.406000",
    "131833.405000",
    "131835.405000",
    "131837.404000",
    "131839.405000",
    "131841.404000",
    "131843.405000",
    "131845.405000",
    "131847.405000",
    "131849.405000",
    "131851.405000",
    "131853.405000",
    "131855.405000",
    "131857.405000",
    "131859.405000",
    "131901.405000",
    "131903.405000",
    "131905.406000",
    "131907.406000",
    "131909.405000",
    "131911.405000",
    "131913.404000",
    "131915.405000",
    "131917.405000",
    "131919.405000",
    "131921.405000",
    "131923.406000",
    "131925.406000",
    "131927.405000",
    "131929.404000",
    "131931.405000",
    "131933.405000",
    "131935.404000",
    "131937.405000",
    "131939.404000",
    "131941.405000",
    "131943.405000",
    "131945.405000",
    "131947.404000",
    "131949.405000",
    "131951.404000",
    "131953.404000",
    "131955.405000",
    "131957.405000",
    "131959.405000",
    "132001.404000",
    "132003.405000",
    "132005.405000",
    "132007.404000",
    "132009.405000",
    "132011.405000",
    "132013.405000",
    "132015.406000",
    "132017.406000",
    "132019.405000",
    "132021.404000",
    "132023.404000",
    "132025.405000",
    "132027.405000",
    "132029.405000",
    "132031.405000",
    "132033.406000",
    "132035.406000",
    "132037.404000",
    "132039.405000",
    "132041.404000",
    "132043.404000",
    "132045.405000",
    "132047.404000",
    "132049.405000",
    "132051.406000",
    "132053.404000",
    "132055.404000",
    "132057.404000",
    "132059.405000",
    "132101.405000",
    "132103.405000",
    "132105.405000",
    "132107.406000",
    "132109.406000",
    "132111.405000",
    "132113.405000",
    "132115.405000",
    "132117.404000",
    "132119.405000",
    "132121.405000",
    "132123.405000",
    "132125.406000",
    "132127.406000",
    "132129.404000",
    "132131.405000",
    "132133.405000",
    "132135.405000",
    "132137.405000",
    "132139.405000",
    "132141.405000",
    "132143.406000",
    "132145.405000",
    "132147.405000",
    "132149.405000",
    "132151.405000",
    "132153.405000",
    "132155.405000",
    "132157.405000",
    "132159.405000",
    "132201.406000",
    "132203.405000",
    "132205.405000",
    "132207.405000",
    "132209.405000",
    "132211.405000",
    "132213.404000",
    "132215.405000",
    "132217.405000",
    "132219.406000",
    "132221.405000",
    "132223.405000",
    "132225.405000",
    "132227.404000",
    "132229.405000",
    "132231.405000",
    "132233.405000",
    "132235.406000",
    "132237.406000",
    "132239.405000",
    "132241.405000",
    "132243.405000",
    "132245.405000",
    "132247.405000",
    "132249.404000",
    "132251.405000",
    "132253.406000",
    "132255.406000",
    "132257.405000",
    "132259.405000",
    "132301.405000",
    "132303.405000",
    "132305.405000",
    "132307.405000",
    "132309.405000",
    "132311.406000",
    "132313.405000",
    "132315.405000",
    "132317.404000",
    "132319.405000",
    "132321.405000",
    "132323.405000",
    "132325.405000",
    "132327.406000",
    "132329.406000",
    "132331.405000",
    "132333.405000",
    "132335.405000",
    "132337.404000",
    "132339.405000",
    "132341.405000",
    "132343.412000",
    "132345.406000",
    "132346.963000"
   ],
   "InstanceCreationTime": [
    "131517.910000",
    "131519.405000",
    "131521.404000",
    "131523.405000",
    "131525.404000",
    "131527.404000",
    "131529.405000",
    "131531.404000",
    "131533.404000",
    "131535.405000",
    "131537.406000",
    "131539.405000",
    "131541.405000",
    "131543.404000",
    "131545.404000",
    "131547.404000",
    "131549.404000",
    "131551.405000",
    "131553.406000",
    "131555.406000",
    "131557.404000",
    "131559.405000",
    "131601.404000",
    "131603.404000",
    "131605.405000",
    "131607.404000",
    "131609.404000",
    "131611.406000",
    "131613.405000",
    "131615.405000",
    "131617.405000",
    "131619.405000",
    "131621.404000",
    "131623.405000",
    "131625.405000",
    "131627.404000",
    "131629.405000",
    "131631.405000",
    "131633.405000",
    "131635.405000",
    "131637.404000",
    "131639.405000",
    "131641.405000",
    "131643.404000",
    "131645.405000",
    "131647.405000",
    "131649.404000",
    "131651.404000",
    "131653.404000",
    "131655.405000",
    "131657.405000",
    "131659.405000",
    "131701.405000",
    "131703.406000",
    "131705.405000",
    "131707.405000",
    "131709.404000",
    "131711.405000",
    "131713.404000",
    "131715.404000",
    "131717.405000",
    "131719.405000",
    "131721.406000",
    "131723.404000",
    "131725.405000",
    "131727.405000",
    "131729.405000",
    "131731.404000",
    "131733.404000",
    "131735.405000",
    "131737.404000",
    "131739.405000",
    "131741.405000",
    "131743.404000",
    "131745.404000",
    "131747.404000",
    "131749.404000",
    "131751.404000",
    "131753.404000",
    "131755.406000",
    "131757.406000",
    "131759.404000",
    "131801.404000",
    "131803.404000",
    "131805.404000",
    "131807.404000",
    "131809.404000",
    "131811.405000",
    "131813.405000",
    "131815.406000",
    "131817.405000",
    "131819.405000",
    "131821.405000",
    "131823.405000",
    "131825.404000",
    "131827.405000",
    "131829.405000",
    "131831.406000",
    "131833.405000",
    "131835.405000",
    "131837.404000",
    "131839.405000",
    "131841.404000",
    "131843.405000",
    "131845.405000",
    "131847.405000",
    "131849.405000",
    "131851.405000",
    "131853.405000",
    "131855.405000",
    "131857.405000",
    "131859.405000",
    "131901.405000",
    "131903.405000",
    "131905.406000",
    "131907.406000",
    "131909.405000",
    "131911.405000",
    "131913.404000",
    "131915.405000",
    "131917.405000",
    "131919.405000",
    "131921.405000",
    "131923.406000",
    "131925.406000",
    "131927.405000",
    "131929.404000",
    "131931.405000",
    "131933.405000",
    "131935.404000",
    "131937.405000",
    "131939.404000",
    "131941.405000",
    "131943.405000",
    "131945.405000",
    "131947.404000",
    "131949.405000",
    "131951.404000",
    "131953.404000",
    "131955.405000",
    "131957.405000",
    "131959.405000",
    "132001.404000",
    "132003.405000",
    "132005.405000",
    "132007.404000",
    "132009.405000",
    "132011.405000",
    "132013.405000",
    "132015.406000",
    "132017.406000",
    "132019.405000",
    "132021.404000",
    "132023.404000",
    "132025.405000",
    "132027.405000",
    "132029.405000",
    "132031.405000",
    "132033.406000",
    "132035.406000",
    "132037.404000",
    "132039.405000",
    "132041.404000",
    "132043.404000",
    "132045.405000",
    "132047.404000",
    "132049.405000",
    "132051.406000",
    "132053.404000",
    "132055.404000",
    "132057.404000",
    "132059.405000",
    "132101.405000",
    "132103.405000",
    "132105.405000",
    "132107.406000",
    "132109.406000",
    "132111.405000",
    "132113.405000",
    "132115.405000",
    "132117.404000",
    "132119.405000",
    "132121.405000",
    "132123.405000",
    "132125.406000",
    "132127.406000",
    "132129.404000",
    "132131.405000",
    "132133.405000",
    "132135.405000",
    "132137.405000",
    "132139.405000",
    "132141.405000",
    "132143.406000",
    "132145.405000",
    "132147.405000",
    "132149.405000",
    "132151.405000",
    "132153.405000",
    "132155.405000",
    "132157.405000",
    "132159.405000",
    "132201.406000",
    "132203.405000",
    "132205.405000",
    "132207.405000",
    "132209.405000",
    "132211.405000",
    "132213.404000",
    "132215.405000",
    "132217.405000",
    "132219.406000",
    "132221.405000",
    "132223.405000",
    "132225.405000",
    "132227.404000",
    "132229.405000",
    "132231.405000",
    "132233.405000",
    "132235.406000",
    "132237.406000",
    "132239.405000",
    "132241.405000",
    "132243.405000",
    "132245.405000",
    "132247.405000",
    "132249.404000",
    "132251.405000",
    "132253.406000",
    "132255.406000",
    "132257.405000",
    "132259.405000",
    "132301.405000",
    "132303.405000",
    "132305.405000",
    "132307.405000",
    "132309.405000",
    "132311.406000",
    "132313.405000",
    "132315.405000",
    "132317.404000",
    "132319.405000",
    "132321.405000",
    "132323.405000",
    "132325.405000",
    "132327.406000",
    "132329.406000",
    "132331.405000",
    "132333.405000",
    "132335.405000",
    "132337.404000",
    "132339.405000",
    "132341.405000",
    "132343.412000",
    "132345.406000",
    "132346.963000"
   ],
   "InstanceNumber": [
    1,
    2,
    3,
    4,
    5,
    6,
    7,
    8,
    9,
    10,
    11,
    12,
    13,
    14,
    15,
    16,
    17,
    18,
    19,
    20,
    21,
    22,
    23,
    24,
    25,
    26,
    27,
    28,
    29,
    30,
    31,
    32,
    33,
    34,
    35,
    36,
    37,
    38,
    39,
    40,
    41,
    42,
    43,
    44,
    45,
    46,
    47,
    48,
    49,
    50,
    51,
    52,
    53,
    54,
    55,
    56,
    57,
    58,
    59,
    60,
    61,
    62,
    63,
    64,
    65,
    66,
    67,
    68,
    69,
    70,
    71,
    72,
    73,
    74,
    75,
    76,
    77,
    78,
    79,
    80,
    81,
    82,
    83,
    84,
    85,
    86,
    87,
    88,
    89,
    90,
    91,
    92,
    93,
    94,
    95,
    96,
    97,
    98,
    99,
    100,
    101,
    102,
    103,
    104,
    105,
    106,
    107,
    108,
    109,
    110,
    111,
    112,
    113,
    114,
    115,
    116,
    117,
    118,
    119,
    120,
    121,
    122,
    123,
    124,
    125,
    126,
    127,
    128,
    129,
    130,
    131,
    132,
    133,
    134,
    135,
    136,
    137,
    138,
    139,
    140,
    141,
    142,
    143,
    144,
    145,
    146,
    147,
    148,
    149,
    150,
    151,
    152,
    153,
    154,
    155,
    156,
    157,
    158,
    159,
    160,
    161,
    162,
    163,
    164,
    165,
    166,
    167,
    168,
    169,
    170,
    171,
    172,
    173,
    174,
    175,
    176,
    177,
    178,
    179,
    180,
    181,
    182,
    183,
    184,
    185,
    186,
    187,
    188,
    189,
    190,
    191,
    192,
    193,
    194,
    195,
    196,
    197,
    198,
    199,
    200,
    201,
    202,
    203,
    204,
    205,
    206,
    207,
    208,
    209,
    210,
    211,
    212,
    213,
    214,
    215,
    216,
    217,
    218,
    219,
    220,
    221,
    222,
    223,
    224,
    225,
    226,
    227,
    228,
    229,
    230,
    231,
    232,
    233,
    234,
    235,
    236,
    237,
    238,
    239,
    240,
    241,
    242,
    243,
    244,
    245,
    246,
    247,
    248,
    249,
    250,
    251,
    252,
    253,
    254,
    255,
    256
   ],
   "LargestImagePixelValue": [
    3430,
    3370,
    3341,
    3364,
    3300,
    3308,
    3321,
    3310,
    3339,
    3341,
    3372,
    3340,
    3336,
    3328,
    3307,
    3312,
    3316,
    3337,
    3345,
    3322,
    3324,
    3330,
    3311,
    3311,
    3287,
    3320,
    3303,
    3308,
    3300,
    3303,
    3318,
    3303,
    3323,
    3295,
    3341,
    3295,
    3276,
    3265,
    3272,
    3284,
    3301,
    3277,
    3288,
    3306,
    3273,
    3342,
    3290,
    3326,
    3297,
    3303,
    3293,
    3302,
    3291,
    3322,
    3291,
    3321,
    3318,
    3292,
    3365,
    3336,
    3398,
    3352,
    3314,
    3327,
    3286,
    3305,
    3293,
    3309,
    3292,
    3306,
    3277,
    3310,
    3282,
    3295,
    3353,
    3363,
    3333,
    3335,
    3330,
    3340,
    3354,
    3314,
    3305,
    3332,
    3328,
    3277,
    3337,
    3276,
    3293,
    3308,
    3308,
    3325,
    3322,
    3342,
    3345,
    3313,
    3328,
    3303,
    3346,
    3359,
    3316,
    3321,
    3331,
    3316,
    3318,
    3358,
    3374,
    3324,
    3335,
    3323,
    3379,
    3422,
    3317,
    3343,
    3354,
    3380,
    3329,
    3311,
    3324,
    3328,
    3326,
    3351,
    3351,
    3356,
    3383,
    3375,
    3357,
    3346,
    3369,
    3391,
    3381,
    3364,
    3410,
    3375,
    3430,
    3425,
    3435,
    3379,
    3392,
    3370,
    3326,
    3377,
    3368,
    3370,
    3408,
    3349,
    3347,
    3385,
    3351,
    3372,
    3336,
    3361,
    3357,
    3377,
    3358,
    3340,
    3368,
    3338,
    3383,
    3391,
    3396,
    3400,
    3433,
    3409,
    3403,
    3381,
    3391,
    3371,
    3381,
    3370,
    3382,
    3353,
    3380,
    3363,
    3407,
    3397,
    3387,
    3360,
    3386,
    3403,
    3415,
    3369,
    3416,
    3386,
    3390,
    3405,
    3417,
    3361,
    3395,
    3385,
    3395,
    3415,
    3393,
    3380,
    3377,
    3372,
    3433,
    3432,
    3442,
    3439,
    3400,
    3385,
    3390,
    3415,
    3393,
    3394,
    3404,
    3417,
    3435,
    3384,
    3424,
    3400,
    3409,
    3412,
    3418,
    3397,
    3401,
    3407,
    3425,
    3438,
    3420,
    3445,
    3456,
    3431,
    3453,
    3434,
    3433,
    3458,
    3465,
    3449,
    3453,
    3441,
    3444,
    3433,
    3407,
    3437,
    3392,
    3416,
    3419,
    3430,
    3448,
    3459,
    3442,
    3425,
    3431,
    3428,
    3422,
    3439,
    3410,
    3423,
    3400,
    3420,
    3428,
    3407,
    3456,
    3430
   ],
   "WindowCenter": [
    803.0,
    802.0,
    801.0,
    801.0,
    799.0,
    798.0,
    798.0,
    799.0,
    799.0,
    800.0,
    800.0,
    799.0,
    799.0,
    799.0,
    800.0,
    801.0,
    801.0,
    801.0,
    800.0,
    799.0,
    798.0,
    799.0,
    799.0,
    799.0,
    798.0,
    799.0,
    799.0,
    800.0,
    799.0,
    799.0,
    800.0,
    799.0,
    799.0,
    799.0,
    799.0,
    798.0,
    797.0,
    797.0,
    797.0,
    798.0,
    798.0,
    797.0,
    797.0,
    796.0,
    797.0,
    797.0,
    797.0,
    797.0,
    797.0,
    797.0,
    798.0,
    798.0,
    798.0,
    797.0,
    797.0,
    798.0,
    799.0,
    800.0,
    800.0,
    799.0,
    800.0,
    800.0,
    800.0,
    799.0,
    798.0,
    798.0,
    798.0,
    798.0,
    798.0,
    798.0,
    798.0,
    798.0,
    798.0,
    798.0,
    798.0,
    797.0,
    796.0,
    796.0,
    797.0,
    797.0,
    796.0,
    795.0,
    794.0,
    794.0,
    796.0,
    797.0,
    797.0,
    796.0,
    796.0,
    795.0,
    795.0,
    795.0,
    795.0,
    796.0,
    797.0,
    797.0,
    796.0,
    796.0,
    796.0,
    796.0,
    796.0,
    796.0,
    797.0,
    797.0,
    797.0,
    797.0,
    798.0,
    797.0,
    796.0,
    795.0,
    795.0,
    795.0,
    796.0,
    797.0,
    797.0,
    797.0,
    797.0,
    798.0,
    798.0,
    798.0,
    798.0,
    798.0,
    799.0,
    799.0,
    799.0,
    799.0,
    800.0,
