{
 "AcquisitionMatrixPE": 100,
 "AcquisitionNumber": 1,
 "AcquisitionTime": "13:05:36.582500",
 "BandwidthPerPixelPhaseEncode": 18.519,
 "BaseResolution": 100,
 "BodyPartExamined": "BRAIN",
 "ConsistencyInfo": "N4_VE11C_LATEST_20160120",
 "ConversionSoftware": "dcm2niix",
 "ConversionSoftwareVersion": "v1.0.20180622 GCC4.9.2",
 "DerivedVendorReportedEchoSpacing": 0.000539986,
 "DeviceSerialNumber": "166078",
 "DwellTime": 2.1e-06,
 "EchoTime": 0.034,
 "EchoTrainLength": 100,
 "EffectiveEchoSpacing": 0.000539986,
 "FlipAngle": 90,
 "ImageOrientationPatientDICOM": [
  1,
  0,
  0,
  0,
  0.996041,
  -0.0888943
 ],
 "ImageType": [
  "ORIGINAL",
  "PRIMARY",
  "M",
  "ND",
  "MOSAIC"
 ],
 "InPlanePhaseEncodingDirectionDICOM": "COL",
 "InstitutionAddress": "Street_StreetNo_Bei_Jing_District_CN_ZIP",
 "InstitutionName": "BeiJing_Normal_University",
 "InstitutionalDepartmentName": "Department",
 "MRAcquisitionType": "2D",
 "MagneticFieldStrength": 3,
 "Manufacturer": "Siemens",
 "ManufacturersModelName": "Prisma",
 "Modality": "MR",
 "MultibandAccelerationFactor": 3,
 "PartialFourier": 1,
 "PatientPosition": "HFS",
 "PercentPhaseFOV": 100,
 "PhaseEncodingDirection": "j-",
 "PhaseEncodingSteps": 100,
 "PhaseResolution": 1,
 "PixelBandwidth": 2380,
 "ProcedureStepDescription": "BNU_P2018_64CH_Zhen.ZongLei",
 "ProtocolName": "bold_100x100_s3_2x2x2_static_256",
 "PulseSequenceDetails": "%SiemensSeq%_ep2d_bold",
 "ReceiveCoilActiveElements": "HC1-7;NC1",
 "ReceiveCoilName": "HeadNeck_64",
 "ReconMatrixPE": 100,
 "RepetitionTime": 2,
 "SAR": 0.0666708,
 "ScanOptions": "FS",
 "ScanningSequence": "EP",
 "SequenceName": "_epfid2d1_100",
 "SequenceVariant": "SK",
 "SeriesDescription": "bold_100x100_s3_2x2x2_static_256",
 "SeriesNumber": 5,
 "ShimSetting": [
  -5448,
  -11505,
  -1247,
  313,
  -18,
  -263,
  -197,
  53
 ],
 "SliceThickness": 2,
 "SliceTiming": [
  1.485,
  0,
  0.99,
  0.0825,
  1.0725,
  0.165,
  1.155,
  0.2475,
  1.2375,
  0.33,
  1.32,
  0.4125,
  1.4025,
  0.5775,
  1.5675,
  0.66,
  1.65,
  0.7425,
  1.7325,
  0.825,
  1.815,
  0.9075,
  1.8975,
  0.495,
  1.485,
  0,
  0.99,
  0.0825,
  1.0725,
  0.165,
  1.155,
  0.2475,
  1.2375,
  0.33,
  1.32,
  0.4125,
  1.4025,
  0.5775,
  1.5675,
  0.66,
  1.65,
  0.7425,
  1.7325,
  0.825,
  1.815,
  0.9075,
  1.8975,
  0.495,
  1.485,
  0,
  0.99,
  0.0825,
  1.0725,
  0.165,
  1.155,
  0.2475,
  1.2375,
  0.33,
  1.32,
  0.4125,
  1.4025,
  0.5775,
  1.5675,
  0.66,
  1.65,
  0.7425,
  1.7325,
  0.825,
  1.815,
  0.9075,
  1.8975,
  0.495
 ],
 "SoftwareVersions": "syngo_MR_E11",
 "SpacingBetweenSlices": 2,
 "StationName": "AWP166078",
 "TaskName": "imagenet",
 "TotalReadoutTime": 0.0534586,
 "TxRefAmp": 210.806,
 "dcmmeta_affine": [
  [
   -2.0,
   0.0,
   0.0,
   100.0
  ],
  [
   0.0,
   1.992082118988037,
   -0.17778858542442322,
   -92.80657958984375
  ],
  [
   0.0,
   0.17778858542442322,
   1.992082118988037,
   -66.89787292480469
  ],
  [
   0.0,
   0.0,
   0.0,
   1.0
  ]
 ],
 "dcmmeta_reorient_transform": [
  [
   0.0,
   -1.0,
   0.0,
   99.0
  ],
  [
   1.0,
   0.0,
   0.0,
   0.0
  ],
  [
   0.0,
   0.0,
   1.0,
   0.0
  ],
  [
   0.0,
   0.0,
   0.0,
   1.0
  ]
 ],
 "dcmmeta_shape": [
  100,
  100,
  72,
  256
 ],
 "dcmmeta_slice_dim": 2,
 "dcmmeta_version": 0.6,
 "global": {
  "const": {
   "AcquisitionMatrix": [
    100,
    0,
    0,
    100
   ],
   "AngioFlag": "N",
   "BitsAllocated": 16,
   "BitsStored": 12,
   "BodyPartExamined": "BRAIN",
   "Columns": 900,
   "EchoNumbers": 1,
   "EchoTime": 34.0,
   "EchoTrainLength": 100,
   "FlipAngle": 90.0,
   "HighBit": 11,
   "ImageOrientationPatient": [
    1.0,
    0.0,
    0.0,
    0.0,
    0.99604106564855,
    -0.0888942942022
   ],
   "ImagePositionPatient": [
    -900.0,
    -901.24240094008,
    21.818635076159
   ],
   "ImageType": [
    "ORIGINAL",
    "PRIMARY",
    "M",
    "ND",
    "MOSAIC"
   ],
   "ImagedNucleus": "1H",
   "ImagingFrequency": 123.257693,
   "InPlanePhaseEncodingDirection": "COL",
   "MRAcquisitionType": "2D",
   "MagneticFieldStrength": 3.0,
   "Manufacturer": "SIEMENS",
   "ManufacturerModelName": "Prisma",
   "Modality": "MR",
   "NumberOfAverages": 1.0,
   "NumberOfPhaseEncodingSteps": 100,
   "PercentPhaseFieldOfView": 100.0,
   "PercentSampling": 100.0,
   "PerformedProcedureStepStartTime": "124054.037000",
   "PhotometricInterpretation": "MONOCHROME2",
   "PixelBandwidth": 2380.0,
   "PixelRepresentation": 0,
   "PixelSpacing": [
    2.0,
    2.0
   ],
   "ProtocolName": "bold_100x100_s3_2x2x2_static_256",
   "RepetitionTime": 2000.0,
   "Rows": 900,
   "SAR": 0.06667083516362,
   "SamplesPerPixel": 1,
   "ScanOptions": "FS",
   "ScanningSequence": "EP",
   "SequenceName": "*epfid2d1_100",
   "SequenceVariant": "SK",
   "SeriesDescription": "bold_100x100_s3_2x2x2_static_256",
   "SeriesNumber": 5,
   "SeriesTime": "130539.445000",
   "SliceLocation": -58.3830506044,
   "SliceThickness": 2.0,
   "SmallestImagePixelValue": 0,
   "SoftwareVersions": "syngo MR E11",
   "SpacingBetweenSlices": 2.000000008252,
   "SpecificCharacterSet": "ISO_IR 100",
   "StudyID": "1",
   "StudyTime": "124053.962000",
   "TransmitCoilName": "Body",
   "VariableFlipAngleFlag": "N",
   "WindowCenterWidthExplanation": "Algo1",
   "dBdt": 0.0
  },
  "slices": {}
 },
 "time": {
  "samples": {
   "AcquisitionNumber": [
    1,
    2,
    3,
    4,
    5,
    6,
    7,
    8,
    9,
    10,
    11,
    12,
    13,
    14,
    15,
    16,
    17,
    18,
    19,
    20,
    21,
    22,
    23,
    24,
    25,
    26,
    27,
    28,
    29,
    30,
    31,
    32,
    33,
    34,
    35,
    36,
    37,
    38,
    39,
    40,
    41,
    42,
    43,
    44,
    45,
    46,
    47,
    48,
    49,
    50,
    51,
    52,
    53,
    54,
    55,
    56,
    57,
    58,
    59,
    60,
    61,
    62,
    63,
    64,
    65,
    66,
    67,
    68,
    69,
    70,
    71,
    72,
    73,
    74,
    75,
    76,
    77,
    78,
    79,
    80,
    81,
    82,
    83,
    84,
    85,
    86,
    87,
    88,
    89,
    90,
    91,
    92,
    93,
    94,
    95,
    96,
    97,
    98,
    99,
    100,
    101,
    102,
    103,
    104,
    105,
    106,
    107,
    108,
    109,
    110,
    111,
    112,
    113,
    114,
    115,
    116,
    117,
    118,
    119,
    120,
    121,
    122,
    123,
    124,
    125,
    126,
    127,
    128,
    129,
    130,
    131,
    132,
    133,
    134,
    135,
    136,
    137,
    138,
    139,
    140,
    141,
    142,
    143,
    144,
    145,
    146,
    147,
    148,
    149,
    150,
    151,
    152,
    153,
    154,
    155,
    156,
    157,
    158,
    159,
    160,
    161,
    162,
    163,
    164,
    165,
    166,
    167,
    168,
    169,
    170,
    171,
    172,
    173,
    174,
    175,
    176,
    177,
    178,
    179,
    180,
    181,
    182,
    183,
    184,
    185,
    186,
    187,
    188,
    189,
    190,
    191,
    192,
    193,
    194,
    195,
    196,
    197,
    198,
    199,
    200,
    201,
    202,
    203,
    204,
    205,
    206,
    207,
    208,
    209,
    210,
    211,
    212,
    213,
    214,
    215,
    216,
    217,
    218,
    219,
    220,
    221,
    222,
    223,
    224,
    225,
    226,
    227,
    228,
    229,
    230,
    231,
    232,
    233,
    234,
    235,
    236,
    237,
    238,
    239,
    240,
    241,
    242,
    243,
    244,
    245,
    246,
    247,
    248,
    249,
    250,
    251,
    252,
    253,
    254,
    255,
    256
   ],
   "AcquisitionTime": [
    "130536.582500",
    "130538.582500",
    "130540.582500",
    "130542.582500",
    "130544.582500",
    "130546.582500",
    "130548.582500",
    "130550.582500",
    "130552.582500",
    "130554.582500",
    "130556.582500",
    "130558.582500",
    "130600.582500",
    "130602.582500",
    "130604.582500",
    "130606.582500",
    "130608.582500",
    "130610.582500",
    "130612.582500",
    "130614.582500",
    "130616.582500",
    "130618.582500",
    "130620.582500",
    "130622.582500",
    "130624.582500",
    "130626.582500",
    "130628.582500",
    "130630.582500",
    "130632.582500",
    "130634.582500",
    "130636.582500",
    "130638.582500",
    "130640.582500",
    "130642.582500",
    "130644.582500",
    "130646.582500",
    "130648.582500",
    "130650.582500",
    "130652.582500",
    "130654.582500",
    "130656.582500",
    "130658.582500",
    "130700.582500",
    "130702.582500",
    "130704.582500",
    "130706.582500",
    "130708.582500",
    "130710.582500",
    "130712.582500",
    "130714.582500",
    "130716.582500",
    "130718.582500",
    "130720.582500",
    "130722.582500",
    "130724.582500",
    "130726.582500",
    "130728.582500",
    "130730.582500",
    "130732.582500",
    "130734.582500",
    "130736.582500",
    "130738.582500",
    "130740.582500",
    "130742.582500",
    "130744.582500",
    "130746.582500",
    "130748.582500",
    "130750.582500",
    "130752.582500",
    "130754.582500",
    "130756.582500",
    "130758.582500",
    "130800.582500",
    "130802.582500",
    "130804.582500",
    "130806.582500",
    "130808.582500",
    "130810.582500",
    "130812.582500",
    "130814.582500",
    "130816.582500",
    "130818.582500",
    "130820.582500",
    "130822.582500",
    "130824.582500",
    "130826.582500",
    "130828.582500",
    "130830.582500",
    "130832.582500",
    "130834.582500",
    "130836.582500",
    "130838.582500",
    "130840.582500",
    "130842.582500",
    "130844.582500",
    "130846.582500",
    "130848.582500",
    "130850.582500",
    "130852.582500",
    "130854.582500",
    "130856.582500",
    "130858.582500",
    "130900.582500",
    "130902.582500",
    "130904.582500",
    "130906.582500",
    "130908.582500",
    "130910.582500",
    "130912.582500",
    "130914.582500",
    "130916.582500",
    "130918.582500",
    "130920.582500",
    "130922.582500",
    "130924.582500",
    "130926.582500",
    "130928.582500",
    "130930.582500",
    "130932.582500",
    "130934.582500",
    "130936.582500",
    "130938.582500",
    "130940.582500",
    "130942.582500",
    "130944.582500",
    "130946.582500",
    "130948.582500",
    "130950.582500",
    "130952.582500",
    "130954.582500",
    "130956.582500",
    "130958.582500",
    "131000.582500",
    "131002.582500",
    "131004.582500",
    "131006.582500",
    "131008.582500",
    "131010.582500",
    "131012.582500",
    "131014.582500",
    "131016.582500",
    "131018.582500",
    "131020.582500",
    "131022.582500",
    "131024.582500",
    "131026.582500",
    "131028.582500",
    "131030.582500",
    "131032.582500",
    "131034.582500",
    "131036.582500",
    "131038.582500",
    "131040.582500",
    "131042.582500",
    "131044.582500",
    "131046.582500",
    "131048.582500",
    "131050.582500",
    "131052.582500",
    "131054.582500",
    "131056.582500",
    "131058.582500",
    "131100.582500",
    "131102.582500",
    "131104.582500",
    "131106.582500",
    "131108.582500",
    "131110.582500",
    "131112.582500",
    "131114.582500",
    "131116.582500",
    "131118.582500",
    "131120.582500",
    "131122.582500",
    "131124.582500",
    "131126.582500",
    "131128.582500",
    "131130.582500",
    "131132.582500",
    "131134.582500",
    "131136.582500",
    "131138.582500",
    "131140.582500",
    "131142.582500",
    "131144.582500",
    "131146.582500",
    "131148.582500",
    "131150.582500",
    "131152.582500",
    "131154.582500",
    "131156.582500",
    "131158.582500",
    "131200.582500",
    "131202.582500",
    "131204.582500",
    "131206.582500",
    "131208.582500",
    "131210.582500",
    "131212.582500",
    "131214.582500",
    "131216.582500",
    "131218.582500",
    "131220.582500",
    "131222.582500",
    "131224.582500",
    "131226.582500",
    "131228.582500",
    "131230.582500",
    "131232.582500",
    "131234.582500",
    "131236.582500",
    "131238.582500",
    "131240.582500",
    "131242.582500",
    "131244.582500",
    "131246.582500",
    "131248.582500",
    "131250.582500",
    "131252.582500",
    "131254.582500",
    "131256.582500",
    "131258.582500",
    "131300.582500",
    "131302.582500",
    "131304.582500",
    "131306.582500",
    "131308.582500",
    "131310.582500",
    "131312.582500",
    "131314.582500",
    "131316.582500",
    "131318.582500",
    "131320.582500",
    "131322.582500",
    "131324.582500",
    "131326.582500",
    "131328.582500",
    "131330.582500",
    "131332.582500",
    "131334.582500",
    "131336.582500",
    "131338.582500",
    "131340.582500",
    "131342.582500",
    "131344.582500",
    "131346.582500",
    "131348.582500",
    "131350.582500",
    "131352.582500",
    "131354.582500",
    "131356.582500",
    "131358.582500",
    "131400.582500",
    "131402.582500",
    "131404.582500",
    "131406.582500"
   ],
   "ContentTime": [
    "130539.448000",
    "130540.945000",
    "130542.945000",
    "130544.944000",
    "130546.945000",
    "130548.945000",
    "130550.944000",
    "130552.944000",
    "130554.944000",
    "130556.944000",
    "130558.945000",
    "130600.945000",
    "130602.945000",
    "130604.445000",
    "130606.945000",
    "130608.943000",
    "130610.944000",
    "130612.944000",
    "130614.944000",
    "130616.945000",
    "130618.944000",
    "130620.945000",
    "130622.944000",
    "130624.944000",
    "130626.944000",
    "130628.943000",
    "130630.943000",
    "130632.944000",
    "130634.944000",
    "130636.944000",
    "130638.944000",
    "130640.944000",
    "130642.943000",
    "130644.944000",
    "130646.944000",
    "130648.943000",
    "130650.945000",
    "130652.945000",
    "130654.945000",
    "130656.944000",
    "130658.945000",
    "130700.946000",
    "130702.944000",
    "130704.943000",
    "130706.944000",
    "130708.945000",
    "130710.944000",
    "130712.945000",
    "130714.945000",
    "130716.945000",
    "130718.944000",
    "130720.944000",
    "130722.944000",
    "130724.944000",
    "130726.944000",
    "130728.945000",
    "130730.945000",
    "130732.945000",
    "130734.945000",
    "130736.944000",
    "130738.944000",
    "130740.944000",
    "130742.944000",
    "130744.945000",
    "130746.945000",
    "130748.944000",
    "130750.944000",
    "130752.944000",
    "130754.944000",
    "130756.943000",
    "130758.944000",
    "130800.945000",
    "130802.945000",
    "130804.945000",
    "130806.945000",
    "130808.945000",
    "130810.944000",
    "130812.944000",
    "130814.944000",
    "130816.944000",
    "130818.944000",
    "130820.945000",
    "130822.945000",
    "130824.945000",
    "130826.945000",
    "130828.943000",
    "130830.944000",
    "130832.944000",
    "130834.944000",
    "130836.944000",
    "130838.944000",
    "130840.945000",
    "130842.945000",
    "130844.945000",
    "130846.943000",
    "130848.944000",
    "130850.944000",
    "130852.944000",
    "130854.945000",
    "130856.945000",
    "130858.945000",
    "130900.944000",
    "130902.943000",
    "130904.943000",
    "130906.944000",
    "130908.944000",
    "130910.945000",
    "130912.945000",
    "130914.945000",
    "130916.945000",
    "130918.945000",
    "130920.944000",
    "130922.944000",
    "130924.943000",
    "130926.944000",
    "130928.945000",
    "130930.945000",
    "130932.944000",
    "130934.945000",
    "130936.945000",
    "130938.944000",
    "130940.944000",
    "130942.944000",
    "130944.944000",
    "130946.944000",
    "130948.945000",
    "130950.945000",
    "130952.944000",
    "130954.945000",
    "130956.943000",
    "130958.944000",
    "131000.944000",
    "131002.944000",
    "131004.945000",
    "131006.945000",
    "131008.945000",
    "131010.944000",
    "131012.944000",
    "131014.944000",
    "131016.943000",
    "131018.944000",
    "131020.945000",
    "131022.945000",
    "131024.945000",
    "131026.945000",
    "131028.944000",
    "131030.944000",
    "131032.943000",
    "131034.944000",
    "131036.943000",
    "131038.945000",
    "131040.945000",
    "131042.945000",
    "131044.945000",
    "131046.945000",
    "131048.946000",
    "131050.944000",
    "131052.944000",
    "131054.944000",
    "131056.945000",
    "131058.945000",
    "131100.945000",
    "131102.945000",
    "131104.944000",
    "131106.944000",
    "131108.944000",
    "131110.944000",
    "131112.945000",
    "131114.945000",
    "131116.944000",
    "131118.945000",
    "131120.945000",
    "131122.944000",
    "131124.944000",
    "131126.944000",
    "131128.944000",
    "131130.944000",
    "131132.945000",
    "131134.945000",
    "131136.945000",
    "131138.945000",
    "131140.943000",
    "131142.943000",
    "131144.943000",
    "131146.944000",
    "131148.944000",
    "131150.945000",
    "131152.945000",
    "131154.945000",
    "131156.945000",
    "131158.944000",
    "131200.944000",
    "131202.943000",
    "131204.943000",
    "131206.945000",
    "131208.945000",
    "131210.945000",
    "131212.945000",
    "131214.945000",
    "131216.944000",
    "131218.944000",
    "131220.944000",
    "131222.945000",
    "131224.945000",
    "131226.945000",
    "131228.945000",
    "131230.945000",
    "131232.944000",
    "131234.943000",
    "131236.944000",
    "131238.944000",
    "131240.945000",
    "131242.945000",
    "131244.944000",
    "131246.944000",
    "131248.944000",
    "131250.944000",
    "131252.944000",
    "131254.944000",
    "131256.944000",
    "131258.945000",
    "131300.945000",
    "131302.945000",
    "131304.945000",
    "131306.944000",
    "131308.944000",
    "131310.944000",
    "131312.944000",
    "131314.944000",
    "131316.945000",
    "131318.945000",
    "131320.945000",
    "131322.945000",
    "131324.945000",
    "131326.944000",
    "131328.944000",
    "131330.943000",
    "131332.944000",
    "131334.945000",
    "131336.945000",
    "131338.944000",
    "131340.945000",
    "131342.958000",
    "131344.943000",
    "131346.943000",
    "131348.943000",
    "131350.945000",
    "131352.945000",
    "131354.945000",
    "131356.944000",
    "131358.945000",
    "131400.943000",
    "131402.944000",
    "131404.944000",
    "131406.944000",
    "131408.456000"
   ],
   "InstanceCreationTime": [
    "130539.448000",
    "130540.945000",
    "130542.945000",
    "130544.944000",
    "130546.945000",
    "130548.945000",
    "130550.944000",
    "130552.944000",
    "130554.944000",
    "130556.944000",
    "130558.945000",
    "130600.945000",
    "130602.945000",
    "130604.445000",
    "130606.945000",
    "130608.943000",
    "130610.944000",
    "130612.944000",
    "130614.944000",
    "130616.945000",
    "130618.944000",
    "130620.945000",
    "130622.944000",
    "130624.944000",
    "130626.944000",
    "130628.943000",
    "130630.943000",
    "130632.944000",
    "130634.944000",
    "130636.944000",
    "130638.944000",
    "130640.944000",
    "130642.943000",
    "130644.944000",
    "130646.944000",
    "130648.943000",
    "130650.945000",
    "130652.945000",
    "130654.945000",
    "130656.944000",
    "130658.945000",
    "130700.946000",
    "130702.944000",
    "130704.943000",
    "130706.944000",
    "130708.945000",
    "130710.944000",
    "130712.945000",
    "130714.945000",
    "130716.945000",
    "130718.944000",
    "130720.944000",
    "130722.944000",
    "130724.944000",
    "130726.944000",
    "130728.945000",
    "130730.945000",
    "130732.945000",
    "130734.945000",
    "130736.944000",
    "130738.944000",
    "130740.944000",
    "130742.944000",
    "130744.945000",
    "130746.945000",
    "130748.944000",
    "130750.944000",
    "130752.944000",
    "130754.944000",
    "130756.943000",
    "130758.944000",
    "130800.945000",
    "130802.945000",
    "130804.945000",
    "130806.945000",
    "130808.945000",
    "130810.944000",
    "130812.944000",
    "130814.944000",
    "130816.944000",
    "130818.944000",
    "130820.945000",
    "130822.945000",
    "130824.945000",
    "130826.945000",
    "130828.943000",
    "130830.944000",
    "130832.944000",
    "130834.944000",
    "130836.944000",
    "130838.944000",
    "130840.945000",
    "130842.945000",
    "130844.945000",
    "130846.943000",
    "130848.944000",
    "130850.944000",
    "130852.944000",
    "130854.945000",
    "130856.945000",
    "130858.945000",
    "130900.944000",
    "130902.943000",
    "130904.943000",
    "130906.944000",
    "130908.944000",
    "130910.945000",
    "130912.945000",
    "130914.945000",
    "130916.945000",
    "130918.945000",
    "130920.944000",
    "130922.944000",
    "130924.943000",
    "130926.944000",
    "130928.945000",
    "130930.945000",
    "130932.944000",
    "130934.945000",
    "130936.945000",
    "130938.944000",
    "130940.944000",
    "130942.944000",
    "130944.944000",
    "130946.944000",
    "130948.945000",
    "130950.945000",
    "130952.944000",
    "130954.945000",
    "130956.943000",
    "130958.944000",
    "131000.944000",
    "131002.944000",
    "131004.945000",
    "131006.945000",
    "131008.945000",
    "131010.944000",
    "131012.944000",
    "131014.944000",
    "131016.943000",
    "131018.944000",
    "131020.945000",
    "131022.945000",
    "131024.945000",
    "131026.945000",
    "131028.944000",
    "131030.944000",
    "131032.943000",
    "131034.944000",
    "131036.943000",
    "131038.945000",
    "131040.945000",
    "131042.945000",
    "131044.945000",
    "131046.945000",
    "131048.946000",
    "131050.944000",
    "131052.944000",
    "131054.944000",
    "131056.945000",
    "131058.945000",
    "131100.945000",
    "131102.945000",
    "131104.944000",
    "131106.944000",
    "131108.944000",
    "131110.944000",
    "131112.945000",
    "131114.945000",
    "131116.944000",
    "131118.945000",
    "131120.945000",
    "131122.944000",
    "131124.944000",
    "131126.944000",
    "131128.944000",
    "131130.944000",
    "131132.945000",
    "131134.945000",
    "131136.945000",
    "131138.945000",
    "131140.943000",
    "131142.943000",
    "131144.943000",
    "131146.944000",
    "131148.944000",
    "131150.945000",
    "131152.945000",
    "131154.945000",
    "131156.945000",
    "131158.944000",
    "131200.944000",
    "131202.943000",
    "131204.943000",
    "131206.945000",
    "131208.945000",
    "131210.945000",
    "131212.945000",
    "131214.945000",
    "131216.944000",
    "131218.944000",
    "131220.944000",
    "131222.945000",
    "131224.945000",
    "131226.945000",
    "131228.945000",
    "131230.945000",
    "131232.944000",
    "131234.943000",
    "131236.944000",
    "131238.944000",
    "131240.945000",
    "131242.945000",
    "131244.944000",
    "131246.944000",
    "131248.944000",
    "131250.944000",
    "131252.944000",
    "131254.944000",
    "131256.944000",
    "131258.945000",
    "131300.945000",
    "131302.945000",
    "131304.945000",
    "131306.944000",
    "131308.944000",
    "131310.944000",
    "131312.944000",
    "131314.944000",
    "131316.945000",
    "131318.945000",
    "131320.945000",
    "131322.945000",
    "131324.945000",
    "131326.944000",
    "131328.944000",
    "131330.943000",
    "131332.944000",
    "131334.945000",
    "131336.945000",
    "131338.944000",
    "131340.945000",
    "131342.958000",
    "131344.943000",
    "131346.943000",
    "131348.943000",
    "131350.945000",
    "131352.945000",
    "131354.945000",
    "131356.944000",
    "131358.945000",
    "131400.943000",
    "131402.944000",
    "131404.944000",
    "131406.944000",
    "131408.456000"
   ],
   "InstanceNumber": [
    1,
    2,
    3,
    4,
    5,
    6,
    7,
    8,
    9,
    10,
    11,
    12,
    13,
    14,
    15,
    16,
    17,
    18,
    19,
    20,
    21,
    22,
    23,
    24,
    25,
    26,
    27,
    28,
    29,
    30,
    31,
    32,
    33,
    34,
    35,
    36,
    37,
    38,
    39,
    40,
    41,
    42,
    43,
    44,
    45,
    46,
    47,
    48,
    49,
    50,
    51,
    52,
    53,
    54,
    55,
    56,
    57,
    58,
    59,
    60,
    61,
    62,
    63,
    64,
    65,
    66,
    67,
    68,
    69,
    70,
    71,
    72,
    73,
    74,
    75,
    76,
    77,
    78,
    79,
    80,
    81,
    82,
    83,
    84,
    85,
    86,
    87,
    88,
    89,
    90,
    91,
    92,
    93,
    94,
    95,
    96,
    97,
    98,
    99,
    100,
    101,
    102,
    103,
    104,
    105,
    106,
    107,
    108,
    109,
    110,
    111,
    112,
    113,
    114,
    115,
    116,
    117,
    118,
    119,
    120,
    121,
    122,
    123,
    124,
    125,
    126,
    127,
    128,
    129,
    130,
    131,
    132,
    133,
    134,
    135,
    136,
    137,
    138,
    139,
    140,
    141,
    142,
    143,
    144,
    145,
    146,
    147,
    148,
    149,
    150,
    151,
    152,
    153,
    154,
    155,
    156,
    157,
    158,
    159,
    160,
    161,
    162,
    163,
    164,
    165,
    166,
    167,
    168,
    169,
    170,
    171,
    172,
    173,
    174,
    175,
    176,
    177,
    178,
    179,
    180,
    181,
    182,
    183,
    184,
    185,
    186,
    187,
    188,
    189,
    190,
    191,
    192,
    193,
    194,
    195,
    196,
    197,
    198,
    199,
    200,
    201,
    202,
    203,
    204,
    205,
    206,
    207,
    208,
    209,
    210,
    211,
    212,
    213,
    214,
    215,
    216,
    217,
    218,
    219,
    220,
    221,
    222,
    223,
    224,
    225,
    226,
    227,
    228,
    229,
    230,
    231,
    232,
    233,
    234,
    235,
    236,
    237,
    238,
    239,
    240,
    241,
    242,
    243,
    244,
    245,
    246,
    247,
    248,
    249,
    250,
    251,
    252,
    253,
    254,
    255,
    256
   ],
   "LargestImagePixelValue": [
    3440,
    3405,
    3321,
    3347,
    3354,
    3368,
    3370,
    3391,
    3335,
    3334,
    3313,
    3334,
    3354,
    3279,
    3382,
    3346,
    3313,
    3385,
    3329,
    3395,
    3317,
    3346,
    3323,
    3361,
    3315,
    3339,
    3298,
    3383,
    3376,
    3339,
    3311,
    3325,
    3417,
    3336,
    3314,
    3299,
    3303,
    3350,
    3338,
    3354,
    3333,
    3357,
    3299,
    3338,
    3300,
    3334,
    3379,
    3326,
    3305,
    3346,
    3291,
    3363,
    3388,
    3359,
    3382,
    3378,
    3368,
    3341,
    3320,
    3364,
    3326,
    3355,
    3360,
    3396,
    3330,
    3382,
    3335,
    3390,
    3301,
    3345,
    3333,
    3398,
    3359,
    3432,
    3375,
    3327,
    3333,
    3292,
    3323,
    3296,
    3358,
    3310,
    3364,
    3347,
    3335,
    3353,
    3349,
    3463,
    3412,
    3447,
    3330,
    3317,
    3313,
    3384,
    3326,
    3339,
    3313,
    3307,
    3299,
    3292,
    3295,
    3327,
    3349,
    3381,
    3348,
    3472,
    3400,
    3416,
    3369,
    3409,
    3380,
    3424,
    3377,
    3406,
    3341,
    3356,
    3416,
    3430,
    3391,
    3433,
    3384,
    3357,
    3352,
    3446,
    3310,
    3356,
    3370,
    3370,
    3367,
    3336,
    3322,
    3340,
    3291,
    3299,
    3371,
    3276,
    3400,
    3369,
    3351,
    3384,
    3312,
    3298,
    3298,
    3338,
    3440,
    3423,
    3369,
    3445,
    3407,
    3392,
    3367,
    3402,
    3427,
    3449,
    3349,
    3440,
    3380,
    3414,
    3428,
    3434,
    3387,
    3407,
    3282,
    3346,
    3339,
    3342,
    3392,
    3392,
    3391,
    3498,
    3377,
    3424,
    3375,
    3398,
    3355,
    3349,
    3311,
    3331,
    3334,
    3322,
    3307,
    3407,
    3383,
    3380,
    3394,
    3457,
    3463,
    3455,
    3403,
    3372,
    3412,
    3339,
    3314,
    3348,
    3318,
    3399,
    3335,
    3398,
    3386,
    3452,
    3390,
    3356,
    3351,
    3411,
    3365,
    3505,
    3394,
    3385,
    3364,
    3363,
    3336,
    3382,
    3317,
    3367,
    3303,
    3407,
    3342,
    3362,
    3337,
    3309,
    3320,
    3358,
    3310,
    3383,
    3359,
    3500,
    3439,
    3413,
    3350,
    3362,
    3323,
    3346,
    3325,
    3339,
    3282,
    3369,
    3316,
    3339,
    3295,
    3432,
    3442,
    3416,
    3384,
    3421,
    3321,
    3331,
    3298,
    3303,
    3365,
    3357,
    3317,
    3311,
    3372,
    3336,
    3290,
    3302
   ],
   "WindowCenter": [
    803.0,
    801.0,
    799.0,
    799.0,
    799.0,
    800.0,
    800.0,
    799.0,
    798.0,
    797.0,
    797.0,
    798.0,
    799.0,
    798.0,
    799.0,
    799.0,
    800.0,
    801.0,
    800.0,
    800.0,
    799.0,
    799.0,
    799.0,
    798.0,
    798.0,
    798.0,
    797.0,
    798.0,
    799.0,
    798.0,
    797.0,
    797.0,
    798.0,
    798.0,
    797.0,
    798.0,
    798.0,
    799.0,
    798.0,
    799.0,
    799.0,
    800.0,
    798.0,
    797.0,
    797.0,
    798.0,
    798.0,
    797.0,
    797.0,
    796.0,
    797.0,
    798.0,
    799.0,
    799.0,
    800.0,
    800.0,
    798.0,
    797.0,
    797.0,
    797.0,
    797.0,
    798.0,
    799.0,
    799.0,
    798.0,
    798.0,
    798.0,
    798.0,
    797.0,
    797.0,
    798.0,
    798.0,
    798.0,
    799.0,
    798.0,
    798.0,
    797.0,
    797.0,
    798.0,
    798.0,
    798.0,
    798.0,
    799.0,
    799.0,
    799.0,
    799.0,
    799.0,
    800.0,
    800.0,
    801.0,
    800.0,
    799.0,
    797.0,
    798.0,
    797.0,
    798.0,
    798.0,
    798.0,
    797.0,
    797.0,
    796.0,
    797.0,
    797.0,
    797.0,
    797.0,
    798.0,
    797.0,
    798.0,
    798.0,
    799.0,
    798.0,
    798.0,
    798.0,
    799.0,
    799.0,
    800.0,
    800.0,
    799.0,
    798.0,
    799.0,
    799.0,
    798.0,
    798.0,
    797.0,
    796.0,
    798.0,
    798.0,
