{
 "AcquisitionMatrixPE": 100,
 "AcquisitionNumber": 1,
 "AcquisitionTime": "13:24:35.172500",
 "BandwidthPerPixelPhaseEncode": 18.519,
 "BaseResolution": 100,
 "BodyPartExamined": "BRAIN",
 "ConsistencyInfo": "N4_VE11C_LATEST_20160120",
 "ConversionSoftware": "dcm2niix",
 "ConversionSoftwareVersion": "v1.0.20180622 GCC4.9.2",
 "DerivedVendorReportedEchoSpacing": 0.000539986,
 "DeviceSerialNumber": "166078",
 "DwellTime": 2.1e-06,
 "EchoTime": 0.034,
 "EchoTrainLength": 100,
 "EffectiveEchoSpacing": 0.000539986,
 "FlipAngle": 90,
 "ImageOrientationPatientDICOM": [
  1,
  0,
  0,
  0,
  0.996041,
  -0.0888943
 ],
 "ImageType": [
  "ORIGINAL",
  "PRIMARY",
  "M",
  "ND",
  "MOSAIC"
 ],
 "InPlanePhaseEncodingDirectionDICOM": "COL",
 "InstitutionAddress": "Street_StreetNo_Bei_Jing_District_CN_ZIP",
 "InstitutionName": "BeiJing_Normal_University",
 "InstitutionalDepartmentName": "Department",
 "MRAcquisitionType": "2D",
 "MagneticFieldStrength": 3,
 "Manufacturer": "Siemens",
 "ManufacturersModelName": "Prisma",
 "Modality": "MR",
 "MultibandAccelerationFactor": 3,
 "PartialFourier": 1,
 "PatientPosition": "HFS",
 "PercentPhaseFOV": 100,
 "PhaseEncodingDirection": "j-",
 "PhaseEncodingSteps": 100,
 "PhaseResolution": 1,
 "PixelBandwidth": 2380,
 "ProcedureStepDescription": "BNU_P2018_64CH_Zhen.ZongLei",
 "ProtocolName": "bold_100x100_s3_2x2x2_static_256",
 "PulseSequenceDetails": "%SiemensSeq%_ep2d_bold",
 "ReceiveCoilActiveElements": "HC1-7;NC1",
 "ReceiveCoilName": "HeadNeck_64",
 "ReconMatrixPE": 100,
 "RepetitionTime": 2,
 "SAR": 0.0666708,
 "ScanOptions": "FS",
 "ScanningSequence": "EP",
 "SequenceName": "_epfid2d1_100",
 "SequenceVariant": "SK",
 "SeriesDescription": "bold_100x100_s3_2x2x2_static_256",
 "SeriesNumber": 7,
 "ShimSetting": [
  -5448,
  -11505,
  -1247,
  313,
  -18,
  -263,
  -197,
  53
 ],
 "SliceThickness": 2,
 "SliceTiming": [
  1.485,
  0,
  0.99,
  0.0825,
  1.0725,
  0.165,
  1.155,
  0.2475,
  1.2375,
  0.33,
  1.32,
  0.4125,
  1.4025,
  0.5775,
  1.5675,
  0.66,
  1.65,
  0.7425,
  1.7325,
  0.825,
  1.815,
  0.9075,
  1.8975,
  0.495,
  1.485,
  0,
  0.99,
  0.0825,
  1.0725,
  0.165,
  1.155,
  0.2475,
  1.2375,
  0.33,
  1.32,
  0.4125,
  1.4025,
  0.5775,
  1.5675,
  0.66,
  1.65,
  0.7425,
  1.7325,
  0.825,
  1.815,
  0.9075,
  1.8975,
  0.495,
  1.485,
  0,
  0.99,
  0.0825,
  1.0725,
  0.165,
  1.155,
  0.2475,
  1.2375,
  0.33,
  1.32,
  0.4125,
  1.4025,
  0.5775,
  1.5675,
  0.66,
  1.65,
  0.7425,
  1.7325,
  0.825,
  1.815,
  0.9075,
  1.8975,
  0.495
 ],
 "SoftwareVersions": "syngo_MR_E11",
 "SpacingBetweenSlices": 2,
 "StationName": "AWP166078",
 "TaskName": "imagenet",
 "TotalReadoutTime": 0.0534586,
 "TxRefAmp": 210.806,
 "dcmmeta_affine": [
  [
   -2.0,
   0.0,
   0.0,
   100.0
  ],
  [
   0.0,
   1.992082118988037,
   -0.17778858542442322,
   -92.80657958984375
  ],
  [
   0.0,
   0.17778858542442322,
   1.992082118988037,
   -66.89787292480469
  ],
  [
   0.0,
   0.0,
   0.0,
   1.0
  ]
 ],
 "dcmmeta_reorient_transform": [
  [
   0.0,
   -1.0,
   0.0,
   99.0
  ],
  [
   1.0,
   0.0,
   0.0,
   0.0
  ],
  [
   0.0,
   0.0,
   1.0,
   0.0
  ],
  [
   0.0,
   0.0,
   0.0,
   1.0
  ]
 ],
 "dcmmeta_shape": [
  100,
  100,
  72,
  256
 ],
 "dcmmeta_slice_dim": 2,
 "dcmmeta_version": 0.6,
 "global": {
  "const": {
   "AcquisitionMatrix": [
    100,
    0,
    0,
    100
   ],
   "AngioFlag": "N",
   "BitsAllocated": 16,
   "BitsStored": 12,
   "BodyPartExamined": "BRAIN",
   "Columns": 900,
   "EchoNumbers": 1,
   "EchoTime": 34.0,
   "EchoTrainLength": 100,
   "FlipAngle": 90.0,
   "HighBit": 11,
   "ImageOrientationPatient": [
    1.0,
    0.0,
    0.0,
    0.0,
    0.99604106564855,
    -0.0888942942022
   ],
   "ImagePositionPatient": [
    -900.0,
    -901.24240094008,
    21.818635076159
   ],
   "ImageType": [
    "ORIGINAL",
    "PRIMARY",
    "M",
    "ND",
    "MOSAIC"
   ],
   "ImagedNucleus": "1H",
   "ImagingFrequency": 123.257703,
   "InPlanePhaseEncodingDirection": "COL",
   "MRAcquisitionType": "2D",
   "MagneticFieldStrength": 3.0,
   "Manufacturer": "SIEMENS",
   "ManufacturerModelName": "Prisma",
   "Modality": "MR",
   "NumberOfAverages": 1.0,
   "NumberOfPhaseEncodingSteps": 100,
   "PercentPhaseFieldOfView": 100.0,
   "PercentSampling": 100.0,
   "PerformedProcedureStepStartTime": "124054.037000",
   "PhotometricInterpretation": "MONOCHROME2",
   "PixelBandwidth": 2380.0,
   "PixelRepresentation": 0,
   "PixelSpacing": [
    2.0,
    2.0
   ],
   "ProtocolName": "bold_100x100_s3_2x2x2_static_256",
   "RepetitionTime": 2000.0,
   "Rows": 900,
   "SAR": 0.06667083516362,
   "SamplesPerPixel": 1,
   "ScanOptions": "FS",
   "ScanningSequence": "EP",
   "SequenceName": "*epfid2d1_100",
   "SequenceVariant": "SK",
   "SeriesDescription": "bold_100x100_s3_2x2x2_static_256",
   "SeriesNumber": 7,
   "SeriesTime": "132438.157000",
   "SliceLocation": -58.3830506044,
   "SliceThickness": 2.0,
   "SmallestImagePixelValue": 0,
   "SoftwareVersions": "syngo MR E11",
   "SpacingBetweenSlices": 2.000000008252,
   "SpecificCharacterSet": "ISO_IR 100",
   "StudyID": "1",
   "StudyTime": "124053.962000",
   "TransmitCoilName": "Body",
   "VariableFlipAngleFlag": "N",
   "WindowCenterWidthExplanation": "Algo1",
   "dBdt": 0.0
  },
  "slices": {}
 },
 "time": {
  "samples": {
   "AcquisitionNumber": [
    1,
    2,
    3,
    4,
    5,
    6,
    7,
    8,
    9,
    10,
    11,
    12,
    13,
    14,
    15,
    16,
    17,
    18,
    19,
    20,
    21,
    22,
    23,
    24,
    25,
    26,
    27,
    28,
    29,
    30,
    31,
    32,
    33,
    34,
    35,
    36,
    37,
    38,
    39,
    40,
    41,
    42,
    43,
    44,
    45,
    46,
    47,
    48,
    49,
    50,
    51,
    52,
    53,
    54,
    55,
    56,
    57,
    58,
    59,
    60,
    61,
    62,
    63,
    64,
    65,
    66,
    67,
    68,
    69,
    70,
    71,
    72,
    73,
    74,
    75,
    76,
    77,
    78,
    79,
    80,
    81,
    82,
    83,
    84,
    85,
    86,
    87,
    88,
    89,
    90,
    91,
    92,
    93,
    94,
    95,
    96,
    97,
    98,
    99,
    100,
    101,
    102,
    103,
    104,
    105,
    106,
    107,
    108,
    109,
    110,
    111,
    112,
    113,
    114,
    115,
    116,
    117,
    118,
    119,
    120,
    121,
    122,
    123,
    124,
    125,
    126,
    127,
    128,
    129,
    130,
    131,
    132,
    133,
    134,
    135,
    136,
    137,
    138,
    139,
    140,
    141,
    142,
    143,
    144,
    145,
    146,
    147,
    148,
    149,
    150,
    151,
    152,
    153,
    154,
    155,
    156,
    157,
    158,
    159,
    160,
    161,
    162,
    163,
    164,
    165,
    166,
    167,
    168,
    169,
    170,
    171,
    172,
    173,
    174,
    175,
    176,
    177,
    178,
    179,
    180,
    181,
    182,
    183,
    184,
    185,
    186,
    187,
    188,
    189,
    190,
    191,
    192,
    193,
    194,
    195,
    196,
    197,
    198,
    199,
    200,
    201,
    202,
    203,
    204,
    205,
    206,
    207,
    208,
    209,
    210,
    211,
    212,
    213,
    214,
    215,
    216,
    217,
    218,
    219,
    220,
    221,
    222,
    223,
    224,
    225,
    226,
    227,
    228,
    229,
    230,
    231,
    232,
    233,
    234,
    235,
    236,
    237,
    238,
    239,
    240,
    241,
    242,
    243,
    244,
    245,
    246,
    247,
    248,
    249,
    250,
    251,
    252,
    253,
    254,
    255,
    256
   ],
   "AcquisitionTime": [
    "132435.172500",
    "132437.172500",
    "132439.172500",
    "132441.172500",
    "132443.172500",
    "132445.172500",
    "132447.172500",
    "132449.172500",
    "132451.172500",
    "132453.172500",
    "132455.172500",
    "132457.172500",
    "132459.172500",
    "132501.172500",
    "132503.172500",
    "132505.172500",
    "132507.172500",
    "132509.172500",
    "132511.172500",
    "132513.172500",
    "132515.172500",
    "132517.172500",
    "132519.172500",
    "132521.172500",
    "132523.172500",
    "132525.172500",
    "132527.172500",
    "132529.172500",
    "132531.172500",
    "132533.172500",
    "132535.172500",
    "132537.172500",
    "132539.172500",
    "132541.172500",
    "132543.172500",
    "132545.172500",
    "132547.172500",
    "132549.172500",
    "132551.172500",
    "132553.172500",
    "132555.172500",
    "132557.172500",
    "132559.172500",
    "132601.172500",
    "132603.172500",
    "132605.172500",
    "132607.172500",
    "132609.172500",
    "132611.172500",
    "132613.172500",
    "132615.172500",
    "132617.172500",
    "132619.172500",
    "132621.172500",
    "132623.172500",
    "132625.172500",
    "132627.172500",
    "132629.172500",
    "132631.172500",
    "132633.172500",
    "132635.172500",
    "132637.172500",
    "132639.172500",
    "132641.172500",
    "132643.172500",
    "132645.172500",
    "132647.172500",
    "132649.172500",
    "132651.172500",
    "132653.172500",
    "132655.172500",
    "132657.172500",
    "132659.172500",
    "132701.172500",
    "132703.172500",
    "132705.172500",
    "132707.172500",
    "132709.172500",
    "132711.172500",
    "132713.172500",
    "132715.172500",
    "132717.172500",
    "132719.172500",
    "132721.172500",
    "132723.172500",
    "132725.172500",
    "132727.172500",
    "132729.172500",
    "132731.172500",
    "132733.172500",
    "132735.172500",
    "132737.172500",
    "132739.172500",
    "132741.172500",
    "132743.172500",
    "132745.172500",
    "132747.172500",
    "132749.172500",
    "132751.172500",
    "132753.172500",
    "132755.172500",
    "132757.172500",
    "132759.172500",
    "132801.172500",
    "132803.172500",
    "132805.172500",
    "132807.172500",
    "132809.172500",
    "132811.172500",
    "132813.172500",
    "132815.172500",
    "132817.172500",
    "132819.172500",
    "132821.172500",
    "132823.172500",
    "132825.172500",
    "132827.172500",
    "132829.172500",
    "132831.172500",
    "132833.172500",
    "132835.172500",
    "132837.172500",
    "132839.172500",
    "132841.172500",
    "132843.172500",
    "132845.172500",
    "132847.172500",
    "132849.172500",
    "132851.172500",
    "132853.172500",
    "132855.172500",
    "132857.172500",
    "132859.172500",
    "132901.172500",
    "132903.172500",
    "132905.172500",
    "132907.172500",
    "132909.172500",
    "132911.172500",
    "132913.172500",
    "132915.172500",
    "132917.172500",
    "132919.172500",
    "132921.172500",
    "132923.172500",
    "132925.172500",
    "132927.172500",
    "132929.172500",
    "132931.172500",
    "132933.172500",
    "132935.172500",
    "132937.172500",
    "132939.172500",
    "132941.172500",
    "132943.172500",
    "132945.172500",
    "132947.172500",
    "132949.172500",
    "132951.172500",
    "132953.172500",
    "132955.172500",
    "132957.172500",
    "132959.172500",
    "133001.172500",
    "133003.172500",
    "133005.172500",
    "133007.172500",
    "133009.172500",
    "133011.172500",
    "133013.172500",
    "133015.172500",
    "133017.172500",
    "133019.172500",
    "133021.172500",
    "133023.172500",
    "133025.172500",
    "133027.172500",
    "133029.172500",
    "133031.172500",
    "133033.172500",
    "133035.172500",
    "133037.172500",
    "133039.172500",
    "133041.172500",
    "133043.172500",
    "133045.172500",
    "133047.172500",
    "133049.172500",
    "133051.172500",
    "133053.172500",
    "133055.172500",
    "133057.172500",
    "133059.172500",
    "133101.172500",
    "133103.172500",
    "133105.172500",
    "133107.172500",
    "133109.172500",
    "133111.172500",
    "133113.172500",
    "133115.172500",
    "133117.172500",
    "133119.172500",
    "133121.172500",
    "133123.172500",
    "133125.172500",
    "133127.172500",
    "133129.172500",
    "133131.172500",
    "133133.172500",
    "133135.172500",
    "133137.172500",
    "133139.172500",
    "133141.172500",
    "133143.172500",
    "133145.172500",
    "133147.172500",
    "133149.172500",
    "133151.172500",
    "133153.172500",
    "133155.172500",
    "133157.172500",
    "133159.172500",
    "133201.172500",
    "133203.172500",
    "133205.172500",
    "133207.172500",
    "133209.172500",
    "133211.172500",
    "133213.172500",
    "133215.172500",
    "133217.172500",
    "133219.172500",
    "133221.172500",
    "133223.172500",
    "133225.172500",
    "133227.172500",
    "133229.172500",
    "133231.172500",
    "133233.172500",
    "133235.172500",
    "133237.172500",
    "133239.172500",
    "133241.172500",
    "133243.172500",
    "133245.172500",
    "133247.172500",
    "133249.172500",
    "133251.172500",
    "133253.172500",
    "133255.172500",
    "133257.172500",
    "133259.172500",
    "133301.172500",
    "133303.172500",
    "133305.172500"
   ],
   "ContentTime": [
    "132438.161000",
    "132439.657000",
    "132441.656000",
    "132443.655000",
    "132445.656000",
    "132447.656000",
    "132449.656000",
    "132451.656000",
    "132453.655000",
    "132455.656000",
    "132457.657000",
    "132459.656000",
    "132501.656000",
    "132503.655000",
    "132505.656000",
    "132507.655000",
    "132509.655000",
    "132511.655000",
    "132513.656000",
    "132515.657000",
    "132517.655000",
    "132519.655000",
    "132521.656000",
    "132523.655000",
    "132525.655000",
    "132527.655000",
    "132529.656000",
    "132531.656000",
    "132533.657000",
    "132535.656000",
    "132537.656000",
    "132539.655000",
    "132541.656000",
    "132543.656000",
    "132545.655000",
    "132547.657000",
    "132549.657000",
    "132551.656000",
    "132553.655000",
    "132555.655000",
    "132557.655000",
    "132559.655000",
    "132601.655000",
    "132603.655000",
    "132605.656000",
    "132607.657000",
    "132609.655000",
    "132611.655000",
    "132613.656000",
    "132615.656000",
    "132617.655000",
    "132619.655000",
    "132621.656000",
    "132623.656000",
    "132625.657000",
    "132627.655000",
    "132629.655000",
    "132631.656000",
    "132633.655000",
    "132635.656000",
    "132637.656000",
    "132639.657000",
    "132641.656000",
    "132643.657000",
    "132645.655000",
    "132647.656000",
    "132649.656000",
    "132651.656000",
    "132653.656000",
    "132655.656000",
    "132657.657000",
    "132659.657000",
    "132701.656000",
    "132703.655000",
    "132705.656000",
    "132707.656000",
    "132709.656000",
    "132711.656000",
    "132713.656000",
    "132715.657000",
    "132717.656000",
    "132719.656000",
    "132721.655000",
    "132723.655000",
    "132725.656000",
    "132727.655000",
    "132729.655000",
    "132731.656000",
    "132733.657000",
    "132735.656000",
    "132737.656000",
    "132739.656000",
    "132741.655000",
    "132743.655000",
    "132745.655000",
    "132747.655000",
    "132749.657000",
    "132751.657000",
    "132753.657000",
    "132755.655000",
    "132757.655000",
    "132759.655000",
    "132801.655000",
    "132803.655000",
    "132805.656000",
    "132807.656000",
    "132809.656000",
    "132811.655000",
    "132813.655000",
    "132815.656000",
    "132817.656000",
    "132819.655000",
    "132821.656000",
    "132823.655000",
    "132825.656000",
    "132827.657000",
    "132829.655000",
    "132831.656000",
    "132833.656000",
    "132835.656000",
    "132837.655000",
    "132839.655000",
    "132841.656000",
    "132843.656000",
    "132845.657000",
    "132847.656000",
    "132849.656000",
    "132851.656000",
    "132853.656000",
    "132855.656000",
    "132857.655000",
    "132859.656000",
    "132901.657000",
    "132903.657000",
    "132905.655000",
    "132907.655000",
    "132909.656000",
    "132911.656000",
    "132913.656000",
    "132915.655000",
    "132917.656000",
    "132919.657000",
    "132921.655000",
    "132923.655000",
    "132925.656000",
    "132927.656000",
    "132929.656000",
    "132931.656000",
    "132933.655000",
    "132935.657000",
    "132937.656000",
    "132939.656000",
    "132941.656000",
    "132943.655000",
    "132945.656000",
    "132947.656000",
    "132949.656000",
    "132951.655000",
    "132953.657000",
    "132955.657000",
    "132957.655000",
    "132959.655000",
    "133001.656000",
    "133003.656000",
    "133005.655000",
    "133007.656000",
    "133009.656000",
    "133011.656000",
    "133013.657000",
    "133015.656000",
    "133017.656000",
    "133019.655000",
    "133021.656000",
    "133023.655000",
    "133025.656000",
    "133027.657000",
    "133029.657000",
    "133031.656000",
    "133033.655000",
    "133035.656000",
    "133037.655000",
    "133039.656000",
    "133041.656000",
    "133043.656000",
    "133045.656000",
    "133047.657000",
    "133049.656000",
    "133051.656000",
    "133053.655000",
    "133055.656000",
    "133057.656000",
    "133059.656000",
    "133101.655000",
    "133103.657000",
    "133105.657000",
    "133107.655000",
    "133109.656000",
    "133111.656000",
    "133113.656000",
    "133115.656000",
    "133117.655000",
    "133119.657000",
    "133121.657000",
    "133123.657000",
    "133125.656000",
    "133127.656000",
    "133129.656000",
    "133131.656000",
    "133133.656000",
    "133135.656000",
    "133137.657000",
    "133139.657000",
    "133141.656000",
    "133143.656000",
    "133145.655000",
    "133147.656000",
    "133149.655000",
    "133151.656000",
    "133153.655000",
    "133155.657000",
    "133157.657000",
    "133159.656000",
    "133201.656000",
    "133203.656000",
    "133205.655000",
    "133207.655000",
    "133209.656000",
    "133211.657000",
    "133213.657000",
    "133215.657000",
    "133217.656000",
    "133219.656000",
    "133221.656000",
    "133223.656000",
    "133225.656000",
    "133227.656000",
    "133229.657000",
    "133231.656000",
    "133233.657000",
    "133235.656000",
    "133237.656000",
    "133239.656000",
    "133241.655000",
    "133243.656000",
    "133245.656000",
    "133247.657000",
    "133249.657000",
    "133251.655000",
    "133253.656000",
    "133255.656000",
    "133257.656000",
    "133259.656000",
    "133301.655000",
    "133303.656000",
    "133305.656000",
    "133307.327000"
   ],
   "InstanceCreationTime": [
    "132438.161000",
    "132439.657000",
    "132441.656000",
    "132443.655000",
    "132445.656000",
    "132447.656000",
    "132449.656000",
    "132451.656000",
    "132453.655000",
    "132455.656000",
    "132457.657000",
    "132459.656000",
    "132501.656000",
    "132503.655000",
    "132505.656000",
    "132507.655000",
    "132509.655000",
    "132511.655000",
    "132513.656000",
    "132515.657000",
    "132517.655000",
    "132519.655000",
    "132521.656000",
    "132523.655000",
    "132525.655000",
    "132527.655000",
    "132529.656000",
    "132531.656000",
    "132533.657000",
    "132535.656000",
    "132537.656000",
    "132539.655000",
    "132541.656000",
    "132543.656000",
    "132545.655000",
    "132547.657000",
    "132549.657000",
    "132551.656000",
    "132553.655000",
    "132555.655000",
    "132557.655000",
    "132559.655000",
    "132601.655000",
    "132603.655000",
    "132605.656000",
    "132607.657000",
    "132609.655000",
    "132611.655000",
    "132613.656000",
    "132615.656000",
    "132617.655000",
    "132619.655000",
    "132621.656000",
    "132623.656000",
    "132625.657000",
    "132627.655000",
    "132629.655000",
    "132631.656000",
    "132633.655000",
    "132635.656000",
    "132637.656000",
    "132639.657000",
    "132641.656000",
    "132643.657000",
    "132645.655000",
    "132647.656000",
    "132649.656000",
    "132651.656000",
    "132653.656000",
    "132655.656000",
    "132657.657000",
    "132659.657000",
    "132701.656000",
    "132703.655000",
    "132705.656000",
    "132707.656000",
    "132709.656000",
    "132711.656000",
    "132713.656000",
    "132715.657000",
    "132717.656000",
    "132719.656000",
    "132721.655000",
    "132723.655000",
    "132725.656000",
    "132727.655000",
    "132729.655000",
    "132731.656000",
    "132733.657000",
    "132735.656000",
    "132737.656000",
    "132739.656000",
    "132741.655000",
    "132743.655000",
    "132745.655000",
    "132747.655000",
    "132749.657000",
    "132751.657000",
    "132753.657000",
    "132755.655000",
    "132757.655000",
    "132759.655000",
    "132801.655000",
    "132803.655000",
    "132805.656000",
    "132807.656000",
    "132809.656000",
    "132811.655000",
    "132813.655000",
    "132815.656000",
    "132817.656000",
    "132819.655000",
    "132821.656000",
    "132823.655000",
    "132825.656000",
    "132827.657000",
    "132829.655000",
    "132831.656000",
    "132833.656000",
    "132835.656000",
    "132837.655000",
    "132839.655000",
    "132841.656000",
    "132843.656000",
    "132845.657000",
    "132847.656000",
    "132849.656000",
    "132851.656000",
    "132853.656000",
    "132855.656000",
    "132857.655000",
    "132859.656000",
    "132901.657000",
    "132903.657000",
    "132905.655000",
    "132907.655000",
    "132909.656000",
    "132911.656000",
    "132913.656000",
    "132915.655000",
    "132917.656000",
    "132919.657000",
    "132921.655000",
    "132923.655000",
    "132925.656000",
    "132927.656000",
    "132929.656000",
    "132931.656000",
    "132933.655000",
    "132935.657000",
    "132937.656000",
    "132939.656000",
    "132941.656000",
    "132943.655000",
    "132945.656000",
    "132947.656000",
    "132949.656000",
    "132951.655000",
    "132953.657000",
    "132955.657000",
    "132957.655000",
    "132959.655000",
    "133001.656000",
    "133003.656000",
    "133005.655000",
    "133007.656000",
    "133009.656000",
    "133011.656000",
    "133013.657000",
    "133015.656000",
    "133017.656000",
    "133019.655000",
    "133021.656000",
    "133023.655000",
    "133025.656000",
    "133027.657000",
    "133029.657000",
    "133031.656000",
    "133033.655000",
    "133035.656000",
    "133037.655000",
    "133039.656000",
    "133041.656000",
    "133043.656000",
    "133045.656000",
    "133047.657000",
    "133049.656000",
    "133051.656000",
    "133053.655000",
    "133055.656000",
    "133057.656000",
    "133059.656000",
    "133101.655000",
    "133103.657000",
    "133105.657000",
    "133107.655000",
    "133109.656000",
    "133111.656000",
    "133113.656000",
    "133115.656000",
    "133117.655000",
    "133119.657000",
    "133121.657000",
    "133123.657000",
    "133125.656000",
    "133127.656000",
    "133129.656000",
    "133131.656000",
    "133133.656000",
    "133135.656000",
    "133137.657000",
    "133139.657000",
    "133141.656000",
    "133143.656000",
    "133145.655000",
    "133147.656000",
    "133149.655000",
    "133151.656000",
    "133153.655000",
    "133155.657000",
    "133157.657000",
    "133159.656000",
    "133201.656000",
    "133203.656000",
    "133205.655000",
    "133207.655000",
    "133209.656000",
    "133211.657000",
    "133213.657000",
    "133215.657000",
    "133217.656000",
    "133219.656000",
    "133221.656000",
    "133223.656000",
    "133225.656000",
    "133227.656000",
    "133229.657000",
    "133231.656000",
    "133233.657000",
    "133235.656000",
    "133237.656000",
    "133239.656000",
    "133241.655000",
    "133243.656000",
    "133245.656000",
    "133247.657000",
    "133249.657000",
    "133251.655000",
    "133253.656000",
    "133255.656000",
    "133257.656000",
    "133259.656000",
    "133301.655000",
    "133303.656000",
    "133305.656000",
    "133307.327000"
   ],
   "InstanceNumber": [
    1,
    2,
    3,
    4,
    5,
    6,
    7,
    8,
    9,
    10,
    11,
    12,
    13,
    14,
    15,
    16,
    17,
    18,
    19,
    20,
    21,
    22,
    23,
    24,
    25,
    26,
    27,
    28,
    29,
    30,
    31,
    32,
    33,
    34,
    35,
    36,
    37,
    38,
    39,
    40,
    41,
    42,
    43,
    44,
    45,
    46,
    47,
    48,
    49,
    50,
    51,
    52,
    53,
    54,
    55,
    56,
    57,
    58,
    59,
    60,
    61,
    62,
    63,
    64,
    65,
    66,
    67,
    68,
    69,
    70,
    71,
    72,
    73,
    74,
    75,
    76,
    77,
    78,
    79,
    80,
    81,
    82,
    83,
    84,
    85,
    86,
    87,
    88,
    89,
    90,
    91,
    92,
    93,
    94,
    95,
    96,
    97,
    98,
    99,
    100,
    101,
    102,
    103,
    104,
    105,
    106,
    107,
    108,
    109,
    110,
    111,
    112,
    113,
    114,
    115,
    116,
    117,
    118,
    119,
    120,
    121,
    122,
    123,
    124,
    125,
    126,
    127,
    128,
    129,
    130,
    131,
    132,
    133,
    134,
    135,
    136,
    137,
    138,
    139,
    140,
    141,
    142,
    143,
    144,
    145,
    146,
    147,
    148,
    149,
    150,
    151,
    152,
    153,
    154,
    155,
    156,
    157,
    158,
    159,
    160,
    161,
    162,
    163,
    164,
    165,
    166,
    167,
    168,
    169,
    170,
    171,
    172,
    173,
    174,
    175,
    176,
    177,
    178,
    179,
    180,
    181,
    182,
    183,
    184,
    185,
    186,
    187,
    188,
    189,
    190,
    191,
    192,
    193,
    194,
    195,
    196,
    197,
    198,
    199,
    200,
    201,
    202,
    203,
    204,
    205,
    206,
    207,
    208,
    209,
    210,
    211,
    212,
    213,
    214,
    215,
    216,
    217,
    218,
    219,
    220,
    221,
    222,
    223,
    224,
    225,
    226,
    227,
    228,
    229,
    230,
    231,
    232,
    233,
    234,
    235,
    236,
    237,
    238,
    239,
    240,
    241,
    242,
    243,
    244,
    245,
    246,
    247,
    248,
    249,
    250,
    251,
    252,
    253,
    254,
    255,
    256
   ],
   "LargestImagePixelValue": [
    3528,
    3490,
    3477,
    3458,
    3569,
    3490,
    3531,
    3468,
    3476,
    3488,
    3502,
    3452,
    3509,
    3509,
    3523,
    3472,
    3503,
    3498,
    3533,
    3476,
    3537,
    3485,
    3490,
    3473,
    3537,
    3489,
    3508,
    3514,
    3504,
    3496,
    3567,
    3517,
    3441,
    3429,
    3403,
    3317,
    3357,
    3354,
    3384,
    3303,
    3338,
    3301,
    3405,
    3368,
    3400,
    3320,
    3375,
    3303,
    3367,
    3357,
    3372,
    3383,
    3372,
    3322,
    3410,
    3404,
    3451,
    3387,
    3428,
    3353,
    3380,
    3353,
    3400,
    3363,
    3391,
    3370,
    3347,
    3337,
    3383,
    3344,
    3330,
    3343,
    3378,
    3363,
    3357,
    3371,
    3352,
    3302,
    3412,
    3365,
    3402,
    3358,
    3417,
    3320,
    3371,
    3316,
    3378,
    3370,
    3375,
    3366,
    3371,
    3429,
    3403,
    3402,
    3380,
    3398,
    3392,
    3414,
    3409,
    3415,
    3387,
    3370,
    3422,
    3391,
    3424,
    3438,
    3415,
    3415,
    3444,
    3415,
    3413,
    3373,
    3386,
    3421,
    3412,
    3436,
    3475,
    3455,
    3461,
    3453,
    3450,
    3461,
    3434,
    3447,
    3408,
    3414,
    3437,
    3425,
    3385,
    3414,
    3402,
    3422,
    3419,
    3415,
    3415,
    3405,
    3415,
    3426,
    3413,
    3393,
    3410,
    3450,
    3447,
    3448,
    3463,
    3488,
    3471,
    3420,
    3449,
    3445,
    3448,
    3491,
    3403,
    3476,
    3444,
    3421,
    3420,
    3460,
    3486,
    3514,
    3515,
    3438,
    3468,
    3494,
    3470,
    3480,
    3482,
    3447,
    3461,
    3455,
    3455,
    3463,
    3457,
    3452,
    3462,
    3442,
    3432,
    3455,
    3437,
    3454,
    3455,
    3451,
    3450,
    3495,
    3452,
    3432,
    3435,
    3430,
    3425,
    3416,
    3446,
    3438,
    3459,
    3465,
    3452,
    3447,
    3464,
    3447,
    3461,
    3475,
    3495,
    3451,
    3443,
    3470,
    3435,
    3445,
    3455,
    3435,
    3480,
    3514,
    3465,
    3477,
    3465,
    3465,
    3444,
    3441,
    3433,
    3447,
    3485,
    3470,
    3450,
    3496,
    3487,
    3480,
    3515,
    3514,
    3450,
    3455,
    3442,
    3467,
    3467,
    3490,
    3435,
    3471,
    3434,
    3468,
    3510,
    3457,
    3442,
    3465,
    3446,
    3462,
    3433,
    3458,
    3455,
    3447,
    3453,
    3429,
    3466,
    3455,
    3450,
    3448,
    3461,
    3456,
    3521,
    3486
   ],
   "WindowCenter": [
    805.0,
    803.0,
    802.0,
    802.0,
    803.0,
    802.0,
    802.0,
    801.0,
    801.0,
    800.0,
    801.0,
    801.0,
    801.0,
    801.0,
    801.0,
    801.0,
    801.0,
    800.0,
    800.0,
    800.0,
    800.0,
    800.0,
    799.0,
    799.0,
    799.0,
    798.0,
    798.0,
    798.0,
    798.0,
    798.0,
    799.0,
    799.0,
    799.0,
    799.0,
    798.0,
    797.0,
    798.0,
    798.0,
    798.0,
    798.0,
    797.0,
    796.0,
    797.0,
    796.0,
    794.0,
    794.0,
    795.0,
    796.0,
    797.0,
    798.0,
    797.0,
    797.0,
    796.0,
    795.0,
    796.0,
    797.0,
    797.0,
    796.0,
    797.0,
    797.0,
    798.0,
    798.0,
    798.0,
    798.0,
    799.0,
    799.0,
    799.0,
    799.0,
    798.0,
    798.0,
    799.0,
    799.0,
    798.0,
    797.0,
    797.0,
    798.0,
    798.0,
    798.0,
    798.0,
    798.0,
    799.0,
    798.0,
    797.0,
    795.0,
    795.0,
    795.0,
    796.0,
    796.0,
    796.0,
    794.0,
    794.0,
    794.0,
    794.0,
    795.0,
    795.0,
    796.0,
    796.0,
    797.0,
    798.0,
    798.0,
    797.0,
    796.0,
    797.0,
    797.0,
    797.0,
    797.0,
    798.0,
    797.0,
    796.0,
    795.0,
    795.0,
    795.0,
    796.0,
    798.0,
    799.0,
    798.0,
    798.0,
    798.0,
    799.0,
    799.0,
    800.0,
    801.0,
    801.0,
    802.0,
    802.0,
    803.0,
    803.0,
