{
  "AcquisitionMatrixPE": 100,
  "AcquisitionNumber": 1,
  "AcquisitionTime": "11:46:40.007500",
  "BandwidthPerPixelPhaseEncode": 18.519,
  "BaseResolution": 100,
  "BodyPartExamined": "BRAIN",
  "ConsistencyInfo": "N4_VE11C_LATEST_20160120",
  "ConversionSoftware": "dcm2niix",
  "ConversionSoftwareVersion": "v1.0.20180622 GCC4.9.2",
  "DerivedVendorReportedEchoSpacing": 0.000539986,
  "DeviceSerialNumber": "166078",
  "DwellTime": 2.1e-06,
  "EchoTime": 0.034,
  "EchoTrainLength": 100,
  "EffectiveEchoSpacing": 0.000539986,
  "FlipAngle": 90,
  "ImageOrientationPatientDICOM": [1, 0, 0, 0, 0.992546, -0.121869],
  "ImageType": [
    "ORIGINAL",
    "PRIMARY",
    "M",
    "ND",
    "MOSAIC"
],
  "InPlanePhaseEncodingDirectionDICOM": "COL",
  "InstitutionAddress": "Street_StreetNo_Bei_Jing_District_CN_ZIP",
  "InstitutionName": "BeiJing_Normal_University",
  "InstitutionalDepartmentName": "Department",
  "MRAcquisitionType": "2D",
  "MagneticFieldStrength": 3,
  "Manufacturer": "Siemens",
  "ManufacturersModelName": "Prisma",
  "Modality": "MR",
  "MultibandAccelerationFactor": 3,
  "PartialFourier": 1,
  "PatientPosition": "HFS",
  "PercentPhaseFOV": 100,
  "PhaseEncodingDirection": "j-",
  "PhaseEncodingSteps": 100,
  "PhaseResolution": 1,
  "PixelBandwidth": 2380,
  "ProcedureStepDescription": "BNU_P2018_64CH_Zhen.ZongLei",
  "ProtocolName": "bold_100x100_s3_2x2x2_static_256",
  "PulseSequenceDetails": "%SiemensSeq%_ep2d_bold",
  "ReceiveCoilActiveElements": "HC1-7;NC1",
  "ReceiveCoilName": "HeadNeck_64",
  "ReconMatrixPE": 100,
  "RepetitionTime": 2,
  "SAR": 0.0683572,
  "ScanOptions": "FS",
  "ScanningSequence": "EP",
  "SequenceName": "_epfid2d1_100",
  "SequenceVariant": "SK",
  "SeriesDescription": "bold_100x100_s3_2x2x2_static_256",
  "SeriesNumber": 7,
  "ShimSetting": [-5462, -11495, -1241, 549, -40, -75, -51, 32],
  "SliceThickness": 2,
  "SliceTiming": [1.485, 0, 0.99, 0.0825, 1.0725, 0.165, 1.155, 0.2475, 1.2375, 0.33, 1.32, 0.4125, 1.4025, 0.5775, 1.5675, 0.66, 1.65, 0.7425, 1.7325, 0.825, 1.815, 0.9075, 1.8975, 0.495, 1.485, 0, 0.99, 0.0825, 1.0725, 0.165, 1.155, 0.2475, 1.2375, 0.33, 1.32, 0.4125, 1.4025, 0.5775, 1.5675, 0.66, 1.65, 0.7425, 1.7325, 0.825, 1.815, 0.9075, 1.8975, 0.495, 1.485, 0, 0.99, 0.0825, 1.0725, 0.165, 1.155, 0.2475, 1.2375, 0.33, 1.32, 0.4125, 1.4025, 0.5775, 1.5675, 0.66, 1.65, 0.7425, 1.7325, 0.825, 1.815, 0.9075, 1.8975, 0.495],
  "SoftwareVersions": "syngo_MR_E11",
  "SpacingBetweenSlices": 2,
  "StationName": "AWP166078",
  "TaskName": "naturalvision",
  "TotalReadoutTime": 0.0534586,
  "TxRefAmp": 211.066,
  "dcmmeta_affine": [
    [-2.0, 0.0, 0.0, 100.67469787597656],
    [0.0, 1.985092282295227, -0.24373869597911835, -77.38306427001953],
    [0.0, 0.24373868107795715, 1.985092282295227, -68.47662353515625],
    [0.0, 0.0, 0.0, 1.0]
],
  "dcmmeta_reorient_transform": [
    [0.0, -1.0, 0.0, 99.0],
    [1.0, 0.0, 0.0, 0.0],
    [0.0, 0.0, 1.0, 0.0],
    [0.0, 0.0, 0.0, 1.0]
],
  "dcmmeta_shape": [100, 100, 72, 256],
  "dcmmeta_slice_dim": 2,
  "dcmmeta_version": 0.6,
  "global": {
    "const": {
      "AcquisitionMatrix": [100, 0, 0, 100],
      "AngioFlag": "N",
      "BitsAllocated": 16,
      "BitsStored": 12,
      "BodyPartExamined": "BRAIN",
      "Columns": 900,
      "EchoNumbers": 1,
      "EchoTime": 34.0,
      "EchoTrainLength": 100,
      "FlipAngle": 90.0,
      "HighBit": 11,
      "ImageOrientationPatient": [1.0, 0.0, 0.0, 0.0, 0.99254615167353, -0.1218693431428],
      "ImagePositionPatient": [-900.67469877005, -913.17799394941, 53.148980636399],
      "ImageType": [
        "ORIGINAL",
        "PRIMARY",
        "M",
        "ND",
        "MOSAIC"
],
      "ImagedNucleus": "1H",
      "ImagingFrequency": 123.257758,
      "InPlanePhaseEncodingDirection": "COL",
      "MRAcquisitionType": "2D",
      "MagneticFieldStrength": 3.0,
      "Manufacturer": "SIEMENS",
      "ManufacturerModelName": "Prisma",
      "Modality": "MR",
      "NumberOfAverages": 1.0,
      "NumberOfPhaseEncodingSteps": 100,
      "PercentPhaseFieldOfView": 100.0,
      "PercentSampling": 100.0,
      "PerformedProcedureStepStartTime": "110253.980000",
      "PhotometricInterpretation": "MONOCHROME2",
      "PixelBandwidth": 2380.0,
      "PixelRepresentation": 0,
      "PixelSpacing": [2.0, 2.0],
      "ProtocolName": "bold_100x100_s3_2x2x2_static_256",
      "RepetitionTime": 2000.0,
      "Rows": 900,
      "SAR": 0.06835720820559,
      "SamplesPerPixel": 1,
      "ScanOptions": "FS",
      "ScanningSequence": "EP",
      "SequenceName": "*epfid2d1_100",
      "SequenceVariant": "SK",
      "SeriesDescription": "bold_100x100_s3_2x2x2_static_256",
      "SeriesNumber": 7,
      "SeriesTime": "114642.285000",
      "SliceLocation": -58.535586099064,
      "SliceThickness": 2.0,
      "SmallestImagePixelValue": 0,
      "SoftwareVersions": "syngo MR E11",
      "SpacingBetweenSlices": 2.0000000193653,
      "SpecificCharacterSet": "ISO_IR 100",
      "StudyID": "1",
      "StudyTime": "110253.893000",
      "TransmitCoilName": "Body",
      "VariableFlipAngleFlag": "N",
      "WindowCenterWidthExplanation": "Algo1",
      "dBdt": 0.0},
    "slices": {}
  },
  "time": {
    "samples": {
      "AcquisitionNumber": [1, 2, 3, 4, 5, 6, 7, 8, 9, 10, 11, 12, 13, 14, 15, 16, 17, 18, 19, 20, 21, 22, 23, 24, 25, 26, 27, 28, 29, 30, 31, 32, 33, 34, 35, 36, 37, 38, 39, 40, 41, 42, 43, 44, 45, 46, 47, 48, 49, 50, 51, 52, 53, 54, 55, 56, 57, 58, 59, 60, 61, 62, 63, 64, 65, 66, 67, 68, 69, 70, 71, 72, 73, 74, 75, 76, 77, 78, 79, 80, 81, 82, 83, 84, 85, 86, 87, 88, 89, 90, 91, 92, 93, 94, 95, 96, 97, 98, 99, 100, 101, 102, 103, 104, 105, 106, 107, 108, 109, 110, 111, 112, 113, 114, 115, 116, 117, 118, 119, 120, 121, 122, 123, 124, 125, 126, 127, 128, 129, 130, 131, 132, 133, 134, 135, 136, 137, 138, 139, 140, 141, 142, 143, 144, 145, 146, 147, 148, 149, 150, 151, 152, 153, 154, 155, 156, 157, 158, 159, 160, 161, 162, 163, 164, 165, 166, 167, 168, 169, 170, 171, 172, 173, 174, 175, 176, 177, 178, 179, 180, 181, 182, 183, 184, 185, 186, 187, 188, 189, 190, 191, 192, 193, 194, 195, 196, 197, 198, 199, 200, 201, 202, 203, 204, 205, 206, 207, 208, 209, 210, 211, 212, 213, 214, 215, 216, 217, 218, 219, 220, 221, 222, 223, 224, 225, 226, 227, 228, 229, 230, 231, 232, 233, 234, 235, 236, 237, 238, 239, 240, 241, 242, 243, 244, 245, 246, 247, 248, 249, 250, 251, 252, 253, 254, 255, 256],
      "AcquisitionTime": ["114640.007500", "114642.007500", "114644.007500", "114646.007500", "114648.007500", "114650.007500", "114652.007500", "114654.007500", "114656.007500", "114658.007500", "114700.007500", "114702.007500", "114704.007500", "114706.007500", "114708.007500", "114710.007500", "114712.007500", "114714.007500", "114716.007500", "114718.007500", "114720.007500", "114722.007500", "114724.007500", "114726.007500", "114728.007500", "114730.007500", "114732.007500", "114734.007500", "114736.007500", "114738.007500", "114740.007500", "114742.007500", "114744.007500", "114746.007500", "114748.007500", "114750.007500", "114752.007500", "114754.007500", "114756.007500", "114758.007500", "114800.007500", "114802.007500", "114804.007500", "114806.007500", "114808.007500", "114810.007500", "114812.007500", "114814.007500", "114816.007500", "114818.007500", "114820.007500", "114822.007500", "114824.007500", "114826.007500", "114828.007500", "114830.007500", "114832.007500", "114834.007500", "114836.007500", "114838.007500", "114840.007500", "114842.007500", "114844.007500", "114846.007500", "114848.007500", "114850.007500", "114852.007500", "114854.007500", "114856.007500", "114858.007500", "114900.007500", "114902.007500", "114904.007500", "114906.007500", "114908.007500", "114910.007500", "114912.007500", "114914.007500", "114916.007500", "114918.007500", "114920.007500", "114922.007500", "114924.007500", "114926.007500", "114928.007500", "114930.007500", "114932.007500", "114934.007500", "114936.007500", "114938.007500", "114940.007500", "114942.007500", "114944.007500", "114946.007500", "114948.007500", "114950.007500", "114952.007500", "114954.007500", "114956.007500", "114958.007500", "115000.007500", "115002.007500", "115004.007500", "115006.007500", "115008.007500", "115010.007500", "115012.007500", "115014.007500", "115016.007500", "115018.007500", "115020.007500", "115022.007500", "115024.007500", "115026.007500", "115028.007500", "115030.007500", "115032.007500", "115034.007500", "115036.007500", "115038.007500", "115040.007500", "115042.007500", "115044.007500", "115046.007500", "115048.007500", "115050.007500", "115052.007500", "115054.007500", "115056.007500", "115058.007500", "115100.007500", "115102.007500", "115104.007500", "115106.007500", "115108.007500", "115110.007500", "115112.007500", "115114.007500", "115116.007500", "115118.007500", "115120.007500", "115122.007500", "115124.007500", "115126.007500", "115128.007500", "115130.007500", "115132.007500", "115134.007500", "115136.007500", "115138.007500", "115140.007500", "115142.007500", "115144.007500", "115146.007500", "115148.007500", "115150.007500", "115152.007500", "115154.007500", "115156.007500", "115158.007500", "115200.007500", "115202.007500", "115204.007500", "115206.007500", "115208.007500", "115210.007500", "115212.007500", "115214.007500", "115216.007500", "115218.007500", "115220.007500", "115222.007500", "115224.007500", "115226.007500", "115228.007500", "115230.007500", "115232.007500", "115234.007500", "115236.007500", "115238.007500", "115240.007500", "115242.007500", "115244.007500", "115246.007500", "115248.007500", "115250.007500", "115252.007500", "115254.007500", "115256.007500", "115258.007500", "115300.007500", "115302.007500", "115304.007500", "115306.007500", "115308.007500", "115310.007500", "115312.007500", "115314.007500", "115316.007500", "115318.007500", "115320.007500", "115322.007500", "115324.007500", "115326.007500", "115328.007500", "115330.007500", "115332.007500", "115334.007500", "115336.007500", "115338.007500", "115340.007500", "115342.007500", "115344.007500", "115346.007500", "115348.007500", "115350.007500", "115352.007500", "115354.007500", "115356.007500", "115358.007500", "115400.007500", "115402.007500", "115404.007500", "115406.007500", "115408.007500", "115410.007500", "115412.007500", "115414.007500", "115416.007500", "115418.007500", "115420.007500", "115422.007500", "115424.007500", "115426.007500", "115428.007500", "115430.007500", "115432.007500", "115434.007500", "115436.007500", "115438.007500", "115440.007500", "115442.007500", "115444.007500", "115446.007500", "115448.007500", "115450.007500", "115452.007500", "115454.007500", "115456.007500", "115458.007500", "115500.007500", "115502.007500", "115504.007500", "115506.007500", "115508.007500", "115510.007500"],
      "ContentTime": ["114642.288000", "114643.783000", "114645.783000", "114648.283000", "114650.283000", "114651.783000", "114653.784000", "114655.783000", "114657.783000", "114700.283000", "114701.783000", "114703.784000", "114705.783000", "114707.783000", "114710.283000", "114711.784000", "114713.784000", "114715.783000", "114717.783000", "114719.783000", "114722.284000", "114723.782000", "114725.782000", "114727.784000", "114729.784000", "114732.283000", "114734.283000", "114735.784000", "114738.284000", "114739.783000", "114741.783000", "114743.783000", "114745.783000", "114747.784000", "114750.283000", "114752.283000", "114753.783000", "114755.783000", "114757.782000", "114800.283000", "114801.783000", "114804.284000", "114806.284000", "114807.783000", "114809.784000", "114811.783000", "114814.283000", "114816.283000", "114818.282000", "114820.283000", "114821.783000", "114823.784000", "114825.783000", "114827.783000", "114830.283000", "114832.284000", "114833.782000", "114835.782000", "114838.283000", "114840.284000", "114841.783000", "114843.783000", "114845.783000", "114848.283000", "114850.282000", "114851.783000", "114853.783000", "114855.783000", "114858.283000", "114859.784000", "114902.284000", "114903.783000", "114905.784000", "114908.283000", "114909.782000", "114912.283000", "114913.783000", "114915.783000", "114917.784000", "114919.784000", "114922.283000", "114924.284000", "114925.782000", "114927.783000", "114930.284000", "114931.783000", "114933.783000", "114935.783000", "114937.784000", "114939.784000", "114941.784000", "114943.782000", "114945.783000", "114948.284000", "114949.784000", "114951.784000", "114953.784000", "114955.784000", "114958.284000", "114959.783000", "115002.283000", "115004.283000", "115005.784000", "115007.783000", "115010.284000", "115011.784000", "115014.284000", "115016.284000", "115018.283000", "115019.782000", "115021.783000", "115024.284000", "115025.784000", "115028.284000", "115029.784000", "115032.284000", "115034.284000", "115035.783000", "115037.782000", "115040.283000", "115041.783000", "115043.791000", "115045.784000", "115047.783000", "115050.283000", "115052.284000", "115053.782000", "115056.283000", "115057.783000", "115100.284000", "115101.784000", "115104.283000", "115105.784000", "115108.284000", "115109.783000", "115111.783000", "115113.783000", "115116.284000", "115118.284000", "115119.784000", "115121.783000", "115123.784000", "115125.783000", "115128.283000", "115129.782000", "115132.283000", "115133.783000", "115135.783000", "115137.784000", "115140.284000", "115141.784000", "115143.784000", "115146.282000", "115148.283000", "115149.784000", "115151.783000", "115154.283000", "115156.284000", "115158.284000", "115159.784000", "115202.284000", "115204.283000", "115206.283000", "115207.784000", "115210.284000", "115211.783000", "115213.784000", "115216.283000", "115217.784000", "115220.282000", "115222.283000", "115224.283000", "115226.284000", "115228.283000", "115229.784000", "115232.284000", "115233.783000", "115236.283000", "115237.783000", "115240.283000", "115241.783000", "115244.284000", "115246.283000", "115247.784000", "115250.284000", "115251.783000", "115253.784000", "115256.283000", "115258.283000", "115259.783000", "115301.783000", "115303.783000", "115305.783000", "115307.783000", "115310.284000", "115311.783000", "115313.783000", "115315.783000", "115318.284000", "115319.783000", "115322.284000", "115323.783000", "115325.784000", "115327.784000", "115329.784000", "115332.283000", "115333.783000", "115336.284000", "115337.783000", "115340.283000", "115341.784000", "115343.784000", "115346.284000", "115347.783000", "115350.283000", "115351.782000", "115353.784000", "115356.284000", "115357.783000", "115359.784000", "115402.284000", "115404.284000", "115405.783000", "115408.283000", "115410.283000", "115412.284000", "115413.783000", "115416.284000", "115418.284000", "115420.283000", "115421.784000", "115423.783000", "115425.783000", "115428.284000", "115429.784000", "115432.284000", "115434.284000", "115436.284000", "115437.784000", "115439.783000", "115441.783000", "115443.783000", "115446.284000", "115447.784000", "115449.784000", "115452.284000", "115453.783000", "115455.784000", "115458.283000", "115459.783000", "115502.283000", "115503.783000", "115506.284000", "115507.784000", "115509.784000", "115511.753000"],
      "InstanceCreationTime": ["114642.288000", "114643.783000", "114645.783000", "114648.283000", "114650.283000", "114651.783000", "114653.784000", "114655.783000", "114657.783000", "114700.283000", "114701.783000", "114703.784000", "114705.783000", "114707.783000", "114710.283000", "114711.784000", "114713.784000", "114715.783000", "114717.783000", "114719.783000", "114722.284000", "114723.782000", "114725.782000", "114727.784000", "114729.784000", "114732.283000", "114734.283000", "114735.784000", "114738.284000", "114739.783000", "114741.783000", "114743.783000", "114745.783000", "114747.784000", "114750.283000", "114752.283000", "114753.783000", "114755.783000", "114757.782000", "114800.283000", "114801.783000", "114804.284000", "114806.284000", "114807.783000", "114809.784000", "114811.783000", "114814.283000", "114816.283000", "114818.282000", "114820.283000", "114821.783000", "114823.784000", "114825.783000", "114827.783000", "114830.283000", "114832.284000", "114833.782000", "114835.782000", "114838.283000", "114840.284000", "114841.783000", "114843.783000", "114845.783000", "114848.283000", "114850.282000", "114851.783000", "114853.783000", "114855.783000", "114858.283000", "114859.784000", "114902.284000", "114903.783000", "114905.784000", "114908.283000", "114909.782000", "114912.283000", "114913.783000", "114915.783000", "114917.784000", "114919.784000", "114922.283000", "114924.284000", "114925.782000", "114927.783000", "114930.284000", "114931.783000", "114933.783000", "114935.783000", "114937.784000", "114939.784000", "114941.784000", "114943.782000", "114945.783000", "114948.284000", "114949.784000", "114951.784000", "114953.784000", "114955.784000", "114958.284000", "114959.783000", "115002.283000", "115004.283000", "115005.784000", "115007.783000", "115010.284000", "115011.784000", "115014.284000", "115016.284000", "115018.283000", "115019.782000", "115021.783000", "115024.284000", "115025.784000", "115028.284000", "115029.784000", "115032.284000", "115034.284000", "115035.783000", "115037.782000", "115040.283000", "115041.783000", "115043.791000", "115045.784000", "115047.783000", "115050.283000", "115052.284000", "115053.782000", "115056.283000", "115057.783000", "115100.284000", "115101.784000", "115104.283000", "115105.784000", "115108.284000", "115109.783000", "115111.783000", "115113.783000", "115116.284000", "115118.284000", "115119.784000", "115121.783000", "115123.784000", "115125.783000", "115128.283000", "115129.782000", "115132.283000", "115133.783000", "115135.783000", "115137.784000", "115140.284000", "115141.784000", "115143.784000", "115146.282000", "115148.283000", "115149.784000", "115151.783000", "115154.283000", "115156.284000", "115158.284000", "115159.784000", "115202.284000", "115204.283000", "115206.283000", "115207.784000", "115210.284000", "115211.783000", "115213.784000", "115216.283000", "115217.784000", "115220.282000", "115222.283000", "115224.283000", "115226.284000", "115228.283000", "115229.784000", "115232.284000", "115233.783000", "115236.283000", "115237.783000", "115240.283000", "115241.783000", "115244.284000", "115246.283000", "115247.784000", "115250.284000", "115251.783000", "115253.784000", "115256.283000", "115258.283000", "115259.783000", "115301.783000", "115303.783000", "115305.783000", "115307.783000", "115310.284000", "115311.783000", "115313.783000", "115315.783000", "115318.284000", "115319.783000", "115322.284000", "115323.783000", "115325.784000", "115327.784000", "115329.784000", "115332.283000", "115333.783000", "115336.284000", "115337.783000", "115340.283000", "115341.784000", "115343.784000", "115346.284000", "115347.783000", "115350.283000", "115351.782000", "115353.784000", "115356.284000", "115357.783000", "115359.784000", "115402.284000", "115404.284000", "115405.783000", "115408.283000", "115410.283000", "115412.284000", "115413.783000", "115416.284000", "115418.284000", "115420.283000", "115421.784000", "115423.783000", "115425.783000", "115428.284000", "115429.784000", "115432.284000", "115434.284000", "115436.284000", "115437.784000", "115439.783000", "115441.783000", "115443.783000", "115446.284000", "115447.784000", "115449.784000", "115452.284000", "115453.783000", "115455.784000", "115458.283000", "115459.783000", "115502.283000", "115503.783000", "115506.284000", "115507.784000", "115509.784000", "115511.753000"],
      "InstanceNumber": [1, 2, 3, 4, 5, 6, 7, 8, 9, 10, 11, 12, 13, 14, 15, 16, 17, 18, 19, 20, 21, 22, 23, 24, 25, 26, 27, 28, 29, 30, 31, 32, 33, 34, 35, 36, 37, 38, 39, 40, 41, 42, 43, 44, 45, 46, 47, 48, 49, 50, 51, 52, 53, 54, 55, 56, 57, 58, 59, 60, 61, 62, 63, 64, 65, 66, 67, 68, 69, 70, 71, 72, 73, 74, 75, 76, 77, 78, 79, 80, 81, 82, 83, 84, 85, 86, 87, 88, 89, 90, 91, 92, 93, 94, 95, 96, 97, 98, 99, 100, 101, 102, 103, 104, 105, 106, 107, 108, 109, 110, 111, 112, 113, 114, 115, 116, 117, 118, 119, 120, 121, 122, 123, 124, 125, 126, 127, 128, 129, 130, 131, 132, 133, 134, 135, 136, 137, 138, 139, 140, 141, 142, 143, 144, 145, 146, 147, 148, 149, 150, 151, 152, 153, 154, 155, 156, 157, 158, 159, 160, 161, 162, 163, 164, 165, 166, 167, 168, 169, 170, 171, 172, 173, 174, 175, 176, 177, 178, 179, 180, 181, 182, 183, 184, 185, 186, 187, 188, 189, 190, 191, 192, 193, 194, 195, 196, 197, 198, 199, 200, 201, 202, 203, 204, 205, 206, 207, 208, 209, 210, 211, 212, 213, 214, 215, 216, 217, 218, 219, 220, 221, 222, 223, 224, 225, 226, 227, 228, 229, 230, 231, 232, 233, 234, 235, 236, 237, 238, 239, 240, 241, 242, 243, 244, 245, 246, 247, 248, 249, 250, 251, 252, 253, 254, 255, 256],
      "LargestImagePixelValue": [3460, 3385, 3341, 3353, 3373, 3320, 3293, 3248, 3276, 3282, 3312, 3235, 3267, 3217, 3258, 3260, 3240, 3156, 3180, 3148, 3234, 3214, 3226, 3201, 3215, 3236, 3228, 3227, 3203, 3185, 3188, 3193, 3138, 3126, 3131, 3135, 3130, 3162, 3137, 3155, 3152, 3134, 3126, 3134, 3132, 3146, 3131, 3150, 3133, 3118, 3125, 3132, 3124, 3140, 3115, 3126, 3136, 3124, 3180, 3101, 3136, 3184, 3274, 3265, 3248, 3253, 3236, 3276, 3279, 3253, 3231, 3185, 3192, 3188, 3217, 3198, 3168, 3175, 3218, 3168, 3153, 3166, 3142, 3155, 3136, 3141, 3179, 3218, 3214, 3185, 3137, 3156, 3184, 3192, 3179, 3117, 3090, 3095, 3079, 3147, 3093, 3116, 3127, 3139, 3111, 3130, 3131, 3070, 3085, 3162, 3168, 3098, 3057, 3219, 3207, 3164, 3106, 3066, 3121, 3123, 3072, 3038, 3077, 3211, 3168, 3108, 3095, 3115, 3152, 3109, 3161, 3116, 3099, 3236, 3149, 3110, 3089, 3096, 3221, 3105, 3071, 3030, 3047, 3104, 3135, 3046, 3055, 3012, 3043, 3084, 3153, 3071, 3092, 3082, 3121, 3124, 3135, 3131, 3104, 3119, 3122, 3118, 3239, 3155, 3104, 3080, 3132, 3110, 3064, 3056, 3037, 3048, 3089, 3046, 2982, 2994, 3028, 3057, 3098, 3047, 3033, 3089, 3096, 3087, 3051, 3042, 3075, 3084, 3125, 3070, 3055, 3128, 3047, 3091, 3058, 2999, 3044, 3039, 3033, 2955, 3050, 3032, 3049, 3057, 3086, 2993, 3009, 3088, 3055, 3110, 3126, 3044, 3083, 3082, 3062, 3060, 3103, 3066, 3079, 3055, 3030, 3082, 3042, 3060, 3084, 3117, 3108, 3084, 3098, 3061, 3076, 3144, 3109, 3122, 3176, 3134, 3105, 3150, 3067, 3105, 3117, 3109, 3134, 3192, 3094, 3098, 3102, 3125, 3163, 3153, 3092, 3139, 3123, 3170, 3124, 3096],
      "WindowCenter": [785.0, 785.0, 787.0, 788.0, 787.0, 787.0, 786.0, 787.0, 788.0, 787.0, 787.0, 786.0, 787.0, 786.0, 787.0, 787.0, 787.0, 786.0, 786.0, 785.0, 787.0, 786.0, 785.0, 784.0, 785.0, 787.0, 788.0, 787.0, 786.0, 785.0, 786.0, 786.0, 785.0, 784.0, 784.0, 784.0, 785.0, 785.0, 785.0, 786.0, 787.0, 787.0, 785.0, 785.0, 785.0, 785.0, 785.0, 785.0, 784.0, 784.0, 786.0, 787.0, 787.0, 785.0, 784.0, 785.0, 786.0, 786.0, 786.0, 784.0, 784.0, 784.0, 784.0, 784.0, 785.0, 785.0, 785.0, 786.0, 787.0, 786.0, 785.0, 785.0, 786.0, 787.0, 786.0, 785.0, 783.0, 784.0, 784.0, 784.0, 783.0, 783.0, 783.0, 784.0, 784.0, 785.0, 786.0, 786.0, 785.0, 784.0, 783.0, 785.0, 785.0, 784.0, 784.0, 783.0, 782.0, 783.0, 783.0, 785.0, 784.0, 783.0, 783.0, 784.0, 783.0, 783.0, 783.0, 783.0, 783.0, 783.0, 783.0, 783.0, 783.0, 784.0, 783.0, 782.0, 783.0, 784.0, 786.0, 785.0, 783.0, 782.0, 782.0, 784.0, 785.0, 785.0, 784.0, 783.0, 782.0, 781.0, 781.0, 781.0, 781.0, 783.0, 783.0, 783.0, 782.0, 782.0, 783.0, 783.0, 783.0, 783.0, 783.0, 782.0, 783.0, 783.0, 783.0, 783.0, 782.0, 782.0, 783.0, 783.0, 782.0, 781.0, 782.0, 782.0, 783.0, 782.0, 781.0, 783.0, 783.0, 783.0, 783.0, 783.0, 782.0, 782.0, 782.0, 782.0, 781.0, 781.0, 782.0, 783.0, 784.0, 782.0, 781.0, 780.0, 780.0, 780.0, 782.0, 783.0, 783.0, 782.0, 781.0, 781.0, 783.0, 785.0, 784.0, 782.0, 780.0, 779.0, 780.0, 781.0, 780.0, 781.0, 781.0, 782.0, 783.0, 783.0, 782.0, 782.0, 782.0, 781.0, 781.0, 780.0, 780.0, 779.0, 780.0, 781.0, 781.0, 782.0, 781.0, 781.0, 782.0, 784.0, 784.0, 784.0, 783.0, 783.0, 782.0, 781.0, 781.0, 781.0, 782.0, 782.0, 781.0, 780.0, 782.0, 782.0, 782.0, 781.0, 780.0, 780.0, 780.0, 781.0, 782.0, 781.0, 781.0, 780.0, 780.0, 782.0, 783.0, 782.0, 785.0, 787.0, 784.0, 782.0, 780.0, 780.0, 780.0, 779.0, 779.0, 779.0, 779.0, 780.0, 781.0, 781.0],
      "WindowWidth": [1700.0, 1700.0, 1704.0, 1707.0, 1706.0, 1704.0, 1702.0, 1704.0, 1707.0, 1705.0, 1706.0, 1703.0, 1704.0, 1703.0, 1705.0, 1704.0, 1704.0, 1701.0, 1702.0, 1700.0, 1704.0, 1702.0, 1700.0, 1696.0, 1699.0, 1705.0, 1707.0, 1706.0, 1701.0, 1698.0, 1701.0, 1701.0, 1699.0, 1695.0, 1695.0, 1696.0, 1698.0, 1699.0, 1699.0, 1701.0, 1704.0, 1703.0, 1699.0, 1698.0, 1698.0, 1700.0, 1700.0, 1698.0, 1696.0, 1695.0, 1700.0, 1704.0, 1703.0, 1699.0, 1697.0, 1698.0, 1701.0, 1702.0, 1700.0, 1696.0, 1695.0, 1696.0, 1697.0, 1696.0, 1697.0, 1698.0, 1700.0, 1703.0, 1703.0, 1700.0, 1698.0, 1697.0, 1702.0, 1704.0, 1701.0, 1697.0, 1694.0, 1695.0, 1697.0, 1696.0, 1694.0, 1694.0, 1694.0, 1695.0, 1695.0, 1697.0, 1700.0, 1700.0, 1697.0, 1695.0, 1693.0, 1698.0, 1698.0, 1697.0, 1696.0, 1692.0, 1690.0, 1691.0, 1693.0, 1697.0, 1695.0, 1692.0, 1692.0, 1695.0, 1694.0, 1693.0, 1692.0, 1692.0, 1692.0, 1693.0, 1693.0, 1692.0, 1693.0, 1694.0, 1692.0, 1689.0, 1691.0, 1696.0, 1701.0, 1698.0, 1692.0, 1689.0, 1690.0, 1697.0, 1699.0, 1698.0, 1694.0, 1691.0, 1689.0, 1686.0, 1686.0, 1686.0, 1687.0, 1692.0, 1693.0, 1693.0, 1689.0, 1689.0, 1692.0, 1692.0, 1693.0, 1693.0, 1692.0, 1691.0, 1692.0, 1692.0, 1693.0, 1691.0, 1689.0, 1689.0, 1692.0, 1692.0, 1691.0, 1687.0, 1690.0, 1690.0, 1691.0, 1689.0, 1688.0, 1691.0, 1691.0, 1691.0, 1694.0, 1692.0, 1690.0, 1689.0, 1689.0, 1688.0, 1687.0, 1687.0, 1688.0, 1691.0, 1693.0, 1690.0, 1686.0, 1683.0, 1682.0, 1684.0, 1689.0, 1691.0, 1693.0, 1691.0, 1686.0, 1687.0, 1693.0, 1698.0, 1694.0, 1688.0, 1684.0, 1682.0, 1684.0, 1686.0, 1684.0, 1686.0, 1687.0, 1689.0, 1690.0, 1690.0, 1689.0, 1688.0, 1689.0, 1686.0, 1684.0, 1683.0, 1683.0, 1681.0, 1682.0, 1685.0, 1685.0, 1687.0, 1687.0, 1687.0, 1689.0, 1694.0, 1696.0, 1694.0, 1693.0, 1690.0, 1688.0, 1685.0, 1686.0, 1687.0, 1687.0, 1688.0, 1685.0, 1685.0, 1689.0, 1690.0, 1688.0, 1686.0, 1683.0, 1684.0, 1684.0, 1687.0, 1690.0, 1688.0, 1686.0, 1684.0, 1685.0, 1690.0, 1691.0, 1690.0, 1697.0, 1702.0, 1695.0, 1687.0, 1684.0, 1683.0, 1683.0, 1682.0, 1680.0, 1680.0, 1680.0, 1683.0, 1686.0, 1686.0]
    },
    "slices": {}
  }
}