{
 "AcquisitionMatrixPE": 100,
 "AcquisitionNumber": 1,
 "AcquisitionTime": "12:19:19.940000",
 "BandwidthPerPixelPhaseEncode": 18.519,
 "BaseResolution": 100,
 "BodyPartExamined": "BRAIN",
 "ConsistencyInfo": "N4_VE11C_LATEST_20160120",
 "ConversionSoftware": "dcm2niix",
 "ConversionSoftwareVersion": "v1.0.20180622 GCC4.9.2",
 "DerivedVendorReportedEchoSpacing": 0.000539986,
 "DeviceSerialNumber": "166078",
 "DwellTime": 2.1e-06,
 "EchoTime": 0.034,
 "EchoTrainLength": 100,
 "EffectiveEchoSpacing": 0.000539986,
 "FlipAngle": 90,
 "ImageOrientationPatientDICOM": [
  1,
  0,
  0,
  0,
  0.992546,
  -0.121869
 ],
 "ImageType": [
  "ORIGINAL",
  "PRIMARY",
  "M",
  "ND",
  "MOSAIC"
 ],
 "InPlanePhaseEncodingDirectionDICOM": "COL",
 "InstitutionAddress": "Street_StreetNo_Bei_Jing_District_CN_ZIP",
 "InstitutionName": "BeiJing_Normal_University",
 "InstitutionalDepartmentName": "Department",
 "MRAcquisitionType": "2D",
 "MagneticFieldStrength": 3,
 "Manufacturer": "Siemens",
 "ManufacturersModelName": "Prisma",
 "Modality": "MR",
 "MultibandAccelerationFactor": 3,
 "PartialFourier": 1,
 "PatientPosition": "HFS",
 "PercentPhaseFOV": 100,
 "PhaseEncodingDirection": "j-",
 "PhaseEncodingSteps": 100,
 "PhaseResolution": 1,
 "PixelBandwidth": 2380,
 "ProcedureStepDescription": "BNU_P2018_64CH_Zhen.ZongLei",
 "ProtocolName": "bold_100x100_s3_2x2x2_static_256",
 "PulseSequenceDetails": "%SiemensSeq%_ep2d_bold",
 "ReceiveCoilActiveElements": "HC1-7;NC1",
 "ReceiveCoilName": "HeadNeck_64",
 "ReconMatrixPE": 100,
 "RepetitionTime": 2,
 "SAR": 0.0683572,
 "ScanOptions": "FS",
 "ScanningSequence": "EP",
 "SequenceName": "_epfid2d1_100",
 "SequenceVariant": "SK",
 "SeriesDescription": "bold_100x100_s3_2x2x2_static_256",
 "SeriesNumber": 12,
 "ShimSetting": [
  -5462,
  -11495,
  -1241,
  549,
  -40,
  -75,
  -51,
  32
 ],
 "SliceThickness": 2,
 "SliceTiming": [
  1.485,
  0,
  0.99,
  0.0825,
  1.0725,
  0.165,
  1.155,
  0.2475,
  1.2375,
  0.33,
  1.32,
  0.4125,
  1.4025,
  0.5775,
  1.5675,
  0.66,
  1.65,
  0.7425,
  1.7325,
  0.825,
  1.815,
  0.9075,
  1.8975,
  0.495,
  1.485,
  0,
  0.99,
  0.0825,
  1.0725,
  0.165,
  1.155,
  0.2475,
  1.2375,
  0.33,
  1.32,
  0.4125,
  1.4025,
  0.5775,
  1.5675,
  0.66,
  1.65,
  0.7425,
  1.7325,
  0.825,
  1.815,
  0.9075,
  1.8975,
  0.495,
  1.485,
  0,
  0.99,
  0.0825,
  1.0725,
  0.165,
  1.155,
  0.2475,
  1.2375,
  0.33,
  1.32,
  0.4125,
  1.4025,
  0.5775,
  1.5675,
  0.66,
  1.65,
  0.7425,
  1.7325,
  0.825,
  1.815,
  0.9075,
  1.8975,
  0.495
 ],
 "SoftwareVersions": "syngo_MR_E11",
 "SpacingBetweenSlices": 2,
 "StationName": "AWP166078",
 "TaskName": "imagenet",
 "TotalReadoutTime": 0.0534586,
 "TxRefAmp": 211.066,
 "dcmmeta_affine": [
  [
   -2.0,
   0.0,
   0.0,
   100.67469787597656
  ],
  [
   0.0,
   1.985092282295227,
   -0.24373869597911835,
   -77.38306427001953
  ],
  [
   0.0,
   0.24373868107795715,
   1.985092282295227,
   -68.47662353515625
  ],
  [
   0.0,
   0.0,
   0.0,
   1.0
  ]
 ],
 "dcmmeta_reorient_transform": [
  [
   0.0,
   -1.0,
   0.0,
   99.0
  ],
  [
   1.0,
   0.0,
   0.0,
   0.0
  ],
  [
   0.0,
   0.0,
   1.0,
   0.0
  ],
  [
   0.0,
   0.0,
   0.0,
   1.0
  ]
 ],
 "dcmmeta_shape": [
  100,
  100,
  72,
  256
 ],
 "dcmmeta_slice_dim": 2,
 "dcmmeta_version": 0.6,
 "global": {
  "const": {
   "AcquisitionMatrix": [
    100,
    0,
    0,
    100
   ],
   "AngioFlag": "N",
   "BitsAllocated": 16,
   "BitsStored": 12,
   "BodyPartExamined": "BRAIN",
   "Columns": 900,
   "EchoNumbers": 1,
   "EchoTime": 34.0,
   "EchoTrainLength": 100,
   "FlipAngle": 90.0,
   "HighBit": 11,
   "ImageOrientationPatient": [
    1.0,
    0.0,
    0.0,
    0.0,
    0.99254615167353,
    -0.1218693431428
   ],
   "ImagePositionPatient": [
    -900.67469877005,
    -913.17799394941,
    53.148980636399
   ],
   "ImageType": [
    "ORIGINAL",
    "PRIMARY",
    "M",
    "ND",
    "MOSAIC"
   ],
   "ImagedNucleus": "1H",
   "ImagingFrequency": 123.257754,
   "InPlanePhaseEncodingDirection": "COL",
   "MRAcquisitionType": "2D",
   "MagneticFieldStrength": 3.0,
   "Manufacturer": "SIEMENS",
   "ManufacturerModelName": "Prisma",
   "Modality": "MR",
   "NumberOfAverages": 1.0,
   "NumberOfPhaseEncodingSteps": 100,
   "PercentPhaseFieldOfView": 100.0,
   "PercentSampling": 100.0,
   "PerformedProcedureStepStartTime": "110253.980000",
   "PhotometricInterpretation": "MONOCHROME2",
   "PixelBandwidth": 2380.0,
   "PixelRepresentation": 0,
   "PixelSpacing": [
    2.0,
    2.0
   ],
   "ProtocolName": "bold_100x100_s3_2x2x2_static_256",
   "RepetitionTime": 2000.0,
   "Rows": 900,
   "SAR": 0.06835720820559,
   "SamplesPerPixel": 1,
   "ScanOptions": "FS",
   "ScanningSequence": "EP",
   "SequenceName": "*epfid2d1_100",
   "SequenceVariant": "SK",
   "SeriesDescription": "bold_100x100_s3_2x2x2_static_256",
   "SeriesNumber": 12,
   "SeriesTime": "121922.810000",
   "SliceLocation": -58.535586099064,
   "SliceThickness": 2.0,
   "SmallestImagePixelValue": 0,
   "SoftwareVersions": "syngo MR E11",
   "SpacingBetweenSlices": 2.0000000193653,
   "SpecificCharacterSet": "ISO_IR 100",
   "StudyID": "1",
   "StudyTime": "110253.893000",
   "TransmitCoilName": "Body",
   "VariableFlipAngleFlag": "N",
   "WindowCenterWidthExplanation": "Algo1",
   "dBdt": 0.0
  },
  "slices": {}
 },
 "time": {
  "samples": {
   "AcquisitionNumber": [
    1,
    2,
    3,
    4,
    5,
    6,
    7,
    8,
    9,
    10,
    11,
    12,
    13,
    14,
    15,
    16,
    17,
    18,
    19,
    20,
    21,
    22,
    23,
    24,
    25,
    26,
    27,
    28,
    29,
    30,
    31,
    32,
    33,
    34,
    35,
    36,
    37,
    38,
    39,
    40,
    41,
    42,
    43,
    44,
    45,
    46,
    47,
    48,
    49,
    50,
    51,
    52,
    53,
    54,
    55,
    56,
    57,
    58,
    59,
    60,
    61,
    62,
    63,
    64,
    65,
    66,
    67,
    68,
    69,
    70,
    71,
    72,
    73,
    74,
    75,
    76,
    77,
    78,
    79,
    80,
    81,
    82,
    83,
    84,
    85,
    86,
    87,
    88,
    89,
    90,
    91,
    92,
    93,
    94,
    95,
    96,
    97,
    98,
    99,
    100,
    101,
    102,
    103,
    104,
    105,
    106,
    107,
    108,
    109,
    110,
    111,
    112,
    113,
    114,
    115,
    116,
    117,
    118,
    119,
    120,
    121,
    122,
    123,
    124,
    125,
    126,
    127,
    128,
    129,
    130,
    131,
    132,
    133,
    134,
    135,
    136,
    137,
    138,
    139,
    140,
    141,
    142,
    143,
    144,
    145,
    146,
    147,
    148,
    149,
    150,
    151,
    152,
    153,
    154,
    155,
    156,
    157,
    158,
    159,
    160,
    161,
    162,
    163,
    164,
    165,
    166,
    167,
    168,
    169,
    170,
    171,
    172,
    173,
    174,
    175,
    176,
    177,
    178,
    179,
    180,
    181,
    182,
    183,
    184,
    185,
    186,
    187,
    188,
    189,
    190,
    191,
    192,
    193,
    194,
    195,
    196,
    197,
    198,
    199,
    200,
    201,
    202,
    203,
    204,
    205,
    206,
    207,
    208,
    209,
    210,
    211,
    212,
    213,
    214,
    215,
    216,
    217,
    218,
    219,
    220,
    221,
    222,
    223,
    224,
    225,
    226,
    227,
    228,
    229,
    230,
    231,
    232,
    233,
    234,
    235,
    236,
    237,
    238,
    239,
    240,
    241,
    242,
    243,
    244,
    245,
    246,
    247,
    248,
    249,
    250,
    251,
    252,
    253,
    254,
    255,
    256
   ],
   "AcquisitionTime": [
    "121919.940000",
    "121921.940000",
    "121923.940000",
    "121925.940000",
    "121927.940000",
    "121929.940000",
    "121931.940000",
    "121933.940000",
    "121935.940000",
    "121937.940000",
    "121939.940000",
    "121941.940000",
    "121943.940000",
    "121945.940000",
    "121947.940000",
    "121949.940000",
    "121951.940000",
    "121953.940000",
    "121955.940000",
    "121957.940000",
    "121959.940000",
    "122001.940000",
    "122003.940000",
    "122005.940000",
    "122007.940000",
    "122009.940000",
    "122011.940000",
    "122013.940000",
    "122015.940000",
    "122017.940000",
    "122019.940000",
    "122021.940000",
    "122023.940000",
    "122025.940000",
    "122027.940000",
    "122029.940000",
    "122031.940000",
    "122033.940000",
    "122035.940000",
    "122037.940000",
    "122039.940000",
    "122041.940000",
    "122043.940000",
    "122045.940000",
    "122047.940000",
    "122049.940000",
    "122051.940000",
    "122053.940000",
    "122055.940000",
    "122057.940000",
    "122059.940000",
    "122101.940000",
    "122103.940000",
    "122105.940000",
    "122107.940000",
    "122109.940000",
    "122111.940000",
    "122113.940000",
    "122115.940000",
    "122117.940000",
    "122119.940000",
    "122121.940000",
    "122123.940000",
    "122125.940000",
    "122127.940000",
    "122129.940000",
    "122131.940000",
    "122133.940000",
    "122135.940000",
    "122137.940000",
    "122139.940000",
    "122141.940000",
    "122143.940000",
    "122145.940000",
    "122147.940000",
    "122149.940000",
    "122151.940000",
    "122153.940000",
    "122155.940000",
    "122157.940000",
    "122159.940000",
    "122201.940000",
    "122203.940000",
    "122205.940000",
    "122207.940000",
    "122209.940000",
    "122211.940000",
    "122213.940000",
    "122215.940000",
    "122217.940000",
    "122219.940000",
    "122221.940000",
    "122223.940000",
    "122225.940000",
    "122227.940000",
    "122229.940000",
    "122231.940000",
    "122233.940000",
    "122235.940000",
    "122237.940000",
    "122239.940000",
    "122241.940000",
    "122243.940000",
    "122245.940000",
    "122247.940000",
    "122249.940000",
    "122251.940000",
    "122253.940000",
    "122255.940000",
    "122257.940000",
    "122259.940000",
    "122301.940000",
    "122303.940000",
    "122305.940000",
    "122307.940000",
    "122309.940000",
    "122311.940000",
    "122313.940000",
    "122315.940000",
    "122317.940000",
    "122319.940000",
    "122321.940000",
    "122323.940000",
    "122325.940000",
    "122327.940000",
    "122329.940000",
    "122331.940000",
    "122333.940000",
    "122335.940000",
    "122337.940000",
    "122339.940000",
    "122341.940000",
    "122343.940000",
    "122345.940000",
    "122347.940000",
    "122349.940000",
    "122351.940000",
    "122353.940000",
    "122355.940000",
    "122357.940000",
    "122359.940000",
    "122401.940000",
    "122403.940000",
    "122405.940000",
    "122407.940000",
    "122409.940000",
    "122411.940000",
    "122413.940000",
    "122415.940000",
    "122417.940000",
    "122419.940000",
    "122421.940000",
    "122423.940000",
    "122425.940000",
    "122427.940000",
    "122429.940000",
    "122431.940000",
    "122433.940000",
    "122435.940000",
    "122437.940000",
    "122439.940000",
    "122441.940000",
    "122443.940000",
    "122445.940000",
    "122447.940000",
    "122449.940000",
    "122451.940000",
    "122453.940000",
    "122455.940000",
    "122457.940000",
    "122459.940000",
    "122501.940000",
    "122503.940000",
    "122505.940000",
    "122507.940000",
    "122509.940000",
    "122511.940000",
    "122513.940000",
    "122515.940000",
    "122517.940000",
    "122519.940000",
    "122521.940000",
    "122523.940000",
    "122525.940000",
    "122527.940000",
    "122529.940000",
    "122531.940000",
    "122533.940000",
    "122535.940000",
    "122537.940000",
    "122539.940000",
    "122541.940000",
    "122543.940000",
    "122545.940000",
    "122547.940000",
    "122549.940000",
    "122551.940000",
    "122553.940000",
    "122555.940000",
    "122557.940000",
    "122559.940000",
    "122601.940000",
    "122603.940000",
    "122605.940000",
    "122607.940000",
    "122609.940000",
    "122611.940000",
    "122613.940000",
    "122615.940000",
    "122617.940000",
    "122619.940000",
    "122621.940000",
    "122623.940000",
    "122625.940000",
    "122627.940000",
    "122629.940000",
    "122631.940000",
    "122633.940000",
    "122635.940000",
    "122637.940000",
    "122639.940000",
    "122641.940000",
    "122643.940000",
    "122645.940000",
    "122647.940000",
    "122649.940000",
    "122651.940000",
    "122653.940000",
    "122655.940000",
    "122657.940000",
    "122659.940000",
    "122701.940000",
    "122703.940000",
    "122705.940000",
    "122707.940000",
    "122709.940000",
    "122711.940000",
    "122713.940000",
    "122715.940000",
    "122717.940000",
    "122719.940000",
    "122721.940000",
    "122723.940000",
    "122725.940000",
    "122727.940000",
    "122729.940000",
    "122731.940000",
    "122733.940000",
    "122735.940000",
    "122737.940000",
    "122739.940000",
    "122741.940000",
    "122743.940000",
    "122745.940000",
    "122747.940000",
    "122749.940000"
   ],
   "ContentTime": [
    "121922.814000",
    "121924.309000",
    "121926.308000",
    "121928.307000",
    "121930.307000",
    "121932.309000",
    "121934.309000",
    "121936.309000",
    "121938.308000",
    "121940.308000",
    "121942.309000",
    "121944.308000",
    "121946.308000",
    "121948.309000",
    "121950.309000",
    "121952.309000",
    "121954.308000",
    "121956.308000",
    "121958.309000",
    "122000.309000",
    "122002.307000",
    "122004.308000",
    "122006.309000",
    "122008.308000",
    "122010.309000",
    "122012.308000",
    "122014.309000",
    "122016.309000",
    "122018.307000",
    "122020.307000",
    "122022.307000",
    "122024.308000",
    "122026.308000",
    "122028.308000",
    "122030.308000",
    "122032.308000",
    "122034.309000",
    "122036.308000",
    "122038.307000",
    "122040.307000",
    "122042.308000",
    "122044.308000",
    "122046.308000",
    "122048.308000",
    "122050.308000",
    "122052.308000",
    "122054.307000",
    "122056.307000",
    "122058.309000",
    "122100.308000",
    "122102.309000",
    "122104.308000",
    "122106.308000",
    "122108.308000",
    "122110.309000",
    "122112.307000",
    "122114.308000",
    "122116.309000",
    "122118.309000",
    "122120.308000",
    "122122.309000",
    "122124.308000",
    "122126.308000",
    "122128.307000",
    "122130.308000",
    "122132.307000",
    "122134.308000",
    "122136.309000",
    "122138.308000",
    "122140.308000",
    "122142.308000",
    "122144.308000",
    "122146.307000",
    "122148.307000",
    "122150.307000",
    "122152.308000",
    "122154.308000",
    "122156.308000",
    "122158.308000",
    "122200.308000",
    "122202.308000",
    "122204.307000",
    "122206.308000",
    "122208.308000",
    "122210.308000",
    "122212.308000",
    "122214.309000",
    "122216.309000",
    "122218.309000",
    "122220.309000",
    "122222.307000",
    "122224.307000",
    "122226.309000",
    "122228.308000",
    "122230.308000",
    "122232.308000",
    "122234.308000",
    "122236.308000",
    "122238.308000",
    "122240.307000",
    "122242.308000",
    "122244.308000",
    "122246.309000",
    "122248.309000",
    "122250.308000",
    "122252.308000",
    "122254.309000",
    "122256.308000",
    "122258.307000",
    "122300.307000",
    "122302.309000",
    "122304.309000",
    "122306.309000",
    "122308.308000",
    "122310.309000",
    "122312.309000",
    "122314.307000",
    "122316.308000",
    "122318.328000",
    "122320.308000",
    "122322.309000",
    "122324.309000",
    "122326.309000",
    "122328.308000",
    "122330.308000",
    "122332.308000",
    "122334.307000",
    "122336.309000",
    "122338.309000",
    "122340.308000",
    "122342.809000",
    "122344.309000",
    "122346.309000",
    "122348.307000",
    "122350.307000",
    "122352.808000",
    "122354.309000",
    "122356.308000",
    "122358.809000",
    "122400.309000",
    "122402.309000",
    "122404.308000",
    "122406.307000",
    "122408.307000",
    "122410.307000",
    "122412.308000",
    "122414.308000",
    "122416.308000",
    "122418.309000",
    "122420.308000",
    "122422.309000",
    "122424.307000",
    "122426.308000",
    "122428.309000",
    "122430.808000",
    "122432.308000",
    "122434.308000",
    "122436.308000",
    "122438.308000",
    "122440.308000",
    "122442.307000",
    "122444.307000",
    "122446.309000",
    "122448.309000",
    "122450.309000",
    "122452.309000",
    "122454.309000",
    "122456.309000",
    "122458.307000",
    "122500.307000",
    "122502.307000",
    "122504.308000",
    "122506.308000",
    "122508.309000",
    "122510.309000",
    "122512.308000",
    "122514.309000",
    "122516.307000",
    "122518.308000",
    "122520.309000",
    "122522.309000",
    "122524.309000",
    "122526.308000",
    "122528.308000",
    "122530.308000",
    "122532.308000",
    "122534.308000",
    "122536.308000",
    "122538.308000",
    "122540.309000",
    "122542.309000",
    "122544.309000",
    "122546.309000",
    "122548.308000",
    "122550.308000",
    "122552.308000",
    "122554.308000",
    "122556.309000",
    "122558.309000",
    "122600.309000",
    "122602.309000",
    "122604.308000",
    "122606.309000",
    "122608.308000",
    "122610.307000",
    "122612.308000",
    "122614.309000",
    "122616.308000",
    "122618.308000",
    "122620.809000",
    "122622.309000",
    "122624.308000",
    "122626.307000",
    "122628.308000",
    "122630.308000",
    "122632.308000",
    "122634.309000",
    "122636.309000",
    "122638.308000",
    "122640.309000",
    "122642.324000",
    "122644.308000",
    "122646.308000",
    "122648.309000",
    "122650.309000",
    "122652.309000",
    "122654.309000",
    "122656.309000",
    "122658.309000",
    "122700.307000",
    "122702.307000",
    "122704.308000",
    "122706.308000",
    "122708.309000",
    "122710.308000",
    "122712.308000",
    "122714.309000",
    "122716.308000",
    "122718.307000",
    "122720.308000",
    "122722.307000",
    "122724.308000",
    "122726.308000",
    "122728.309000",
    "122730.308000",
    "122732.308000",
    "122734.309000",
    "122736.308000",
    "122738.308000",
    "122740.309000",
    "122742.309000",
    "122744.309000",
    "122746.309000",
    "122748.309000",
    "122750.309000",
    "122752.220000"
   ],
   "InstanceCreationTime": [
    "121922.814000",
    "121924.309000",
    "121926.308000",
    "121928.307000",
    "121930.307000",
    "121932.309000",
    "121934.309000",
    "121936.309000",
    "121938.308000",
    "121940.308000",
    "121942.309000",
    "121944.308000",
    "121946.308000",
    "121948.309000",
    "121950.309000",
    "121952.309000",
    "121954.308000",
    "121956.308000",
    "121958.309000",
    "122000.309000",
    "122002.307000",
    "122004.308000",
    "122006.309000",
    "122008.308000",
    "122010.309000",
    "122012.308000",
    "122014.309000",
    "122016.309000",
    "122018.307000",
    "122020.307000",
    "122022.307000",
    "122024.308000",
    "122026.308000",
    "122028.308000",
    "122030.308000",
    "122032.308000",
    "122034.309000",
    "122036.308000",
    "122038.307000",
    "122040.307000",
    "122042.308000",
    "122044.308000",
    "122046.308000",
    "122048.308000",
    "122050.308000",
    "122052.308000",
    "122054.307000",
    "122056.307000",
    "122058.309000",
    "122100.308000",
    "122102.309000",
    "122104.308000",
    "122106.308000",
    "122108.308000",
    "122110.309000",
    "122112.307000",
    "122114.308000",
    "122116.309000",
    "122118.309000",
    "122120.308000",
    "122122.309000",
    "122124.308000",
    "122126.308000",
    "122128.307000",
    "122130.308000",
    "122132.307000",
    "122134.308000",
    "122136.309000",
    "122138.308000",
    "122140.308000",
    "122142.308000",
    "122144.308000",
    "122146.307000",
    "122148.307000",
    "122150.307000",
    "122152.308000",
    "122154.308000",
    "122156.308000",
    "122158.308000",
    "122200.308000",
    "122202.308000",
    "122204.307000",
    "122206.308000",
    "122208.308000",
    "122210.308000",
    "122212.308000",
    "122214.309000",
    "122216.309000",
    "122218.309000",
    "122220.309000",
    "122222.307000",
    "122224.307000",
    "122226.309000",
    "122228.308000",
    "122230.308000",
    "122232.308000",
    "122234.308000",
    "122236.308000",
    "122238.308000",
    "122240.307000",
    "122242.308000",
    "122244.308000",
    "122246.309000",
    "122248.309000",
    "122250.308000",
    "122252.308000",
    "122254.309000",
    "122256.308000",
    "122258.307000",
    "122300.307000",
    "122302.309000",
    "122304.309000",
    "122306.309000",
    "122308.308000",
    "122310.309000",
    "122312.309000",
    "122314.307000",
    "122316.308000",
    "122318.328000",
    "122320.308000",
    "122322.309000",
    "122324.309000",
    "122326.309000",
    "122328.308000",
    "122330.308000",
    "122332.308000",
    "122334.307000",
    "122336.309000",
    "122338.309000",
    "122340.308000",
    "122342.809000",
    "122344.309000",
    "122346.309000",
    "122348.307000",
    "122350.307000",
    "122352.808000",
    "122354.309000",
    "122356.308000",
    "122358.809000",
    "122400.309000",
    "122402.309000",
    "122404.308000",
    "122406.307000",
    "122408.307000",
    "122410.307000",
    "122412.308000",
    "122414.308000",
    "122416.308000",
    "122418.309000",
    "122420.308000",
    "122422.309000",
    "122424.307000",
    "122426.308000",
    "122428.309000",
    "122430.808000",
    "122432.308000",
    "122434.308000",
    "122436.308000",
    "122438.308000",
    "122440.308000",
    "122442.307000",
    "122444.307000",
    "122446.309000",
    "122448.309000",
    "122450.309000",
    "122452.309000",
    "122454.309000",
    "122456.309000",
    "122458.307000",
    "122500.307000",
    "122502.307000",
    "122504.308000",
    "122506.308000",
    "122508.309000",
    "122510.309000",
    "122512.308000",
    "122514.309000",
    "122516.307000",
    "122518.308000",
    "122520.309000",
    "122522.309000",
    "122524.309000",
    "122526.308000",
    "122528.308000",
    "122530.308000",
    "122532.308000",
    "122534.308000",
    "122536.308000",
    "122538.308000",
    "122540.309000",
    "122542.309000",
    "122544.309000",
    "122546.309000",
    "122548.308000",
    "122550.308000",
    "122552.308000",
    "122554.308000",
    "122556.309000",
    "122558.309000",
    "122600.309000",
    "122602.309000",
    "122604.308000",
    "122606.309000",
    "122608.308000",
    "122610.307000",
    "122612.308000",
    "122614.309000",
    "122616.308000",
    "122618.308000",
    "122620.809000",
    "122622.309000",
    "122624.308000",
    "122626.307000",
    "122628.308000",
    "122630.308000",
    "122632.308000",
    "122634.309000",
    "122636.309000",
    "122638.308000",
    "122640.309000",
    "122642.324000",
    "122644.308000",
    "122646.308000",
    "122648.309000",
    "122650.309000",
    "122652.309000",
    "122654.309000",
    "122656.309000",
    "122658.309000",
    "122700.307000",
    "122702.307000",
    "122704.308000",
    "122706.308000",
    "122708.309000",
    "122710.308000",
    "122712.308000",
    "122714.309000",
    "122716.308000",
    "122718.307000",
    "122720.308000",
    "122722.307000",
    "122724.308000",
    "122726.308000",
    "122728.309000",
    "122730.308000",
    "122732.308000",
    "122734.309000",
    "122736.308000",
    "122738.308000",
    "122740.309000",
    "122742.309000",
    "122744.309000",
    "122746.309000",
    "122748.309000",
    "122750.309000",
    "122752.220000"
   ],
   "InstanceNumber": [
    1,
    2,
    3,
    4,
    5,
    6,
    7,
    8,
    9,
    10,
    11,
    12,
    13,
    14,
    15,
    16,
    17,
    18,
    19,
    20,
    21,
    22,
    23,
    24,
    25,
    26,
    27,
    28,
    29,
    30,
    31,
    32,
    33,
    34,
    35,
    36,
    37,
    38,
    39,
    40,
    41,
    42,
    43,
    44,
    45,
    46,
    47,
    48,
    49,
    50,
    51,
    52,
    53,
    54,
    55,
    56,
    57,
    58,
    59,
    60,
    61,
    62,
    63,
    64,
    65,
    66,
    67,
    68,
    69,
    70,
    71,
    72,
    73,
    74,
    75,
    76,
    77,
    78,
    79,
    80,
    81,
    82,
    83,
    84,
    85,
    86,
    87,
    88,
    89,
    90,
    91,
    92,
    93,
    94,
    95,
    96,
    97,
    98,
    99,
    100,
    101,
    102,
    103,
    104,
    105,
    106,
    107,
    108,
    109,
    110,
    111,
    112,
    113,
    114,
    115,
    116,
    117,
    118,
    119,
    120,
    121,
    122,
    123,
    124,
    125,
    126,
    127,
    128,
    129,
    130,
    131,
    132,
    133,
    134,
    135,
    136,
    137,
    138,
    139,
    140,
    141,
    142,
    143,
    144,
    145,
    146,
    147,
    148,
    149,
    150,
    151,
    152,
    153,
    154,
    155,
    156,
    157,
    158,
    159,
    160,
    161,
    162,
    163,
    164,
    165,
    166,
    167,
    168,
    169,
    170,
    171,
    172,
    173,
    174,
    175,
    176,
    177,
    178,
    179,
    180,
    181,
    182,
    183,
    184,
    185,
    186,
    187,
    188,
    189,
    190,
    191,
    192,
    193,
    194,
    195,
    196,
    197,
    198,
    199,
    200,
    201,
    202,
    203,
    204,
    205,
    206,
    207,
    208,
    209,
    210,
    211,
    212,
    213,
    214,
    215,
    216,
    217,
    218,
    219,
    220,
    221,
    222,
    223,
    224,
    225,
    226,
    227,
    228,
    229,
    230,
    231,
    232,
    233,
    234,
    235,
    236,
    237,
    238,
    239,
    240,
    241,
    242,
    243,
    244,
    245,
    246,
    247,
    248,
    249,
    250,
    251,
    252,
    253,
    254,
    255,
    256
   ],
   "LargestImagePixelValue": [
    3368,
    3309,
    3271,
    3252,
    3313,
    3250,
    3224,
    3283,
    3337,
    3362,
    3321,
    3353,
    3385,
    3444,
    3423,
    3431,
    3372,
    3409,
    3402,
    3423,
    3385,
    3442,
    3397,
    3464,
    3470,
    3420,
    3314,
    3379,
    3360,
    3400,
    3335,
    3388,
    3333,
    3263,
    3276,
    3347,
    3340,
    3377,
    3256,
    3284,
    3329,
    3360,
    3390,
    3410,
    3458,
    3352,
    3344,
    3328,
    3350,
    3376,
    3380,
    3421,
    3344,
    3360,
    3377,
    3404,
    3408,
    3456,
    3417,
    3414,
    3325,
    3287,
    3303,
    3288,
    3276,
    3326,
    3356,
    3285,
    3267,
    3343,
    3357,
    3454,
    3304,
    3378,
    3313,
    3371,
    3398,
    3435,
    3343,
    3392,
    3394,
    3430,
    3328,
    3379,
    3378,
    3401,
    3451,
    3348,
    3364,
    3389,
    3394,
    3406,
    3367,
    3352,
    3345,
    3330,
    3301,
    3329,
    3268,
    3263,
    3302,
    3341,
    3287,
    3302,
    3369,
    3324,
    3338,
    3396,
    3415,
    3425,
    3423,
    3416,
    3398,
    3342,
    3357,
    3424,
    3417,
    3445,
    3404,
    3402,
    3376,
    3429,
    3483,
    3418,
    3456,
    3399,
    3330,
    3270,
    3272,
    3278,
    3335,
    3328,
    3308,
    3348,
    3360,
    3426,
    3402,
    3370,
    3395,
    3424,
    3436,
    3458,
    3470,
    3487,
    3494,
    3459,
    3402,
    3398,
    3457,
    3418,
    3465,
    3357,
    3361,
    3383,
    3385,
    3457,
    3350,
    3425,
    3398,
    3446,
    3455,
    3412,
    3378,
    3387,
    3435,
    3359,
    3375,
    3374,
    3326,
    3352,
    3347,
    3396,
    3403,
    3421,
    3449,
    3427,
    3424,
    3443,
    3425,
    3367,
    3409,
    3407,
    3500,
    3393,
    3295,
    3321,
    3268,
    3358,
    3442,
    3458,
    3444,
    3486,
    3399,
    3373,
    3341,
    3323,
    3356,
    3364,
    3371,
    3334,
    3447,
    3355,
    3397,
    3384,
    3325,
    3302,
    3299,
    3237,
    3255,
    3232,
    3234,
    3167,
    3254,
    3275,
    3309,
    3315,
    3398,
    3305,
    3319,
    3298,
    3371,
    3331,
    3306,
    3314,
    3264,
    3147,
    3122,
    3082,
    3134,
    3106,
    3171,
    3113,
    3226,
    3148,
    3185,
    3180,
    3216,
    3211,
    3173,
    3319,
    3245,
    3238,
    3222,
    3200,
    3210,
    3177,
    3238,
    3222,
    3282,
    3218,
    3229,
    3237,
    3104,
    3097,
    3136,
    3139
   ],
   "WindowCenter": [
    802.0,
    802.0,
    801.0,
    799.0,
    800.0,
    800.0,
    801.0,
    801.0,
    802.0,
    802.0,
    801.0,
    801.0,
    801.0,
    801.0,
    801.0,
    803.0,
    803.0,
    803.0,
    801.0,
    801.0,
    801.0,
    802.0,
    802.0,
    802.0,
    801.0,
    799.0,
    800.0,
    800.0,
    800.0,
    800.0,
    800.0,
    801.0,
    801.0,
    801.0,
    802.0,
    802.0,
    800.0,
    800.0,
    800.0,
    801.0,
    801.0,
    802.0,
    802.0,
    803.0,
    803.0,
    803.0,
    803.0,
    804.0,
    803.0,
    803.0,
    803.0,
    803.0,
    802.0,
    803.0,
    804.0,
    804.0,
    804.0,
    804.0,
    803.0,
    803.0,
    803.0,
    803.0,
    805.0,
    805.0,
    805.0,
    804.0,
    803.0,
    803.0,
    802.0,
    803.0,
    803.0,
    805.0,
    805.0,
    806.0,
    805.0,
    804.0,
    803.0,
    804.0,
    804.0,
    804.0,
    803.0,
    804.0,
    803.0,
    802.0,
    803.0,
    803.0,
    804.0,
    803.0,
    803.0,
    802.0,
    804.0,
    805.0,
    805.0,
    805.0,
    804.0,
    804.0,
    803.0,
    804.0,
    803.0,
    804.0,
    804.0,
    804.0,
    803.0,
    803.0,
    803.0,
    802.0,
    802.0,
    802.0,
    802.0,
    803.0,
    805.0,
    805.0,
    804.0,
    803.0,
    803.0,
    803.0,
    803.0,
    803.0,
    803.0,
    803.0,
    803.0,
    802.0,
    803.0,
    805.0,
    805.0,
