{
  "AcquisitionMatrixPE": 100,
  "AcquisitionNumber": 1,
  "AcquisitionTime": "12:29:14.607500",
  "BandwidthPerPixelPhaseEncode": 18.519,
  "BaseResolution": 100,
  "BodyPartExamined": "BRAIN",
  "ConsistencyInfo": "N4_VE11C_LATEST_20160120",
  "ConversionSoftware": "dcm2niix",
  "ConversionSoftwareVersion": "v1.0.20180622 GCC4.9.2",
  "DerivedVendorReportedEchoSpacing": 0.000539986,
  "DeviceSerialNumber": "166078",
  "DwellTime": 2.1e-06,
  "EchoTime": 0.034,
  "EchoTrainLength": 100,
  "EffectiveEchoSpacing": 0.000539986,
  "FlipAngle": 90,
  "ImageOrientationPatientDICOM": [1, 0, 0, 0, 0.992546, -0.121869],
  "ImageType": [
    "ORIGINAL",
    "PRIMARY",
    "M",
    "ND",
    "MOSAIC"
],
  "InPlanePhaseEncodingDirectionDICOM": "COL",
  "InstitutionAddress": "Street_StreetNo_Bei_Jing_District_CN_ZIP",
  "InstitutionName": "BeiJing_Normal_University",
  "InstitutionalDepartmentName": "Department",
  "MRAcquisitionType": "2D",
  "MagneticFieldStrength": 3,
  "Manufacturer": "Siemens",
  "ManufacturersModelName": "Prisma",
  "Modality": "MR",
  "MultibandAccelerationFactor": 3,
  "PartialFourier": 1,
  "PatientPosition": "HFS",
  "PercentPhaseFOV": 100,
  "PhaseEncodingDirection": "j-",
  "PhaseEncodingSteps": 100,
  "PhaseResolution": 1,
  "PixelBandwidth": 2380,
  "ProcedureStepDescription": "BNU_P2018_64CH_Zhen.ZongLei",
  "ProtocolName": "bold_100x100_s3_2x2x2_static_256",
  "PulseSequenceDetails": "%SiemensSeq%_ep2d_bold",
  "ReceiveCoilActiveElements": "HC1-7;NC1",
  "ReceiveCoilName": "HeadNeck_64",
  "ReconMatrixPE": 100,
  "RepetitionTime": 2,
  "SAR": 0.0683572,
  "ScanOptions": "FS",
  "ScanningSequence": "EP",
  "SequenceName": "_epfid2d1_100",
  "SequenceVariant": "SK",
  "SeriesDescription": "bold_100x100_s3_2x2x2_static_256",
  "SeriesNumber": 13,
  "ShimSetting": [-5462, -11495, -1241, 549, -40, -75, -51, 32],
  "SliceThickness": 2,
  "SliceTiming": [1.4825, 0, 0.9875, 0.0825, 1.07, 0.165, 1.1525, 0.2475, 1.235, 0.3275, 1.3175, 0.41, 1.4, 0.575, 1.565, 0.6575, 1.6475, 0.74, 1.73, 0.8225, 1.8125, 0.905, 1.895, 0.4925, 1.4825, 0, 0.9875, 0.0825, 1.07, 0.165, 1.1525, 0.2475, 1.235, 0.3275, 1.3175, 0.41, 1.4, 0.575, 1.565, 0.6575, 1.6475, 0.74, 1.73, 0.8225, 1.8125, 0.905, 1.895, 0.4925, 1.4825, 0, 0.9875, 0.0825, 1.07, 0.165, 1.1525, 0.2475, 1.235, 0.3275, 1.3175, 0.41, 1.4, 0.575, 1.565, 0.6575, 1.6475, 0.74, 1.73, 0.8225, 1.8125, 0.905, 1.895, 0.4925],
  "SoftwareVersions": "syngo_MR_E11",
  "SpacingBetweenSlices": 2,
  "StationName": "AWP166078",
  "TaskName": "naturalvision",
  "TotalReadoutTime": 0.0534586,
  "TxRefAmp": 211.066,
  "dcmmeta_affine": [
    [-2.0, 0.0, 0.0, 100.67469787597656],
    [0.0, 1.985092282295227, -0.24373869597911835, -77.38306427001953],
    [0.0, 0.24373868107795715, 1.985092282295227, -68.47662353515625],
    [0.0, 0.0, 0.0, 1.0]
],
  "dcmmeta_reorient_transform": [
    [0.0, -1.0, 0.0, 99.0],
    [1.0, 0.0, 0.0, 0.0],
    [0.0, 0.0, 1.0, 0.0],
    [0.0, 0.0, 0.0, 1.0]
],
  "dcmmeta_shape": [100, 100, 72, 256],
  "dcmmeta_slice_dim": 2,
  "dcmmeta_version": 0.6,
  "global": {
    "const": {
      "AcquisitionMatrix": [100, 0, 0, 100],
      "AngioFlag": "N",
      "BitsAllocated": 16,
      "BitsStored": 12,
      "BodyPartExamined": "BRAIN",
      "Columns": 900,
      "EchoNumbers": 1,
      "EchoTime": 34.0,
      "EchoTrainLength": 100,
      "FlipAngle": 90.0,
      "HighBit": 11,
      "ImageOrientationPatient": [1.0, 0.0, 0.0, 0.0, 0.99254615167353, -0.1218693431428],
      "ImagePositionPatient": [-900.67469877005, -913.17799394941, 53.148980636399],
      "ImageType": [
        "ORIGINAL",
        "PRIMARY",
        "M",
        "ND",
        "MOSAIC"
],
      "ImagedNucleus": "1H",
      "ImagingFrequency": 123.257753,
      "InPlanePhaseEncodingDirection": "COL",
      "MRAcquisitionType": "2D",
      "MagneticFieldStrength": 3.0,
      "Manufacturer": "SIEMENS",
      "ManufacturerModelName": "Prisma",
      "Modality": "MR",
      "NumberOfAverages": 1.0,
      "NumberOfPhaseEncodingSteps": 100,
      "PercentPhaseFieldOfView": 100.0,
      "PercentSampling": 100.0,
      "PerformedProcedureStepStartTime": "110253.980000",
      "PhotometricInterpretation": "MONOCHROME2",
      "PixelBandwidth": 2380.0,
      "PixelRepresentation": 0,
      "PixelSpacing": [2.0, 2.0],
      "ProtocolName": "bold_100x100_s3_2x2x2_static_256",
      "RepetitionTime": 2000.0,
      "Rows": 900,
      "SAR": 0.06835720820559,
      "SamplesPerPixel": 1,
      "ScanOptions": "FS",
      "ScanningSequence": "EP",
      "SequenceName": "*epfid2d1_100",
      "SequenceVariant": "SK",
      "SeriesDescription": "bold_100x100_s3_2x2x2_static_256",
      "SeriesNumber": 13,
      "SeriesTime": "122916.995000",
      "SliceLocation": -58.535586099064,
      "SliceThickness": 2.0,
      "SmallestImagePixelValue": 0,
      "SoftwareVersions": "syngo MR E11",
      "SpacingBetweenSlices": 2.0000000193653,
      "SpecificCharacterSet": "ISO_IR 100",
      "StudyID": "1",
      "StudyTime": "110253.893000",
      "TransmitCoilName": "Body",
      "VariableFlipAngleFlag": "N",
      "WindowCenterWidthExplanation": "Algo1",
      "dBdt": 0.0},
    "slices": {}
  },
  "time": {
    "samples": {
      "AcquisitionNumber": [1, 2, 3, 4, 5, 6, 7, 8, 9, 10, 11, 12, 13, 14, 15, 16, 17, 18, 19, 20, 21, 22, 23, 24, 25, 26, 27, 28, 29, 30, 31, 32, 33, 34, 35, 36, 37, 38, 39, 40, 41, 42, 43, 44, 45, 46, 47, 48, 49, 50, 51, 52, 53, 54, 55, 56, 57, 58, 59, 60, 61, 62, 63, 64, 65, 66, 67, 68, 69, 70, 71, 72, 73, 74, 75, 76, 77, 78, 79, 80, 81, 82, 83, 84, 85, 86, 87, 88, 89, 90, 91, 92, 93, 94, 95, 96, 97, 98, 99, 100, 101, 102, 103, 104, 105, 106, 107, 108, 109, 110, 111, 112, 113, 114, 115, 116, 117, 118, 119, 120, 121, 122, 123, 124, 125, 126, 127, 128, 129, 130, 131, 132, 133, 134, 135, 136, 137, 138, 139, 140, 141, 142, 143, 144, 145, 146, 147, 148, 149, 150, 151, 152, 153, 154, 155, 156, 157, 158, 159, 160, 161, 162, 163, 164, 165, 166, 167, 168, 169, 170, 171, 172, 173, 174, 175, 176, 177, 178, 179, 180, 181, 182, 183, 184, 185, 186, 187, 188, 189, 190, 191, 192, 193, 194, 195, 196, 197, 198, 199, 200, 201, 202, 203, 204, 205, 206, 207, 208, 209, 210, 211, 212, 213, 214, 215, 216, 217, 218, 219, 220, 221, 222, 223, 224, 225, 226, 227, 228, 229, 230, 231, 232, 233, 234, 235, 236, 237, 238, 239, 240, 241, 242, 243, 244, 245, 246, 247, 248, 249, 250, 251, 252, 253, 254, 255, 256],
      "AcquisitionTime": ["122914.607500", "122916.607500", "122918.607500", "122920.607500", "122922.607500", "122924.607500", "122926.607500", "122928.607500", "122930.607500", "122932.607500", "122934.607500", "122936.607500", "122938.607500", "122940.607500", "122942.607500", "122944.607500", "122946.607500", "122948.607500", "122950.607500", "122952.607500", "122954.607500", "122956.607500", "122958.607500", "123000.607500", "123002.607500", "123004.607500", "123006.607500", "123008.607500", "123010.607500", "123012.607500", "123014.607500", "123016.607500", "123018.607500", "123020.607500", "123022.607500", "123024.607500", "123026.607500", "123028.607500", "123030.607500", "123032.607500", "123034.607500", "123036.607500", "123038.607500", "123040.607500", "123042.607500", "123044.607500", "123046.607500", "123048.607500", "123050.607500", "123052.607500", "123054.607500", "123056.607500", "123058.607500", "123100.607500", "123102.607500", "123104.607500", "123106.607500", "123108.607500", "123110.607500", "123112.607500", "123114.607500", "123116.607500", "123118.607500", "123120.607500", "123122.607500", "123124.607500", "123126.607500", "123128.607500", "123130.607500", "123132.607500", "123134.607500", "123136.607500", "123138.607500", "123140.607500", "123142.607500", "123144.607500", "123146.607500", "123148.607500", "123150.607500", "123152.607500", "123154.607500", "123156.607500", "123158.607500", "123200.607500", "123202.607500", "123204.607500", "123206.607500", "123208.607500", "123210.607500", "123212.607500", "123214.607500", "123216.607500", "123218.607500", "123220.607500", "123222.607500", "123224.607500", "123226.607500", "123228.607500", "123230.607500", "123232.607500", "123234.607500", "123236.607500", "123238.607500", "123240.607500", "123242.607500", "123244.607500", "123246.607500", "123248.607500", "123250.607500", "123252.607500", "123254.607500", "123256.607500", "123258.607500", "123300.607500", "123302.607500", "123304.607500", "123306.607500", "123308.607500", "123310.607500", "123312.607500", "123314.607500", "123316.607500", "123318.607500", "123320.607500", "123322.607500", "123324.607500", "123326.607500", "123328.607500", "123330.607500", "123332.607500", "123334.607500", "123336.607500", "123338.607500", "123340.607500", "123342.607500", "123344.607500", "123346.607500", "123348.607500", "123350.607500", "123352.607500", "123354.607500", "123356.607500", "123358.607500", "123400.607500", "123402.607500", "123404.607500", "123406.607500", "123408.607500", "123410.607500", "123412.607500", "123414.607500", "123416.607500", "123418.607500", "123420.607500", "123422.607500", "123424.607500", "123426.607500", "123428.607500", "123430.607500", "123432.607500", "123434.607500", "123436.607500", "123438.607500", "123440.607500", "123442.607500", "123444.607500", "123446.607500", "123448.607500", "123450.607500", "123452.607500", "123454.607500", "123456.607500", "123458.607500", "123500.607500", "123502.607500", "123504.607500", "123506.607500", "123508.607500", "123510.607500", "123512.607500", "123514.607500", "123516.607500", "123518.607500", "123520.607500", "123522.607500", "123524.607500", "123526.607500", "123528.607500", "123530.607500", "123532.607500", "123534.607500", "123536.607500", "123538.607500", "123540.607500", "123542.607500", "123544.607500", "123546.607500", "123548.607500", "123550.607500", "123552.607500", "123554.607500", "123556.607500", "123558.607500", "123600.607500", "123602.607500", "123604.607500", "123606.607500", "123608.607500", "123610.607500", "123612.607500", "123614.607500", "123616.607500", "123618.607500", "123620.607500", "123622.607500", "123624.607500", "123626.607500", "123628.607500", "123630.607500", "123632.607500", "123634.607500", "123636.607500", "123638.607500", "123640.607500", "123642.607500", "123644.607500", "123646.607500", "123648.607500", "123650.607500", "123652.607500", "123654.607500", "123656.607500", "123658.607500", "123700.607500", "123702.607500", "123704.607500", "123706.607500", "123708.607500", "123710.607500", "123712.607500", "123714.607500", "123716.607500", "123718.607500", "123720.607500", "123722.607500", "123724.607500", "123726.607500", "123728.607500", "123730.607500", "123732.607500", "123734.607500", "123736.607500", "123738.607500", "123740.607500", "123742.607500", "123744.607500"],
      "ContentTime": ["122917.000000", "122918.495000", "122920.494000", "122922.494000", "122924.493000", "122926.494000", "122928.495000", "122930.494000", "122932.494000", "122934.494000", "122936.494000", "122938.494000", "122940.494000", "122942.493000", "122944.494000", "122946.494000", "122948.495000", "122950.494000", "122952.494000", "122954.495000", "122956.495000", "122958.493000", "123000.495000", "123002.494000", "123004.495000", "123006.495000", "123008.494000", "123010.494000", "123012.495000", "123014.493000", "123016.494000", "123018.495000", "123020.495000", "123022.494000", "123024.494000", "123026.494000", "123028.494000", "123030.494000", "123032.493000", "123034.494000", "123036.494000", "123038.495000", "123040.495000", "123042.495000", "123044.494000", "123046.494000", "123048.495000", "123050.494000", "123052.495000", "123054.494000", "123056.494000", "123058.494000", "123100.494000", "123102.494000", "123104.495000", "123106.495000", "123108.493000", "123110.495000", "123112.495000", "123114.494000", "123116.494000", "123118.495000", "123120.494000", "123122.495000", "123124.493000", "123126.494000", "123128.495000", "123130.494000", "123132.495000", "123134.495000", "123136.494000", "123138.495000", "123140.494000", "123142.494000", "123144.494000", "123146.494000", "123148.495000", "123150.494000", "123152.495000", "123154.494000", "123156.494000", "123158.494000", "123200.493000", "123202.494000", "123204.495000", "123206.495000", "123208.494000", "123210.494000", "123212.495000", "123214.494000", "123216.494000", "123218.493000", "123220.494000", "123222.495000", "123224.494000", "123226.495000", "123228.495000", "123230.495000", "123232.495000", "123234.494000", "123236.494000", "123238.495000", "123240.495000", "123242.495000", "123244.494000", "123246.495000", "123248.495000", "123250.495000", "123252.494000", "123254.494000", "123256.495000", "123258.494000", "123300.494000", "123302.495000", "123304.495000", "123306.494000", "123308.495000", "123310.494000", "123312.495000", "123314.494000", "123316.495000", "123318.495000", "123320.494000", "123322.494000", "123324.494000", "123326.495000", "123328.494000", "123330.495000", "123332.495000", "123334.494000", "123336.495000", "123338.494000", "123340.494000", "123342.495000", "123344.494000", "123346.494000", "123348.495000", "123350.494000", "123352.494000", "123354.495000", "123356.495000", "123358.495000", "123400.495000", "123402.494000", "123404.494000", "123406.495000", "123408.494000", "123410.494000", "123412.494000", "123414.495000", "123416.495000", "123418.495000", "123420.494000", "123422.495000", "123424.495000", "123426.494000", "123428.494000", "123430.495000", "123432.495000", "123434.495000", "123436.495000", "123438.494000", "123440.495000", "123442.494000", "123444.494000", "123446.495000", "123448.495000", "123450.494000", "123452.495000", "123454.494000", "123456.494000", "123458.495000", "123500.495000", "123502.494000", "123504.494000", "123506.495000", "123508.495000", "123510.495000", "123512.494000", "123514.494000", "123516.494000", "123518.495000", "123520.495000", "123522.494000", "123524.494000", "123526.494000", "123528.494000", "123530.494000", "123532.494000", "123534.494000", "123536.494000", "123538.494000", "123540.494000", "123542.495000", "123544.495000", "123546.495000", "123548.493000", "123550.495000", "123552.494000", "123554.495000", "123556.495000", "123558.494000", "123600.494000", "123602.494000", "123604.494000", "123606.494000", "123608.495000", "123610.495000", "123612.495000", "123614.494000", "123616.495000", "123618.495000", "123620.494000", "123622.494000", "123624.494000", "123626.494000", "123628.495000", "123630.495000", "123632.494000", "123634.495000", "123636.514000", "123638.495000", "123640.494000", "123642.495000", "123644.494000", "123646.495000", "123648.495000", "123650.495000", "123652.494000", "123654.495000", "123656.493000", "123658.494000", "123700.495000", "123702.495000", "123704.494000", "123706.495000", "123708.495000", "123710.494000", "123712.495000", "123714.494000", "123716.494000", "123718.495000", "123720.495000", "123722.494000", "123724.494000", "123726.494000", "123728.495000", "123730.495000", "123732.494000", "123734.493000", "123736.495000", "123738.495000", "123740.494000", "123742.494000", "123744.495000", "123746.104000"],
      "InstanceCreationTime": ["122917.000000", "122918.495000", "122920.494000", "122922.494000", "122924.493000", "122926.494000", "122928.495000", "122930.494000", "122932.494000", "122934.494000", "122936.494000", "122938.494000", "122940.494000", "122942.493000", "122944.494000", "122946.494000", "122948.495000", "122950.494000", "122952.494000", "122954.495000", "122956.495000", "122958.493000", "123000.495000", "123002.494000", "123004.495000", "123006.495000", "123008.494000", "123010.494000", "123012.495000", "123014.493000", "123016.494000", "123018.495000", "123020.495000", "123022.494000", "123024.494000", "123026.494000", "123028.494000", "123030.494000", "123032.493000", "123034.494000", "123036.494000", "123038.495000", "123040.495000", "123042.495000", "123044.494000", "123046.494000", "123048.495000", "123050.494000", "123052.495000", "123054.494000", "123056.494000", "123058.494000", "123100.494000", "123102.494000", "123104.495000", "123106.495000", "123108.493000", "123110.495000", "123112.495000", "123114.494000", "123116.494000", "123118.495000", "123120.494000", "123122.495000", "123124.493000", "123126.494000", "123128.495000", "123130.494000", "123132.495000", "123134.495000", "123136.494000", "123138.495000", "123140.494000", "123142.494000", "123144.494000", "123146.494000", "123148.495000", "123150.494000", "123152.495000", "123154.494000", "123156.494000", "123158.494000", "123200.493000", "123202.494000", "123204.495000", "123206.495000", "123208.494000", "123210.494000", "123212.495000", "123214.494000", "123216.494000", "123218.493000", "123220.494000", "123222.495000", "123224.494000", "123226.495000", "123228.495000", "123230.495000", "123232.495000", "123234.494000", "123236.494000", "123238.495000", "123240.495000", "123242.495000", "123244.494000", "123246.495000", "123248.495000", "123250.495000", "123252.494000", "123254.494000", "123256.495000", "123258.494000", "123300.494000", "123302.495000", "123304.495000", "123306.494000", "123308.495000", "123310.494000", "123312.495000", "123314.494000", "123316.495000", "123318.495000", "123320.494000", "123322.494000", "123324.494000", "123326.495000", "123328.494000", "123330.495000", "123332.495000", "123334.494000", "123336.495000", "123338.494000", "123340.494000", "123342.495000", "123344.494000", "123346.494000", "123348.495000", "123350.494000", "123352.494000", "123354.495000", "123356.495000", "123358.495000", "123400.495000", "123402.494000", "123404.494000", "123406.495000", "123408.494000", "123410.494000", "123412.494000", "123414.495000", "123416.495000", "123418.495000", "123420.494000", "123422.495000", "123424.495000", "123426.494000", "123428.494000", "123430.495000", "123432.495000", "123434.495000", "123436.495000", "123438.494000", "123440.495000", "123442.494000", "123444.494000", "123446.495000", "123448.495000", "123450.494000", "123452.495000", "123454.494000", "123456.494000", "123458.495000", "123500.495000", "123502.494000", "123504.494000", "123506.495000", "123508.495000", "123510.495000", "123512.494000", "123514.494000", "123516.494000", "123518.495000", "123520.495000", "123522.494000", "123524.494000", "123526.494000", "123528.494000", "123530.494000", "123532.494000", "123534.494000", "123536.494000", "123538.494000", "123540.494000", "123542.495000", "123544.495000", "123546.495000", "123548.493000", "123550.495000", "123552.494000", "123554.495000", "123556.495000", "123558.494000", "123600.494000", "123602.494000", "123604.494000", "123606.494000", "123608.495000", "123610.495000", "123612.495000", "123614.494000", "123616.495000", "123618.495000", "123620.494000", "123622.494000", "123624.494000", "123626.494000", "123628.495000", "123630.495000", "123632.494000", "123634.495000", "123636.514000", "123638.495000", "123640.494000", "123642.495000", "123644.494000", "123646.495000", "123648.495000", "123650.495000", "123652.494000", "123654.495000", "123656.493000", "123658.494000", "123700.495000", "123702.495000", "123704.494000", "123706.495000", "123708.495000", "123710.494000", "123712.495000", "123714.494000", "123716.494000", "123718.495000", "123720.495000", "123722.494000", "123724.494000", "123726.494000", "123728.495000", "123730.495000", "123732.494000", "123734.493000", "123736.495000", "123738.495000", "123740.494000", "123742.494000", "123744.495000", "123746.104000"],
      "InstanceNumber": [1, 2, 3, 4, 5, 6, 7, 8, 9, 10, 11, 12, 13, 14, 15, 16, 17, 18, 19, 20, 21, 22, 23, 24, 25, 26, 27, 28, 29, 30, 31, 32, 33, 34, 35, 36, 37, 38, 39, 40, 41, 42, 43, 44, 45, 46, 47, 48, 49, 50, 51, 52, 53, 54, 55, 56, 57, 58, 59, 60, 61, 62, 63, 64, 65, 66, 67, 68, 69, 70, 71, 72, 73, 74, 75, 76, 77, 78, 79, 80, 81, 82, 83, 84, 85, 86, 87, 88, 89, 90, 91, 92, 93, 94, 95, 96, 97, 98, 99, 100, 101, 102, 103, 104, 105, 106, 107, 108, 109, 110, 111, 112, 113, 114, 115, 116, 117, 118, 119, 120, 121, 122, 123, 124, 125, 126, 127, 128, 129, 130, 131, 132, 133, 134, 135, 136, 137, 138, 139, 140, 141, 142, 143, 144, 145, 146, 147, 148, 149, 150, 151, 152, 153, 154, 155, 156, 157, 158, 159, 160, 161, 162, 163, 164, 165, 166, 167, 168, 169, 170, 171, 172, 173, 174, 175, 176, 177, 178, 179, 180, 181, 182, 183, 184, 185, 186, 187, 188, 189, 190, 191, 192, 193, 194, 195, 196, 197, 198, 199, 200, 201, 202, 203, 204, 205, 206, 207, 208, 209, 210, 211, 212, 213, 214, 215, 216, 217, 218, 219, 220, 221, 222, 223, 224, 225, 226, 227, 228, 229, 230, 231, 232, 233, 234, 235, 236, 237, 238, 239, 240, 241, 242, 243, 244, 245, 246, 247, 248, 249, 250, 251, 252, 253, 254, 255, 256],
      "LargestImagePixelValue": [3209, 3192, 3260, 3090, 3135, 3107, 3163, 3292, 3243, 3198, 3165, 3130, 3125, 3151, 3165, 3165, 3344, 3153, 3193, 3171, 3168, 3148, 3233, 3142, 3195, 3229, 3248, 3187, 3229, 3292, 3208, 3263, 3274, 3235, 3240, 3258, 3303, 3192, 3195, 3154, 3194, 3238, 3202, 3303, 3212, 3187, 3243, 3185, 3208, 3274, 3258, 3197, 3241, 3316, 3321, 3328, 3278, 3249, 3284, 3340, 3341, 3319, 3296, 3304, 3343, 3369, 3345, 3313, 3316, 3325, 3349, 3277, 3337, 3320, 3250, 3288, 3298, 3286, 3286, 3368, 3352, 3279, 3273, 3299, 3341, 3301, 3278, 3279, 3342, 3353, 3273, 3299, 3285, 3273, 3302, 3345, 3274, 3286, 3270, 3306, 3310, 3276, 3310, 3283, 3261, 3253, 3242, 3318, 3237, 3261, 3230, 3251, 3281, 3211, 3217, 3203, 3206, 3269, 3242, 3281, 3265, 3300, 3314, 3273, 3294, 3248, 3261, 3248, 3270, 3239, 3272, 3267, 3257, 3290, 3249, 3261, 3275, 3234, 3206, 3208, 3241, 3237, 3228, 3215, 3179, 3204, 3161, 3234, 3257, 3213, 3239, 3216, 3249, 3186, 3171, 3220, 3207, 3218, 3208, 3251, 3203, 3184, 3203, 3210, 3230, 3273, 3214, 3214, 3139, 3135, 3177, 3172, 3188, 3201, 3176, 3189, 3176, 3225, 3172, 3182, 3173, 3154, 3188, 3189, 3196, 3224, 3161, 3208, 3159, 3196, 3170, 3205, 3187, 3203, 3179, 3214, 3214, 3187, 3204, 3182, 3226, 3209, 3177, 3187, 3191, 3195, 3194, 3222, 3223, 3228, 3228, 3208, 3225, 3217, 3206, 3225, 3247, 3247, 3260, 3253, 3285, 3258, 3214, 3192, 3223, 3261, 3262, 3212, 3200, 3175, 3201, 3180, 3191, 3246, 3236, 3266, 3189, 3237, 3264, 3261, 3219, 3247, 3171, 3224, 3175, 3204, 3151, 3196, 3174, 3168, 3148, 3181, 3164, 3167, 3177, 3190],
      "WindowCenter": [792.0, 792.0, 793.0, 792.0, 793.0, 792.0, 793.0, 794.0, 794.0, 793.0, 793.0, 793.0, 793.0, 794.0, 794.0, 793.0, 794.0, 792.0, 792.0, 793.0, 792.0, 792.0, 794.0, 794.0, 795.0, 795.0, 794.0, 794.0, 795.0, 794.0, 793.0, 793.0, 793.0, 793.0, 793.0, 794.0, 794.0, 795.0, 796.0, 796.0, 795.0, 796.0, 795.0, 795.0, 794.0, 795.0, 796.0, 796.0, 795.0, 795.0, 795.0, 795.0, 795.0, 795.0, 794.0, 795.0, 795.0, 795.0, 795.0, 796.0, 796.0, 795.0, 794.0, 795.0, 795.0, 794.0, 795.0, 795.0, 796.0, 797.0, 797.0, 796.0, 795.0, 794.0, 793.0, 793.0, 793.0, 793.0, 793.0, 794.0, 793.0, 793.0, 794.0, 794.0, 793.0, 793.0, 794.0, 795.0, 794.0, 793.0, 792.0, 795.0, 795.0, 794.0, 794.0, 794.0, 794.0, 793.0, 793.0, 794.0, 794.0, 794.0, 794.0, 795.0, 796.0, 795.0, 793.0, 794.0, 794.0, 795.0, 795.0, 795.0, 796.0, 796.0, 796.0, 794.0, 794.0, 794.0, 794.0, 794.0, 794.0, 794.0, 794.0, 795.0, 795.0, 795.0, 793.0, 793.0, 793.0, 793.0, 794.0, 794.0, 794.0, 794.0, 793.0, 793.0, 793.0, 794.0, 794.0, 793.0, 794.0, 795.0, 795.0, 794.0, 793.0, 793.0, 793.0, 793.0, 795.0, 799.0, 800.0, 797.0, 795.0, 792.0, 792.0, 792.0, 790.0, 791.0, 792.0, 793.0, 793.0, 792.0, 791.0, 790.0, 791.0, 792.0, 791.0, 790.0, 788.0, 787.0, 786.0, 786.0, 786.0, 787.0, 789.0, 792.0, 792.0, 791.0, 790.0, 790.0, 789.0, 790.0, 793.0, 795.0, 795.0, 794.0, 792.0, 791.0, 790.0, 791.0, 791.0, 792.0, 792.0, 793.0, 792.0, 793.0, 794.0, 794.0, 795.0, 794.0, 797.0, 797.0, 796.0, 796.0, 795.0, 794.0, 794.0, 795.0, 797.0, 798.0, 798.0, 797.0, 796.0, 794.0, 794.0, 793.0, 794.0, 793.0, 793.0, 794.0, 794.0, 794.0, 793.0, 794.0, 793.0, 794.0, 797.0, 797.0, 796.0, 794.0, 793.0, 792.0, 792.0, 794.0, 794.0, 794.0, 793.0, 792.0, 793.0, 794.0, 794.0, 794.0, 795.0, 797.0, 797.0, 796.0, 794.0, 792.0, 790.0, 789.0, 788.0, 788.0, 788.0, 788.0, 791.0, 794.0],
      "WindowWidth": [1720.0, 1719.0, 1722.0, 1720.0, 1722.0, 1720.0, 1723.0, 1725.0, 1726.0, 1724.0, 1722.0, 1722.0, 1723.0, 1723.0, 1724.0, 1723.0, 1726.0, 1721.0, 1720.0, 1721.0, 1718.0, 1719.0, 1725.0, 1725.0, 1728.0, 1728.0, 1726.0, 1725.0, 1727.0, 1726.0, 1722.0, 1723.0, 1722.0, 1722.0, 1722.0, 1725.0, 1726.0, 1728.0, 1730.0, 1729.0, 1728.0, 1730.0, 1728.0, 1728.0, 1726.0, 1727.0, 1731.0, 1730.0, 1728.0, 1728.0, 1728.0, 1726.0, 1726.0, 1727.0, 1726.0, 1728.0, 1729.0, 1728.0, 1729.0, 1732.0, 1731.0, 1728.0, 1726.0, 1726.0, 1728.0, 1726.0, 1726.0, 1727.0, 1732.0, 1734.0, 1733.0, 1729.0, 1727.0, 1726.0, 1722.0, 1722.0, 1723.0, 1723.0, 1722.0, 1726.0, 1722.0, 1721.0, 1724.0, 1724.0, 1723.0, 1723.0, 1725.0, 1726.0, 1725.0, 1722.0, 1719.0, 1726.0, 1728.0, 1725.0, 1724.0, 1724.0, 1725.0, 1723.0, 1723.0, 1724.0, 1723.0, 1723.0, 1726.0, 1728.0, 1729.0, 1726.0, 1723.0, 1724.0, 1724.0, 1727.0, 1727.0, 1727.0, 1729.0, 1731.0, 1729.0, 1725.0, 1724.0, 1724.0, 1723.0, 1725.0, 1726.0, 1725.0, 1726.0, 1728.0, 1729.0, 1726.0, 1721.0, 1721.0, 1720.0, 1720.0, 1724.0, 1725.0, 1725.0, 1724.0, 1721.0, 1721.0, 1722.0, 1724.0, 1723.0, 1722.0, 1725.0, 1728.0, 1727.0, 1724.0, 1721.0, 1722.0, 1720.0, 1723.0, 1727.0, 1738.0, 1741.0, 1733.0, 1726.0, 1719.0, 1717.0, 1717.0, 1714.0, 1715.0, 1718.0, 1721.0, 1721.0, 1719.0, 1715.0, 1713.0, 1714.0, 1717.0, 1715.0, 1712.0, 1706.0, 1703.0, 1701.0, 1702.0, 1701.0, 1705.0, 1711.0, 1718.0, 1717.0, 1714.0, 1713.0, 1711.0, 1710.0, 1712.0, 1722.0, 1728.0, 1728.0, 1723.0, 1718.0, 1716.0, 1713.0, 1715.0, 1716.0, 1719.0, 1719.0, 1720.0, 1719.0, 1720.0, 1723.0, 1725.0, 1726.0, 1725.0, 1731.0, 1732.0, 1731.0, 1729.0, 1726.0, 1725.0, 1725.0, 1728.0, 1732.0, 1735.0, 1736.0, 1732.0, 1728.0, 1725.0, 1722.0, 1722.0, 1724.0, 1721.0, 1722.0, 1723.0, 1725.0, 1723.0, 1721.0, 1723.0, 1722.0, 1725.0, 1732.0, 1732.0, 1728.0, 1724.0, 1720.0, 1717.0, 1719.0, 1723.0, 1724.0, 1724.0, 1721.0, 1719.0, 1721.0, 1725.0, 1724.0, 1724.0, 1727.0, 1732.0, 1731.0, 1727.0, 1724.0, 1718.0, 1713.0, 1708.0, 1705.0, 1707.0, 1706.0, 1707.0, 1714.0, 1722.0]
    },
    "slices": {}
  }
}