{
  "AcquisitionMatrixPE": 100,
  "AcquisitionNumber": 1,
  "AcquisitionTime": "11:25:59.247500",
  "BandwidthPerPixelPhaseEncode": 18.519,
  "BaseResolution": 100,
  "BodyPartExamined": "BRAIN",
  "ConsistencyInfo": "N4_VE11C_LATEST_20160120",
  "ConversionSoftware": "dcm2niix",
  "ConversionSoftwareVersion": "v1.0.20180622 GCC4.9.2",
  "DerivedVendorReportedEchoSpacing": 0.000539986,
  "DeviceSerialNumber": "166078",
  "DwellTime": 2.1e-06,
  "EchoTime": 0.034,
  "EchoTrainLength": 100,
  "EffectiveEchoSpacing": 0.000539986,
  "FlipAngle": 90,
  "ImageOrientationPatientDICOM": [1, 0, 0, 0, 0.992546, -0.121869],
  "ImageType": [
    "ORIGINAL",
    "PRIMARY",
    "M",
    "ND",
    "MOSAIC"
],
  "InPlanePhaseEncodingDirectionDICOM": "COL",
  "InstitutionAddress": "Street_StreetNo_Bei_Jing_District_CN_ZIP",
  "InstitutionName": "BeiJing_Normal_University",
  "InstitutionalDepartmentName": "Department",
  "MRAcquisitionType": "2D",
  "MagneticFieldStrength": 3,
  "Manufacturer": "Siemens",
  "ManufacturersModelName": "Prisma",
  "Modality": "MR",
  "MultibandAccelerationFactor": 3,
  "PartialFourier": 1,
  "PatientPosition": "HFS",
  "PercentPhaseFOV": 100,
  "PhaseEncodingDirection": "j-",
  "PhaseEncodingSteps": 100,
  "PhaseResolution": 1,
  "PixelBandwidth": 2380,
  "ProcedureStepDescription": "BNU_P2018_64CH_Zhen.ZongLei",
  "ProtocolName": "bold_100x100_s3_2x2x2_static_256",
  "PulseSequenceDetails": "%SiemensSeq%_ep2d_bold",
  "ReceiveCoilActiveElements": "HC1-7;NC1",
  "ReceiveCoilName": "HeadNeck_64",
  "ReconMatrixPE": 100,
  "RepetitionTime": 2,
  "SAR": 0.0683572,
  "ScanOptions": "FS",
  "ScanningSequence": "EP",
  "SequenceName": "_epfid2d1_100",
  "SequenceVariant": "SK",
  "SeriesDescription": "bold_100x100_s3_2x2x2_static_256",
  "SeriesNumber": 5,
  "ShimSetting": [-5462, -11495, -1241, 549, -40, -75, -51, 32],
  "SliceThickness": 2,
  "SliceTiming": [1.485, 0, 0.99, 0.0825, 1.0725, 0.165, 1.155, 0.2475, 1.2375, 0.33, 1.32, 0.4125, 1.4025, 0.5775, 1.5675, 0.66, 1.65, 0.7425, 1.7325, 0.825, 1.815, 0.9075, 1.8975, 0.495, 1.485, 0, 0.99, 0.0825, 1.0725, 0.165, 1.155, 0.2475, 1.2375, 0.33, 1.32, 0.4125, 1.4025, 0.5775, 1.5675, 0.66, 1.65, 0.7425, 1.7325, 0.825, 1.815, 0.9075, 1.8975, 0.495, 1.485, 0, 0.99, 0.0825, 1.0725, 0.165, 1.155, 0.2475, 1.2375, 0.33, 1.32, 0.4125, 1.4025, 0.5775, 1.5675, 0.66, 1.65, 0.7425, 1.7325, 0.825, 1.815, 0.9075, 1.8975, 0.495],
  "SoftwareVersions": "syngo_MR_E11",
  "SpacingBetweenSlices": 2,
  "StationName": "AWP166078",
  "TaskName": "naturalvision",
  "TotalReadoutTime": 0.0534586,
  "TxRefAmp": 211.066,
  "dcmmeta_affine": [
    [-2.0, 0.0, 0.0, 100.67469787597656],
    [0.0, 1.985092282295227, -0.24373869597911835, -77.38306427001953],
    [0.0, 0.24373868107795715, 1.985092282295227, -68.47662353515625],
    [0.0, 0.0, 0.0, 1.0]
],
  "dcmmeta_reorient_transform": [
    [0.0, -1.0, 0.0, 99.0],
    [1.0, 0.0, 0.0, 0.0],
    [0.0, 0.0, 1.0, 0.0],
    [0.0, 0.0, 0.0, 1.0]
],
  "dcmmeta_shape": [100, 100, 72, 256],
  "dcmmeta_slice_dim": 2,
  "dcmmeta_version": 0.6,
  "global": {
    "const": {
      "AcquisitionMatrix": [100, 0, 0, 100],
      "AngioFlag": "N",
      "BitsAllocated": 16,
      "BitsStored": 12,
      "BodyPartExamined": "BRAIN",
      "Columns": 900,
      "EchoNumbers": 1,
      "EchoTime": 34.0,
      "EchoTrainLength": 100,
      "FlipAngle": 90.0,
      "HighBit": 11,
      "ImageOrientationPatient": [1.0, 0.0, 0.0, 0.0, 0.99254615167353, -0.1218693431428],
      "ImagePositionPatient": [-900.67469877005, -913.17799394941, 53.148980636399],
      "ImageType": [
        "ORIGINAL",
        "PRIMARY",
        "M",
        "ND",
        "MOSAIC"
],
      "ImagedNucleus": "1H",
      "ImagingFrequency": 123.25776,
      "InPlanePhaseEncodingDirection": "COL",
      "MRAcquisitionType": "2D",
      "MagneticFieldStrength": 3.0,
      "Manufacturer": "SIEMENS",
      "ManufacturerModelName": "Prisma",
      "Modality": "MR",
      "NumberOfAverages": 1.0,
      "NumberOfPhaseEncodingSteps": 100,
      "PercentPhaseFieldOfView": 100.0,
      "PercentSampling": 100.0,
      "PerformedProcedureStepStartTime": "110253.980000",
      "PhotometricInterpretation": "MONOCHROME2",
      "PixelBandwidth": 2380.0,
      "PixelRepresentation": 0,
      "PixelSpacing": [2.0, 2.0],
      "ProtocolName": "bold_100x100_s3_2x2x2_static_256",
      "RepetitionTime": 2000.0,
      "Rows": 900,
      "SAR": 0.06835720820559,
      "SamplesPerPixel": 1,
      "ScanOptions": "FS",
      "ScanningSequence": "EP",
      "SequenceName": "*epfid2d1_100",
      "SequenceVariant": "SK",
      "SeriesDescription": "bold_100x100_s3_2x2x2_static_256",
      "SeriesNumber": 5,
      "SeriesTime": "112601.529000",
      "SliceLocation": -58.535586099064,
      "SliceThickness": 2.0,
      "SmallestImagePixelValue": 0,
      "SoftwareVersions": "syngo MR E11",
      "SpacingBetweenSlices": 2.0000000193653,
      "SpecificCharacterSet": "ISO_IR 100",
      "StudyID": "1",
      "StudyTime": "110253.893000",
      "TransmitCoilName": "Body",
      "VariableFlipAngleFlag": "N",
      "WindowCenterWidthExplanation": "Algo1",
      "dBdt": 0.0},
    "slices": {}
  },
  "time": {
    "samples": {
      "AcquisitionNumber": [1, 2, 3, 4, 5, 6, 7, 8, 9, 10, 11, 12, 13, 14, 15, 16, 17, 18, 19, 20, 21, 22, 23, 24, 25, 26, 27, 28, 29, 30, 31, 32, 33, 34, 35, 36, 37, 38, 39, 40, 41, 42, 43, 44, 45, 46, 47, 48, 49, 50, 51, 52, 53, 54, 55, 56, 57, 58, 59, 60, 61, 62, 63, 64, 65, 66, 67, 68, 69, 70, 71, 72, 73, 74, 75, 76, 77, 78, 79, 80, 81, 82, 83, 84, 85, 86, 87, 88, 89, 90, 91, 92, 93, 94, 95, 96, 97, 98, 99, 100, 101, 102, 103, 104, 105, 106, 107, 108, 109, 110, 111, 112, 113, 114, 115, 116, 117, 118, 119, 120, 121, 122, 123, 124, 125, 126, 127, 128, 129, 130, 131, 132, 133, 134, 135, 136, 137, 138, 139, 140, 141, 142, 143, 144, 145, 146, 147, 148, 149, 150, 151, 152, 153, 154, 155, 156, 157, 158, 159, 160, 161, 162, 163, 164, 165, 166, 167, 168, 169, 170, 171, 172, 173, 174, 175, 176, 177, 178, 179, 180, 181, 182, 183, 184, 185, 186, 187, 188, 189, 190, 191, 192, 193, 194, 195, 196, 197, 198, 199, 200, 201, 202, 203, 204, 205, 206, 207, 208, 209, 210, 211, 212, 213, 214, 215, 216, 217, 218, 219, 220, 221, 222, 223, 224, 225, 226, 227, 228, 229, 230, 231, 232, 233, 234, 235, 236, 237, 238, 239, 240, 241, 242, 243, 244, 245, 246, 247, 248, 249, 250, 251, 252, 253, 254, 255, 256],
      "AcquisitionTime": ["112559.247500", "112601.247500", "112603.247500", "112605.247500", "112607.247500", "112609.247500", "112611.247500", "112613.247500", "112615.247500", "112617.247500", "112619.247500", "112621.247500", "112623.247500", "112625.247500", "112627.247500", "112629.247500", "112631.247500", "112633.247500", "112635.247500", "112637.247500", "112639.247500", "112641.247500", "112643.247500", "112645.247500", "112647.247500", "112649.247500", "112651.247500", "112653.247500", "112655.247500", "112657.247500", "112659.247500", "112701.247500", "112703.247500", "112705.247500", "112707.247500", "112709.247500", "112711.247500", "112713.247500", "112715.247500", "112717.247500", "112719.247500", "112721.247500", "112723.247500", "112725.247500", "112727.247500", "112729.247500", "112731.247500", "112733.247500", "112735.247500", "112737.247500", "112739.247500", "112741.247500", "112743.247500", "112745.247500", "112747.247500", "112749.247500", "112751.247500", "112753.247500", "112755.247500", "112757.247500", "112759.247500", "112801.247500", "112803.247500", "112805.247500", "112807.247500", "112809.247500", "112811.247500", "112813.247500", "112815.247500", "112817.247500", "112819.247500", "112821.247500", "112823.247500", "112825.247500", "112827.247500", "112829.247500", "112831.247500", "112833.247500", "112835.247500", "112837.247500", "112839.247500", "112841.247500", "112843.247500", "112845.247500", "112847.247500", "112849.247500", "112851.247500", "112853.247500", "112855.247500", "112857.247500", "112859.247500", "112901.247500", "112903.247500", "112905.247500", "112907.247500", "112909.247500", "112911.247500", "112913.247500", "112915.247500", "112917.247500", "112919.247500", "112921.247500", "112923.247500", "112925.247500", "112927.247500", "112929.247500", "112931.247500", "112933.247500", "112935.247500", "112937.247500", "112939.247500", "112941.247500", "112943.247500", "112945.247500", "112947.247500", "112949.247500", "112951.247500", "112953.247500", "112955.247500", "112957.247500", "112959.247500", "113001.247500", "113003.247500", "113005.247500", "113007.247500", "113009.247500", "113011.247500", "113013.247500", "113015.247500", "113017.247500", "113019.247500", "113021.247500", "113023.247500", "113025.247500", "113027.247500", "113029.247500", "113031.247500", "113033.247500", "113035.247500", "113037.247500", "113039.247500", "113041.247500", "113043.247500", "113045.247500", "113047.247500", "113049.247500", "113051.247500", "113053.247500", "113055.247500", "113057.247500", "113059.247500", "113101.247500", "113103.247500", "113105.247500", "113107.247500", "113109.247500", "113111.247500", "113113.247500", "113115.247500", "113117.247500", "113119.247500", "113121.247500", "113123.247500", "113125.247500", "113127.247500", "113129.247500", "113131.247500", "113133.247500", "113135.247500", "113137.247500", "113139.247500", "113141.247500", "113143.247500", "113145.247500", "113147.247500", "113149.247500", "113151.247500", "113153.247500", "113155.247500", "113157.247500", "113159.247500", "113201.247500", "113203.247500", "113205.247500", "113207.247500", "113209.247500", "113211.247500", "113213.247500", "113215.247500", "113217.247500", "113219.247500", "113221.247500", "113223.247500", "113225.247500", "113227.247500", "113229.247500", "113231.247500", "113233.247500", "113235.247500", "113237.247500", "113239.247500", "113241.247500", "113243.247500", "113245.247500", "113247.247500", "113249.247500", "113251.247500", "113253.247500", "113255.247500", "113257.247500", "113259.247500", "113301.247500", "113303.247500", "113305.247500", "113307.247500", "113309.247500", "113311.247500", "113313.247500", "113315.247500", "113317.247500", "113319.247500", "113321.247500", "113323.247500", "113325.247500", "113327.247500", "113329.247500", "113331.247500", "113333.247500", "113335.247500", "113337.247500", "113339.247500", "113341.247500", "113343.247500", "113345.247500", "113347.247500", "113349.247500", "113351.247500", "113353.247500", "113355.247500", "113357.247500", "113359.247500", "113401.247500", "113403.247500", "113405.247500", "113407.247500", "113409.247500", "113411.247500", "113413.247500", "113415.247500", "113417.247500", "113419.247500", "113421.247500", "113423.247500", "113425.247500", "113427.247500", "113429.247500"],
      "ContentTime": ["112601.533000", "112603.029000", "112605.027000", "112607.028000", "112609.027000", "112611.027000", "112613.028000", "112615.028000", "112617.028000", "112619.029000", "112621.029000", "112623.028000", "112625.028000", "112627.027000", "112629.029000", "112631.028000", "112633.029000", "112635.029000", "112637.028000", "112639.027000", "112641.028000", "112643.027000", "112645.028000", "112647.028000", "112649.028000", "112651.029000", "112653.029000", "112655.029000", "112657.028000", "112659.027000", "112701.028000", "112703.027000", "112705.028000", "112707.029000", "112709.028000", "112711.028000", "112713.029000", "112715.027000", "112717.027000", "112719.027000", "112721.027000", "112723.028000", "112725.028000", "112727.028000", "112729.029000", "112731.028000", "112733.028000", "112735.027000", "112737.028000", "112739.028000", "112741.029000", "112743.029000", "112745.028000", "112747.028000", "112749.027000", "112751.030000", "112753.028000", "112755.027000", "112757.028000", "112759.028000", "112801.029000", "112803.028000", "112805.028000", "112807.028000", "112809.027000", "112811.028000", "112813.027000", "112815.028000", "112817.029000", "112819.028000", "112821.029000", "112823.028000", "112825.028000", "112827.028000", "112829.027000", "112831.029000", "112833.029000", "112835.028000", "112837.028000", "112839.028000", "112841.028000", "112843.028000", "112845.027000", "112847.028000", "112849.028000", "112851.028000", "112853.029000", "112855.028000", "112857.028000", "112859.027000", "112901.028000", "112903.028000", "112905.028000", "112907.029000", "112909.028000", "112911.028000", "112913.029000", "112915.029000", "112917.028000", "112919.027000", "112921.027000", "112923.027000", "112925.028000", "112927.029000", "112929.029000", "112931.029000", "112933.028000", "112935.027000", "112937.027000", "112939.027000", "112941.029000", "112943.029000", "112945.028000", "112947.028000", "112949.029000", "112951.029000", "112953.028000", "112955.028000", "112957.027000", "112959.029000", "113001.028000", "113003.029000", "113005.028000", "113007.029000", "113009.028000", "113011.028000", "113013.027000", "113015.027000", "113017.028000", "113019.028000", "113021.028000", "113023.029000", "113025.029000", "113027.027000", "113029.027000", "113031.028000", "113033.028000", "113035.029000", "113037.029000", "113039.029000", "113041.029000", "113043.029000", "113045.028000", "113047.028000", "113049.028000", "113051.029000", "113053.029000", "113055.029000", "113057.028000", "113059.029000", "113101.028000", "113103.027000", "113105.028000", "113107.028000", "113109.029000", "113111.029000", "113113.029000", "113115.028000", "113117.028000", "113119.028000", "113121.028000", "113123.028000", "113125.028000", "113127.029000", "113129.029000", "113131.029000", "113133.028000", "113135.029000", "113137.028000", "113139.028000", "113141.028000", "113143.027000", "113145.029000", "113147.028000", "113149.028000", "113151.029000", "113153.029000", "113155.028000", "113157.027000", "113159.028000", "113201.029000", "113203.029000", "113205.028000", "113207.029000", "113209.029000", "113211.028000", "113213.028000", "113215.027000", "113217.027000", "113219.028000", "113221.029000", "113223.029000", "113225.029000", "113227.029000", "113229.027000", "113231.028000", "113233.028000", "113235.027000", "113237.029000", "113239.029000", "113241.029000", "113243.028000", "113245.028000", "113247.028000", "113249.027000", "113251.027000", "113253.028000", "113255.029000", "113257.028000", "113259.028000", "113301.029000", "113303.029000", "113305.028000", "113307.028000", "113309.027000", "113311.029000", "113313.029000", "113315.029000", "113317.029000", "113319.029000", "113321.029000", "113323.028000", "113325.027000", "113327.027000", "113329.029000", "113331.029000", "113333.029000", "113335.028000", "113337.029000", "113339.027000", "113341.028000", "113343.028000", "113345.028000", "113347.029000", "113349.029000", "113351.029000", "113353.029000", "113355.029000", "113357.028000", "113359.028000", "113401.028000", "113403.028000", "113405.028000", "113407.028000", "113409.028000", "113411.028000", "113413.029000", "113415.028000", "113417.028000", "113419.028000", "113421.028000", "113423.028000", "113425.028000", "113427.039000", "113429.028000", "113430.711000"],
      "InstanceCreationTime": ["112601.533000", "112603.029000", "112605.027000", "112607.028000", "112609.027000", "112611.027000", "112613.028000", "112615.028000", "112617.028000", "112619.029000", "112621.029000", "112623.028000", "112625.028000", "112627.027000", "112629.029000", "112631.028000", "112633.029000", "112635.029000", "112637.028000", "112639.027000", "112641.028000", "112643.027000", "112645.028000", "112647.028000", "112649.028000", "112651.029000", "112653.029000", "112655.029000", "112657.028000", "112659.027000", "112701.028000", "112703.027000", "112705.028000", "112707.029000", "112709.028000", "112711.028000", "112713.029000", "112715.027000", "112717.027000", "112719.027000", "112721.027000", "112723.028000", "112725.028000", "112727.028000", "112729.029000", "112731.028000", "112733.028000", "112735.027000", "112737.028000", "112739.028000", "112741.029000", "112743.029000", "112745.028000", "112747.028000", "112749.027000", "112751.030000", "112753.028000", "112755.027000", "112757.028000", "112759.028000", "112801.029000", "112803.028000", "112805.028000", "112807.028000", "112809.027000", "112811.028000", "112813.027000", "112815.028000", "112817.029000", "112819.028000", "112821.029000", "112823.028000", "112825.028000", "112827.028000", "112829.027000", "112831.029000", "112833.029000", "112835.028000", "112837.028000", "112839.028000", "112841.028000", "112843.028000", "112845.027000", "112847.028000", "112849.028000", "112851.028000", "112853.029000", "112855.028000", "112857.028000", "112859.027000", "112901.028000", "112903.028000", "112905.028000", "112907.029000", "112909.028000", "112911.028000", "112913.029000", "112915.029000", "112917.028000", "112919.027000", "112921.027000", "112923.027000", "112925.028000", "112927.029000", "112929.029000", "112931.029000", "112933.028000", "112935.027000", "112937.027000", "112939.027000", "112941.029000", "112943.029000", "112945.028000", "112947.028000", "112949.029000", "112951.029000", "112953.028000", "112955.028000", "112957.027000", "112959.029000", "113001.028000", "113003.029000", "113005.028000", "113007.029000", "113009.028000", "113011.028000", "113013.027000", "113015.027000", "113017.028000", "113019.028000", "113021.028000", "113023.029000", "113025.029000", "113027.027000", "113029.027000", "113031.028000", "113033.028000", "113035.029000", "113037.029000", "113039.029000", "113041.029000", "113043.029000", "113045.028000", "113047.028000", "113049.028000", "113051.029000", "113053.029000", "113055.029000", "113057.028000", "113059.029000", "113101.028000", "113103.027000", "113105.028000", "113107.028000", "113109.029000", "113111.029000", "113113.029000", "113115.028000", "113117.028000", "113119.028000", "113121.028000", "113123.028000", "113125.028000", "113127.029000", "113129.029000", "113131.029000", "113133.028000", "113135.029000", "113137.028000", "113139.028000", "113141.028000", "113143.027000", "113145.029000", "113147.028000", "113149.028000", "113151.029000", "113153.029000", "113155.028000", "113157.027000", "113159.028000", "113201.029000", "113203.029000", "113205.028000", "113207.029000", "113209.029000", "113211.028000", "113213.028000", "113215.027000", "113217.027000", "113219.028000", "113221.029000", "113223.029000", "113225.029000", "113227.029000", "113229.027000", "113231.028000", "113233.028000", "113235.027000", "113237.029000", "113239.029000", "113241.029000", "113243.028000", "113245.028000", "113247.028000", "113249.027000", "113251.027000", "113253.028000", "113255.029000", "113257.028000", "113259.028000", "113301.029000", "113303.029000", "113305.028000", "113307.028000", "113309.027000", "113311.029000", "113313.029000", "113315.029000", "113317.029000", "113319.029000", "113321.029000", "113323.028000", "113325.027000", "113327.027000", "113329.029000", "113331.029000", "113333.029000", "113335.028000", "113337.029000", "113339.027000", "113341.028000", "113343.028000", "113345.028000", "113347.029000", "113349.029000", "113351.029000", "113353.029000", "113355.029000", "113357.028000", "113359.028000", "113401.028000", "113403.028000", "113405.028000", "113407.028000", "113409.028000", "113411.028000", "113413.029000", "113415.028000", "113417.028000", "113419.028000", "113421.028000", "113423.028000", "113425.028000", "113427.039000", "113429.028000", "113430.711000"],
      "InstanceNumber": [1, 2, 3, 4, 5, 6, 7, 8, 9, 10, 11, 12, 13, 14, 15, 16, 17, 18, 19, 20, 21, 22, 23, 24, 25, 26, 27, 28, 29, 30, 31, 32, 33, 34, 35, 36, 37, 38, 39, 40, 41, 42, 43, 44, 45, 46, 47, 48, 49, 50, 51, 52, 53, 54, 55, 56, 57, 58, 59, 60, 61, 62, 63, 64, 65, 66, 67, 68, 69, 70, 71, 72, 73, 74, 75, 76, 77, 78, 79, 80, 81, 82, 83, 84, 85, 86, 87, 88, 89, 90, 91, 92, 93, 94, 95, 96, 97, 98, 99, 100, 101, 102, 103, 104, 105, 106, 107, 108, 109, 110, 111, 112, 113, 114, 115, 116, 117, 118, 119, 120, 121, 122, 123, 124, 125, 126, 127, 128, 129, 130, 131, 132, 133, 134, 135, 136, 137, 138, 139, 140, 141, 142, 143, 144, 145, 146, 147, 148, 149, 150, 151, 152, 153, 154, 155, 156, 157, 158, 159, 160, 161, 162, 163, 164, 165, 166, 167, 168, 169, 170, 171, 172, 173, 174, 175, 176, 177, 178, 179, 180, 181, 182, 183, 184, 185, 186, 187, 188, 189, 190, 191, 192, 193, 194, 195, 196, 197, 198, 199, 200, 201, 202, 203, 204, 205, 206, 207, 208, 209, 210, 211, 212, 213, 214, 215, 216, 217, 218, 219, 220, 221, 222, 223, 224, 225, 226, 227, 228, 229, 230, 231, 232, 233, 234, 235, 236, 237, 238, 239, 240, 241, 242, 243, 244, 245, 246, 247, 248, 249, 250, 251, 252, 253, 254, 255, 256],
      "LargestImagePixelValue": [2796, 2797, 2780, 2783, 2795, 2827, 2799, 2810, 2748, 2768, 2754, 2766, 2773, 2775, 2899, 3178, 2887, 2818, 2796, 2786, 2878, 2883, 2803, 2885, 2786, 2869, 2758, 2796, 2892, 2872, 2877, 2873, 2848, 2892, 2875, 2866, 2824, 2775, 2806, 2791, 2782, 2892, 2749, 2754, 2758, 2921, 2863, 2807, 2874, 2788, 2782, 2761, 2749, 2771, 2788, 2744, 2741, 2755, 2854, 2737, 2870, 2829, 2837, 2849, 2809, 2823, 2857, 2845, 2880, 2847, 2895, 2903, 2805, 2780, 2822, 2774, 2749, 2750, 2764, 2836, 2850, 2826, 2808, 2756, 2734, 2901, 2908, 2825, 2881, 2862, 2808, 2740, 2733, 2735, 2763, 2765, 2926, 2909, 2882, 2854, 2862, 2846, 2796, 2741, 2767, 2752, 2879, 2948, 2821, 2889, 2931, 2887, 2901, 2882, 2842, 2754, 2781, 2730, 2746, 3068, 2733, 2910, 2903, 2898, 2839, 2912, 2814, 2825, 2827, 2787, 2842, 2798, 2869, 2929, 2927, 2734, 2734, 2757, 2783, 2908, 2859, 2826, 2760, 2760, 2807, 2738, 2741, 2787, 2839, 3132, 2763, 2790, 2785, 2919, 2898, 2839, 2785, 2811, 2777, 2750, 2736, 2887, 2914, 2938, 2954, 2905, 2900, 2881, 2801, 2748, 3009, 2718, 2724, 2749, 2726, 2711, 2730, 2720, 2793, 2895, 2826, 2805, 2766, 2808, 2862, 2852, 2808, 2764, 2872, 2882, 2853, 2870, 2737, 2903, 2869, 2890, 2874, 2918, 2901, 2862, 2781, 2727, 2740, 2713, 2853, 2828, 2846, 2810, 2830, 2830, 2824, 2838, 2886, 2898, 2920, 2915, 2932, 2889, 2869, 2766, 2882, 2728, 2709, 2711, 2728, 2783, 2765, 2764, 2862, 2766, 2918, 2725, 2892, 2803, 2774, 2859, 2844, 2839, 2769, 2807, 2834, 2783, 2705, 2853, 2807, 2744, 2747, 2843, 2784, 2795, 2756, 2772, 2891, 2889, 2781, 2879],
      "WindowCenter": [763.0, 762.0, 762.0, 762.0, 763.0, 763.0, 763.0, 766.0, 766.0, 766.0, 766.0, 766.0, 767.0, 767.0, 768.0, 770.0, 768.0, 769.0, 768.0, 767.0, 768.0, 767.0, 766.0, 767.0, 766.0, 767.0, 766.0, 767.0, 768.0, 768.0, 767.0, 766.0, 766.0, 768.0, 768.0, 767.0, 765.0, 764.0, 764.0, 764.0, 764.0, 765.0, 764.0, 765.0, 765.0, 766.0, 767.0, 767.0, 767.0, 766.0, 765.0, 765.0, 764.0, 764.0, 764.0, 763.0, 764.0, 764.0, 765.0, 764.0, 766.0, 766.0, 767.0, 766.0, 765.0, 765.0, 765.0, 765.0, 767.0, 766.0, 767.0, 770.0, 770.0, 769.0, 768.0, 765.0, 764.0, 763.0, 763.0, 764.0, 764.0, 764.0, 763.0, 763.0, 763.0, 766.0, 765.0, 764.0, 765.0, 768.0, 768.0, 766.0, 764.0, 762.0, 762.0, 762.0, 764.0, 764.0, 764.0, 765.0, 766.0, 766.0, 766.0, 766.0, 766.0, 765.0, 766.0, 767.0, 767.0, 766.0, 766.0, 764.0, 766.0, 768.0, 769.0, 768.0, 767.0, 764.0, 764.0, 766.0, 763.0, 765.0, 766.0, 765.0, 765.0, 767.0, 767.0, 766.0, 764.0, 763.0, 765.0, 765.0, 765.0, 766.0, 766.0, 765.0, 766.0, 766.0, 767.0, 770.0, 771.0, 770.0, 767.0, 765.0, 765.0, 764.0, 764.0, 764.0, 764.0, 768.0, 767.0, 768.0, 767.0, 766.0, 765.0, 764.0, 763.0, 763.0, 763.0, 763.0, 763.0, 766.0, 766.0, 766.0, 766.0, 765.0, 768.0, 770.0, 770.0, 769.0, 768.0, 764.0, 764.0, 766.0, 767.0, 766.0, 765.0, 765.0, 766.0, 766.0, 765.0, 764.0, 763.0, 764.0, 766.0, 767.0, 768.0, 769.0, 770.0, 768.0, 766.0, 764.0, 761.0, 763.0, 765.0, 767.0, 767.0, 767.0, 767.0, 769.0, 770.0, 769.0, 767.0, 765.0, 766.0, 764.0, 765.0, 764.0, 765.0, 766.0, 766.0, 767.0, 767.0, 768.0, 770.0, 770.0, 769.0, 770.0, 771.0, 772.0, 772.0, 769.0, 766.0, 765.0, 765.0, 765.0, 765.0, 765.0, 766.0, 764.0, 765.0, 763.0, 766.0, 768.0, 768.0, 768.0, 765.0, 764.0, 763.0, 764.0, 765.0, 764.0, 764.0, 766.0, 766.0, 765.0, 764.0, 767.0, 768.0, 767.0, 765.0, 764.0, 764.0, 763.0, 763.0, 766.0],
      "WindowWidth": [1636.0, 1634.0, 1632.0, 1634.0, 1634.0, 1634.0, 1637.0, 1642.0, 1642.0, 1642.0, 1643.0, 1644.0, 1645.0, 1646.0, 1649.0, 1655.0, 1650.0, 1651.0, 1648.0, 1647.0, 1649.0, 1646.0, 1644.0, 1646.0, 1644.0, 1646.0, 1643.0, 1647.0, 1650.0, 1648.0, 1646.0, 1643.0, 1643.0, 1648.0, 1650.0, 1646.0, 1642.0, 1639.0, 1639.0, 1638.0, 1638.0, 1641.0, 1638.0, 1640.0, 1642.0, 1645.0, 1645.0, 1645.0, 1647.0, 1642.0, 1642.0, 1641.0, 1639.0, 1639.0, 1637.0, 1635.0, 1637.0, 1639.0, 1642.0, 1640.0, 1644.0, 1644.0, 1646.0, 1644.0, 1640.0, 1640.0, 1640.0, 1642.0, 1647.0, 1645.0, 1648.0, 1654.0, 1655.0, 1652.0, 1647.0, 1641.0, 1638.0, 1636.0, 1635.0, 1638.0, 1638.0, 1637.0, 1636.0, 1636.0, 1636.0, 1643.0, 1641.0, 1639.0, 1640.0, 1648.0, 1648.0, 1642.0, 1637.0, 1634.0, 1632.0, 1633.0, 1637.0, 1638.0, 1638.0, 1642.0, 1643.0, 1642.0, 1642.0, 1643.0, 1644.0, 1641.0, 1644.0, 1646.0, 1645.0, 1644.0, 1642.0, 1639.0, 1643.0, 1649.0, 1652.0, 1650.0, 1646.0, 1638.0, 1637.0, 1642.0, 1635.0, 1641.0, 1643.0, 1641.0, 1640.0, 1646.0, 1647.0, 1643.0, 1637.0, 1635.0, 1641.0, 1641.0, 1642.0, 1643.0, 1643.0, 1641.0, 1643.0, 1643.0, 1645.0, 1653.0, 1656.0, 1653.0, 1646.0, 1641.0, 1640.0, 1637.0, 1636.0, 1638.0, 1639.0, 1649.0, 1645.0, 1649.0, 1646.0, 1643.0, 1639.0, 1637.0, 1634.0, 1635.0, 1636.0, 1635.0, 1635.0, 1642.0, 1643.0, 1643.0, 1643.0, 1642.0, 1648.0, 1655.0, 1655.0, 1650.0, 1649.0, 1637.0, 1638.0, 1644.0, 1646.0, 1642.0, 1642.0, 1641.0, 1644.0, 1642.0, 1638.0, 1637.0, 1635.0, 1637.0, 1642.0, 1645.0, 1648.0, 1650.0, 1653.0, 1647.0, 1642.0, 1638.0, 1631.0, 1636.0, 1639.0, 1645.0, 1645.0, 1644.0, 1645.0, 1651.0, 1655.0, 1651.0, 1646.0, 1639.0, 1642.0, 1639.0, 1639.0, 1639.0, 1641.0, 1643.0, 1643.0, 1645.0, 1647.0, 1649.0, 1654.0, 1653.0, 1652.0, 1653.0, 1657.0, 1660.0, 1659.0, 1649.0, 1643.0, 1640.0, 1639.0, 1639.0, 1640.0, 1639.0, 1642.0, 1637.0, 1640.0, 1635.0, 1644.0, 1648.0, 1649.0, 1647.0, 1641.0, 1637.0, 1635.0, 1636.0, 1638.0, 1638.0, 1637.0, 1643.0, 1643.0, 1638.0, 1637.0, 1645.0, 1647.0, 1645.0, 1638.0, 1636.0, 1636.0, 1635.0, 1634.0, 1642.0]
    },
    "slices": {}
  }
}