{
  "AcquisitionMatrixPE": 100,
  "AcquisitionNumber": 1,
  "AcquisitionTime": "14:05:6.312500",
  "BandwidthPerPixelPhaseEncode": 18.519,
  "BaseResolution": 100,
  "BodyPartExamined": "BRAIN",
  "ConsistencyInfo": "N4_VE11C_LATEST_20160120",
  "ConversionSoftware": "dcm2niix",
  "ConversionSoftwareVersion": "v1.0.20180622 GCC4.9.2",
  "DerivedVendorReportedEchoSpacing": 0.000539986,
  "DeviceSerialNumber": "166078",
  "DwellTime": 2.1e-06,
  "EchoTime": 0.034,
  "EchoTrainLength": 100,
  "EffectiveEchoSpacing": 0.000539986,
  "FlipAngle": 90,
  "ImageOrientationPatientDICOM": [1, 0, 0, 0, 0.996041, -0.0888943],
  "ImageType": [
    "ORIGINAL",
    "PRIMARY",
    "M",
    "ND",
    "MOSAIC"
],
  "InPlanePhaseEncodingDirectionDICOM": "COL",
  "InstitutionAddress": "Street_StreetNo_Bei_Jing_District_CN_ZIP",
  "InstitutionName": "BeiJing_Normal_University",
  "InstitutionalDepartmentName": "Department",
  "MRAcquisitionType": "2D",
  "MagneticFieldStrength": 3,
  "Manufacturer": "Siemens",
  "ManufacturersModelName": "Prisma",
  "Modality": "MR",
  "MultibandAccelerationFactor": 3,
  "PartialFourier": 1,
  "PatientPosition": "HFS",
  "PercentPhaseFOV": 100,
  "PhaseEncodingDirection": "j-",
  "PhaseEncodingSteps": 100,
  "PhaseResolution": 1,
  "PixelBandwidth": 2380,
  "ProcedureStepDescription": "BNU_P2018_64CH_Zhen.ZongLei",
  "ProtocolName": "bold_100x100_s3_2x2x2_static_256",
  "PulseSequenceDetails": "%SiemensSeq%_ep2d_bold",
  "ReceiveCoilActiveElements": "HC1-7;NC1",
  "ReceiveCoilName": "HeadNeck_64",
  "ReconMatrixPE": 100,
  "RepetitionTime": 2,
  "SAR": 0.0666708,
  "ScanOptions": "FS",
  "ScanningSequence": "EP",
  "SequenceName": "_epfid2d1_100",
  "SequenceVariant": "SK",
  "SeriesDescription": "bold_100x100_s3_2x2x2_static_256",
  "SeriesNumber": 13,
  "ShimSetting": [-5448, -11505, -1247, 313, -18, -263, -197, 53],
  "SliceThickness": 2,
  "SliceTiming": [1.485, 0, 0.99, 0.0825, 1.0725, 0.165, 1.155, 0.2475, 1.2375, 0.33, 1.32, 0.4125, 1.4025, 0.5775, 1.5675, 0.66, 1.65, 0.7425, 1.7325, 0.825, 1.815, 0.9075, 1.8975, 0.495, 1.485, 0, 0.99, 0.0825, 1.0725, 0.165, 1.155, 0.2475, 1.2375, 0.33, 1.32, 0.4125, 1.4025, 0.5775, 1.5675, 0.66, 1.65, 0.7425, 1.7325, 0.825, 1.815, 0.9075, 1.8975, 0.495, 1.485, 0, 0.99, 0.0825, 1.0725, 0.165, 1.155, 0.2475, 1.2375, 0.33, 1.32, 0.4125, 1.4025, 0.5775, 1.5675, 0.66, 1.65, 0.7425, 1.7325, 0.825, 1.815, 0.9075, 1.8975, 0.495],
  "SoftwareVersions": "syngo_MR_E11",
  "SpacingBetweenSlices": 2,
  "StationName": "AWP166078",
  "TaskName": "naturalvision",
  "TotalReadoutTime": 0.0534586,
  "TxRefAmp": 210.806,
  "dcmmeta_affine": [
    [-2.0, 0.0, 0.0, 100.0],
    [0.0, 1.992082118988037, -0.17778858542442322, -92.80657958984375],
    [0.0, 0.17778858542442322, 1.992082118988037, -66.89787292480469],
    [0.0, 0.0, 0.0, 1.0]
],
  "dcmmeta_reorient_transform": [
    [0.0, -1.0, 0.0, 99.0],
    [1.0, 0.0, 0.0, 0.0],
    [0.0, 0.0, 1.0, 0.0],
    [0.0, 0.0, 0.0, 1.0]
],
  "dcmmeta_shape": [100, 100, 72, 256],
  "dcmmeta_slice_dim": 2,
  "dcmmeta_version": 0.6,
  "global": {
    "const": {
      "AcquisitionMatrix": [100, 0, 0, 100],
      "AngioFlag": "N",
      "BitsAllocated": 16,
      "BitsStored": 12,
      "BodyPartExamined": "BRAIN",
      "Columns": 900,
      "EchoNumbers": 1,
      "EchoTime": 34.0,
      "EchoTrainLength": 100,
      "FlipAngle": 90.0,
      "HighBit": 11,
      "ImageOrientationPatient": [1.0, 0.0, 0.0, 0.0, 0.99604106564855, -0.0888942942022],
      "ImagePositionPatient": [-900.0, -901.24240094008, 21.818635076159],
      "ImageType": [
        "ORIGINAL",
        "PRIMARY",
        "M",
        "ND",
        "MOSAIC"
],
      "ImagedNucleus": "1H",
      "ImagingFrequency": 123.257715,
      "InPlanePhaseEncodingDirection": "COL",
      "MRAcquisitionType": "2D",
      "MagneticFieldStrength": 3.0,
      "Manufacturer": "SIEMENS",
      "ManufacturerModelName": "Prisma",
      "Modality": "MR",
      "NumberOfAverages": 1.0,
      "NumberOfPhaseEncodingSteps": 100,
      "PercentPhaseFieldOfView": 100.0,
      "PercentSampling": 100.0,
      "PerformedProcedureStepStartTime": "124054.037000",
      "PhotometricInterpretation": "MONOCHROME2",
      "PixelBandwidth": 2380.0,
      "PixelRepresentation": 0,
      "PixelSpacing": [2.0, 2.0],
      "ProtocolName": "bold_100x100_s3_2x2x2_static_256",
      "RepetitionTime": 2000.0,
      "Rows": 900,
      "SAR": 0.06667083516362,
      "SamplesPerPixel": 1,
      "ScanOptions": "FS",
      "ScanningSequence": "EP",
      "SequenceName": "*epfid2d1_100",
      "SequenceVariant": "SK",
      "SeriesDescription": "bold_100x100_s3_2x2x2_static_256",
      "SeriesNumber": 13,
      "SeriesTime": "140509.087000",
      "SliceLocation": -58.3830506044,
      "SliceThickness": 2.0,
      "SmallestImagePixelValue": 0,
      "SoftwareVersions": "syngo MR E11",
      "SpacingBetweenSlices": 2.000000008252,
      "SpecificCharacterSet": "ISO_IR 100",
      "StudyID": "1",
      "StudyTime": "124053.962000",
      "TransmitCoilName": "Body",
      "VariableFlipAngleFlag": "N",
      "WindowCenterWidthExplanation": "Algo1",
      "dBdt": 0.0},
    "slices": {}
  },
  "time": {
    "samples": {
      "AcquisitionNumber": [1, 2, 3, 4, 5, 6, 7, 8, 9, 10, 11, 12, 13, 14, 15, 16, 17, 18, 19, 20, 21, 22, 23, 24, 25, 26, 27, 28, 29, 30, 31, 32, 33, 34, 35, 36, 37, 38, 39, 40, 41, 42, 43, 44, 45, 46, 47, 48, 49, 50, 51, 52, 53, 54, 55, 56, 57, 58, 59, 60, 61, 62, 63, 64, 65, 66, 67, 68, 69, 70, 71, 72, 73, 74, 75, 76, 77, 78, 79, 80, 81, 82, 83, 84, 85, 86, 87, 88, 89, 90, 91, 92, 93, 94, 95, 96, 97, 98, 99, 100, 101, 102, 103, 104, 105, 106, 107, 108, 109, 110, 111, 112, 113, 114, 115, 116, 117, 118, 119, 120, 121, 122, 123, 124, 125, 126, 127, 128, 129, 130, 131, 132, 133, 134, 135, 136, 137, 138, 139, 140, 141, 142, 143, 144, 145, 146, 147, 148, 149, 150, 151, 152, 153, 154, 155, 156, 157, 158, 159, 160, 161, 162, 163, 164, 165, 166, 167, 168, 169, 170, 171, 172, 173, 174, 175, 176, 177, 178, 179, 180, 181, 182, 183, 184, 185, 186, 187, 188, 189, 190, 191, 192, 193, 194, 195, 196, 197, 198, 199, 200, 201, 202, 203, 204, 205, 206, 207, 208, 209, 210, 211, 212, 213, 214, 215, 216, 217, 218, 219, 220, 221, 222, 223, 224, 225, 226, 227, 228, 229, 230, 231, 232, 233, 234, 235, 236, 237, 238, 239, 240, 241, 242, 243, 244, 245, 246, 247, 248, 249, 250, 251, 252, 253, 254, 255, 256],
      "AcquisitionTime": ["140506.312500", "140508.312500", "140510.312500", "140512.312500", "140514.312500", "140516.312500", "140518.312500", "140520.312500", "140522.312500", "140524.312500", "140526.312500", "140528.312500", "140530.312500", "140532.312500", "140534.312500", "140536.312500", "140538.312500", "140540.312500", "140542.312500", "140544.312500", "140546.312500", "140548.312500", "140550.312500", "140552.312500", "140554.312500", "140556.312500", "140558.312500", "140600.312500", "140602.312500", "140604.312500", "140606.312500", "140608.312500", "140610.312500", "140612.312500", "140614.312500", "140616.312500", "140618.312500", "140620.312500", "140622.312500", "140624.312500", "140626.312500", "140628.312500", "140630.312500", "140632.312500", "140634.312500", "140636.312500", "140638.312500", "140640.312500", "140642.312500", "140644.312500", "140646.312500", "140648.312500", "140650.312500", "140652.312500", "140654.312500", "140656.312500", "140658.312500", "140700.312500", "140702.312500", "140704.312500", "140706.312500", "140708.312500", "140710.312500", "140712.312500", "140714.312500", "140716.312500", "140718.312500", "140720.312500", "140722.312500", "140724.312500", "140726.312500", "140728.312500", "140730.312500", "140732.312500", "140734.312500", "140736.312500", "140738.312500", "140740.312500", "140742.312500", "140744.312500", "140746.312500", "140748.312500", "140750.312500", "140752.312500", "140754.312500", "140756.312500", "140758.312500", "140800.312500", "140802.312500", "140804.312500", "140806.312500", "140808.312500", "140810.312500", "140812.312500", "140814.312500", "140816.312500", "140818.312500", "140820.312500", "140822.312500", "140824.312500", "140826.312500", "140828.312500", "140830.312500", "140832.312500", "140834.312500", "140836.312500", "140838.312500", "140840.312500", "140842.312500", "140844.312500", "140846.312500", "140848.312500", "140850.312500", "140852.312500", "140854.312500", "140856.312500", "140858.312500", "140900.312500", "140902.312500", "140904.312500", "140906.312500", "140908.312500", "140910.312500", "140912.312500", "140914.312500", "140916.312500", "140918.312500", "140920.312500", "140922.312500", "140924.312500", "140926.312500", "140928.312500", "140930.312500", "140932.312500", "140934.312500", "140936.312500", "140938.312500", "140940.312500", "140942.312500", "140944.312500", "140946.312500", "140948.312500", "140950.312500", "140952.312500", "140954.312500", "140956.312500", "140958.312500", "141000.312500", "141002.312500", "141004.312500", "141006.312500", "141008.312500", "141010.312500", "141012.312500", "141014.312500", "141016.312500", "141018.312500", "141020.312500", "141022.312500", "141024.312500", "141026.312500", "141028.312500", "141030.312500", "141032.312500", "141034.312500", "141036.312500", "141038.312500", "141040.312500", "141042.312500", "141044.312500", "141046.312500", "141048.312500", "141050.312500", "141052.312500", "141054.312500", "141056.312500", "141058.312500", "141100.312500", "141102.312500", "141104.312500", "141106.312500", "141108.312500", "141110.312500", "141112.312500", "141114.312500", "141116.312500", "141118.312500", "141120.312500", "141122.312500", "141124.312500", "141126.312500", "141128.312500", "141130.312500", "141132.312500", "141134.312500", "141136.312500", "141138.312500", "141140.312500", "141142.312500", "141144.312500", "141146.312500", "141148.312500", "141150.312500", "141152.312500", "141154.312500", "141156.312500", "141158.312500", "141200.312500", "141202.312500", "141204.312500", "141206.312500", "141208.312500", "141210.312500", "141212.312500", "141214.312500", "141216.312500", "141218.312500", "141220.312500", "141222.312500", "141224.312500", "141226.312500", "141228.312500", "141230.312500", "141232.312500", "141234.312500", "141236.312500", "141238.312500", "141240.312500", "141242.312500", "141244.312500", "141246.312500", "141248.312500", "141250.312500", "141252.312500", "141254.312500", "141256.312500", "141258.312500", "141300.312500", "141302.312500", "141304.312500", "141306.312500", "141308.312500", "141310.312500", "141312.312500", "141314.312500", "141316.312500", "141318.312500", "141320.312500", "141322.312500", "141324.312500", "141326.312500", "141328.312500", "141330.312500", "141332.312500", "141334.312500", "141336.312500"],
      "ContentTime": ["140509.091000", "140510.587000", "140512.586000", "140514.587000", "140516.586000", "140518.585000", "140520.585000", "140522.585000", "140524.586000", "140526.587000", "140528.587000", "140530.586000", "140532.587000", "140534.586000", "140536.585000", "140538.586000", "140540.586000", "140542.586000", "140544.587000", "140546.587000", "140548.586000", "140550.587000", "140552.586000", "140554.586000", "140556.585000", "140558.585000", "140600.586000", "140602.587000", "140604.587000", "140606.587000", "140608.587000", "140610.587000", "140612.586000", "140614.586000", "140616.585000", "140618.587000", "140620.586000", "140622.587000", "140624.587000", "140626.587000", "140628.586000", "140630.586000", "140632.585000", "140634.585000", "140636.587000", "140638.587000", "140640.587000", "140642.587000", "140644.587000", "140646.585000", "140648.586000", "140650.586000", "140652.587000", "140654.586000", "140656.586000", "140658.587000", "140700.586000", "140702.586000", "140704.586000", "140706.585000", "140708.585000", "140710.586000", "140712.586000", "140714.587000", "140716.587000", "140718.586000", "140720.587000", "140722.585000", "140724.585000", "140726.585000", "140728.587000", "140730.587000", "140732.586000", "140734.586000", "140736.586000", "140738.585000", "140740.585000", "140742.586000", "140744.586000", "140746.586000", "140748.587000", "140750.587000", "140752.587000", "140754.586000", "140756.585000", "140758.586000", "140800.585000", "140802.587000", "140804.587000", "140806.587000", "140808.587000", "140810.587000", "140812.587000", "140814.586000", "140816.586000", "140818.586000", "140820.587000", "140822.587000", "140824.587000", "140826.587000", "140828.587000", "140830.586000", "140832.586000", "140834.586000", "140836.586000", "140838.586000", "140840.587000", "140842.587000", "140844.586000", "140846.587000", "140848.586000", "140850.586000", "140852.585000", "140854.587000", "140856.587000", "140858.586000", "140900.586000", "140902.586000", "140904.586000", "140906.586000", "140908.585000", "140910.586000", "140912.586000", "140914.586000", "140916.586000", "140918.587000", "140920.586000", "140922.586000", "140924.586000", "140926.586000", "140928.585000", "140930.587000", "140932.586000", "140934.586000", "140936.587000", "140938.587000", "140940.587000", "140942.586000", "140944.585000", "140946.585000", "140948.587000", "140950.586000", "140952.587000", "140954.586000", "140956.587000", "140958.586000", "141000.586000", "141002.585000", "141004.587000", "141006.587000", "141008.586000", "141010.587000", "141012.587000", "141014.586000", "141016.586000", "141018.586000", "141020.586000", "141022.587000", "141024.587000", "141026.587000", "141028.586000", "141030.587000", "141032.586000", "141034.585000", "141036.586000", "141038.586000", "141040.587000", "141042.587000", "141044.587000", "141046.586000", "141048.587000", "141050.587000", "141052.586000", "141054.585000", "141056.586000", "141058.586000", "141100.586000", "141102.587000", "141104.587000", "141106.586000", "141108.586000", "141110.586000", "141112.586000", "141114.586000", "141116.587000", "141118.587000", "141120.586000", "141122.587000", "141124.587000", "141126.585000", "141128.586000", "141130.585000", "141132.587000", "141134.587000", "141136.586000", "141138.586000", "141140.586000", "141142.586000", "141144.585000", "141146.586000", "141148.586000", "141150.587000", "141152.587000", "141154.587000", "141156.587000", "141158.587000", "141200.587000", "141202.586000", "141204.586000", "141206.586000", "141208.587000", "141210.587000", "141212.587000", "141214.587000", "141216.587000", "141218.586000", "141220.585000", "141222.586000", "141224.586000", "141226.586000", "141228.586000", "141230.587000", "141232.586000", "141234.586000", "141236.586000", "141238.585000", "141240.585000", "141242.586000", "141244.587000", "141246.586000", "141248.587000", "141250.587000", "141252.586000", "141254.586000", "141256.586000", "141258.586000", "141300.586000", "141302.587000", "141304.586000", "141306.587000", "141308.587000", "141310.587000", "141312.597000", "141314.586000", "141316.586000", "141318.587000", "141320.587000", "141322.587000", "141324.587000", "141326.586000", "141328.586000", "141330.586000", "141332.586000", "141334.587000", "141336.587000", "141338.457000"],
      "InstanceCreationTime": ["140509.091000", "140510.587000", "140512.586000", "140514.587000", "140516.586000", "140518.585000", "140520.585000", "140522.585000", "140524.586000", "140526.587000", "140528.587000", "140530.586000", "140532.587000", "140534.586000", "140536.585000", "140538.586000", "140540.586000", "140542.586000", "140544.587000", "140546.587000", "140548.586000", "140550.587000", "140552.586000", "140554.586000", "140556.585000", "140558.585000", "140600.586000", "140602.587000", "140604.587000", "140606.587000", "140608.587000", "140610.587000", "140612.586000", "140614.586000", "140616.585000", "140618.587000", "140620.586000", "140622.587000", "140624.587000", "140626.587000", "140628.586000", "140630.586000", "140632.585000", "140634.585000", "140636.587000", "140638.587000", "140640.587000", "140642.587000", "140644.587000", "140646.585000", "140648.586000", "140650.586000", "140652.587000", "140654.586000", "140656.586000", "140658.587000", "140700.586000", "140702.586000", "140704.586000", "140706.585000", "140708.585000", "140710.586000", "140712.586000", "140714.587000", "140716.587000", "140718.586000", "140720.587000", "140722.585000", "140724.585000", "140726.585000", "140728.587000", "140730.587000", "140732.586000", "140734.586000", "140736.586000", "140738.585000", "140740.585000", "140742.586000", "140744.586000", "140746.586000", "140748.587000", "140750.587000", "140752.587000", "140754.586000", "140756.585000", "140758.586000", "140800.585000", "140802.587000", "140804.587000", "140806.587000", "140808.587000", "140810.587000", "140812.587000", "140814.586000", "140816.586000", "140818.586000", "140820.587000", "140822.587000", "140824.587000", "140826.587000", "140828.587000", "140830.586000", "140832.586000", "140834.586000", "140836.586000", "140838.586000", "140840.587000", "140842.587000", "140844.586000", "140846.587000", "140848.586000", "140850.586000", "140852.585000", "140854.587000", "140856.587000", "140858.586000", "140900.586000", "140902.586000", "140904.586000", "140906.586000", "140908.585000", "140910.586000", "140912.586000", "140914.586000", "140916.586000", "140918.587000", "140920.586000", "140922.586000", "140924.586000", "140926.586000", "140928.585000", "140930.587000", "140932.586000", "140934.586000", "140936.587000", "140938.587000", "140940.587000", "140942.586000", "140944.585000", "140946.585000", "140948.587000", "140950.586000", "140952.587000", "140954.586000", "140956.587000", "140958.586000", "141000.586000", "141002.585000", "141004.587000", "141006.587000", "141008.586000", "141010.587000", "141012.587000", "141014.586000", "141016.586000", "141018.586000", "141020.586000", "141022.587000", "141024.587000", "141026.587000", "141028.586000", "141030.587000", "141032.586000", "141034.585000", "141036.586000", "141038.586000", "141040.587000", "141042.587000", "141044.587000", "141046.586000", "141048.587000", "141050.587000", "141052.586000", "141054.585000", "141056.586000", "141058.586000", "141100.586000", "141102.587000", "141104.587000", "141106.586000", "141108.586000", "141110.586000", "141112.586000", "141114.586000", "141116.587000", "141118.587000", "141120.586000", "141122.587000", "141124.587000", "141126.585000", "141128.586000", "141130.585000", "141132.587000", "141134.587000", "141136.586000", "141138.586000", "141140.586000", "141142.586000", "141144.585000", "141146.586000", "141148.586000", "141150.587000", "141152.587000", "141154.587000", "141156.587000", "141158.587000", "141200.587000", "141202.586000", "141204.586000", "141206.586000", "141208.587000", "141210.587000", "141212.587000", "141214.587000", "141216.587000", "141218.586000", "141220.585000", "141222.586000", "141224.586000", "141226.586000", "141228.586000", "141230.587000", "141232.586000", "141234.586000", "141236.586000", "141238.585000", "141240.585000", "141242.586000", "141244.587000", "141246.586000", "141248.587000", "141250.587000", "141252.586000", "141254.586000", "141256.586000", "141258.586000", "141300.586000", "141302.587000", "141304.586000", "141306.587000", "141308.587000", "141310.587000", "141312.597000", "141314.586000", "141316.586000", "141318.587000", "141320.587000", "141322.587000", "141324.587000", "141326.586000", "141328.586000", "141330.586000", "141332.586000", "141334.587000", "141336.587000", "141338.457000"],
      "InstanceNumber": [1, 2, 3, 4, 5, 6, 7, 8, 9, 10, 11, 12, 13, 14, 15, 16, 17, 18, 19, 20, 21, 22, 23, 24, 25, 26, 27, 28, 29, 30, 31, 32, 33, 34, 35, 36, 37, 38, 39, 40, 41, 42, 43, 44, 45, 46, 47, 48, 49, 50, 51, 52, 53, 54, 55, 56, 57, 58, 59, 60, 61, 62, 63, 64, 65, 66, 67, 68, 69, 70, 71, 72, 73, 74, 75, 76, 77, 78, 79, 80, 81, 82, 83, 84, 85, 86, 87, 88, 89, 90, 91, 92, 93, 94, 95, 96, 97, 98, 99, 100, 101, 102, 103, 104, 105, 106, 107, 108, 109, 110, 111, 112, 113, 114, 115, 116, 117, 118, 119, 120, 121, 122, 123, 124, 125, 126, 127, 128, 129, 130, 131, 132, 133, 134, 135, 136, 137, 138, 139, 140, 141, 142, 143, 144, 145, 146, 147, 148, 149, 150, 151, 152, 153, 154, 155, 156, 157, 158, 159, 160, 161, 162, 163, 164, 165, 166, 167, 168, 169, 170, 171, 172, 173, 174, 175, 176, 177, 178, 179, 180, 181, 182, 183, 184, 185, 186, 187, 188, 189, 190, 191, 192, 193, 194, 195, 196, 197, 198, 199, 200, 201, 202, 203, 204, 205, 206, 207, 208, 209, 210, 211, 212, 213, 214, 215, 216, 217, 218, 219, 220, 221, 222, 223, 224, 225, 226, 227, 228, 229, 230, 231, 232, 233, 234, 235, 236, 237, 238, 239, 240, 241, 242, 243, 244, 245, 246, 247, 248, 249, 250, 251, 252, 253, 254, 255, 256],
      "LargestImagePixelValue": [3672, 3576, 3542, 3518, 3534, 3528, 3526, 3542, 3515, 3540, 3520, 3531, 3555, 3555, 3528, 3530, 3539, 3535, 3523, 3511, 3499, 3543, 3530, 3508, 3517, 3501, 3514, 3488, 3540, 3540, 3503, 3475, 3485, 3464, 3455, 3486, 3474, 3489, 3489, 3466, 3494, 3506, 3480, 3450, 3461, 3448, 3462, 3445, 3466, 3465, 3488, 3468, 3481, 3491, 3465, 3467, 3509, 3465, 3481, 3463, 3479, 3471, 3470, 3478, 3473, 3444, 3455, 3460, 3447, 3435, 3448, 3450, 3442, 3446, 3449, 3448, 3427, 3451, 3461, 3464, 3427, 3464, 3457, 3442, 3473, 3466, 3448, 3443, 3468, 3439, 3449, 3451, 3469, 3440, 3448, 3451, 3446, 3450, 3459, 3438, 3441, 3472, 3484, 3467, 3475, 3467, 3433, 3455, 3450, 3441, 3457, 3454, 3425, 3441, 3420, 3425, 3446, 3477, 3468, 3453, 3460, 3457, 3433, 3433, 3398, 3407, 3439, 3398, 3456, 3463, 3450, 3471, 3478, 3472, 3505, 3441, 3459, 3463, 3419, 3377, 3387, 3409, 3413, 3422, 3439, 3424, 3455, 3437, 3438, 3407, 3431, 3404, 3402, 3417, 3432, 3408, 3432, 3438, 3437, 3466, 3470, 3451, 3462, 3440, 3449, 3420, 3459, 3428, 3445, 3458, 3403, 3412, 3416, 3419, 3417, 3365, 3385, 3399, 3418, 3451, 3449, 3411, 3450, 3416, 3450, 3478, 3478, 3462, 3460, 3465, 3454, 3456, 3478, 3487, 3504, 3477, 3452, 3496, 3496, 3470, 3484, 3481, 3522, 3478, 3500, 3519, 3469, 3457, 3429, 3408, 3424, 3407, 3426, 3434, 3424, 3464, 3469, 3454, 3437, 3417, 3406, 3469, 3449, 3447, 3459, 3494, 3515, 3500, 3456, 3486, 3475, 3458, 3449, 3464, 3488, 3489, 3441, 3373, 3266, 3357, 3424, 3400, 3460, 3449, 3461, 3452, 3485, 3472, 3470, 3445, 3478, 3448, 3454, 3481, 3507, 3509],
      "WindowCenter": [801.0, 800.0, 801.0, 801.0, 801.0, 801.0, 801.0, 800.0, 800.0, 800.0, 800.0, 800.0, 801.0, 802.0, 801.0, 800.0, 800.0, 800.0, 801.0, 802.0, 802.0, 802.0, 802.0, 802.0, 803.0, 803.0, 804.0, 803.0, 801.0, 800.0, 799.0, 799.0, 799.0, 798.0, 798.0, 798.0, 799.0, 800.0, 800.0, 799.0, 798.0, 798.0, 799.0, 799.0, 798.0, 799.0, 799.0, 799.0, 799.0, 799.0, 798.0, 798.0, 801.0, 803.0, 803.0, 801.0, 799.0, 799.0, 801.0, 801.0, 801.0, 801.0, 800.0, 799.0, 800.0, 800.0, 800.0, 799.0, 798.0, 798.0, 798.0, 798.0, 799.0, 800.0, 800.0, 800.0, 799.0, 799.0, 801.0, 802.0, 802.0, 801.0, 801.0, 800.0, 801.0, 800.0, 799.0, 799.0, 798.0, 799.0, 800.0, 801.0, 800.0, 799.0, 799.0, 799.0, 801.0, 802.0, 801.0, 800.0, 800.0, 801.0, 802.0, 802.0, 801.0, 800.0, 799.0, 798.0, 798.0, 798.0, 799.0, 799.0, 799.0, 799.0, 799.0, 798.0, 799.0, 800.0, 800.0, 800.0, 799.0, 797.0, 796.0, 795.0, 796.0, 796.0, 796.0, 797.0, 799.0, 800.0, 800.0, 801.0, 801.0, 802.0, 802.0, 801.0, 801.0, 799.0, 797.0, 795.0, 795.0, 797.0, 798.0, 799.0, 799.0, 799.0, 799.0, 799.0, 799.0, 798.0, 800.0, 801.0, 801.0, 801.0, 801.0, 802.0, 802.0, 802.0, 802.0, 802.0, 802.0, 802.0, 802.0, 803.0, 802.0, 801.0, 801.0, 801.0, 801.0, 800.0, 799.0, 799.0, 799.0, 799.0, 800.0, 799.0, 799.0, 798.0, 799.0, 799.0, 799.0, 800.0, 800.0, 801.0, 802.0, 803.0, 803.0, 803.0, 802.0, 801.0, 802.0, 804.0, 804.0, 803.0, 802.0, 802.0, 801.0, 802.0, 802.0, 801.0, 801.0, 801.0, 802.0, 803.0, 802.0, 802.0, 800.0, 799.0, 799.0, 798.0, 799.0, 799.0, 801.0, 803.0, 803.0, 803.0, 802.0, 800.0, 799.0, 799.0, 800.0, 801.0, 799.0, 799.0, 800.0, 798.0, 797.0, 795.0, 795.0, 796.0, 797.0, 798.0, 798.0, 799.0, 801.0, 802.0, 800.0, 799.0, 797.0, 798.0, 799.0, 799.0, 800.0, 801.0, 801.0, 801.0, 801.0, 801.0, 801.0, 800.0, 800.0, 801.0, 801.0, 802.0, 802.0, 802.0],
      "WindowWidth": [1755.0, 1752.0, 1754.0, 1755.0, 1754.0, 1752.0, 1752.0, 1750.0, 1749.0, 1750.0, 1750.0, 1752.0, 1755.0, 1756.0, 1754.0, 1752.0, 1750.0, 1751.0, 1754.0, 1757.0, 1757.0, 1757.0, 1756.0, 1757.0, 1759.0, 1760.0, 1761.0, 1759.0, 1754.0, 1751.0, 1749.0, 1749.0, 1748.0, 1745.0, 1745.0, 1747.0, 1748.0, 1751.0, 1750.0, 1747.0, 1744.0, 1745.0, 1746.0, 1748.0, 1746.0, 1748.0, 1749.0, 1749.0, 1748.0, 1747.0, 1745.0, 1746.0, 1753.0, 1760.0, 1759.0, 1753.0, 1747.0, 1749.0, 1753.0, 1754.0, 1755.0, 1753.0, 1750.0, 1749.0, 1751.0, 1751.0, 1751.0, 1749.0, 1746.0, 1744.0, 1745.0, 1746.0, 1747.0, 1750.0, 1751.0, 1751.0, 1748.0, 1749.0, 1753.0, 1758.0, 1755.0, 1753.0, 1753.0, 1752.0, 1752.0, 1750.0, 1748.0, 1747.0, 1746.0, 1746.0, 1750.0, 1752.0, 1751.0, 1748.0, 1747.0, 1749.0, 1752.0, 1755.0, 1753.0, 1751.0, 1750.0, 1754.0, 1755.0, 1755.0, 1753.0, 1749.0, 1747.0, 1746.0, 1746.0, 1746.0, 1748.0, 1748.0, 1746.0, 1747.0, 1746.0, 1745.0, 1747.0, 1751.0, 1750.0, 1750.0, 1747.0, 1742.0, 1738.0, 1737.0, 1738.0, 1738.0, 1740.0, 1742.0, 1747.0, 1750.0, 1750.0, 1752.0, 1754.0, 1757.0, 1756.0, 1754.0, 1753.0, 1748.0, 1743.0, 1737.0, 1736.0, 1741.0, 1744.0, 1747.0, 1748.0, 1746.0, 1747.0, 1748.0, 1747.0, 1745.0, 1750.0, 1753.0, 1752.0, 1753.0, 1753.0, 1754.0, 1755.0, 1755.0, 1755.0, 1756.0, 1756.0, 1756.0, 1756.0, 1759.0, 1758.0, 1754.0, 1754.0, 1752.0, 1752.0, 1751.0, 1748.0, 1747.0, 1746.0, 1747.0, 1749.0, 1748.0, 1746.0, 1746.0, 1747.0, 1749.0, 1749.0, 1750.0, 1752.0, 1753.0, 1755.0, 1758.0, 1760.0, 1758.0, 1755.0, 1754.0, 1757.0, 1761.0, 1763.0, 1759.0, 1758.0, 1755.0, 1755.0, 1755.0, 1755.0, 1754.0, 1754.0, 1754.0, 1756.0, 1758.0, 1758.0, 1755.0, 1751.0, 1748.0, 1746.0, 1745.0, 1746.0, 1747.0, 1752.0, 1758.0, 1760.0, 1760.0, 1756.0, 1751.0, 1747.0, 1746.0, 1748.0, 1752.0, 1748.0, 1749.0, 1750.0, 1745.0, 1740.0, 1737.0, 1736.0, 1738.0, 1742.0, 1744.0, 1745.0, 1748.0, 1752.0, 1756.0, 1751.0, 1747.0, 1742.0, 1745.0, 1747.0, 1748.0, 1750.0, 1752.0, 1753.0, 1754.0, 1754.0, 1754.0, 1753.0, 1750.0, 1751.0, 1752.0, 1752.0, 1755.0, 1757.0, 1757.0]
    },
    "slices": {}
  }
}