{
  "AcquisitionMatrixPE": 100,
  "AcquisitionNumber": 1,
  "AcquisitionTime": "13:36:53.142500",
  "BandwidthPerPixelPhaseEncode": 18.519,
  "BaseResolution": 100,
  "BodyPartExamined": "BRAIN",
  "ConsistencyInfo": "N4_VE11C_LATEST_20160120",
  "ConversionSoftware": "dcm2niix",
  "ConversionSoftwareVersion": "v1.0.20180622 GCC4.9.2",
  "DerivedVendorReportedEchoSpacing": 0.000539986,
  "DeviceSerialNumber": "166078",
  "DwellTime": 2.1e-06,
  "EchoTime": 0.034,
  "EchoTrainLength": 100,
  "EffectiveEchoSpacing": 0.000539986,
  "FlipAngle": 90,
  "ImageOrientationPatientDICOM": [1, 0, 0, 0, 0.996041, -0.0888943],
  "ImageType": [
    "ORIGINAL",
    "PRIMARY",
    "M",
    "ND",
    "MOSAIC"
],
  "InPlanePhaseEncodingDirectionDICOM": "COL",
  "InstitutionAddress": "Street_StreetNo_Bei_Jing_District_CN_ZIP",
  "InstitutionName": "BeiJing_Normal_University",
  "InstitutionalDepartmentName": "Department",
  "MRAcquisitionType": "2D",
  "MagneticFieldStrength": 3,
  "Manufacturer": "Siemens",
  "ManufacturersModelName": "Prisma",
  "Modality": "MR",
  "MultibandAccelerationFactor": 3,
  "PartialFourier": 1,
  "PatientPosition": "HFS",
  "PercentPhaseFOV": 100,
  "PhaseEncodingDirection": "j-",
  "PhaseEncodingSteps": 100,
  "PhaseResolution": 1,
  "PixelBandwidth": 2380,
  "ProcedureStepDescription": "BNU_P2018_64CH_Zhen.ZongLei",
  "ProtocolName": "bold_100x100_s3_2x2x2_static_256",
  "PulseSequenceDetails": "%SiemensSeq%_ep2d_bold",
  "ReceiveCoilActiveElements": "HC1-7;NC1",
  "ReceiveCoilName": "HeadNeck_64",
  "ReconMatrixPE": 100,
  "RepetitionTime": 2,
  "SAR": 0.0666708,
  "ScanOptions": "FS",
  "ScanningSequence": "EP",
  "SequenceName": "_epfid2d1_100",
  "SequenceVariant": "SK",
  "SeriesDescription": "bold_100x100_s3_2x2x2_static_256",
  "SeriesNumber": 10,
  "ShimSetting": [-5448, -11505, -1247, 313, -18, -263, -197, 53],
  "SliceThickness": 2,
  "SliceTiming": [1.485, 0, 0.99, 0.0825, 1.0725, 0.165, 1.155, 0.2475, 1.2375, 0.33, 1.32, 0.4125, 1.4025, 0.5775, 1.5675, 0.66, 1.65, 0.7425, 1.7325, 0.825, 1.815, 0.9075, 1.8975, 0.495, 1.485, 0, 0.99, 0.0825, 1.0725, 0.165, 1.155, 0.2475, 1.2375, 0.33, 1.32, 0.4125, 1.4025, 0.5775, 1.5675, 0.66, 1.65, 0.7425, 1.7325, 0.825, 1.815, 0.9075, 1.8975, 0.495, 1.485, 0, 0.99, 0.0825, 1.0725, 0.165, 1.155, 0.2475, 1.2375, 0.33, 1.32, 0.4125, 1.4025, 0.5775, 1.5675, 0.66, 1.65, 0.7425, 1.7325, 0.825, 1.815, 0.9075, 1.8975, 0.495],
  "SoftwareVersions": "syngo_MR_E11",
  "SpacingBetweenSlices": 2,
  "StationName": "AWP166078",
  "TaskName": "naturalvision",
  "TotalReadoutTime": 0.0534586,
  "TxRefAmp": 210.806,
  "dcmmeta_affine": [
    [-2.0, 0.0, 0.0, 100.0],
    [0.0, 1.992082118988037, -0.17778858542442322, -92.80657958984375],
    [0.0, 0.17778858542442322, 1.992082118988037, -66.89787292480469],
    [0.0, 0.0, 0.0, 1.0]
],
  "dcmmeta_reorient_transform": [
    [0.0, -1.0, 0.0, 99.0],
    [1.0, 0.0, 0.0, 0.0],
    [0.0, 0.0, 1.0, 0.0],
    [0.0, 0.0, 0.0, 1.0]
],
  "dcmmeta_shape": [100, 100, 72, 256],
  "dcmmeta_slice_dim": 2,
  "dcmmeta_version": 0.6,
  "global": {
    "const": {
      "AcquisitionMatrix": [100, 0, 0, 100],
      "AngioFlag": "N",
      "BitsAllocated": 16,
      "BitsStored": 12,
      "BodyPartExamined": "BRAIN",
      "Columns": 900,
      "EchoNumbers": 1,
      "EchoTime": 34.0,
      "EchoTrainLength": 100,
      "FlipAngle": 90.0,
      "HighBit": 11,
      "ImageOrientationPatient": [1.0, 0.0, 0.0, 0.0, 0.99604106564855, -0.0888942942022],
      "ImagePositionPatient": [-900.0, -901.24240094008, 21.818635076159],
      "ImageType": [
        "ORIGINAL",
        "PRIMARY",
        "M",
        "ND",
        "MOSAIC"
],
      "ImagedNucleus": "1H",
      "ImagingFrequency": 123.257703,
      "InPlanePhaseEncodingDirection": "COL",
      "MRAcquisitionType": "2D",
      "MagneticFieldStrength": 3.0,
      "Manufacturer": "SIEMENS",
      "ManufacturerModelName": "Prisma",
      "Modality": "MR",
      "NumberOfAverages": 1.0,
      "NumberOfPhaseEncodingSteps": 100,
      "PercentPhaseFieldOfView": 100.0,
      "PercentSampling": 100.0,
      "PerformedProcedureStepStartTime": "124054.037000",
      "PhotometricInterpretation": "MONOCHROME2",
      "PixelBandwidth": 2380.0,
      "PixelRepresentation": 0,
      "PixelSpacing": [2.0, 2.0],
      "ProtocolName": "bold_100x100_s3_2x2x2_static_256",
      "RepetitionTime": 2000.0,
      "Rows": 900,
      "SAR": 0.06667083516362,
      "SamplesPerPixel": 1,
      "ScanOptions": "FS",
      "ScanningSequence": "EP",
      "SequenceName": "*epfid2d1_100",
      "SequenceVariant": "SK",
      "SeriesDescription": "bold_100x100_s3_2x2x2_static_256",
      "SeriesNumber": 10,
      "SeriesTime": "133655.730000",
      "SliceLocation": -58.3830506044,
      "SliceThickness": 2.0,
      "SmallestImagePixelValue": 0,
      "SoftwareVersions": "syngo MR E11",
      "SpacingBetweenSlices": 2.000000008252,
      "SpecificCharacterSet": "ISO_IR 100",
      "StudyID": "1",
      "StudyTime": "124053.962000",
      "TransmitCoilName": "Body",
      "VariableFlipAngleFlag": "N",
      "WindowCenterWidthExplanation": "Algo1",
      "dBdt": 0.0},
    "slices": {}
  },
  "time": {
    "samples": {
      "AcquisitionNumber": [1, 2, 3, 4, 5, 6, 7, 8, 9, 10, 11, 12, 13, 14, 15, 16, 17, 18, 19, 20, 21, 22, 23, 24, 25, 26, 27, 28, 29, 30, 31, 32, 33, 34, 35, 36, 37, 38, 39, 40, 41, 42, 43, 44, 45, 46, 47, 48, 49, 50, 51, 52, 53, 54, 55, 56, 57, 58, 59, 60, 61, 62, 63, 64, 65, 66, 67, 68, 69, 70, 71, 72, 73, 74, 75, 76, 77, 78, 79, 80, 81, 82, 83, 84, 85, 86, 87, 88, 89, 90, 91, 92, 93, 94, 95, 96, 97, 98, 99, 100, 101, 102, 103, 104, 105, 106, 107, 108, 109, 110, 111, 112, 113, 114, 115, 116, 117, 118, 119, 120, 121, 122, 123, 124, 125, 126, 127, 128, 129, 130, 131, 132, 133, 134, 135, 136, 137, 138, 139, 140, 141, 142, 143, 144, 145, 146, 147, 148, 149, 150, 151, 152, 153, 154, 155, 156, 157, 158, 159, 160, 161, 162, 163, 164, 165, 166, 167, 168, 169, 170, 171, 172, 173, 174, 175, 176, 177, 178, 179, 180, 181, 182, 183, 184, 185, 186, 187, 188, 189, 190, 191, 192, 193, 194, 195, 196, 197, 198, 199, 200, 201, 202, 203, 204, 205, 206, 207, 208, 209, 210, 211, 212, 213, 214, 215, 216, 217, 218, 219, 220, 221, 222, 223, 224, 225, 226, 227, 228, 229, 230, 231, 232, 233, 234, 235, 236, 237, 238, 239, 240, 241, 242, 243, 244, 245, 246, 247, 248, 249, 250, 251, 252, 253, 254, 255, 256],
      "AcquisitionTime": ["133653.142500", "133655.142500", "133657.142500", "133659.142500", "133701.142500", "133703.142500", "133705.142500", "133707.142500", "133709.142500", "133711.142500", "133713.142500", "133715.142500", "133717.142500", "133719.142500", "133721.142500", "133723.142500", "133725.142500", "133727.142500", "133729.142500", "133731.142500", "133733.142500", "133735.142500", "133737.142500", "133739.142500", "133741.142500", "133743.142500", "133745.142500", "133747.142500", "133749.142500", "133751.142500", "133753.142500", "133755.142500", "133757.142500", "133759.142500", "133801.142500", "133803.142500", "133805.142500", "133807.142500", "133809.142500", "133811.142500", "133813.142500", "133815.142500", "133817.142500", "133819.142500", "133821.142500", "133823.142500", "133825.142500", "133827.142500", "133829.142500", "133831.142500", "133833.142500", "133835.142500", "133837.142500", "133839.142500", "133841.142500", "133843.142500", "133845.142500", "133847.142500", "133849.142500", "133851.142500", "133853.142500", "133855.142500", "133857.142500", "133859.142500", "133901.142500", "133903.142500", "133905.142500", "133907.142500", "133909.142500", "133911.142500", "133913.142500", "133915.142500", "133917.142500", "133919.142500", "133921.142500", "133923.142500", "133925.142500", "133927.142500", "133929.142500", "133931.142500", "133933.142500", "133935.142500", "133937.142500", "133939.142500", "133941.142500", "133943.142500", "133945.142500", "133947.142500", "133949.142500", "133951.142500", "133953.142500", "133955.142500", "133957.142500", "133959.142500", "134001.142500", "134003.142500", "134005.142500", "134007.142500", "134009.142500", "134011.142500", "134013.142500", "134015.142500", "134017.142500", "134019.142500", "134021.142500", "134023.142500", "134025.142500", "134027.142500", "134029.142500", "134031.142500", "134033.142500", "134035.142500", "134037.142500", "134039.142500", "134041.142500", "134043.142500", "134045.142500", "134047.142500", "134049.142500", "134051.142500", "134053.142500", "134055.142500", "134057.142500", "134059.142500", "134101.142500", "134103.142500", "134105.142500", "134107.142500", "134109.142500", "134111.142500", "134113.142500", "134115.142500", "134117.142500", "134119.142500", "134121.142500", "134123.142500", "134125.142500", "134127.142500", "134129.142500", "134131.142500", "134133.142500", "134135.142500", "134137.142500", "134139.142500", "134141.142500", "134143.142500", "134145.142500", "134147.142500", "134149.142500", "134151.142500", "134153.142500", "134155.142500", "134157.142500", "134159.142500", "134201.142500", "134203.142500", "134205.142500", "134207.142500", "134209.142500", "134211.142500", "134213.142500", "134215.142500", "134217.142500", "134219.142500", "134221.142500", "134223.142500", "134225.142500", "134227.142500", "134229.142500", "134231.142500", "134233.142500", "134235.142500", "134237.142500", "134239.142500", "134241.142500", "134243.142500", "134245.142500", "134247.142500", "134249.142500", "134251.142500", "134253.142500", "134255.142500", "134257.142500", "134259.142500", "134301.142500", "134303.142500", "134305.142500", "134307.142500", "134309.142500", "134311.142500", "134313.142500", "134315.142500", "134317.142500", "134319.142500", "134321.142500", "134323.142500", "134325.142500", "134327.142500", "134329.142500", "134331.142500", "134333.142500", "134335.142500", "134337.142500", "134339.142500", "134341.142500", "134343.142500", "134345.142500", "134347.142500", "134349.142500", "134351.142500", "134353.142500", "134355.142500", "134357.142500", "134359.142500", "134401.142500", "134403.142500", "134405.142500", "134407.142500", "134409.142500", "134411.142500", "134413.142500", "134415.142500", "134417.142500", "134419.142500", "134421.142500", "134423.142500", "134425.142500", "134427.142500", "134429.142500", "134431.142500", "134433.142500", "134435.142500", "134437.142500", "134439.142500", "134441.142500", "134443.142500", "134445.142500", "134447.142500", "134449.142500", "134451.142500", "134453.142500", "134455.142500", "134457.142500", "134459.142500", "134501.142500", "134503.142500", "134505.142500", "134507.142500", "134509.142500", "134511.142500", "134513.142500", "134515.142500", "134517.142500", "134519.142500", "134521.142500", "134523.142500"],
      "ContentTime": ["133655.734000", "133657.229000", "133659.230000", "133701.230000", "133703.228000", "133705.229000", "133707.229000", "133709.229000", "133711.230000", "133713.230000", "133715.230000", "133717.230000", "133719.229000", "133721.229000", "133723.229000", "133725.229000", "133727.230000", "133729.230000", "133731.230000", "133733.230000", "133735.229000", "133737.230000", "133739.228000", "133741.228000", "133743.229000", "133745.230000", "133747.229000", "133749.229000", "133751.230000", "133753.229000", "133755.229000", "133757.228000", "133759.228000", "133801.229000", "133803.229000", "133805.229000", "133807.230000", "133809.230000", "133811.230000", "133813.229000", "133815.229000", "133817.228000", "133819.230000", "133821.229000", "133823.229000", "133825.229000", "133827.229000", "133829.230000", "133831.229000", "133833.229000", "133835.229000", "133837.229000", "133839.230000", "133841.229000", "133843.230000", "133845.229000", "133847.229000", "133849.229000", "133851.228000", "133853.228000", "133855.230000", "133857.230000", "133859.229000", "133901.230000", "133903.229000", "133905.229000", "133907.228000", "133909.228000", "133911.230000", "133913.229000", "133915.230000", "133917.230000", "133919.229000", "133921.230000", "133923.228000", "133925.229000", "133927.228000", "133929.230000", "133931.230000", "133933.229000", "133935.230000", "133937.230000", "133939.230000", "133941.229000", "133943.228000", "133945.228000", "133947.230000", "133949.230000", "133951.229000", "133953.230000", "133955.230000", "133957.230000", "133959.229000", "134001.229000", "134003.228000", "134005.229000", "134007.229000", "134009.230000", "134011.230000", "134013.229000", "134015.230000", "134017.229000", "134019.228000", "134021.229000", "134023.229000", "134025.230000", "134027.230000", "134029.229000", "134031.230000", "134033.228000", "134035.229000", "134037.228000", "134039.229000", "134041.230000", "134043.229000", "134045.229000", "134047.230000", "134049.229000", "134051.228000", "134053.229000", "134055.228000", "134057.230000", "134059.229000", "134101.230000", "134103.229000", "134105.230000", "134107.230000", "134109.229000", "134111.229000", "134113.229000", "134115.230000", "134117.230000", "134119.230000", "134121.229000", "134123.230000", "134125.229000", "134127.228000", "134129.228000", "134131.230000", "134133.230000", "134135.230000", "134137.230000", "134139.230000", "134141.230000", "134143.229000", "134145.229000", "134147.228000", "134149.230000", "134151.230000", "134153.230000", "134155.230000", "134157.230000", "134159.230000", "134201.229000", "134203.228000", "134205.229000", "134207.229000", "134209.229000", "134211.229000", "134213.229000", "134215.230000", "134217.230000", "134219.229000", "134221.229000", "134223.229000", "134225.230000", "134227.230000", "134229.230000", "134231.230000", "134233.230000", "134235.230000", "134237.228000", "134239.229000", "134241.230000", "134243.230000", "134245.230000", "134247.239000", "134249.229000", "134251.229000", "134253.229000", "134255.229000", "134257.229000", "134259.230000", "134301.230000", "134303.230000", "134305.230000", "134307.230000", "134309.230000", "134311.228000", "134313.228000", "134315.229000", "134317.230000", "134319.230000", "134321.230000", "134323.230000", "134325.230000", "134327.229000", "134329.228000", "134331.228000", "134333.228000", "134335.230000", "134337.230000", "134339.230000", "134341.229000", "134343.230000", "134345.230000", "134347.229000", "134349.228000", "134351.230000", "134353.229000", "134355.229000", "134357.229000", "134359.229000", "134401.230000", "134403.229000", "134405.229000", "134407.229000", "134409.230000", "134411.230000", "134413.229000", "134415.230000", "134417.230000", "134419.230000", "134421.229000", "134423.228000", "134425.229000", "134427.230000", "134429.229000", "134431.229000", "134433.229000", "134435.230000", "134437.230000", "134439.228000", "134441.229000", "134443.229000", "134445.230000", "134447.230000", "134449.230000", "134451.229000", "134453.230000", "134455.229000", "134457.228000", "134459.229000", "134501.230000", "134503.230000", "134505.230000", "134507.230000", "134509.229000", "134511.229000", "134513.228000", "134515.229000", "134517.229000", "134519.230000", "134521.230000", "134523.229000", "134524.828000"],
      "InstanceCreationTime": ["133655.734000", "133657.229000", "133659.230000", "133701.230000", "133703.228000", "133705.229000", "133707.229000", "133709.229000", "133711.230000", "133713.230000", "133715.230000", "133717.230000", "133719.229000", "133721.229000", "133723.229000", "133725.229000", "133727.230000", "133729.230000", "133731.230000", "133733.230000", "133735.229000", "133737.230000", "133739.228000", "133741.228000", "133743.229000", "133745.230000", "133747.229000", "133749.229000", "133751.230000", "133753.229000", "133755.229000", "133757.228000", "133759.228000", "133801.229000", "133803.229000", "133805.229000", "133807.230000", "133809.230000", "133811.230000", "133813.229000", "133815.229000", "133817.228000", "133819.230000", "133821.229000", "133823.229000", "133825.229000", "133827.229000", "133829.230000", "133831.229000", "133833.229000", "133835.229000", "133837.229000", "133839.230000", "133841.229000", "133843.230000", "133845.229000", "133847.229000", "133849.229000", "133851.228000", "133853.228000", "133855.230000", "133857.230000", "133859.229000", "133901.230000", "133903.229000", "133905.229000", "133907.228000", "133909.228000", "133911.230000", "133913.229000", "133915.230000", "133917.230000", "133919.229000", "133921.230000", "133923.228000", "133925.229000", "133927.228000", "133929.230000", "133931.230000", "133933.229000", "133935.230000", "133937.230000", "133939.230000", "133941.229000", "133943.228000", "133945.228000", "133947.230000", "133949.230000", "133951.229000", "133953.230000", "133955.230000", "133957.230000", "133959.229000", "134001.229000", "134003.228000", "134005.229000", "134007.229000", "134009.230000", "134011.230000", "134013.229000", "134015.230000", "134017.229000", "134019.228000", "134021.229000", "134023.229000", "134025.230000", "134027.230000", "134029.229000", "134031.230000", "134033.228000", "134035.229000", "134037.228000", "134039.229000", "134041.230000", "134043.229000", "134045.229000", "134047.230000", "134049.229000", "134051.228000", "134053.229000", "134055.228000", "134057.230000", "134059.229000", "134101.230000", "134103.229000", "134105.230000", "134107.230000", "134109.229000", "134111.229000", "134113.229000", "134115.230000", "134117.230000", "134119.230000", "134121.229000", "134123.230000", "134125.229000", "134127.228000", "134129.228000", "134131.230000", "134133.230000", "134135.230000", "134137.230000", "134139.230000", "134141.230000", "134143.229000", "134145.229000", "134147.228000", "134149.230000", "134151.230000", "134153.230000", "134155.230000", "134157.230000", "134159.230000", "134201.229000", "134203.228000", "134205.229000", "134207.229000", "134209.229000", "134211.229000", "134213.229000", "134215.230000", "134217.230000", "134219.229000", "134221.229000", "134223.229000", "134225.230000", "134227.230000", "134229.230000", "134231.230000", "134233.230000", "134235.230000", "134237.228000", "134239.229000", "134241.230000", "134243.230000", "134245.230000", "134247.239000", "134249.229000", "134251.229000", "134253.229000", "134255.229000", "134257.229000", "134259.230000", "134301.230000", "134303.230000", "134305.230000", "134307.230000", "134309.230000", "134311.228000", "134313.228000", "134315.229000", "134317.230000", "134319.230000", "134321.230000", "134323.230000", "134325.230000", "134327.229000", "134329.228000", "134331.228000", "134333.228000", "134335.230000", "134337.230000", "134339.230000", "134341.229000", "134343.230000", "134345.230000", "134347.229000", "134349.228000", "134351.230000", "134353.229000", "134355.229000", "134357.229000", "134359.229000", "134401.230000", "134403.229000", "134405.229000", "134407.229000", "134409.230000", "134411.230000", "134413.229000", "134415.230000", "134417.230000", "134419.230000", "134421.229000", "134423.228000", "134425.229000", "134427.230000", "134429.229000", "134431.229000", "134433.229000", "134435.230000", "134437.230000", "134439.228000", "134441.229000", "134443.229000", "134445.230000", "134447.230000", "134449.230000", "134451.229000", "134453.230000", "134455.229000", "134457.228000", "134459.229000", "134501.230000", "134503.230000", "134505.230000", "134507.230000", "134509.229000", "134511.229000", "134513.228000", "134515.229000", "134517.229000", "134519.230000", "134521.230000", "134523.229000", "134524.828000"],
      "InstanceNumber": [1, 2, 3, 4, 5, 6, 7, 8, 9, 10, 11, 12, 13, 14, 15, 16, 17, 18, 19, 20, 21, 22, 23, 24, 25, 26, 27, 28, 29, 30, 31, 32, 33, 34, 35, 36, 37, 38, 39, 40, 41, 42, 43, 44, 45, 46, 47, 48, 49, 50, 51, 52, 53, 54, 55, 56, 57, 58, 59, 60, 61, 62, 63, 64, 65, 66, 67, 68, 69, 70, 71, 72, 73, 74, 75, 76, 77, 78, 79, 80, 81, 82, 83, 84, 85, 86, 87, 88, 89, 90, 91, 92, 93, 94, 95, 96, 97, 98, 99, 100, 101, 102, 103, 104, 105, 106, 107, 108, 109, 110, 111, 112, 113, 114, 115, 116, 117, 118, 119, 120, 121, 122, 123, 124, 125, 126, 127, 128, 129, 130, 131, 132, 133, 134, 135, 136, 137, 138, 139, 140, 141, 142, 143, 144, 145, 146, 147, 148, 149, 150, 151, 152, 153, 154, 155, 156, 157, 158, 159, 160, 161, 162, 163, 164, 165, 166, 167, 168, 169, 170, 171, 172, 173, 174, 175, 176, 177, 178, 179, 180, 181, 182, 183, 184, 185, 186, 187, 188, 189, 190, 191, 192, 193, 194, 195, 196, 197, 198, 199, 200, 201, 202, 203, 204, 205, 206, 207, 208, 209, 210, 211, 212, 213, 214, 215, 216, 217, 218, 219, 220, 221, 222, 223, 224, 225, 226, 227, 228, 229, 230, 231, 232, 233, 234, 235, 236, 237, 238, 239, 240, 241, 242, 243, 244, 245, 246, 247, 248, 249, 250, 251, 252, 253, 254, 255, 256],
      "LargestImagePixelValue": [3575, 3524, 3486, 3478, 3466, 3437, 3468, 3450, 3464, 3480, 3495, 3503, 3515, 3466, 3440, 3466, 3459, 3477, 3496, 3503, 3490, 3471, 3476, 3466, 3467, 3431, 3422, 3436, 3446, 3441, 3488, 3472, 3469, 3499, 3514, 3456, 3465, 3447, 3484, 3479, 3434, 3471, 3462, 3492, 3499, 3476, 3498, 3500, 3500, 3471, 3483, 3462, 3477, 3470, 3463, 3425, 3430, 3464, 3485, 3481, 3491, 3480, 3489, 3487, 3468, 3493, 3467, 3455, 3492, 3467, 3451, 3438, 3446, 3465, 3495, 3491, 3478, 3477, 3488, 3437, 3452, 3465, 3475, 3452, 3457, 3465, 3481, 3435, 3472, 3463, 3495, 3477, 3473, 3482, 3501, 3478, 3504, 3489, 3460, 3500, 3513, 3464, 3488, 3464, 3462, 3509, 3487, 3492, 3489, 3477, 3472, 3488, 3484, 3530, 3528, 3544, 3518, 3464, 3478, 3497, 3517, 3504, 3513, 3506, 3512, 3489, 3483, 3491, 3491, 3507, 3523, 3495, 3503, 3482, 3481, 3468, 3508, 3497, 3478, 3502, 3511, 3546, 3542, 3530, 3565, 3532, 3528, 3517, 3509, 3552, 3525, 3537, 3518, 3548, 3494, 3483, 3524, 3493, 3521, 3507, 3529, 3498, 3551, 3522, 3498, 3490, 3484, 3488, 3521, 3539, 3522, 3487, 3502, 3524, 3508, 3487, 3512, 3491, 3497, 3525, 3532, 3525, 3539, 3485, 3514, 3516, 3534, 3547, 3547, 3528, 3498, 3521, 3542, 3531, 3527, 3500, 3503, 3501, 3523, 3506, 3523, 3580, 3542, 3556, 3544, 3531, 3587, 3565, 3578, 3547, 3535, 3512, 3521, 3529, 3480, 3508, 3543, 3513, 3549, 3515, 3527, 3555, 3532, 3514, 3508, 3540, 3531, 3558, 3546, 3518, 3518, 3525, 3517, 3552, 3536, 3514, 3510, 3524, 3559, 3552, 3572, 3541, 3553, 3516, 3505, 3574, 3553, 3535, 3537, 3518, 3519, 3537, 3545, 3540, 3507, 3554],
      "WindowCenter": [806.0, 804.0, 803.0, 803.0, 801.0, 799.0, 800.0, 800.0, 801.0, 802.0, 802.0, 801.0, 801.0, 801.0, 801.0, 801.0, 802.0, 802.0, 802.0, 801.0, 801.0, 800.0, 800.0, 801.0, 801.0, 801.0, 801.0, 801.0, 801.0, 801.0, 802.0, 803.0, 802.0, 802.0, 801.0, 801.0, 800.0, 800.0, 800.0, 800.0, 800.0, 800.0, 801.0, 801.0, 801.0, 802.0, 802.0, 802.0, 801.0, 800.0, 800.0, 800.0, 801.0, 800.0, 800.0, 798.0, 798.0, 799.0, 801.0, 801.0, 801.0, 799.0, 799.0, 800.0, 800.0, 801.0, 800.0, 800.0, 799.0, 799.0, 799.0, 800.0, 800.0, 800.0, 801.0, 801.0, 800.0, 800.0, 800.0, 800.0, 799.0, 799.0, 800.0, 800.0, 799.0, 799.0, 800.0, 800.0, 801.0, 801.0, 801.0, 801.0, 800.0, 800.0, 799.0, 798.0, 798.0, 798.0, 798.0, 798.0, 799.0, 799.0, 800.0, 801.0, 800.0, 801.0, 801.0, 800.0, 799.0, 799.0, 799.0, 800.0, 800.0, 801.0, 800.0, 800.0, 801.0, 801.0, 802.0, 803.0, 804.0, 804.0, 804.0, 803.0, 802.0, 801.0, 801.0, 801.0, 801.0, 802.0, 803.0, 803.0, 802.0, 801.0, 800.0, 800.0, 800.0, 801.0, 801.0, 801.0, 801.0, 802.0, 802.0, 802.0, 802.0, 802.0, 801.0, 802.0, 803.0, 803.0, 803.0, 802.0, 801.0, 801.0, 802.0, 803.0, 803.0, 803.0, 804.0, 803.0, 801.0, 800.0, 799.0, 799.0, 800.0, 801.0, 801.0, 801.0, 801.0, 801.0, 800.0, 800.0, 799.0, 800.0, 801.0, 802.0, 802.0, 801.0, 801.0, 801.0, 800.0, 800.0, 802.0, 801.0, 801.0, 801.0, 800.0, 801.0, 801.0, 802.0, 802.0, 803.0, 802.0, 802.0, 801.0, 801.0, 801.0, 802.0, 802.0, 803.0, 804.0, 806.0, 807.0, 806.0, 804.0, 802.0, 801.0, 801.0, 801.0, 802.0, 802.0, 802.0, 802.0, 802.0, 802.0, 801.0, 802.0, 801.0, 801.0, 800.0, 800.0, 801.0, 801.0, 800.0, 799.0, 800.0, 800.0, 799.0, 800.0, 800.0, 800.0, 800.0, 800.0, 801.0, 801.0, 800.0, 801.0, 801.0, 803.0, 804.0, 804.0, 803.0, 802.0, 802.0, 801.0, 800.0, 800.0, 802.0, 801.0, 800.0, 800.0, 801.0, 801.0, 801.0, 801.0, 801.0],
      "WindowWidth": [1769.0, 1764.0, 1762.0, 1761.0, 1756.0, 1750.0, 1752.0, 1754.0, 1757.0, 1757.0, 1757.0, 1756.0, 1756.0, 1756.0, 1755.0, 1757.0, 1757.0, 1758.0, 1757.0, 1756.0, 1755.0, 1753.0, 1753.0, 1754.0, 1756.0, 1756.0, 1754.0, 1754.0, 1754.0, 1755.0, 1759.0, 1760.0, 1758.0, 1757.0, 1756.0, 1755.0, 1753.0, 1751.0, 1752.0, 1753.0, 1751.0, 1753.0, 1754.0, 1756.0, 1756.0, 1757.0, 1759.0, 1758.0, 1754.0, 1753.0, 1753.0, 1753.0, 1754.0, 1753.0, 1751.0, 1746.0, 1746.0, 1750.0, 1754.0, 1755.0, 1754.0, 1751.0, 1750.0, 1751.0, 1753.0, 1754.0, 1753.0, 1751.0, 1751.0, 1749.0, 1750.0, 1751.0, 1751.0, 1752.0, 1754.0, 1754.0, 1752.0, 1751.0, 1751.0, 1751.0, 1750.0, 1749.0, 1751.0, 1751.0, 1749.0, 1750.0, 1751.0, 1752.0, 1756.0, 1755.0, 1754.0, 1753.0, 1753.0, 1752.0, 1748.0, 1746.0, 1747.0, 1746.0, 1747.0, 1747.0, 1747.0, 1749.0, 1751.0, 1753.0, 1753.0, 1754.0, 1754.0, 1751.0, 1747.0, 1748.0, 1749.0, 1751.0, 1752.0, 1753.0, 1750.0, 1753.0, 1755.0, 1755.0, 1757.0, 1761.0, 1762.0, 1763.0, 1764.0, 1761.0, 1758.0, 1755.0, 1754.0, 1754.0, 1755.0, 1757.0, 1760.0, 1760.0, 1757.0, 1754.0, 1752.0, 1751.0, 1752.0, 1753.0, 1753.0, 1754.0, 1755.0, 1756.0, 1756.0, 1759.0, 1757.0, 1756.0, 1755.0, 1757.0, 1759.0, 1760.0, 1759.0, 1758.0, 1754.0, 1755.0, 1757.0, 1759.0, 1759.0, 1759.0, 1762.0, 1760.0, 1755.0, 1750.0, 1749.0, 1749.0, 1750.0, 1753.0, 1753.0, 1754.0, 1755.0, 1753.0, 1751.0, 1750.0, 1748.0, 1750.0, 1753.0, 1755.0, 1756.0, 1756.0, 1755.0, 1753.0, 1752.0, 1752.0, 1756.0, 1755.0, 1755.0, 1753.0, 1752.0, 1754.0, 1755.0, 1756.0, 1757.0, 1758.0, 1757.0, 1756.0, 1755.0, 1755.0, 1755.0, 1757.0, 1757.0, 1759.0, 1761.0, 1768.0, 1771.0, 1768.0, 1763.0, 1757.0, 1756.0, 1755.0, 1755.0, 1756.0, 1758.0, 1757.0, 1755.0, 1756.0, 1755.0, 1755.0, 1755.0, 1755.0, 1753.0, 1752.0, 1751.0, 1754.0, 1754.0, 1751.0, 1749.0, 1750.0, 1750.0, 1750.0, 1750.0, 1750.0, 1750.0, 1752.0, 1752.0, 1753.0, 1753.0, 1752.0, 1753.0, 1754.0, 1758.0, 1761.0, 1762.0, 1759.0, 1758.0, 1756.0, 1753.0, 1752.0, 1752.0, 1755.0, 1755.0, 1752.0, 1751.0, 1753.0, 1753.0, 1753.0, 1753.0, 1753.0]
    },
    "slices": {}
  }
}