{
  "AcquisitionMatrixPE": 100,
  "AcquisitionNumber": 1,
  "AcquisitionTime": "13:46:19.507500",
  "BandwidthPerPixelPhaseEncode": 18.519,
  "BaseResolution": 100,
  "BodyPartExamined": "BRAIN",
  "ConsistencyInfo": "N4_VE11C_LATEST_20160120",
  "ConversionSoftware": "dcm2niix",
  "ConversionSoftwareVersion": "v1.0.20180622 GCC4.9.2",
  "DerivedVendorReportedEchoSpacing": 0.000539986,
  "DeviceSerialNumber": "166078",
  "DwellTime": 2.1e-06,
  "EchoTime": 0.034,
  "EchoTrainLength": 100,
  "EffectiveEchoSpacing": 0.000539986,
  "FlipAngle": 90,
  "ImageOrientationPatientDICOM": [1, 0, 0, 0, 0.996041, -0.0888943],
  "ImageType": [
    "ORIGINAL",
    "PRIMARY",
    "M",
    "ND",
    "MOSAIC"
],
  "InPlanePhaseEncodingDirectionDICOM": "COL",
  "InstitutionAddress": "Street_StreetNo_Bei_Jing_District_CN_ZIP",
  "InstitutionName": "BeiJing_Normal_University",
  "InstitutionalDepartmentName": "Department",
  "MRAcquisitionType": "2D",
  "MagneticFieldStrength": 3,
  "Manufacturer": "Siemens",
  "ManufacturersModelName": "Prisma",
  "Modality": "MR",
  "MultibandAccelerationFactor": 3,
  "PartialFourier": 1,
  "PatientPosition": "HFS",
  "PercentPhaseFOV": 100,
  "PhaseEncodingDirection": "j-",
  "PhaseEncodingSteps": 100,
  "PhaseResolution": 1,
  "PixelBandwidth": 2380,
  "ProcedureStepDescription": "BNU_P2018_64CH_Zhen.ZongLei",
  "ProtocolName": "bold_100x100_s3_2x2x2_static_256",
  "PulseSequenceDetails": "%SiemensSeq%_ep2d_bold",
  "ReceiveCoilActiveElements": "HC1-7;NC1",
  "ReceiveCoilName": "HeadNeck_64",
  "ReconMatrixPE": 100,
  "RepetitionTime": 2,
  "SAR": 0.0666708,
  "ScanOptions": "FS",
  "ScanningSequence": "EP",
  "SequenceName": "_epfid2d1_100",
  "SequenceVariant": "SK",
  "SeriesDescription": "bold_100x100_s3_2x2x2_static_256",
  "SeriesNumber": 11,
  "ShimSetting": [-5448, -11505, -1247, 313, -18, -263, -197, 53],
  "SliceThickness": 2,
  "SliceTiming": [1.485, 0, 0.99, 0.0825, 1.0725, 0.165, 1.155, 0.2475, 1.2375, 0.33, 1.32, 0.4125, 1.4025, 0.5775, 1.5675, 0.66, 1.65, 0.7425, 1.7325, 0.825, 1.815, 0.9075, 1.8975, 0.495, 1.485, 0, 0.99, 0.0825, 1.0725, 0.165, 1.155, 0.2475, 1.2375, 0.33, 1.32, 0.4125, 1.4025, 0.5775, 1.5675, 0.66, 1.65, 0.7425, 1.7325, 0.825, 1.815, 0.9075, 1.8975, 0.495, 1.485, 0, 0.99, 0.0825, 1.0725, 0.165, 1.155, 0.2475, 1.2375, 0.33, 1.32, 0.4125, 1.4025, 0.5775, 1.5675, 0.66, 1.65, 0.7425, 1.7325, 0.825, 1.815, 0.9075, 1.8975, 0.495],
  "SoftwareVersions": "syngo_MR_E11",
  "SpacingBetweenSlices": 2,
  "StationName": "AWP166078",
  "TaskName": "naturalvision",
  "TotalReadoutTime": 0.0534586,
  "TxRefAmp": 210.806,
  "dcmmeta_affine": [
    [-2.0, 0.0, 0.0, 100.0],
    [0.0, 1.992082118988037, -0.17778858542442322, -92.80657958984375],
    [0.0, 0.17778858542442322, 1.992082118988037, -66.89787292480469],
    [0.0, 0.0, 0.0, 1.0]
],
  "dcmmeta_reorient_transform": [
    [0.0, -1.0, 0.0, 99.0],
    [1.0, 0.0, 0.0, 0.0],
    [0.0, 0.0, 1.0, 0.0],
    [0.0, 0.0, 0.0, 1.0]
],
  "dcmmeta_shape": [100, 100, 72, 256],
  "dcmmeta_slice_dim": 2,
  "dcmmeta_version": 0.6,
  "global": {
    "const": {
      "AcquisitionMatrix": [100, 0, 0, 100],
      "AngioFlag": "N",
      "BitsAllocated": 16,
      "BitsStored": 12,
      "BodyPartExamined": "BRAIN",
      "Columns": 900,
      "EchoNumbers": 1,
      "EchoTime": 34.0,
      "EchoTrainLength": 100,
      "FlipAngle": 90.0,
      "HighBit": 11,
      "ImageOrientationPatient": [1.0, 0.0, 0.0, 0.0, 0.99604106564855, -0.0888942942022],
      "ImagePositionPatient": [-900.0, -901.24240094008, 21.818635076159],
      "ImageType": [
        "ORIGINAL",
        "PRIMARY",
        "M",
        "ND",
        "MOSAIC"
],
      "ImagedNucleus": "1H",
      "ImagingFrequency": 123.257709,
      "InPlanePhaseEncodingDirection": "COL",
      "MRAcquisitionType": "2D",
      "MagneticFieldStrength": 3.0,
      "Manufacturer": "SIEMENS",
      "ManufacturerModelName": "Prisma",
      "Modality": "MR",
      "NumberOfAverages": 1.0,
      "NumberOfPhaseEncodingSteps": 100,
      "PercentPhaseFieldOfView": 100.0,
      "PercentSampling": 100.0,
      "PerformedProcedureStepStartTime": "124054.037000",
      "PhotometricInterpretation": "MONOCHROME2",
      "PixelBandwidth": 2380.0,
      "PixelRepresentation": 0,
      "PixelSpacing": [2.0, 2.0],
      "ProtocolName": "bold_100x100_s3_2x2x2_static_256",
      "RepetitionTime": 2000.0,
      "Rows": 900,
      "SAR": 0.06667083516362,
      "SamplesPerPixel": 1,
      "ScanOptions": "FS",
      "ScanningSequence": "EP",
      "SequenceName": "*epfid2d1_100",
      "SequenceVariant": "SK",
      "SeriesDescription": "bold_100x100_s3_2x2x2_static_256",
      "SeriesNumber": 11,
      "SeriesTime": "134622.202000",
      "SliceLocation": -58.3830506044,
      "SliceThickness": 2.0,
      "SmallestImagePixelValue": 0,
      "SoftwareVersions": "syngo MR E11",
      "SpacingBetweenSlices": 2.000000008252,
      "SpecificCharacterSet": "ISO_IR 100",
      "StudyID": "1",
      "StudyTime": "124053.962000",
      "TransmitCoilName": "Body",
      "VariableFlipAngleFlag": "N",
      "WindowCenterWidthExplanation": "Algo1",
      "dBdt": 0.0},
    "slices": {}
  },
  "time": {
    "samples": {
      "AcquisitionNumber": [1, 2, 3, 4, 5, 6, 7, 8, 9, 10, 11, 12, 13, 14, 15, 16, 17, 18, 19, 20, 21, 22, 23, 24, 25, 26, 27, 28, 29, 30, 31, 32, 33, 34, 35, 36, 37, 38, 39, 40, 41, 42, 43, 44, 45, 46, 47, 48, 49, 50, 51, 52, 53, 54, 55, 56, 57, 58, 59, 60, 61, 62, 63, 64, 65, 66, 67, 68, 69, 70, 71, 72, 73, 74, 75, 76, 77, 78, 79, 80, 81, 82, 83, 84, 85, 86, 87, 88, 89, 90, 91, 92, 93, 94, 95, 96, 97, 98, 99, 100, 101, 102, 103, 104, 105, 106, 107, 108, 109, 110, 111, 112, 113, 114, 115, 116, 117, 118, 119, 120, 121, 122, 123, 124, 125, 126, 127, 128, 129, 130, 131, 132, 133, 134, 135, 136, 137, 138, 139, 140, 141, 142, 143, 144, 145, 146, 147, 148, 149, 150, 151, 152, 153, 154, 155, 156, 157, 158, 159, 160, 161, 162, 163, 164, 165, 166, 167, 168, 169, 170, 171, 172, 173, 174, 175, 176, 177, 178, 179, 180, 181, 182, 183, 184, 185, 186, 187, 188, 189, 190, 191, 192, 193, 194, 195, 196, 197, 198, 199, 200, 201, 202, 203, 204, 205, 206, 207, 208, 209, 210, 211, 212, 213, 214, 215, 216, 217, 218, 219, 220, 221, 222, 223, 224, 225, 226, 227, 228, 229, 230, 231, 232, 233, 234, 235, 236, 237, 238, 239, 240, 241, 242, 243, 244, 245, 246, 247, 248, 249, 250, 251, 252, 253, 254, 255, 256],
      "AcquisitionTime": ["134619.507500", "134621.507500", "134623.507500", "134625.507500", "134627.507500", "134629.507500", "134631.507500", "134633.507500", "134635.507500", "134637.507500", "134639.507500", "134641.507500", "134643.507500", "134645.507500", "134647.507500", "134649.507500", "134651.507500", "134653.507500", "134655.507500", "134657.507500", "134659.507500", "134701.507500", "134703.507500", "134705.507500", "134707.507500", "134709.507500", "134711.507500", "134713.507500", "134715.507500", "134717.507500", "134719.507500", "134721.507500", "134723.507500", "134725.507500", "134727.507500", "134729.507500", "134731.507500", "134733.507500", "134735.507500", "134737.507500", "134739.507500", "134741.507500", "134743.507500", "134745.507500", "134747.507500", "134749.507500", "134751.507500", "134753.507500", "134755.507500", "134757.507500", "134759.507500", "134801.507500", "134803.507500", "134805.507500", "134807.507500", "134809.507500", "134811.507500", "134813.507500", "134815.507500", "134817.507500", "134819.507500", "134821.507500", "134823.507500", "134825.507500", "134827.507500", "134829.507500", "134831.507500", "134833.507500", "134835.507500", "134837.507500", "134839.507500", "134841.507500", "134843.507500", "134845.507500", "134847.507500", "134849.507500", "134851.507500", "134853.507500", "134855.507500", "134857.507500", "134859.507500", "134901.507500", "134903.507500", "134905.507500", "134907.507500", "134909.507500", "134911.507500", "134913.507500", "134915.507500", "134917.507500", "134919.507500", "134921.507500", "134923.507500", "134925.507500", "134927.507500", "134929.507500", "134931.507500", "134933.507500", "134935.507500", "134937.507500", "134939.507500", "134941.507500", "134943.507500", "134945.507500", "134947.507500", "134949.507500", "134951.507500", "134953.507500", "134955.507500", "134957.507500", "134959.507500", "135001.507500", "135003.507500", "135005.507500", "135007.507500", "135009.507500", "135011.507500", "135013.507500", "135015.507500", "135017.507500", "135019.507500", "135021.507500", "135023.507500", "135025.507500", "135027.507500", "135029.507500", "135031.507500", "135033.507500", "135035.507500", "135037.507500", "135039.507500", "135041.507500", "135043.507500", "135045.507500", "135047.507500", "135049.507500", "135051.507500", "135053.507500", "135055.507500", "135057.507500", "135059.507500", "135101.507500", "135103.507500", "135105.507500", "135107.507500", "135109.507500", "135111.507500", "135113.507500", "135115.507500", "135117.507500", "135119.507500", "135121.507500", "135123.507500", "135125.507500", "135127.507500", "135129.507500", "135131.507500", "135133.507500", "135135.507500", "135137.507500", "135139.507500", "135141.507500", "135143.507500", "135145.507500", "135147.507500", "135149.507500", "135151.507500", "135153.507500", "135155.507500", "135157.507500", "135159.507500", "135201.507500", "135203.507500", "135205.507500", "135207.507500", "135209.507500", "135211.507500", "135213.507500", "135215.507500", "135217.507500", "135219.507500", "135221.507500", "135223.507500", "135225.507500", "135227.507500", "135229.507500", "135231.507500", "135233.507500", "135235.507500", "135237.507500", "135239.507500", "135241.507500", "135243.507500", "135245.507500", "135247.507500", "135249.507500", "135251.507500", "135253.507500", "135255.507500", "135257.507500", "135259.507500", "135301.507500", "135303.507500", "135305.507500", "135307.507500", "135309.507500", "135311.507500", "135313.507500", "135315.507500", "135317.507500", "135319.507500", "135321.507500", "135323.507500", "135325.507500", "135327.507500", "135329.507500", "135331.507500", "135333.507500", "135335.507500", "135337.507500", "135339.507500", "135341.507500", "135343.507500", "135345.507500", "135347.507500", "135349.507500", "135351.507500", "135353.507500", "135355.507500", "135357.507500", "135359.507500", "135401.507500", "135403.507500", "135405.507500", "135407.507500", "135409.507500", "135411.507500", "135413.507500", "135415.507500", "135417.507500", "135419.507500", "135421.507500", "135423.507500", "135425.507500", "135427.507500", "135429.507500", "135431.507500", "135433.507500", "135435.507500", "135437.507500", "135439.507500", "135441.507500", "135443.507500", "135445.507500", "135447.507500", "135449.507500"],
      "ContentTime": ["134622.206000", "134624.202000", "134626.202000", "134627.701000", "134630.202000", "134631.703000", "134634.202000", "134635.703000", "134637.701000", "134639.701000", "134642.201000", "134643.701000", "134645.701000", "134647.703000", "134649.703000", "134652.203000", "134653.702000", "134656.202000", "134657.701000", "134659.701000", "134701.702000", "134703.702000", "134705.702000", "134707.702000", "134709.702000", "134711.703000", "134713.701000", "134715.701000", "134717.702000", "134720.201000", "134721.702000", "134723.702000", "134726.203000", "134727.702000", "134730.202000", "134731.701000", "134733.702000", "134735.702000", "134737.701000", "134739.703000", "134741.702000", "134743.702000", "134745.703000", "134748.201000", "134749.702000", "134752.202000", "134753.701000", "134755.702000", "134757.703000", "134800.202000", "134802.203000", "134803.703000", "134805.702000", "134807.701000", "134809.702000", "134811.702000", "134813.703000", "134815.702000", "134817.702000", "134819.702000", "134821.703000", "134823.701000", "134825.702000", "134827.701000", "134830.201000", "134832.203000", "134833.703000", "134835.703000", "134837.702000", "134839.702000", "134841.701000", "134843.702000", "134845.702000", "134847.701000", "134849.702000", "134851.702000", "134853.702000", "134856.203000", "134857.701000", "134859.702000", "134901.702000", "134903.701000", "134905.702000", "134907.702000", "134910.203000", "134911.703000", "134914.202000", "134915.701000", "134917.701000", "134920.202000", "134922.202000", "134923.703000", "134926.203000", "134928.203000", "134930.203000", "134931.702000", "134934.201000", "134935.701000", "134937.701000", "134939.701000", "134941.702000", "134943.702000", "134946.203000", "134947.702000", "134950.202000", "134951.701000", "134953.702000", "134956.201000", "134957.702000", "134959.703000", "135001.702000", "135003.702000", "135005.703000", "135008.201000", "135009.701000", "135011.701000", "135013.701000", "135015.703000", "135018.203000", "135020.203000", "135022.202000", "135023.702000", "135025.701000", "135028.202000", "135030.202000", "135031.701000", "135034.203000", "135036.203000", "135037.703000", "135039.703000", "135041.702000", "135043.702000", "135045.702000", "135047.701000", "135050.202000", "135051.703000", "135053.703000", "135055.703000", "135057.702000", "135059.701000", "135101.701000", "135103.701000", "135105.702000", "135107.702000", "135109.703000", "135111.703000", "135113.703000", "135116.202000", "135117.702000", "135120.202000", "135122.201000", "135123.701000", "135125.703000", "135127.702000", "135130.203000", "135131.703000", "135134.203000", "135135.702000", "135137.702000", "135139.701000", "135141.702000", "135143.703000", "135145.703000", "135148.202000", "135149.703000", "135151.702000", "135154.201000", "135155.701000", "135158.201000", "135159.702000", "135202.203000", "135204.202000", "135206.203000", "135208.202000", "135209.702000", "135212.202000", "135214.202000", "135215.702000", "135217.702000", "135219.703000", "135222.203000", "135224.203000", "135225.703000", "135228.201000", "135229.702000", "135231.701000", "135233.702000", "135235.702000", "135237.702000", "135240.202000", "135241.703000", "135243.703000", "135245.702000", "135248.202000", "135249.701000", "135252.202000", "135254.202000", "135256.202000", "135257.702000", "135300.203000", "135301.703000", "135303.702000", "135305.701000", "135308.202000", "135309.702000", "135311.703000", "135313.702000", "135316.202000", "135318.203000", "135319.717000", "135321.701000", "135323.702000", "135325.702000", "135327.701000", "135330.202000", "135331.702000", "135334.202000", "135335.702000", "135338.202000", "135340.201000", "135341.702000", "135344.202000", "135345.703000", "135347.702000", "135349.702000", "135351.702000", "135353.702000", "135355.702000", "135357.702000", "135400.201000", "135401.701000", "135403.702000", "135406.203000", "135408.203000", "135410.202000", "135411.703000", "135414.201000", "135415.701000", "135418.202000", "135419.702000", "135421.702000", "135423.703000", "135426.203000", "135427.703000", "135430.202000", "135431.702000", "135433.701000", "135435.701000", "135437.702000", "135440.203000", "135442.203000", "135443.702000", "135445.703000", "135447.702000", "135449.702000", "135451.766000"],
      "InstanceCreationTime": ["134622.206000", "134624.202000", "134626.202000", "134627.701000", "134630.202000", "134631.703000", "134634.202000", "134635.703000", "134637.701000", "134639.701000", "134642.201000", "134643.701000", "134645.701000", "134647.703000", "134649.703000", "134652.203000", "134653.702000", "134656.202000", "134657.701000", "134659.701000", "134701.702000", "134703.702000", "134705.702000", "134707.702000", "134709.702000", "134711.703000", "134713.701000", "134715.701000", "134717.702000", "134720.201000", "134721.702000", "134723.702000", "134726.203000", "134727.702000", "134730.202000", "134731.701000", "134733.702000", "134735.702000", "134737.701000", "134739.703000", "134741.702000", "134743.702000", "134745.703000", "134748.201000", "134749.702000", "134752.202000", "134753.701000", "134755.702000", "134757.703000", "134800.202000", "134802.203000", "134803.703000", "134805.702000", "134807.701000", "134809.702000", "134811.702000", "134813.703000", "134815.702000", "134817.702000", "134819.702000", "134821.703000", "134823.701000", "134825.702000", "134827.701000", "134830.201000", "134832.203000", "134833.703000", "134835.703000", "134837.702000", "134839.702000", "134841.701000", "134843.702000", "134845.702000", "134847.701000", "134849.702000", "134851.702000", "134853.702000", "134856.203000", "134857.701000", "134859.702000", "134901.702000", "134903.701000", "134905.702000", "134907.702000", "134910.203000", "134911.703000", "134914.202000", "134915.701000", "134917.701000", "134920.202000", "134922.202000", "134923.703000", "134926.203000", "134928.203000", "134930.203000", "134931.702000", "134934.201000", "134935.701000", "134937.701000", "134939.701000", "134941.702000", "134943.702000", "134946.203000", "134947.702000", "134950.202000", "134951.701000", "134953.702000", "134956.201000", "134957.702000", "134959.703000", "135001.702000", "135003.702000", "135005.703000", "135008.201000", "135009.701000", "135011.701000", "135013.701000", "135015.703000", "135018.203000", "135020.203000", "135022.202000", "135023.702000", "135025.701000", "135028.202000", "135030.202000", "135031.701000", "135034.203000", "135036.203000", "135037.703000", "135039.703000", "135041.702000", "135043.702000", "135045.702000", "135047.701000", "135050.202000", "135051.703000", "135053.703000", "135055.703000", "135057.702000", "135059.701000", "135101.701000", "135103.701000", "135105.702000", "135107.702000", "135109.703000", "135111.703000", "135113.703000", "135116.202000", "135117.702000", "135120.202000", "135122.201000", "135123.701000", "135125.703000", "135127.702000", "135130.203000", "135131.703000", "135134.203000", "135135.702000", "135137.702000", "135139.701000", "135141.702000", "135143.703000", "135145.703000", "135148.202000", "135149.703000", "135151.702000", "135154.201000", "135155.701000", "135158.201000", "135159.702000", "135202.203000", "135204.202000", "135206.203000", "135208.202000", "135209.702000", "135212.202000", "135214.202000", "135215.702000", "135217.702000", "135219.703000", "135222.203000", "135224.203000", "135225.703000", "135228.201000", "135229.702000", "135231.701000", "135233.702000", "135235.702000", "135237.702000", "135240.202000", "135241.703000", "135243.703000", "135245.702000", "135248.202000", "135249.701000", "135252.202000", "135254.202000", "135256.202000", "135257.702000", "135300.203000", "135301.703000", "135303.702000", "135305.701000", "135308.202000", "135309.702000", "135311.703000", "135313.702000", "135316.202000", "135318.203000", "135319.717000", "135321.701000", "135323.702000", "135325.702000", "135327.701000", "135330.202000", "135331.702000", "135334.202000", "135335.702000", "135338.202000", "135340.201000", "135341.702000", "135344.202000", "135345.703000", "135347.702000", "135349.702000", "135351.702000", "135353.702000", "135355.702000", "135357.702000", "135400.201000", "135401.701000", "135403.702000", "135406.203000", "135408.203000", "135410.202000", "135411.703000", "135414.201000", "135415.701000", "135418.202000", "135419.702000", "135421.702000", "135423.703000", "135426.203000", "135427.703000", "135430.202000", "135431.702000", "135433.701000", "135435.701000", "135437.702000", "135440.203000", "135442.203000", "135443.702000", "135445.703000", "135447.702000", "135449.702000", "135451.766000"],
      "InstanceNumber": [1, 2, 3, 4, 5, 6, 7, 8, 9, 10, 11, 12, 13, 14, 15, 16, 17, 18, 19, 20, 21, 22, 23, 24, 25, 26, 27, 28, 29, 30, 31, 32, 33, 34, 35, 36, 37, 38, 39, 40, 41, 42, 43, 44, 45, 46, 47, 48, 49, 50, 51, 52, 53, 54, 55, 56, 57, 58, 59, 60, 61, 62, 63, 64, 65, 66, 67, 68, 69, 70, 71, 72, 73, 74, 75, 76, 77, 78, 79, 80, 81, 82, 83, 84, 85, 86, 87, 88, 89, 90, 91, 92, 93, 94, 95, 96, 97, 98, 99, 100, 101, 102, 103, 104, 105, 106, 107, 108, 109, 110, 111, 112, 113, 114, 115, 116, 117, 118, 119, 120, 121, 122, 123, 124, 125, 126, 127, 128, 129, 130, 131, 132, 133, 134, 135, 136, 137, 138, 139, 140, 141, 142, 143, 144, 145, 146, 147, 148, 149, 150, 151, 152, 153, 154, 155, 156, 157, 158, 159, 160, 161, 162, 163, 164, 165, 166, 167, 168, 169, 170, 171, 172, 173, 174, 175, 176, 177, 178, 179, 180, 181, 182, 183, 184, 185, 186, 187, 188, 189, 190, 191, 192, 193, 194, 195, 196, 197, 198, 199, 200, 201, 202, 203, 204, 205, 206, 207, 208, 209, 210, 211, 212, 213, 214, 215, 216, 217, 218, 219, 220, 221, 222, 223, 224, 225, 226, 227, 228, 229, 230, 231, 232, 233, 234, 235, 236, 237, 238, 239, 240, 241, 242, 243, 244, 245, 246, 247, 248, 249, 250, 251, 252, 253, 254, 255, 256],
      "LargestImagePixelValue": [3692, 3498, 3540, 3483, 3528, 3523, 3564, 3489, 3548, 3468, 3546, 3511, 3494, 3542, 3548, 3543, 3542, 3497, 3528, 3543, 3506, 3560, 3520, 3536, 3527, 3534, 3549, 3514, 3558, 3502, 3547, 3504, 3551, 3526, 3548, 3506, 3467, 3543, 3523, 3521, 3549, 3519, 3523, 3543, 3543, 3523, 3551, 3533, 3559, 3531, 3535, 3534, 3492, 3484, 3527, 3502, 3496, 3501, 3545, 3483, 3515, 3516, 3498, 3504, 3536, 3496, 3534, 3505, 3557, 3502, 3550, 3476, 3556, 3487, 3531, 3494, 3522, 3506, 3516, 3508, 3525, 3511, 3518, 3494, 3535, 3494, 3519, 3530, 3473, 3472, 3516, 3445, 3513, 3492, 3539, 3497, 3546, 3493, 3529, 3477, 3531, 3488, 3524, 3508, 3548, 3471, 3546, 3457, 3506, 3497, 3527, 3486, 3519, 3501, 3503, 3497, 3503, 3507, 3513, 3445, 3511, 3534, 3492, 3511, 3504, 3499, 3498, 3462, 3505, 3501, 3506, 3533, 3510, 3516, 3511, 3492, 3530, 3477, 3539, 3493, 3530, 3486, 3544, 3530, 3523, 3477, 3468, 3521, 3500, 3507, 3511, 3481, 3525, 3476, 3522, 3475, 3538, 3446, 3536, 3516, 3467, 3522, 3489, 3470, 3461, 3495, 3480, 3461, 3479, 3498, 3510, 3501, 3502, 3495, 3519, 3478, 3500, 3488, 3479, 3468, 3510, 3483, 3505, 3461, 3514, 3444, 3508, 3496, 3506, 3463, 3503, 3499, 3503, 3506, 3508, 3519, 3518, 3526, 3527, 3510, 3531, 3507, 3522, 3543, 3502, 3508, 3487, 3511, 3549, 3511, 3526, 3530, 3539, 3520, 3533, 3523, 3477, 3539, 3553, 3509, 3517, 3528, 3524, 3530, 3516, 3553, 3529, 3544, 3543, 3513, 3535, 3521, 3510, 3491, 3513, 3550, 3530, 3540, 3524, 3510, 3547, 3559, 3545, 3536, 3519, 3529, 3538, 3526, 3540, 3502, 3524, 3542, 3537, 3531, 3547, 3562],
      "WindowCenter": [807.0, 804.0, 803.0, 802.0, 801.0, 800.0, 801.0, 802.0, 803.0, 803.0, 802.0, 802.0, 801.0, 801.0, 801.0, 800.0, 800.0, 800.0, 800.0, 801.0, 800.0, 800.0, 800.0, 801.0, 801.0, 801.0, 801.0, 801.0, 802.0, 802.0, 803.0, 803.0, 802.0, 801.0, 801.0, 801.0, 800.0, 801.0, 802.0, 801.0, 800.0, 799.0, 798.0, 799.0, 799.0, 799.0, 799.0, 800.0, 800.0, 800.0, 800.0, 800.0, 800.0, 799.0, 800.0, 800.0, 800.0, 800.0, 800.0, 800.0, 800.0, 800.0, 800.0, 799.0, 799.0, 799.0, 800.0, 800.0, 800.0, 801.0, 802.0, 801.0, 801.0, 801.0, 801.0, 801.0, 802.0, 802.0, 802.0, 802.0, 802.0, 802.0, 802.0, 802.0, 802.0, 802.0, 800.0, 800.0, 800.0, 800.0, 799.0, 797.0, 797.0, 797.0, 798.0, 798.0, 798.0, 799.0, 799.0, 800.0, 800.0, 800.0, 800.0, 799.0, 800.0, 799.0, 801.0, 800.0, 800.0, 800.0, 801.0, 801.0, 802.0, 802.0, 802.0, 802.0, 802.0, 802.0, 802.0, 802.0, 803.0, 803.0, 801.0, 800.0, 800.0, 799.0, 799.0, 800.0, 801.0, 801.0, 800.0, 800.0, 799.0, 799.0, 798.0, 797.0, 798.0, 798.0, 799.0, 799.0, 799.0, 800.0, 800.0, 801.0, 800.0, 800.0, 800.0, 800.0, 800.0, 801.0, 802.0, 802.0, 802.0, 801.0, 801.0, 800.0, 800.0, 799.0, 798.0, 798.0, 798.0, 799.0, 800.0, 802.0, 802.0, 802.0, 801.0, 801.0, 801.0, 801.0, 801.0, 801.0, 801.0, 801.0, 801.0, 800.0, 801.0, 801.0, 802.0, 802.0, 801.0, 800.0, 800.0, 800.0, 801.0, 801.0, 802.0, 801.0, 800.0, 800.0, 801.0, 801.0, 800.0, 800.0, 800.0, 801.0, 802.0, 801.0, 801.0, 800.0, 800.0, 801.0, 801.0, 801.0, 800.0, 800.0, 800.0, 800.0, 800.0, 801.0, 800.0, 800.0, 800.0, 802.0, 804.0, 803.0, 801.0, 800.0, 800.0, 800.0, 800.0, 801.0, 801.0, 800.0, 799.0, 799.0, 800.0, 801.0, 801.0, 801.0, 802.0, 802.0, 802.0, 801.0, 800.0, 800.0, 800.0, 800.0, 801.0, 801.0, 801.0, 801.0, 801.0, 801.0, 800.0, 799.0, 800.0, 800.0, 801.0, 801.0, 801.0, 801.0, 801.0, 801.0, 802.0, 803.0],
      "WindowWidth": [1773.0, 1762.0, 1759.0, 1756.0, 1754.0, 1752.0, 1754.0, 1757.0, 1761.0, 1759.0, 1758.0, 1758.0, 1755.0, 1755.0, 1753.0, 1752.0, 1752.0, 1753.0, 1753.0, 1753.0, 1752.0, 1752.0, 1752.0, 1754.0, 1756.0, 1755.0, 1755.0, 1754.0, 1757.0, 1759.0, 1761.0, 1761.0, 1759.0, 1756.0, 1755.0, 1755.0, 1752.0, 1755.0, 1756.0, 1755.0, 1752.0, 1748.0, 1747.0, 1749.0, 1750.0, 1749.0, 1750.0, 1751.0, 1753.0, 1753.0, 1752.0, 1751.0, 1750.0, 1750.0, 1752.0, 1753.0, 1751.0, 1750.0, 1751.0, 1752.0, 1752.0, 1752.0, 1751.0, 1749.0, 1749.0, 1748.0, 1751.0, 1752.0, 1752.0, 1754.0, 1756.0, 1755.0, 1755.0, 1753.0, 1755.0, 1754.0, 1756.0, 1757.0, 1757.0, 1756.0, 1756.0, 1757.0, 1756.0, 1757.0, 1757.0, 1756.0, 1752.0, 1753.0, 1752.0, 1751.0, 1748.0, 1742.0, 1743.0, 1743.0, 1745.0, 1745.0, 1747.0, 1748.0, 1749.0, 1750.0, 1753.0, 1751.0, 1750.0, 1749.0, 1750.0, 1750.0, 1753.0, 1752.0, 1752.0, 1753.0, 1754.0, 1755.0, 1757.0, 1758.0, 1758.0, 1758.0, 1757.0, 1756.0, 1756.0, 1757.0, 1761.0, 1759.0, 1754.0, 1751.0, 1749.0, 1748.0, 1749.0, 1750.0, 1753.0, 1753.0, 1752.0, 1751.0, 1749.0, 1748.0, 1745.0, 1744.0, 1744.0, 1744.0, 1748.0, 1749.0, 1749.0, 1750.0, 1752.0, 1752.0, 1751.0, 1751.0, 1750.0, 1750.0, 1752.0, 1755.0, 1756.0, 1756.0, 1756.0, 1755.0, 1753.0, 1752.0, 1751.0, 1747.0, 1745.0, 1745.0, 1744.0, 1748.0, 1751.0, 1757.0, 1757.0, 1757.0, 1754.0, 1753.0, 1754.0, 1754.0, 1753.0, 1754.0, 1755.0, 1753.0, 1754.0, 1752.0, 1753.0, 1755.0, 1756.0, 1756.0, 1755.0, 1752.0, 1751.0, 1751.0, 1753.0, 1754.0, 1755.0, 1754.0, 1752.0, 1750.0, 1752.0, 1752.0, 1751.0, 1751.0, 1751.0, 1754.0, 1756.0, 1755.0, 1753.0, 1752.0, 1751.0, 1753.0, 1754.0, 1754.0, 1751.0, 1750.0, 1750.0, 1751.0, 1752.0, 1753.0, 1751.0, 1750.0, 1750.0, 1757.0, 1762.0, 1760.0, 1753.0, 1751.0, 1751.0, 1750.0, 1750.0, 1752.0, 1753.0, 1750.0, 1748.0, 1749.0, 1750.0, 1753.0, 1753.0, 1753.0, 1756.0, 1758.0, 1755.0, 1752.0, 1750.0, 1749.0, 1750.0, 1751.0, 1753.0, 1752.0, 1753.0, 1755.0, 1754.0, 1753.0, 1750.0, 1749.0, 1750.0, 1751.0, 1753.0, 1753.0, 1753.0, 1753.0, 1754.0, 1755.0, 1757.0, 1759.0]
    },
    "slices": {}
  }
}