{
 "AcquisitionMatrixPE": 100,
 "AcquisitionNumber": 1,
 "AcquisitionTime": "12:56:24.885000",
 "BandwidthPerPixelPhaseEncode": 18.519,
 "BaseResolution": 100,
 "BodyPartExamined": "BRAIN",
 "ConsistencyInfo": "N4_VE11C_LATEST_20160120",
 "ConversionSoftware": "dcm2niix",
 "ConversionSoftwareVersion": "v1.0.20180622 GCC4.9.2",
 "DerivedVendorReportedEchoSpacing": 0.000539986,
 "DeviceSerialNumber": "166078",
 "DwellTime": 2.1e-06,
 "EchoTime": 0.034,
 "EchoTrainLength": 100,
 "EffectiveEchoSpacing": 0.000539986,
 "FlipAngle": 90,
 "ImageOrientationPatientDICOM": [
  1,
  0,
  0,
  0,
  0.996041,
  -0.0888943
 ],
 "ImageType": [
  "ORIGINAL",
  "PRIMARY",
  "M",
  "ND",
  "MOSAIC"
 ],
 "InPlanePhaseEncodingDirectionDICOM": "COL",
 "InstitutionAddress": "Street_StreetNo_Bei_Jing_District_CN_ZIP",
 "InstitutionName": "BeiJing_Normal_University",
 "InstitutionalDepartmentName": "Department",
 "MRAcquisitionType": "2D",
 "MagneticFieldStrength": 3,
 "Manufacturer": "Siemens",
 "ManufacturersModelName": "Prisma",
 "Modality": "MR",
 "MultibandAccelerationFactor": 3,
 "PartialFourier": 1,
 "PatientPosition": "HFS",
 "PercentPhaseFOV": 100,
 "PhaseEncodingDirection": "j-",
 "PhaseEncodingSteps": 100,
 "PhaseResolution": 1,
 "PixelBandwidth": 2380,
 "ProcedureStepDescription": "BNU_P2018_64CH_Zhen.ZongLei",
 "ProtocolName": "bold_100x100_s3_2x2x2_static_256",
 "PulseSequenceDetails": "%SiemensSeq%_ep2d_bold",
 "ReceiveCoilActiveElements": "HC1-7;NC1",
 "ReceiveCoilName": "HeadNeck_64",
 "ReconMatrixPE": 100,
 "RepetitionTime": 2,
 "SAR": 0.0666708,
 "ScanOptions": "FS",
 "ScanningSequence": "EP",
 "SequenceName": "_epfid2d1_100",
 "SequenceVariant": "SK",
 "SeriesDescription": "bold_100x100_s3_2x2x2_static_256",
 "SeriesNumber": 4,
 "ShimSetting": [
  -5448,
  -11505,
  -1247,
  313,
  -18,
  -263,
  -197,
  53
 ],
 "SliceThickness": 2,
 "SliceTiming": [
  1.4825,
  0,
  0.99,
  0.0825,
  1.0725,
  0.165,
  1.155,
  0.2475,
  1.2375,
  0.33,
  1.32,
  0.4125,
  1.4025,
  0.5775,
  1.565,
  0.66,
  1.6475,
  0.7425,
  1.73,
  0.825,
  1.8125,
  0.9075,
  1.895,
  0.495,
  1.4825,
  0,
  0.99,
  0.0825,
  1.0725,
  0.165,
  1.155,
  0.2475,
  1.2375,
  0.33,
  1.32,
  0.4125,
  1.4025,
  0.5775,
  1.565,
  0.66,
  1.6475,
  0.7425,
  1.73,
  0.825,
  1.8125,
  0.9075,
  1.895,
  0.495,
  1.4825,
  0,
  0.99,
  0.0825,
  1.0725,
  0.165,
  1.155,
  0.2475,
  1.2375,
  0.33,
  1.32,
  0.4125,
  1.4025,
  0.5775,
  1.565,
  0.66,
  1.6475,
  0.7425,
  1.73,
  0.825,
  1.8125,
  0.9075,
  1.895,
  0.495
 ],
 "SoftwareVersions": "syngo_MR_E11",
 "SpacingBetweenSlices": 2,
 "StationName": "AWP166078",
 "TaskName": "imagenet",
 "TotalReadoutTime": 0.0534586,
 "TxRefAmp": 210.806,
 "dcmmeta_affine": [
  [
   -2.0,
   0.0,
   0.0,
   100.0
  ],
  [
   0.0,
   1.992082118988037,
   -0.17778858542442322,
   -92.80657958984375
  ],
  [
   0.0,
   0.17778858542442322,
   1.992082118988037,
   -66.89787292480469
  ],
  [
   0.0,
   0.0,
   0.0,
   1.0
  ]
 ],
 "dcmmeta_reorient_transform": [
  [
   0.0,
   -1.0,
   0.0,
   99.0
  ],
  [
   1.0,
   0.0,
   0.0,
   0.0
  ],
  [
   0.0,
   0.0,
   1.0,
   0.0
  ],
  [
   0.0,
   0.0,
   0.0,
   1.0
  ]
 ],
 "dcmmeta_shape": [
  100,
  100,
  72,
  256
 ],
 "dcmmeta_slice_dim": 2,
 "dcmmeta_version": 0.6,
 "global": {
  "const": {
   "AcquisitionMatrix": [
    100,
    0,
    0,
    100
   ],
   "AngioFlag": "N",
   "BitsAllocated": 16,
   "BitsStored": 12,
   "BodyPartExamined": "BRAIN",
   "Columns": 900,
   "EchoNumbers": 1,
   "EchoTime": 34.0,
   "EchoTrainLength": 100,
   "FlipAngle": 90.0,
   "HighBit": 11,
   "ImageOrientationPatient": [
    1.0,
    0.0,
    0.0,
    0.0,
    0.99604106564855,
    -0.0888942942022
   ],
   "ImagePositionPatient": [
    -900.0,
    -901.24240094008,
    21.818635076159
   ],
   "ImageType": [
    "ORIGINAL",
    "PRIMARY",
    "M",
    "ND",
    "MOSAIC"
   ],
   "ImagedNucleus": "1H",
   "ImagingFrequency": 123.257683,
   "InPlanePhaseEncodingDirection": "COL",
   "MRAcquisitionType": "2D",
   "MagneticFieldStrength": 3.0,
   "Manufacturer": "SIEMENS",
   "ManufacturerModelName": "Prisma",
   "Modality": "MR",
   "NumberOfAverages": 1.0,
   "NumberOfPhaseEncodingSteps": 100,
   "PercentPhaseFieldOfView": 100.0,
   "PercentSampling": 100.0,
   "PerformedProcedureStepStartTime": "124054.037000",
   "PhotometricInterpretation": "MONOCHROME2",
   "PixelBandwidth": 2380.0,
   "PixelRepresentation": 0,
   "PixelSpacing": [
    2.0,
    2.0
   ],
   "ProtocolName": "bold_100x100_s3_2x2x2_static_256",
   "RepetitionTime": 2000.0,
   "Rows": 900,
   "SAR": 0.06667083516362,
   "SamplesPerPixel": 1,
   "ScanOptions": "FS",
   "ScanningSequence": "EP",
   "SequenceName": "*epfid2d1_100",
   "SequenceVariant": "SK",
   "SeriesDescription": "bold_100x100_s3_2x2x2_static_256",
   "SeriesNumber": 4,
   "SeriesTime": "125627.317000",
   "SliceLocation": -58.3830506044,
   "SliceThickness": 2.0,
   "SmallestImagePixelValue": 0,
   "SoftwareVersions": "syngo MR E11",
   "SpacingBetweenSlices": 2.000000008252,
   "SpecificCharacterSet": "ISO_IR 100",
   "StudyID": "1",
   "StudyTime": "124053.962000",
   "TransmitCoilName": "Body",
   "VariableFlipAngleFlag": "N",
   "WindowCenterWidthExplanation": "Algo1",
   "dBdt": 0.0
  },
  "slices": {}
 },
 "time": {
  "samples": {
   "AcquisitionNumber": [
    1,
    2,
    3,
    4,
    5,
    6,
    7,
    8,
    9,
    10,
    11,
    12,
    13,
    14,
    15,
    16,
    17,
    18,
    19,
    20,
    21,
    22,
    23,
    24,
    25,
    26,
    27,
    28,
    29,
    30,
    31,
    32,
    33,
    34,
    35,
    36,
    37,
    38,
    39,
    40,
    41,
    42,
    43,
    44,
    45,
    46,
    47,
    48,
    49,
    50,
    51,
    52,
    53,
    54,
    55,
    56,
    57,
    58,
    59,
    60,
    61,
    62,
    63,
    64,
    65,
    66,
    67,
    68,
    69,
    70,
    71,
    72,
    73,
    74,
    75,
    76,
    77,
    78,
    79,
    80,
    81,
    82,
    83,
    84,
    85,
    86,
    87,
    88,
    89,
    90,
    91,
    92,
    93,
    94,
    95,
    96,
    97,
    98,
    99,
    100,
    101,
    102,
    103,
    104,
    105,
    106,
    107,
    108,
    109,
    110,
    111,
    112,
    113,
    114,
    115,
    116,
    117,
    118,
    119,
    120,
    121,
    122,
    123,
    124,
    125,
    126,
    127,
    128,
    129,
    130,
    131,
    132,
    133,
    134,
    135,
    136,
    137,
    138,
    139,
    140,
    141,
    142,
    143,
    144,
    145,
    146,
    147,
    148,
    149,
    150,
    151,
    152,
    153,
    154,
    155,
    156,
    157,
    158,
    159,
    160,
    161,
    162,
    163,
    164,
    165,
    166,
    167,
    168,
    169,
    170,
    171,
    172,
    173,
    174,
    175,
    176,
    177,
    178,
    179,
    180,
    181,
    182,
    183,
    184,
    185,
    186,
    187,
    188,
    189,
    190,
    191,
    192,
    193,
    194,
    195,
    196,
    197,
    198,
    199,
    200,
    201,
    202,
    203,
    204,
    205,
    206,
    207,
    208,
    209,
    210,
    211,
    212,
    213,
    214,
    215,
    216,
    217,
    218,
    219,
    220,
    221,
    222,
    223,
    224,
    225,
    226,
    227,
    228,
    229,
    230,
    231,
    232,
    233,
    234,
    235,
    236,
    237,
    238,
    239,
    240,
    241,
    242,
    243,
    244,
    245,
    246,
    247,
    248,
    249,
    250,
    251,
    252,
    253,
    254,
    255,
    256
   ],
   "AcquisitionTime": [
    "125624.885000",
    "125626.885000",
    "125628.885000",
    "125630.885000",
    "125632.885000",
    "125634.885000",
    "125636.885000",
    "125638.885000",
    "125640.885000",
    "125642.885000",
    "125644.885000",
    "125646.885000",
    "125648.885000",
    "125650.885000",
    "125652.885000",
    "125654.885000",
    "125656.885000",
    "125658.885000",
    "125700.885000",
    "125702.885000",
    "125704.885000",
    "125706.885000",
    "125708.885000",
    "125710.885000",
    "125712.885000",
    "125714.885000",
    "125716.885000",
    "125718.885000",
    "125720.885000",
    "125722.885000",
    "125724.885000",
    "125726.885000",
    "125728.885000",
    "125730.885000",
    "125732.885000",
    "125734.885000",
    "125736.885000",
    "125738.885000",
    "125740.885000",
    "125742.885000",
    "125744.885000",
    "125746.885000",
    "125748.885000",
    "125750.885000",
    "125752.885000",
    "125754.885000",
    "125756.885000",
    "125758.885000",
    "125800.885000",
    "125802.885000",
    "125804.885000",
    "125806.885000",
    "125808.885000",
    "125810.885000",
    "125812.885000",
    "125814.885000",
    "125816.885000",
    "125818.885000",
    "125820.885000",
    "125822.885000",
    "125824.885000",
    "125826.885000",
    "125828.885000",
    "125830.885000",
    "125832.885000",
    "125834.885000",
    "125836.885000",
    "125838.885000",
    "125840.885000",
    "125842.885000",
    "125844.885000",
    "125846.885000",
    "125848.885000",
    "125850.885000",
    "125852.885000",
    "125854.885000",
    "125856.885000",
    "125858.885000",
    "125900.885000",
    "125902.885000",
    "125904.885000",
    "125906.885000",
    "125908.885000",
    "125910.885000",
    "125912.885000",
    "125914.885000",
    "125916.885000",
    "125918.885000",
    "125920.885000",
    "125922.885000",
    "125924.885000",
    "125926.885000",
    "125928.885000",
    "125930.885000",
    "125932.885000",
    "125934.885000",
    "125936.885000",
    "125938.885000",
    "125940.885000",
    "125942.885000",
    "125944.885000",
    "125946.885000",
    "125948.885000",
    "125950.885000",
    "125952.885000",
    "125954.885000",
    "125956.885000",
    "125958.885000",
    "130000.885000",
    "130002.885000",
    "130004.885000",
    "130006.885000",
    "130008.885000",
    "130010.885000",
    "130012.885000",
    "130014.885000",
    "130016.885000",
    "130018.885000",
    "130020.885000",
    "130022.885000",
    "130024.885000",
    "130026.885000",
    "130028.885000",
    "130030.885000",
    "130032.885000",
    "130034.885000",
    "130036.885000",
    "130038.885000",
    "130040.885000",
    "130042.885000",
    "130044.885000",
    "130046.885000",
    "130048.885000",
    "130050.885000",
    "130052.885000",
    "130054.885000",
    "130056.885000",
    "130058.885000",
    "130100.885000",
    "130102.885000",
    "130104.885000",
    "130106.885000",
    "130108.885000",
    "130110.885000",
    "130112.885000",
    "130114.885000",
    "130116.885000",
    "130118.885000",
    "130120.885000",
    "130122.885000",
    "130124.885000",
    "130126.885000",
    "130128.885000",
    "130130.885000",
    "130132.885000",
    "130134.885000",
    "130136.885000",
    "130138.885000",
    "130140.885000",
    "130142.885000",
    "130144.885000",
    "130146.885000",
    "130148.885000",
    "130150.885000",
    "130152.885000",
    "130154.885000",
    "130156.885000",
    "130158.885000",
    "130200.885000",
    "130202.885000",
    "130204.885000",
    "130206.885000",
    "130208.885000",
    "130210.885000",
    "130212.885000",
    "130214.885000",
    "130216.885000",
    "130218.885000",
    "130220.885000",
    "130222.885000",
    "130224.885000",
    "130226.885000",
    "130228.885000",
    "130230.885000",
    "130232.885000",
    "130234.885000",
    "130236.885000",
    "130238.885000",
    "130240.885000",
    "130242.885000",
    "130244.885000",
    "130246.885000",
    "130248.885000",
    "130250.885000",
    "130252.885000",
    "130254.885000",
    "130256.885000",
    "130258.885000",
    "130300.885000",
    "130302.885000",
    "130304.885000",
    "130306.885000",
    "130308.885000",
    "130310.885000",
    "130312.885000",
    "130314.885000",
    "130316.885000",
    "130318.885000",
    "130320.885000",
    "130322.885000",
    "130324.885000",
    "130326.885000",
    "130328.885000",
    "130330.885000",
    "130332.885000",
    "130334.885000",
    "130336.885000",
    "130338.885000",
    "130340.885000",
    "130342.885000",
    "130344.885000",
    "130346.885000",
    "130348.885000",
    "130350.885000",
    "130352.885000",
    "130354.885000",
    "130356.885000",
    "130358.885000",
    "130400.885000",
    "130402.885000",
    "130404.885000",
    "130406.885000",
    "130408.885000",
    "130410.885000",
    "130412.885000",
    "130414.885000",
    "130416.885000",
    "130418.885000",
    "130420.885000",
    "130422.885000",
    "130424.885000",
    "130426.885000",
    "130428.885000",
    "130430.885000",
    "130432.885000",
    "130434.885000",
    "130436.885000",
    "130438.885000",
    "130440.885000",
    "130442.885000",
    "130444.885000",
    "130446.885000",
    "130448.885000",
    "130450.885000",
    "130452.885000",
    "130454.885000"
   ],
   "ContentTime": [
    "125627.320000",
    "125628.816000",
    "125630.815000",
    "125632.816000",
    "125634.815000",
    "125636.815000",
    "125638.815000",
    "125640.816000",
    "125642.815000",
    "125644.815000",
    "125646.815000",
    "125648.815000",
    "125650.815000",
    "125652.815000",
    "125654.814000",
    "125656.815000",
    "125658.815000",
    "125700.816000",
    "125702.815000",
    "125704.816000",
    "125706.816000",
    "125708.816000",
    "125710.815000",
    "125712.814000",
    "125714.816000",
    "125716.815000",
    "125718.816000",
    "125720.816000",
    "125722.816000",
    "125724.815000",
    "125726.816000",
    "125728.814000",
    "125730.814000",
    "125732.815000",
    "125734.815000",
    "125736.815000",
    "125738.815000",
    "125740.816000",
    "125742.815000",
    "125744.815000",
    "125746.815000",
    "125748.815000",
    "125750.816000",
    "125752.816000",
    "125754.816000",
    "125756.815000",
    "125758.816000",
    "125800.815000",
    "125802.816000",
    "125804.814000",
    "125806.815000",
    "125808.816000",
    "125810.815000",
    "125812.815000",
    "125814.815000",
    "125816.815000",
    "125818.815000",
    "125820.815000",
    "125822.814000",
    "125824.815000",
    "125826.815000",
    "125828.816000",
    "125830.815000",
    "125832.816000",
    "125834.816000",
    "125836.816000",
    "125838.815000",
    "125840.814000",
    "125842.815000",
    "125844.815000",
    "125846.816000",
    "125848.816000",
    "125850.816000",
    "125852.815000",
    "125854.815000",
    "125856.814000",
    "125858.816000",
    "125900.815000",
    "125902.815000",
    "125904.816000",
    "125906.816000",
    "125908.816000",
    "125910.816000",
    "125912.816000",
    "125914.814000",
    "125916.816000",
    "125919.316000",
    "125920.815000",
    "125922.816000",
    "125924.816000",
    "125926.816000",
    "125928.815000",
    "125930.815000",
    "125932.815000",
    "125934.816000",
    "125936.815000",
    "125938.815000",
    "125940.816000",
    "125942.816000",
    "125944.816000",
    "125946.816000",
    "125948.815000",
    "125950.815000",
    "125952.815000",
    "125954.816000",
    "125956.815000",
    "125958.815000",
    "130000.815000",
    "130002.815000",
    "130004.815000",
    "130006.814000",
    "130008.815000",
    "130010.815000",
    "130012.815000",
    "130014.815000",
    "130016.815000",
    "130019.315000",
    "130020.815000",
    "130022.815000",
    "130024.814000",
    "130026.815000",
    "130028.815000",
    "130030.815000",
    "130032.815000",
    "130035.316000",
    "130036.815000",
    "130038.815000",
    "130040.816000",
    "130042.814000",
    "130044.816000",
    "130046.816000",
    "130048.815000",
    "130050.815000",
    "130052.815000",
    "130054.816000",
    "130056.816000",
    "130058.814000",
    "130100.814000",
    "130102.816000",
    "130104.816000",
    "130106.816000",
    "130108.816000",
    "130110.816000",
    "130112.816000",
    "130114.816000",
    "130116.815000",
    "130118.816000",
    "130120.815000",
    "130122.816000",
    "130124.816000",
    "130126.816000",
    "130128.815000",
    "130130.816000",
    "130132.816000",
    "130134.814000",
    "130136.815000",
    "130138.816000",
    "130140.815000",
    "130142.815000",
    "130144.816000",
    "130146.815000",
    "130148.816000",
    "130150.816000",
    "130152.814000",
    "130154.816000",
    "130156.815000",
    "130158.815000",
    "130200.815000",
    "130202.815000",
    "130204.816000",
    "130206.816000",
    "130208.815000",
    "130210.816000",
    "130212.815000",
    "130214.815000",
    "130216.815000",
    "130218.816000",
    "130220.815000",
    "130222.815000",
    "130224.816000",
    "130226.815000",
    "130228.816000",
    "130230.816000",
    "130232.816000",
    "130234.815000",
    "130236.816000",
    "130238.816000",
    "130240.816000",
    "130242.816000",
    "130244.814000",
    "130246.816000",
    "130248.816000",
    "130250.815000",
    "130252.815000",
    "130254.816000",
    "130256.816000",
    "130258.815000",
    "130300.815000",
    "130302.815000",
    "130304.815000",
    "130306.815000",
    "130308.816000",
    "130310.816000",
    "130312.816000",
    "130314.815000",
    "130316.816000",
    "130318.815000",
    "130320.815000",
    "130322.815000",
    "130324.815000",
    "130326.816000",
    "130328.816000",
    "130330.816000",
    "130332.816000",
    "130334.816000",
    "130336.815000",
    "130338.816000",
    "130340.815000",
    "130342.815000",
    "130344.815000",
    "130346.830000",
    "130348.816000",
    "130350.815000",
    "130352.816000",
    "130354.815000",
    "130356.815000",
    "130358.835000",
    "130400.815000",
    "130402.816000",
    "130404.815000",
    "130406.815000",
    "130408.815000",
    "130410.815000",
    "130412.815000",
    "130414.816000",
    "130416.816000",
    "130418.816000",
    "130420.816000",
    "130422.816000",
    "130424.815000",
    "130426.815000",
    "130428.814000",
    "130430.816000",
    "130432.815000",
    "130434.816000",
    "130436.815000",
    "130438.816000",
    "130440.816000",
    "130442.816000",
    "130444.816000",
    "130446.814000",
    "130448.816000",
    "130450.815000",
    "130452.816000",
    "130454.816000",
    "130456.670000"
   ],
   "InstanceCreationTime": [
    "125627.320000",
    "125628.816000",
    "125630.815000",
    "125632.816000",
    "125634.815000",
    "125636.815000",
    "125638.815000",
    "125640.816000",
    "125642.815000",
    "125644.815000",
    "125646.815000",
    "125648.815000",
    "125650.815000",
    "125652.815000",
    "125654.814000",
    "125656.815000",
    "125658.815000",
    "125700.816000",
    "125702.815000",
    "125704.816000",
    "125706.816000",
    "125708.816000",
    "125710.815000",
    "125712.814000",
    "125714.816000",
    "125716.815000",
    "125718.816000",
    "125720.816000",
    "125722.816000",
    "125724.815000",
    "125726.816000",
    "125728.814000",
    "125730.814000",
    "125732.815000",
    "125734.815000",
    "125736.815000",
    "125738.815000",
    "125740.816000",
    "125742.815000",
    "125744.815000",
    "125746.815000",
    "125748.815000",
    "125750.816000",
    "125752.816000",
    "125754.816000",
    "125756.815000",
    "125758.816000",
    "125800.815000",
    "125802.816000",
    "125804.814000",
    "125806.815000",
    "125808.816000",
    "125810.815000",
    "125812.815000",
    "125814.815000",
    "125816.815000",
    "125818.815000",
    "125820.815000",
    "125822.814000",
    "125824.815000",
    "125826.815000",
    "125828.816000",
    "125830.815000",
    "125832.816000",
    "125834.816000",
    "125836.816000",
    "125838.815000",
    "125840.814000",
    "125842.815000",
    "125844.815000",
    "125846.816000",
    "125848.816000",
    "125850.816000",
    "125852.815000",
    "125854.815000",
    "125856.814000",
    "125858.816000",
    "125900.815000",
    "125902.815000",
    "125904.816000",
    "125906.816000",
    "125908.816000",
    "125910.816000",
    "125912.816000",
    "125914.814000",
    "125916.816000",
    "125919.316000",
    "125920.815000",
    "125922.816000",
    "125924.816000",
    "125926.816000",
    "125928.815000",
    "125930.815000",
    "125932.815000",
    "125934.816000",
    "125936.815000",
    "125938.815000",
    "125940.816000",
    "125942.816000",
    "125944.816000",
    "125946.816000",
    "125948.815000",
    "125950.815000",
    "125952.815000",
    "125954.816000",
    "125956.815000",
    "125958.815000",
    "130000.815000",
    "130002.815000",
    "130004.815000",
    "130006.814000",
    "130008.815000",
    "130010.815000",
    "130012.815000",
    "130014.815000",
    "130016.815000",
    "130019.315000",
    "130020.815000",
    "130022.815000",
    "130024.814000",
    "130026.815000",
    "130028.815000",
    "130030.815000",
    "130032.815000",
    "130035.316000",
    "130036.815000",
    "130038.815000",
    "130040.816000",
    "130042.814000",
    "130044.816000",
    "130046.816000",
    "130048.815000",
    "130050.815000",
    "130052.815000",
    "130054.816000",
    "130056.816000",
    "130058.814000",
    "130100.814000",
    "130102.816000",
    "130104.816000",
    "130106.816000",
    "130108.816000",
    "130110.816000",
    "130112.816000",
    "130114.816000",
    "130116.815000",
    "130118.816000",
    "130120.815000",
    "130122.816000",
    "130124.816000",
    "130126.816000",
    "130128.815000",
    "130130.816000",
    "130132.816000",
    "130134.814000",
    "130136.815000",
    "130138.816000",
    "130140.815000",
    "130142.815000",
    "130144.816000",
    "130146.815000",
    "130148.816000",
    "130150.816000",
    "130152.814000",
    "130154.816000",
    "130156.815000",
    "130158.815000",
    "130200.815000",
    "130202.815000",
    "130204.816000",
    "130206.816000",
    "130208.815000",
    "130210.816000",
    "130212.815000",
    "130214.815000",
    "130216.815000",
    "130218.816000",
    "130220.815000",
    "130222.815000",
    "130224.816000",
    "130226.815000",
    "130228.816000",
    "130230.816000",
    "130232.816000",
    "130234.815000",
    "130236.816000",
    "130238.816000",
    "130240.816000",
    "130242.816000",
    "130244.814000",
    "130246.816000",
    "130248.816000",
    "130250.815000",
    "130252.815000",
    "130254.816000",
    "130256.816000",
    "130258.815000",
    "130300.815000",
    "130302.815000",
    "130304.815000",
    "130306.815000",
    "130308.816000",
    "130310.816000",
    "130312.816000",
    "130314.815000",
    "130316.816000",
    "130318.815000",
    "130320.815000",
    "130322.815000",
    "130324.815000",
    "130326.816000",
    "130328.816000",
    "130330.816000",
    "130332.816000",
    "130334.816000",
    "130336.815000",
    "130338.816000",
    "130340.815000",
    "130342.815000",
    "130344.815000",
    "130346.830000",
    "130348.816000",
    "130350.815000",
    "130352.816000",
    "130354.815000",
    "130356.815000",
    "130358.835000",
    "130400.815000",
    "130402.816000",
    "130404.815000",
    "130406.815000",
    "130408.815000",
    "130410.815000",
    "130412.815000",
    "130414.816000",
    "130416.816000",
    "130418.816000",
    "130420.816000",
    "130422.816000",
    "130424.815000",
    "130426.815000",
    "130428.814000",
    "130430.816000",
    "130432.815000",
    "130434.816000",
    "130436.815000",
    "130438.816000",
    "130440.816000",
    "130442.816000",
    "130444.816000",
    "130446.814000",
    "130448.816000",
    "130450.815000",
    "130452.816000",
    "130454.816000",
    "130456.670000"
   ],
   "InstanceNumber": [
    1,
    2,
    3,
    4,
    5,
    6,
    7,
    8,
    9,
    10,
    11,
    12,
    13,
    14,
    15,
    16,
    17,
    18,
    19,
    20,
    21,
    22,
    23,
    24,
    25,
    26,
    27,
    28,
    29,
    30,
    31,
    32,
    33,
    34,
    35,
    36,
    37,
    38,
    39,
    40,
    41,
    42,
    43,
    44,
    45,
    46,
    47,
    48,
    49,
    50,
    51,
    52,
    53,
    54,
    55,
    56,
    57,
    58,
    59,
    60,
    61,
    62,
    63,
    64,
    65,
    66,
    67,
    68,
    69,
    70,
    71,
    72,
    73,
    74,
    75,
    76,
    77,
    78,
    79,
    80,
    81,
    82,
    83,
    84,
    85,
    86,
    87,
    88,
    89,
    90,
    91,
    92,
    93,
    94,
    95,
    96,
    97,
    98,
    99,
    100,
    101,
    102,
    103,
    104,
    105,
    106,
    107,
    108,
    109,
    110,
    111,
    112,
    113,
    114,
    115,
    116,
    117,
    118,
    119,
    120,
    121,
    122,
    123,
    124,
    125,
    126,
    127,
    128,
    129,
    130,
    131,
    132,
    133,
    134,
    135,
    136,
    137,
    138,
    139,
    140,
    141,
    142,
    143,
    144,
    145,
    146,
    147,
    148,
    149,
    150,
    151,
    152,
    153,
    154,
    155,
    156,
    157,
    158,
    159,
    160,
    161,
    162,
    163,
    164,
    165,
    166,
    167,
    168,
    169,
    170,
    171,
    172,
    173,
    174,
    175,
    176,
    177,
    178,
    179,
    180,
    181,
    182,
    183,
    184,
    185,
    186,
    187,
    188,
    189,
    190,
    191,
    192,
    193,
    194,
    195,
    196,
    197,
    198,
    199,
    200,
    201,
    202,
    203,
    204,
    205,
    206,
    207,
    208,
    209,
    210,
    211,
    212,
    213,
    214,
    215,
    216,
    217,
    218,
    219,
    220,
    221,
    222,
    223,
    224,
    225,
    226,
    227,
    228,
    229,
    230,
    231,
    232,
    233,
    234,
    235,
    236,
    237,
    238,
    239,
    240,
    241,
    242,
    243,
    244,
    245,
    246,
    247,
    248,
    249,
    250,
    251,
    252,
    253,
    254,
    255,
    256
   ],
   "LargestImagePixelValue": [
    3468,
    3446,
    3318,
    3357,
    3372,
    3317,
    3384,
    3298,
    3375,
    3331,
    3321,
    3354,
    3370,
    3323,
    3309,
    3325,
    3360,
    3379,
    3441,
    3302,
    3283,
    3379,
    3366,
    3399,
    3423,
    3477,
    3384,
    3364,
    3343,
    3379,
    3354,
    3323,
    3335,
    3329,
    3343,
    3442,
    3364,
    3304,
    3315,
    3288,
    3385,
    3358,
    3361,
    3335,
    3291,
    3299,
    3369,
    3329,
    3355,
    3354,
    3327,
    3408,
    3385,
    3425,
    3351,
    3371,
    3360,
    3321,
    3388,
    3370,
    3350,
    3446,
    3364,
    3384,
    3370,
    3359,
    3397,
    3404,
    3312,
    3371,
    3336,
    3408,
    3346,
    3362,
    3364,
    3347,
    3337,
    3353,
    3306,
    3304,
    3354,
    3318,
    3306,
    3361,
    3328,
    3337,
    3274,
    3261,
    3327,
    3320,
    3376,
    3406,
    3387,
    3339,
    3394,
    3298,
    3313,
    3280,
    3339,
    3310,
    3286,
    3313,
    3300,
    3325,
    3294,
    3346,
    3398,
    3424,
    3333,
    3329,
    3280,
    3296,
    3271,
    3262,
    3278,
    3344,
    3312,
    3359,
    3341,
    3364,
    3363,
    3379,
    3328,
    3347,
    3350,
    3384,
    3413,
    3369,
    3356,
    3337,
    3303,
    3334,
    3316,
    3310,
    3323,
    3311,
    3321,
    3347,
    3311,
    3351,
    3348,
    3325,
    3337,
    3367,
    3337,
    3373,
    3310,
    3344,
    3304,
    3356,
    3372,
    3329,
    3362,
    3348,
    3365,
    3331,
    3344,
    3295,
    3327,
    3329,
    3286,
    3355,
    3296,
    3360,
    3341,
    3366,
    3373,
    3381,
    3330,
    3318,
    3358,
    3358,
    3313,
    3375,
    3331,
    3359,
    3332,
    3393,
    3309,
    3365,
    3289,
    3319,
    3297,
    3301,
    3295,
    3299,
    3284,
    3304,
    3311,
    3354,
    3317,
    3383,
    3324,
    3304,
    3306,
    3315,
    3335,
    3301,
    3354,
    3341,
    3326,
    3369,
    3311,
    3344,
    3314,
    3313,
    3329,
    3308,
    3323,
    3324,
    3295,
    3303,
    3344,
    3313,
    3364,
    3358,
    3310,
    3377,
    3320,
    3295,
    3309,
    3362,
    3340,
    3356,
    3320,
    3336,
    3310,
    3355,
    3317,
    3374,
    3342,
    3343,
    3332,
    3382,
    3362,
    3356,
    3387,
    3361,
    3346,
    3363,
    3335,
    3314,
    3319,
    3333,
    3357,
    3375,
    3356,
    3345,
    3345,
    3325,
    3354,
    3301,
    3325,
    3317,
    3350,
    3331
   ],
   "WindowCenter": [
    802.0,
    801.0,
    798.0,
    798.0,
    798.0,
    797.0,
    798.0,
    798.0,
    799.0,
    799.0,
    798.0,
    798.0,
    798.0,
    797.0,
    797.0,
    797.0,
    797.0,
    798.0,
    798.0,
    797.0,
    796.0,
    797.0,
    797.0,
    797.0,
    797.0,
    798.0,
    799.0,
    798.0,
    796.0,
    795.0,
    795.0,
    795.0,
    795.0,
    796.0,
    797.0,
    798.0,
    797.0,
    796.0,
    796.0,
    796.0,
    797.0,
    797.0,
    797.0,
    796.0,
    796.0,
    797.0,
    798.0,
    798.0,
    798.0,
    797.0,
    797.0,
    798.0,
    798.0,
    798.0,
    797.0,
    797.0,
    797.0,
    796.0,
    797.0,
    798.0,
    798.0,
    798.0,
    798.0,
    798.0,
    799.0,
    799.0,
    799.0,
    799.0,
    798.0,
    798.0,
    797.0,
    797.0,
    796.0,
    796.0,
    796.0,
    797.0,
    798.0,
    798.0,
    797.0,
    797.0,
    797.0,
    798.0,
    798.0,
    799.0,
    797.0,
    797.0,
    796.0,
    796.0,
    797.0,
    797.0,
    798.0,
    798.0,
    797.0,
    796.0,
    797.0,
    796.0,
    797.0,
    796.0,
    796.0,
    796.0,
    796.0,
    797.0,
    797.0,
    796.0,
    796.0,
    797.0,
    799.0,
    799.0,
    797.0,
    796.0,
    795.0,
    796.0,
    796.0,
    797.0,
    797.0,
    798.0,
    797.0,
    797.0,
    797.0,
    797.0,
    798.0,
    798.0,
    798.0,
    798.0,
    799.0,
    799.0,
    800.0,
