{
  "AcquisitionMatrixPE": 100,
  "AcquisitionNumber": 1,
  "AcquisitionTime": "13:38:43.110000",
  "BandwidthPerPixelPhaseEncode": 18.519,
  "BaseResolution": 100,
  "BodyPartExamined": "BRAIN",
  "ConsistencyInfo": "N4_VE11C_LATEST_20160120",
  "ConversionSoftware": "dcm2niix",
  "ConversionSoftwareVersion": "v1.0.20180622 GCC4.9.2",
  "DerivedVendorReportedEchoSpacing": 0.000539986,
  "DeviceSerialNumber": "166078",
  "DwellTime": 2.1e-06,
  "EchoTime": 0.034,
  "EchoTrainLength": 100,
  "EffectiveEchoSpacing": 0.000539986,
  "FlipAngle": 90,
  "ImageOrientationPatientDICOM": [1, 0, 0, 0, 0.990268, -0.139173],
  "ImageType": [
    "ORIGINAL",
    "PRIMARY",
    "M",
    "ND",
    "MOSAIC"
],
  "InPlanePhaseEncodingDirectionDICOM": "COL",
  "InstitutionAddress": "Street_StreetNo_Bei_Jing_District_CN_ZIP",
  "InstitutionName": "BeiJing_Normal_University",
  "InstitutionalDepartmentName": "Department",
  "MRAcquisitionType": "2D",
  "MagneticFieldStrength": 3,
  "Manufacturer": "Siemens",
  "ManufacturersModelName": "Prisma",
  "Modality": "MR",
  "MultibandAccelerationFactor": 3,
  "PartialFourier": 1,
  "PatientPosition": "HFS",
  "PercentPhaseFOV": 100,
  "PhaseEncodingDirection": "j-",
  "PhaseEncodingSteps": 100,
  "PhaseResolution": 1,
  "PixelBandwidth": 2380,
  "ProcedureStepDescription": "BNU_P2018_64CH_Zhen.ZongLei",
  "ProtocolName": "bold_100x100_s3_2x2x2_static_256",
  "PulseSequenceDetails": "%SiemensSeq%_ep2d_bold",
  "ReceiveCoilActiveElements": "HC1-7;NC1",
  "ReceiveCoilName": "HeadNeck_64",
  "ReconMatrixPE": 100,
  "RepetitionTime": 2,
  "SAR": 0.0748662,
  "ScanOptions": "FS",
  "ScanningSequence": "EP",
  "SequenceName": "_epfid2d1_100",
  "SequenceVariant": "SK",
  "SeriesDescription": "bold_100x100_s3_2x2x2_static_256",
  "SeriesNumber": 7,
  "ShimSetting": [-5461, -11505, -1246, 356, -69, -68, -66, 27],
  "SliceThickness": 2,
  "SliceTiming": [1.485, 0, 0.99, 0.0825, 1.0725, 0.165, 1.155, 0.2475, 1.2375, 0.33, 1.32, 0.4125, 1.4025, 0.5775, 1.5675, 0.66, 1.65, 0.7425, 1.7325, 0.825, 1.815, 0.9075, 1.8975, 0.495, 1.485, 0, 0.99, 0.0825, 1.0725, 0.165, 1.155, 0.2475, 1.2375, 0.33, 1.32, 0.4125, 1.4025, 0.5775, 1.5675, 0.66, 1.65, 0.7425, 1.7325, 0.825, 1.815, 0.9075, 1.8975, 0.495, 1.485, 0, 0.99, 0.0825, 1.0725, 0.165, 1.155, 0.2475, 1.2375, 0.33, 1.32, 0.4125, 1.4025, 0.5775, 1.5675, 0.66, 1.65, 0.7425, 1.7325, 0.825, 1.815, 0.9075, 1.8975, 0.495],
  "SoftwareVersions": "syngo_MR_E11",
  "SpacingBetweenSlices": 2,
  "StationName": "AWP166078",
  "TaskName": "naturalvision",
  "TotalReadoutTime": 0.0534586,
  "TxRefAmp": 240.419,
  "dcmmeta_affine": [
    [-2.0, 0.0, 0.0, 100.0],
    [0.0, 1.9805361032485962, -0.2783462107181549, -81.50396728515625],
    [0.0, 0.2783462107181549, 1.9805361032485962, -75.27002716064453],
    [0.0, 0.0, 0.0, 1.0]
],
  "dcmmeta_reorient_transform": [
    [0.0, -1.0, 0.0, 99.0],
    [1.0, 0.0, 0.0, 0.0],
    [0.0, 0.0, 1.0, 0.0],
    [0.0, 0.0, 0.0, 1.0]
],
  "dcmmeta_shape": [100, 100, 72, 256],
  "dcmmeta_slice_dim": 2,
  "dcmmeta_version": 0.6,
  "global": {
    "const": {
      "AcquisitionMatrix": [100, 0, 0, 100],
      "AngioFlag": "N",
      "BitsAllocated": 16,
      "BitsStored": 12,
      "BodyPartExamined": "BRAIN",
      "Columns": 900,
      "EchoNumbers": 1,
      "EchoTime": 34.0,
      "EchoTrainLength": 100,
      "FlipAngle": 90.0,
      "HighBit": 11,
      "ImageOrientationPatient": [1.0, 0.0, 0.0, 0.0, 0.99026806878515, -0.13917310065],
      "ImagePositionPatient": [-900.0, -906.78356880666, 63.624725216303],
      "ImageType": [
        "ORIGINAL",
        "PRIMARY",
        "M",
        "ND",
        "MOSAIC"
],
      "ImagedNucleus": "1H",
      "ImagingFrequency": 123.257697,
      "InPlanePhaseEncodingDirection": "COL",
      "MRAcquisitionType": "2D",
      "MagneticFieldStrength": 3.0,
      "Manufacturer": "SIEMENS",
      "ManufacturerModelName": "Prisma",
      "Modality": "MR",
      "NumberOfAverages": 1.0,
      "NumberOfPhaseEncodingSteps": 100,
      "PercentPhaseFieldOfView": 100.0,
      "PercentSampling": 100.0,
      "PerformedProcedureStepStartTime": "125257.997000",
      "PhotometricInterpretation": "MONOCHROME2",
      "PixelBandwidth": 2380.0,
      "PixelRepresentation": 0,
      "PixelSpacing": [2.0, 2.0],
      "ProtocolName": "bold_100x100_s3_2x2x2_static_256",
      "RepetitionTime": 2000.0,
      "Rows": 900,
      "SAR": 0.07486616944458,
      "SamplesPerPixel": 1,
      "ScanOptions": "FS",
      "ScanningSequence": "EP",
      "SequenceName": "*epfid2d1_100",
      "SequenceVariant": "SK",
      "SeriesDescription": "bold_100x100_s3_2x2x2_static_256",
      "SeriesNumber": 7,
      "SeriesTime": "133845.935000",
      "SliceLocation": -63.194347122316,
      "SliceThickness": 2.0,
      "SmallestImagePixelValue": 0,
      "SoftwareVersions": "syngo MR E11",
      "SpacingBetweenSlices": 1.9999999868931,
      "SpecificCharacterSet": "ISO_IR 100",
      "StudyID": "1",
      "StudyTime": "125257.889000",
      "TransmitCoilName": "Body",
      "VariableFlipAngleFlag": "N",
      "WindowCenterWidthExplanation": "Algo1",
      "dBdt": 0.0},
    "slices": {}
  },
  "time": {
    "samples": {
      "AcquisitionNumber": [1, 2, 3, 4, 5, 6, 7, 8, 9, 10, 11, 12, 13, 14, 15, 16, 17, 18, 19, 20, 21, 22, 23, 24, 25, 26, 27, 28, 29, 30, 31, 32, 33, 34, 35, 36, 37, 38, 39, 40, 41, 42, 43, 44, 45, 46, 47, 48, 49, 50, 51, 52, 53, 54, 55, 56, 57, 58, 59, 60, 61, 62, 63, 64, 65, 66, 67, 68, 69, 70, 71, 72, 73, 74, 75, 76, 77, 78, 79, 80, 81, 82, 83, 84, 85, 86, 87, 88, 89, 90, 91, 92, 93, 94, 95, 96, 97, 98, 99, 100, 101, 102, 103, 104, 105, 106, 107, 108, 109, 110, 111, 112, 113, 114, 115, 116, 117, 118, 119, 120, 121, 122, 123, 124, 125, 126, 127, 128, 129, 130, 131, 132, 133, 134, 135, 136, 137, 138, 139, 140, 141, 142, 143, 144, 145, 146, 147, 148, 149, 150, 151, 152, 153, 154, 155, 156, 157, 158, 159, 160, 161, 162, 163, 164, 165, 166, 167, 168, 169, 170, 171, 172, 173, 174, 175, 176, 177, 178, 179, 180, 181, 182, 183, 184, 185, 186, 187, 188, 189, 190, 191, 192, 193, 194, 195, 196, 197, 198, 199, 200, 201, 202, 203, 204, 205, 206, 207, 208, 209, 210, 211, 212, 213, 214, 215, 216, 217, 218, 219, 220, 221, 222, 223, 224, 225, 226, 227, 228, 229, 230, 231, 232, 233, 234, 235, 236, 237, 238, 239, 240, 241, 242, 243, 244, 245, 246, 247, 248, 249, 250, 251, 252, 253, 254, 255, 256],
      "AcquisitionTime": ["133843.110000", "133845.110000", "133847.110000", "133849.110000", "133851.110000", "133853.110000", "133855.110000", "133857.110000", "133859.110000", "133901.110000", "133903.110000", "133905.110000", "133907.110000", "133909.110000", "133911.110000", "133913.110000", "133915.110000", "133917.110000", "133919.110000", "133921.110000", "133923.110000", "133925.110000", "133927.110000", "133929.110000", "133931.110000", "133933.110000", "133935.110000", "133937.110000", "133939.110000", "133941.110000", "133943.110000", "133945.110000", "133947.110000", "133949.110000", "133951.110000", "133953.110000", "133955.110000", "133957.110000", "133959.110000", "134001.110000", "134003.110000", "134005.110000", "134007.110000", "134009.110000", "134011.110000", "134013.110000", "134015.110000", "134017.110000", "134019.110000", "134021.110000", "134023.110000", "134025.110000", "134027.110000", "134029.110000", "134031.110000", "134033.110000", "134035.110000", "134037.110000", "134039.110000", "134041.110000", "134043.110000", "134045.110000", "134047.110000", "134049.110000", "134051.110000", "134053.110000", "134055.110000", "134057.110000", "134059.110000", "134101.110000", "134103.110000", "134105.110000", "134107.110000", "134109.110000", "134111.110000", "134113.110000", "134115.110000", "134117.110000", "134119.110000", "134121.110000", "134123.110000", "134125.110000", "134127.110000", "134129.110000", "134131.110000", "134133.110000", "134135.110000", "134137.110000", "134139.110000", "134141.110000", "134143.110000", "134145.110000", "134147.110000", "134149.110000", "134151.110000", "134153.110000", "134155.110000", "134157.110000", "134159.110000", "134201.110000", "134203.110000", "134205.110000", "134207.110000", "134209.110000", "134211.110000", "134213.110000", "134215.110000", "134217.110000", "134219.110000", "134221.110000", "134223.110000", "134225.110000", "134227.110000", "134229.110000", "134231.110000", "134233.110000", "134235.110000", "134237.110000", "134239.110000", "134241.110000", "134243.110000", "134245.110000", "134247.110000", "134249.110000", "134251.110000", "134253.110000", "134255.110000", "134257.110000", "134259.110000", "134301.110000", "134303.110000", "134305.110000", "134307.110000", "134309.110000", "134311.110000", "134313.110000", "134315.110000", "134317.110000", "134319.110000", "134321.110000", "134323.110000", "134325.110000", "134327.110000", "134329.110000", "134331.110000", "134333.110000", "134335.110000", "134337.110000", "134339.110000", "134341.110000", "134343.110000", "134345.110000", "134347.110000", "134349.110000", "134351.110000", "134353.110000", "134355.110000", "134357.110000", "134359.110000", "134401.110000", "134403.110000", "134405.110000", "134407.110000", "134409.110000", "134411.110000", "134413.110000", "134415.110000", "134417.110000", "134419.110000", "134421.110000", "134423.110000", "134425.110000", "134427.110000", "134429.110000", "134431.110000", "134433.110000", "134435.110000", "134437.110000", "134439.110000", "134441.110000", "134443.110000", "134445.110000", "134447.110000", "134449.110000", "134451.110000", "134453.110000", "134455.110000", "134457.110000", "134459.110000", "134501.110000", "134503.110000", "134505.110000", "134507.110000", "134509.110000", "134511.110000", "134513.110000", "134515.110000", "134517.110000", "134519.110000", "134521.110000", "134523.110000", "134525.110000", "134527.110000", "134529.110000", "134531.110000", "134533.110000", "134535.110000", "134537.110000", "134539.110000", "134541.110000", "134543.110000", "134545.110000", "134547.110000", "134549.110000", "134551.110000", "134553.110000", "134555.110000", "134557.110000", "134559.110000", "134601.110000", "134603.110000", "134605.110000", "134607.110000", "134609.110000", "134611.110000", "134613.110000", "134615.110000", "134617.110000", "134619.110000", "134621.110000", "134623.110000", "134625.110000", "134627.110000", "134629.110000", "134631.110000", "134633.110000", "134635.110000", "134637.110000", "134639.110000", "134641.110000", "134643.110000", "134645.110000", "134647.110000", "134649.110000", "134651.110000", "134653.110000", "134655.110000", "134657.110000", "134659.110000", "134701.110000", "134703.110000", "134705.110000", "134707.110000", "134709.110000", "134711.110000", "134713.110000"],
      "ContentTime": ["133845.939000", "133847.435000", "133849.435000", "133851.435000", "133853.434000", "133855.433000", "133857.433000", "133859.433000", "133901.435000", "133903.434000", "133905.434000", "133907.434000", "133909.434000", "133911.434000", "133913.433000", "133915.433000", "133917.434000", "133919.434000", "133921.434000", "133923.435000", "133925.434000", "133927.434000", "133929.434000", "133931.433000", "133933.433000", "133935.434000", "133937.435000", "133939.435000", "133941.435000", "133943.434000", "133945.435000", "133947.435000", "133949.433000", "133951.433000", "133953.435000", "133955.435000", "133957.435000", "133959.434000", "134001.435000", "134003.434000", "134005.434000", "134007.434000", "134009.433000", "134011.435000", "134013.435000", "134015.435000", "134017.434000", "134019.434000", "134021.435000", "134023.433000", "134025.433000", "134027.435000", "134029.435000", "134031.435000", "134033.434000", "134035.434000", "134037.435000", "134039.434000", "134041.434000", "134043.433000", "134045.435000", "134047.435000", "134049.434000", "134051.434000", "134053.434000", "134055.434000", "134057.435000", "134059.433000", "134101.433000", "134103.434000", "134105.435000", "134107.435000", "134109.434000", "134111.435000", "134113.435000", "134115.433000", "134117.433000", "134119.434000", "134121.435000", "134123.434000", "134125.435000", "134127.434000", "134129.434000", "134131.434000", "134133.434000", "134135.433000", "134137.435000", "134139.435000", "134141.434000", "134143.434000", "134145.435000", "134147.434000", "134149.434000", "134151.434000", "134153.433000", "134155.435000", "134157.435000", "134159.435000", "134201.435000", "134203.435000", "134205.435000", "134207.435000", "134209.433000", "134211.433000", "134213.435000", "134215.435000", "134217.434000", "134219.434000", "134221.434000", "134223.435000", "134225.433000", "134227.434000", "134229.434000", "134231.434000", "134233.434000", "134235.434000", "134237.435000", "134239.434000", "134241.434000", "134243.434000", "134245.433000", "134247.435000", "134249.434000", "134251.435000", "134253.435000", "134255.435000", "134257.435000", "134259.434000", "134301.433000", "134303.434000", "134305.435000", "134307.434000", "134309.435000", "134311.434000", "134313.435000", "134315.435000", "134317.435000", "134319.434000", "134321.433000", "134323.435000", "134325.435000", "134327.434000", "134329.434000", "134331.435000", "134333.434000", "134335.433000", "134337.434000", "134339.434000", "134341.435000", "134343.435000", "134345.434000", "134347.435000", "134349.435000", "134351.435000", "134353.433000", "134355.434000", "134357.435000", "134359.435000", "134401.434000", "134403.435000", "134405.435000", "134407.435000", "134409.434000", "134411.434000", "134413.434000", "134415.434000", "134417.435000", "134419.435000", "134421.434000", "134423.435000", "134425.434000", "134427.435000", "134429.433000", "134431.434000", "134433.435000", "134435.435000", "134437.434000", "134439.434000", "134441.435000", "134443.434000", "134445.434000", "134447.434000", "134449.434000", "134451.435000", "134453.435000", "134455.435000", "134457.435000", "134459.435000", "134501.435000", "134503.433000", "134505.433000", "134507.434000", "134509.434000", "134511.435000", "134513.435000", "134515.435000", "134517.435000", "134519.435000", "134521.434000", "134523.434000", "134525.435000", "134527.434000", "134529.434000", "134531.435000", "134533.435000", "134535.434000", "134537.435000", "134539.433000", "134541.434000", "134543.434000", "134545.435000", "134547.434000", "134549.434000", "134551.435000", "134553.434000", "134555.434000", "134557.434000", "134559.435000", "134601.435000", "134603.434000", "134605.435000", "134607.434000", "134609.435000", "134611.435000", "134613.434000", "134615.433000", "134617.434000", "134619.434000", "134621.435000", "134623.435000", "134625.435000", "134627.434000", "134629.434000", "134631.434000", "134633.434000", "134635.434000", "134637.435000", "134639.434000", "134641.435000", "134643.435000", "134645.435000", "134647.435000", "134649.433000", "134651.433000", "134653.434000", "134655.435000", "134657.434000", "134659.434000", "134701.434000", "134703.435000", "134705.433000", "134707.433000", "134709.434000", "134711.434000", "134713.434000", "134715.304000"],
      "InstanceCreationTime": ["133845.939000", "133847.435000", "133849.435000", "133851.435000", "133853.434000", "133855.433000", "133857.433000", "133859.433000", "133901.435000", "133903.434000", "133905.434000", "133907.434000", "133909.434000", "133911.434000", "133913.433000", "133915.433000", "133917.434000", "133919.434000", "133921.434000", "133923.435000", "133925.434000", "133927.434000", "133929.434000", "133931.433000", "133933.433000", "133935.434000", "133937.435000", "133939.435000", "133941.435000", "133943.434000", "133945.435000", "133947.435000", "133949.433000", "133951.433000", "133953.435000", "133955.435000", "133957.435000", "133959.434000", "134001.435000", "134003.434000", "134005.434000", "134007.434000", "134009.433000", "134011.435000", "134013.435000", "134015.435000", "134017.434000", "134019.434000", "134021.435000", "134023.433000", "134025.433000", "134027.435000", "134029.435000", "134031.435000", "134033.434000", "134035.434000", "134037.435000", "134039.434000", "134041.434000", "134043.433000", "134045.435000", "134047.435000", "134049.434000", "134051.434000", "134053.434000", "134055.434000", "134057.435000", "134059.433000", "134101.433000", "134103.434000", "134105.435000", "134107.435000", "134109.434000", "134111.435000", "134113.435000", "134115.433000", "134117.433000", "134119.434000", "134121.435000", "134123.434000", "134125.435000", "134127.434000", "134129.434000", "134131.434000", "134133.434000", "134135.433000", "134137.435000", "134139.435000", "134141.434000", "134143.434000", "134145.435000", "134147.434000", "134149.434000", "134151.434000", "134153.433000", "134155.435000", "134157.435000", "134159.435000", "134201.435000", "134203.435000", "134205.435000", "134207.435000", "134209.433000", "134211.433000", "134213.435000", "134215.435000", "134217.434000", "134219.434000", "134221.434000", "134223.435000", "134225.433000", "134227.434000", "134229.434000", "134231.434000", "134233.434000", "134235.434000", "134237.435000", "134239.434000", "134241.434000", "134243.434000", "134245.433000", "134247.435000", "134249.434000", "134251.435000", "134253.435000", "134255.435000", "134257.435000", "134259.434000", "134301.433000", "134303.434000", "134305.435000", "134307.434000", "134309.435000", "134311.434000", "134313.435000", "134315.435000", "134317.435000", "134319.434000", "134321.433000", "134323.435000", "134325.435000", "134327.434000", "134329.434000", "134331.435000", "134333.434000", "134335.433000", "134337.434000", "134339.434000", "134341.435000", "134343.435000", "134345.434000", "134347.435000", "134349.435000", "134351.435000", "134353.433000", "134355.434000", "134357.435000", "134359.435000", "134401.434000", "134403.435000", "134405.435000", "134407.435000", "134409.434000", "134411.434000", "134413.434000", "134415.434000", "134417.435000", "134419.435000", "134421.434000", "134423.435000", "134425.434000", "134427.435000", "134429.433000", "134431.434000", "134433.435000", "134435.435000", "134437.434000", "134439.434000", "134441.435000", "134443.434000", "134445.434000", "134447.434000", "134449.434000", "134451.435000", "134453.435000", "134455.435000", "134457.435000", "134459.435000", "134501.435000", "134503.433000", "134505.433000", "134507.434000", "134509.434000", "134511.435000", "134513.435000", "134515.435000", "134517.435000", "134519.435000", "134521.434000", "134523.434000", "134525.435000", "134527.434000", "134529.434000", "134531.435000", "134533.435000", "134535.434000", "134537.435000", "134539.433000", "134541.434000", "134543.434000", "134545.435000", "134547.434000", "134549.434000", "134551.435000", "134553.434000", "134555.434000", "134557.434000", "134559.435000", "134601.435000", "134603.434000", "134605.435000", "134607.434000", "134609.435000", "134611.435000", "134613.434000", "134615.433000", "134617.434000", "134619.434000", "134621.435000", "134623.435000", "134625.435000", "134627.434000", "134629.434000", "134631.434000", "134633.434000", "134635.434000", "134637.435000", "134639.434000", "134641.435000", "134643.435000", "134645.435000", "134647.435000", "134649.433000", "134651.433000", "134653.434000", "134655.435000", "134657.434000", "134659.434000", "134701.434000", "134703.435000", "134705.433000", "134707.433000", "134709.434000", "134711.434000", "134713.434000", "134715.304000"],
      "InstanceNumber": [1, 2, 3, 4, 5, 6, 7, 8, 9, 10, 11, 12, 13, 14, 15, 16, 17, 18, 19, 20, 21, 22, 23, 24, 25, 26, 27, 28, 29, 30, 31, 32, 33, 34, 35, 36, 37, 38, 39, 40, 41, 42, 43, 44, 45, 46, 47, 48, 49, 50, 51, 52, 53, 54, 55, 56, 57, 58, 59, 60, 61, 62, 63, 64, 65, 66, 67, 68, 69, 70, 71, 72, 73, 74, 75, 76, 77, 78, 79, 80, 81, 82, 83, 84, 85, 86, 87, 88, 89, 90, 91, 92, 93, 94, 95, 96, 97, 98, 99, 100, 101, 102, 103, 104, 105, 106, 107, 108, 109, 110, 111, 112, 113, 114, 115, 116, 117, 118, 119, 120, 121, 122, 123, 124, 125, 126, 127, 128, 129, 130, 131, 132, 133, 134, 135, 136, 137, 138, 139, 140, 141, 142, 143, 144, 145, 146, 147, 148, 149, 150, 151, 152, 153, 154, 155, 156, 157, 158, 159, 160, 161, 162, 163, 164, 165, 166, 167, 168, 169, 170, 171, 172, 173, 174, 175, 176, 177, 178, 179, 180, 181, 182, 183, 184, 185, 186, 187, 188, 189, 190, 191, 192, 193, 194, 195, 196, 197, 198, 199, 200, 201, 202, 203, 204, 205, 206, 207, 208, 209, 210, 211, 212, 213, 214, 215, 216, 217, 218, 219, 220, 221, 222, 223, 224, 225, 226, 227, 228, 229, 230, 231, 232, 233, 234, 235, 236, 237, 238, 239, 240, 241, 242, 243, 244, 245, 246, 247, 248, 249, 250, 251, 252, 253, 254, 255, 256],
      "LargestImagePixelValue": [3764, 3714, 3731, 3533, 3549, 3563, 3623, 3625, 3601, 3651, 3656, 3639, 3671, 3646, 3631, 3551, 3485, 3522, 3540, 3550, 3606, 3550, 3549, 3538, 3550, 3573, 3549, 3542, 3575, 3539, 3550, 3563, 3584, 3609, 3604, 3613, 3664, 3639, 3630, 3605, 3611, 3589, 3597, 3586, 3603, 3629, 3557, 3562, 3587, 3591, 3744, 3591, 3626, 3647, 3678, 3670, 3611, 3627, 3638, 3843, 3582, 3617, 3603, 3706, 3687, 3640, 3650, 3666, 3705, 3688, 3673, 3675, 3627, 3625, 3594, 3631, 3606, 3641, 3643, 3651, 3713, 3645, 3654, 3603, 3604, 3652, 3645, 3590, 3598, 3611, 3622, 3654, 3675, 3671, 3631, 3649, 3651, 3644, 3632, 3675, 3627, 3589, 3613, 3617, 3661, 3637, 3608, 3639, 3626, 3676, 3655, 3682, 3678, 3649, 3649, 3674, 3642, 3650, 3626, 3596, 3607, 3604, 3619, 3653, 3669, 3677, 3666, 3630, 3609, 3598, 3615, 3662, 3621, 3663, 3665, 3668, 3666, 3670, 3642, 3636, 3651, 3625, 3606, 3636, 3626, 3621, 3625, 3596, 3645, 3592, 3666, 3648, 3602, 3592, 3614, 3656, 3667, 3668, 3684, 3633, 3637, 3663, 3681, 3706, 3675, 3657, 3656, 3658, 3637, 3655, 3620, 3616, 3605, 3639, 3597, 3615, 3629, 3636, 3614, 3636, 3607, 3683, 3657, 3671, 3650, 3637, 3604, 3561, 3590, 3569, 3597, 3583, 3597, 3578, 3575, 3616, 3593, 3596, 3606, 3569, 3592, 3600, 3590, 3615, 3616, 3614, 3596, 3603, 3597, 3585, 3610, 3602, 3621, 3599, 3593, 3618, 3610, 3572, 3630, 3600, 3600, 3614, 3577, 3590, 3611, 3581, 3604, 3613, 3630, 3600, 3573, 3605, 3620, 3589, 3618, 3612, 3610, 3625, 3615, 3619, 3574, 3589, 3609, 3592, 3604, 3622, 3628, 3623, 3584, 3587, 3592, 3602, 3590, 3619, 3634, 3594],
      "WindowCenter": [844.0, 836.0, 840.0, 839.0, 837.0, 839.0, 840.0, 840.0, 839.0, 839.0, 840.0, 840.0, 840.0, 840.0, 839.0, 839.0, 837.0, 836.0, 836.0, 837.0, 837.0, 836.0, 836.0, 837.0, 837.0, 838.0, 838.0, 839.0, 839.0, 839.0, 840.0, 840.0, 839.0, 839.0, 839.0, 840.0, 841.0, 840.0, 840.0, 840.0, 840.0, 838.0, 838.0, 837.0, 838.0, 839.0, 839.0, 838.0, 838.0, 838.0, 840.0, 839.0, 839.0, 839.0, 839.0, 840.0, 839.0, 839.0, 838.0, 840.0, 838.0, 840.0, 839.0, 840.0, 840.0, 839.0, 840.0, 841.0, 841.0, 841.0, 840.0, 840.0, 839.0, 839.0, 840.0, 840.0, 840.0, 840.0, 840.0, 841.0, 842.0, 840.0, 839.0, 838.0, 839.0, 841.0, 841.0, 839.0, 838.0, 838.0, 838.0, 838.0, 839.0, 840.0, 840.0, 840.0, 840.0, 840.0, 840.0, 840.0, 840.0, 839.0, 839.0, 839.0, 839.0, 839.0, 839.0, 839.0, 839.0, 840.0, 840.0, 841.0, 842.0, 842.0, 841.0, 841.0, 840.0, 840.0, 839.0, 839.0, 839.0, 838.0, 839.0, 840.0, 841.0, 841.0, 841.0, 840.0, 839.0, 839.0, 839.0, 838.0, 838.0, 838.0, 840.0, 840.0, 841.0, 840.0, 839.0, 838.0, 840.0, 840.0, 840.0, 840.0, 839.0, 837.0, 836.0, 837.0, 838.0, 838.0, 839.0, 839.0, 838.0, 837.0, 838.0, 838.0, 839.0, 840.0, 840.0, 839.0, 839.0, 839.0, 840.0, 840.0, 840.0, 840.0, 840.0, 839.0, 839.0, 840.0, 840.0, 840.0, 839.0, 838.0, 838.0, 838.0, 838.0, 838.0, 839.0, 840.0, 839.0, 839.0, 839.0, 839.0, 840.0, 839.0, 838.0, 837.0, 836.0, 836.0, 836.0, 837.0, 838.0, 837.0, 840.0, 841.0, 841.0, 840.0, 840.0, 839.0, 839.0, 838.0, 838.0, 838.0, 838.0, 838.0, 839.0, 839.0, 839.0, 840.0, 839.0, 837.0, 837.0, 836.0, 837.0, 838.0, 839.0, 839.0, 840.0, 839.0, 839.0, 839.0, 840.0, 839.0, 838.0, 837.0, 838.0, 838.0, 839.0, 840.0, 840.0, 839.0, 839.0, 838.0, 838.0, 838.0, 838.0, 838.0, 839.0, 839.0, 840.0, 839.0, 839.0, 837.0, 837.0, 836.0, 837.0, 838.0, 839.0, 840.0, 840.0, 840.0, 839.0, 839.0, 839.0, 839.0],
      "WindowWidth": [1809.0, 1788.0, 1798.0, 1793.0, 1789.0, 1793.0, 1796.0, 1796.0, 1795.0, 1795.0, 1796.0, 1796.0, 1796.0, 1797.0, 1794.0, 1793.0, 1789.0, 1787.0, 1786.0, 1789.0, 1789.0, 1785.0, 1788.0, 1789.0, 1789.0, 1793.0, 1793.0, 1794.0, 1795.0, 1795.0, 1797.0, 1796.0, 1794.0, 1793.0, 1794.0, 1797.0, 1800.0, 1797.0, 1796.0, 1796.0, 1796.0, 1792.0, 1792.0, 1790.0, 1791.0, 1793.0, 1793.0, 1791.0, 1791.0, 1792.0, 1798.0, 1794.0, 1795.0, 1794.0, 1796.0, 1798.0, 1795.0, 1795.0, 1793.0, 1799.0, 1793.0, 1796.0, 1795.0, 1797.0, 1796.0, 1794.0, 1798.0, 1800.0, 1801.0, 1799.0, 1798.0, 1797.0, 1795.0, 1795.0, 1797.0, 1797.0, 1797.0, 1796.0, 1798.0, 1800.0, 1802.0, 1797.0, 1795.0, 1792.0, 1794.0, 1799.0, 1799.0, 1793.0, 1792.0, 1792.0, 1792.0, 1792.0, 1795.0, 1797.0, 1797.0, 1796.0, 1798.0, 1797.0, 1797.0, 1797.0, 1798.0, 1794.0, 1795.0, 1793.0, 1795.0, 1796.0, 1795.0, 1795.0, 1795.0, 1796.0, 1798.0, 1800.0, 1804.0, 1802.0, 1800.0, 1800.0, 1797.0, 1797.0, 1795.0, 1794.0, 1793.0, 1792.0, 1794.0, 1797.0, 1799.0, 1800.0, 1800.0, 1796.0, 1794.0, 1793.0, 1793.0, 1792.0, 1791.0, 1793.0, 1797.0, 1797.0, 1799.0, 1796.0, 1795.0, 1793.0, 1797.0, 1796.0, 1798.0, 1798.0, 1794.0, 1790.0, 1788.0, 1789.0, 1793.0, 1793.0, 1796.0, 1794.0, 1792.0, 1790.0, 1792.0, 1792.0, 1796.0, 1796.0, 1797.0, 1795.0, 1795.0, 1794.0, 1796.0, 1797.0, 1796.0, 1796.0, 1796.0, 1793.0, 1794.0, 1796.0, 1797.0, 1797.0, 1795.0, 1792.0, 1791.0, 1792.0, 1792.0, 1792.0, 1795.0, 1796.0, 1794.0, 1796.0, 1796.0, 1796.0, 1796.0, 1793.0, 1791.0, 1789.0, 1787.0, 1787.0, 1787.0, 1789.0, 1791.0, 1790.0, 1796.0, 1800.0, 1798.0, 1795.0, 1795.0, 1795.0, 1794.0, 1791.0, 1791.0, 1791.0, 1792.0, 1793.0, 1795.0, 1794.0, 1795.0, 1796.0, 1795.0, 1791.0, 1789.0, 1788.0, 1789.0, 1792.0, 1795.0, 1795.0, 1797.0, 1795.0, 1793.0, 1795.0, 1796.0, 1793.0, 1790.0, 1789.0, 1791.0, 1793.0, 1795.0, 1797.0, 1796.0, 1795.0, 1794.0, 1792.0, 1792.0, 1791.0, 1791.0, 1790.0, 1794.0, 1795.0, 1796.0, 1794.0, 1795.0, 1789.0, 1789.0, 1787.0, 1789.0, 1791.0, 1794.0, 1797.0, 1797.0, 1796.0, 1795.0, 1794.0, 1794.0, 1794.0]
    },
    "slices": {}
  }
}