{
 "AcquisitionMatrixPE": 100,
 "AcquisitionNumber": 1,
 "AcquisitionTime": "13:29:28.620000",
 "BandwidthPerPixelPhaseEncode": 18.519,
 "BaseResolution": 100,
 "BodyPartExamined": "BRAIN",
 "ConsistencyInfo": "N4_VE11C_LATEST_20160120",
 "ConversionSoftware": "dcm2niix",
 "ConversionSoftwareVersion": "v1.0.20180622 GCC4.9.2",
 "DerivedVendorReportedEchoSpacing": 0.000539986,
 "DeviceSerialNumber": "166078",
 "DwellTime": 2.1e-06,
 "EchoTime": 0.034,
 "EchoTrainLength": 100,
 "EffectiveEchoSpacing": 0.000539986,
 "FlipAngle": 90,
 "ImageOrientationPatientDICOM": [
  1,
  0,
  0,
  0,
  0.990268,
  -0.139173
 ],
 "ImageType": [
  "ORIGINAL",
  "PRIMARY",
  "M",
  "ND",
  "MOSAIC"
 ],
 "InPlanePhaseEncodingDirectionDICOM": "COL",
 "InstitutionAddress": "Street_StreetNo_Bei_Jing_District_CN_ZIP",
 "InstitutionName": "BeiJing_Normal_University",
 "InstitutionalDepartmentName": "Department",
 "MRAcquisitionType": "2D",
 "MagneticFieldStrength": 3,
 "Manufacturer": "Siemens",
 "ManufacturersModelName": "Prisma",
 "Modality": "MR",
 "MultibandAccelerationFactor": 3,
 "PartialFourier": 1,
 "PatientPosition": "HFS",
 "PercentPhaseFOV": 100,
 "PhaseEncodingDirection": "j-",
 "PhaseEncodingSteps": 100,
 "PhaseResolution": 1,
 "PixelBandwidth": 2380,
 "ProcedureStepDescription": "BNU_P2018_64CH_Zhen.ZongLei",
 "ProtocolName": "bold_100x100_s3_2x2x2_static_256",
 "PulseSequenceDetails": "%SiemensSeq%_ep2d_bold",
 "ReceiveCoilActiveElements": "HC1-7;NC1",
 "ReceiveCoilName": "HeadNeck_64",
 "ReconMatrixPE": 100,
 "RepetitionTime": 2,
 "SAR": 0.0748662,
 "ScanOptions": "FS",
 "ScanningSequence": "EP",
 "SequenceName": "_epfid2d1_100",
 "SequenceVariant": "SK",
 "SeriesDescription": "bold_100x100_s3_2x2x2_static_256",
 "SeriesNumber": 6,
 "ShimSetting": [
  -5461,
  -11505,
  -1246,
  356,
  -69,
  -68,
  -66,
  27
 ],
 "SliceThickness": 2,
 "SliceTiming": [
  1.485,
  0,
  0.99,
  0.0825,
  1.0725,
  0.165,
  1.155,
  0.2475,
  1.2375,
  0.33,
  1.32,
  0.4125,
  1.4025,
  0.5775,
  1.5675,
  0.66,
  1.65,
  0.7425,
  1.7325,
  0.825,
  1.815,
  0.9075,
  1.8975,
  0.495,
  1.485,
  0,
  0.99,
  0.0825,
  1.0725,
  0.165,
  1.155,
  0.2475,
  1.2375,
  0.33,
  1.32,
  0.4125,
  1.4025,
  0.5775,
  1.5675,
  0.66,
  1.65,
  0.7425,
  1.7325,
  0.825,
  1.815,
  0.9075,
  1.8975,
  0.495,
  1.485,
  0,
  0.99,
  0.0825,
  1.0725,
  0.165,
  1.155,
  0.2475,
  1.2375,
  0.33,
  1.32,
  0.4125,
  1.4025,
  0.5775,
  1.5675,
  0.66,
  1.65,
  0.7425,
  1.7325,
  0.825,
  1.815,
  0.9075,
  1.8975,
  0.495
 ],
 "SoftwareVersions": "syngo_MR_E11",
 "SpacingBetweenSlices": 2,
 "StationName": "AWP166078",
 "TaskName": "imagenet",
 "TotalReadoutTime": 0.0534586,
 "TxRefAmp": 240.419,
 "dcmmeta_affine": [
  [
   -2.0,
   0.0,
   0.0,
   100.0
  ],
  [
   0.0,
   1.9805361032485962,
   -0.2783462107181549,
   -81.50396728515625
  ],
  [
   0.0,
   0.2783462107181549,
   1.9805361032485962,
   -75.27002716064453
  ],
  [
   0.0,
   0.0,
   0.0,
   1.0
  ]
 ],
 "dcmmeta_reorient_transform": [
  [
   0.0,
   -1.0,
   0.0,
   99.0
  ],
  [
   1.0,
   0.0,
   0.0,
   0.0
  ],
  [
   0.0,
   0.0,
   1.0,
   0.0
  ],
  [
   0.0,
   0.0,
   0.0,
   1.0
  ]
 ],
 "dcmmeta_shape": [
  100,
  100,
  72,
  256
 ],
 "dcmmeta_slice_dim": 2,
 "dcmmeta_version": 0.6,
 "global": {
  "const": {
   "AcquisitionMatrix": [
    100,
    0,
    0,
    100
   ],
   "AngioFlag": "N",
   "BitsAllocated": 16,
   "BitsStored": 12,
   "BodyPartExamined": "BRAIN",
   "Columns": 900,
   "EchoNumbers": 1,
   "EchoTime": 34.0,
   "EchoTrainLength": 100,
   "FlipAngle": 90.0,
   "HighBit": 11,
   "ImageOrientationPatient": [
    1.0,
    0.0,
    0.0,
    0.0,
    0.99026806878515,
    -0.13917310065
   ],
   "ImagePositionPatient": [
    -900.0,
    -906.78356880666,
    63.624725216303
   ],
   "ImageType": [
    "ORIGINAL",
    "PRIMARY",
    "M",
    "ND",
    "MOSAIC"
   ],
   "ImagedNucleus": "1H",
   "ImagingFrequency": 123.257691,
   "InPlanePhaseEncodingDirection": "COL",
   "MRAcquisitionType": "2D",
   "MagneticFieldStrength": 3.0,
   "Manufacturer": "SIEMENS",
   "ManufacturerModelName": "Prisma",
   "Modality": "MR",
   "NumberOfAverages": 1.0,
   "NumberOfPhaseEncodingSteps": 100,
   "PercentPhaseFieldOfView": 100.0,
   "PercentSampling": 100.0,
   "PerformedProcedureStepStartTime": "125257.997000",
   "PhotometricInterpretation": "MONOCHROME2",
   "PixelBandwidth": 2380.0,
   "PixelRepresentation": 0,
   "PixelSpacing": [
    2.0,
    2.0
   ],
   "ProtocolName": "bold_100x100_s3_2x2x2_static_256",
   "RepetitionTime": 2000.0,
   "Rows": 900,
   "SAR": 0.07486616944458,
   "SamplesPerPixel": 1,
   "ScanOptions": "FS",
   "ScanningSequence": "EP",
   "SequenceName": "*epfid2d1_100",
   "SequenceVariant": "SK",
   "SeriesDescription": "bold_100x100_s3_2x2x2_static_256",
   "SeriesNumber": 6,
   "SeriesTime": "132931.625000",
   "SliceLocation": -63.194347122316,
   "SliceThickness": 2.0,
   "SmallestImagePixelValue": 0,
   "SoftwareVersions": "syngo MR E11",
   "SpacingBetweenSlices": 1.9999999868931,
   "SpecificCharacterSet": "ISO_IR 100",
   "StudyID": "1",
   "StudyTime": "125257.889000",
   "TransmitCoilName": "Body",
   "VariableFlipAngleFlag": "N",
   "WindowCenterWidthExplanation": "Algo1",
   "dBdt": 0.0
  },
  "slices": {}
 },
 "time": {
  "samples": {
   "AcquisitionNumber": [
    1,
    2,
    3,
    4,
    5,
    6,
    7,
    8,
    9,
    10,
    11,
    12,
    13,
    14,
    15,
    16,
    17,
    18,
    19,
    20,
    21,
    22,
    23,
    24,
    25,
    26,
    27,
    28,
    29,
    30,
    31,
    32,
    33,
    34,
    35,
    36,
    37,
    38,
    39,
    40,
    41,
    42,
    43,
    44,
    45,
    46,
    47,
    48,
    49,
    50,
    51,
    52,
    53,
    54,
    55,
    56,
    57,
    58,
    59,
    60,
    61,
    62,
    63,
    64,
    65,
    66,
    67,
    68,
    69,
    70,
    71,
    72,
    73,
    74,
    75,
    76,
    77,
    78,
    79,
    80,
    81,
    82,
    83,
    84,
    85,
    86,
    87,
    88,
    89,
    90,
    91,
    92,
    93,
    94,
    95,
    96,
    97,
    98,
    99,
    100,
    101,
    102,
    103,
    104,
    105,
    106,
    107,
    108,
    109,
    110,
    111,
    112,
    113,
    114,
    115,
    116,
    117,
    118,
    119,
    120,
    121,
    122,
    123,
    124,
    125,
    126,
    127,
    128,
    129,
    130,
    131,
    132,
    133,
    134,
    135,
    136,
    137,
    138,
    139,
    140,
    141,
    142,
    143,
    144,
    145,
    146,
    147,
    148,
    149,
    150,
    151,
    152,
    153,
    154,
    155,
    156,
    157,
    158,
    159,
    160,
    161,
    162,
    163,
    164,
    165,
    166,
    167,
    168,
    169,
    170,
    171,
    172,
    173,
    174,
    175,
    176,
    177,
    178,
    179,
    180,
    181,
    182,
    183,
    184,
    185,
    186,
    187,
    188,
    189,
    190,
    191,
    192,
    193,
    194,
    195,
    196,
    197,
    198,
    199,
    200,
    201,
    202,
    203,
    204,
    205,
    206,
    207,
    208,
    209,
    210,
    211,
    212,
    213,
    214,
    215,
    216,
    217,
    218,
    219,
    220,
    221,
    222,
    223,
    224,
    225,
    226,
    227,
    228,
    229,
    230,
    231,
    232,
    233,
    234,
    235,
    236,
    237,
    238,
    239,
    240,
    241,
    242,
    243,
    244,
    245,
    246,
    247,
    248,
    249,
    250,
    251,
    252,
    253,
    254,
    255,
    256
   ],
   "AcquisitionTime": [
    "132928.620000",
    "132930.620000",
    "132932.620000",
    "132934.620000",
    "132936.620000",
    "132938.620000",
    "132940.620000",
    "132942.620000",
    "132944.620000",
    "132946.620000",
    "132948.620000",
    "132950.620000",
    "132952.620000",
    "132954.620000",
    "132956.620000",
    "132958.620000",
    "133000.620000",
    "133002.620000",
    "133004.620000",
    "133006.620000",
    "133008.620000",
    "133010.620000",
    "133012.620000",
    "133014.620000",
    "133016.620000",
    "133018.620000",
    "133020.620000",
    "133022.620000",
    "133024.620000",
    "133026.620000",
    "133028.620000",
    "133030.620000",
    "133032.620000",
    "133034.620000",
    "133036.620000",
    "133038.620000",
    "133040.620000",
    "133042.620000",
    "133044.620000",
    "133046.620000",
    "133048.620000",
    "133050.620000",
    "133052.620000",
    "133054.620000",
    "133056.620000",
    "133058.620000",
    "133100.620000",
    "133102.620000",
    "133104.620000",
    "133106.620000",
    "133108.620000",
    "133110.620000",
    "133112.620000",
    "133114.620000",
    "133116.620000",
    "133118.620000",
    "133120.620000",
    "133122.620000",
    "133124.620000",
    "133126.620000",
    "133128.620000",
    "133130.620000",
    "133132.620000",
    "133134.620000",
    "133136.620000",
    "133138.620000",
    "133140.620000",
    "133142.620000",
    "133144.620000",
    "133146.620000",
    "133148.620000",
    "133150.620000",
    "133152.620000",
    "133154.620000",
    "133156.620000",
    "133158.620000",
    "133200.620000",
    "133202.620000",
    "133204.620000",
    "133206.620000",
    "133208.620000",
    "133210.620000",
    "133212.620000",
    "133214.620000",
    "133216.620000",
    "133218.620000",
    "133220.620000",
    "133222.620000",
    "133224.620000",
    "133226.620000",
    "133228.620000",
    "133230.620000",
    "133232.620000",
    "133234.620000",
    "133236.620000",
    "133238.620000",
    "133240.620000",
    "133242.620000",
    "133244.620000",
    "133246.620000",
    "133248.620000",
    "133250.620000",
    "133252.620000",
    "133254.620000",
    "133256.620000",
    "133258.620000",
    "133300.620000",
    "133302.620000",
    "133304.620000",
    "133306.620000",
    "133308.620000",
    "133310.620000",
    "133312.620000",
    "133314.620000",
    "133316.620000",
    "133318.620000",
    "133320.620000",
    "133322.620000",
    "133324.620000",
    "133326.620000",
    "133328.620000",
    "133330.620000",
    "133332.620000",
    "133334.620000",
    "133336.620000",
    "133338.620000",
    "133340.620000",
    "133342.620000",
    "133344.620000",
    "133346.620000",
    "133348.620000",
    "133350.620000",
    "133352.620000",
    "133354.620000",
    "133356.620000",
    "133358.620000",
    "133400.620000",
    "133402.620000",
    "133404.620000",
    "133406.620000",
    "133408.620000",
    "133410.620000",
    "133412.620000",
    "133414.620000",
    "133416.620000",
    "133418.620000",
    "133420.620000",
    "133422.620000",
    "133424.620000",
    "133426.620000",
    "133428.620000",
    "133430.620000",
    "133432.620000",
    "133434.620000",
    "133436.620000",
    "133438.620000",
    "133440.620000",
    "133442.620000",
    "133444.620000",
    "133446.620000",
    "133448.620000",
    "133450.620000",
    "133452.620000",
    "133454.620000",
    "133456.620000",
    "133458.620000",
    "133500.620000",
    "133502.620000",
    "133504.620000",
    "133506.620000",
    "133508.620000",
    "133510.620000",
    "133512.620000",
    "133514.620000",
    "133516.620000",
    "133518.620000",
    "133520.620000",
    "133522.620000",
    "133524.620000",
    "133526.620000",
    "133528.620000",
    "133530.620000",
    "133532.620000",
    "133534.620000",
    "133536.620000",
    "133538.620000",
    "133540.620000",
    "133542.620000",
    "133544.620000",
    "133546.620000",
    "133548.620000",
    "133550.620000",
    "133552.620000",
    "133554.620000",
    "133556.620000",
    "133558.620000",
    "133600.620000",
    "133602.620000",
    "133604.620000",
    "133606.620000",
    "133608.620000",
    "133610.620000",
    "133612.620000",
    "133614.620000",
    "133616.620000",
    "133618.620000",
    "133620.620000",
    "133622.620000",
    "133624.620000",
    "133626.620000",
    "133628.620000",
    "133630.620000",
    "133632.620000",
    "133634.620000",
    "133636.620000",
    "133638.620000",
    "133640.620000",
    "133642.620000",
    "133644.620000",
    "133646.620000",
    "133648.620000",
    "133650.620000",
    "133652.620000",
    "133654.620000",
    "133656.620000",
    "133658.620000",
    "133700.620000",
    "133702.620000",
    "133704.620000",
    "133706.620000",
    "133708.620000",
    "133710.620000",
    "133712.620000",
    "133714.620000",
    "133716.620000",
    "133718.620000",
    "133720.620000",
    "133722.620000",
    "133724.620000",
    "133726.620000",
    "133728.620000",
    "133730.620000",
    "133732.620000",
    "133734.620000",
    "133736.620000",
    "133738.620000",
    "133740.620000",
    "133742.620000",
    "133744.620000",
    "133746.620000",
    "133748.620000",
    "133750.620000",
    "133752.620000",
    "133754.620000",
    "133756.620000",
    "133758.620000"
   ],
   "ContentTime": [
    "132931.629000",
    "132933.124000",
    "132935.125000",
    "132937.124000",
    "132939.124000",
    "132941.125000",
    "132943.124000",
    "132945.125000",
    "132947.125000",
    "132949.124000",
    "132951.124000",
    "132953.125000",
    "132955.125000",
    "132957.125000",
    "132959.124000",
    "133001.124000",
    "133003.124000",
    "133005.124000",
    "133007.124000",
    "133009.125000",
    "133011.125000",
    "133013.124000",
    "133015.125000",
    "133017.124000",
    "133019.124000",
    "133021.124000",
    "133023.125000",
    "133025.125000",
    "133027.125000",
    "133029.124000",
    "133031.125000",
    "133033.126000",
    "133035.125000",
    "133037.125000",
    "133039.125000",
    "133041.124000",
    "133043.125000",
    "133045.124000",
    "133047.125000",
    "133049.125000",
    "133051.125000",
    "133053.124000",
    "133055.125000",
    "133057.125000",
    "133059.125000",
    "133101.125000",
    "133103.124000",
    "133105.125000",
    "133107.125000",
    "133109.125000",
    "133111.125000",
    "133113.125000",
    "133115.124000",
    "133117.125000",
    "133119.125000",
    "133121.124000",
    "133123.125000",
    "133125.126000",
    "133127.124000",
    "133129.125000",
    "133131.124000",
    "133133.125000",
    "133135.124000",
    "133137.125000",
    "133139.124000",
    "133141.125000",
    "133143.126000",
    "133145.125000",
    "133147.124000",
    "133149.124000",
    "133151.124000",
    "133153.124000",
    "133155.124000",
    "133157.125000",
    "133159.125000",
    "133201.125000",
    "133203.124000",
    "133205.124000",
    "133207.125000",
    "133209.124000",
    "133211.125000",
    "133213.125000",
    "133215.124000",
    "133217.124000",
    "133219.124000",
    "133221.125000",
    "133223.124000",
    "133225.124000",
    "133227.124000",
    "133229.125000",
    "133231.125000",
    "133233.124000",
    "133235.125000",
    "133237.124000",
    "133239.124000",
    "133241.124000",
    "133243.124000",
    "133245.125000",
    "133247.124000",
    "133249.125000",
    "133251.124000",
    "133253.126000",
    "133255.124000",
    "133257.124000",
    "133259.124000",
    "133301.124000",
    "133303.125000",
    "133305.124000",
    "133307.124000",
    "133309.125000",
    "133311.126000",
    "133313.124000",
    "133315.124000",
    "133317.124000",
    "133319.125000",
    "133321.125000",
    "133323.125000",
    "133325.125000",
    "133327.125000",
    "133329.125000",
    "133331.125000",
    "133333.125000",
    "133335.124000",
    "133337.125000",
    "133339.125000",
    "133341.125000",
    "133343.124000",
    "133345.126000",
    "133347.125000",
    "133349.125000",
    "133351.124000",
    "133353.124000",
    "133355.124000",
    "133357.125000",
    "133359.125000",
    "133401.125000",
    "133403.125000",
    "133405.124000",
    "133407.125000",
    "133409.125000",
    "133411.125000",
    "133413.124000",
    "133415.125000",
    "133417.124000",
    "133419.125000",
    "133421.126000",
    "133423.124000",
    "133425.125000",
    "133427.124000",
    "133429.124000",
    "133431.125000",
    "133433.124000",
    "133435.125000",
    "133437.125000",
    "133439.125000",
    "133441.125000",
    "133443.125000",
    "133445.125000",
    "133447.124000",
    "133449.125000",
    "133451.125000",
    "133453.124000",
    "133455.126000",
    "133457.125000",
    "133459.124000",
    "133501.124000",
    "133503.124000",
    "133505.125000",
    "133507.125000",
    "133509.124000",
    "133511.125000",
    "133513.126000",
    "133515.125000",
    "133517.125000",
    "133519.125000",
    "133521.125000",
    "133523.124000",
    "133525.124000",
    "133527.125000",
    "133529.125000",
    "133531.126000",
    "133533.125000",
    "133535.125000",
    "133537.125000",
    "133539.125000",
    "133541.125000",
    "133543.125000",
    "133545.125000",
    "133547.124000",
    "133549.124000",
    "133551.125000",
    "133553.125000",
    "133555.125000",
    "133557.124000",
    "133559.124000",
    "133601.125000",
    "133603.124000",
    "133605.125000",
    "133607.125000",
    "133609.125000",
    "133611.125000",
    "133613.124000",
    "133615.124000",
    "133617.125000",
    "133619.124000",
    "133621.125000",
    "133623.126000",
    "133625.126000",
    "133627.125000",
    "133629.125000",
    "133631.124000",
    "133633.124000",
    "133635.124000",
    "133637.125000",
    "133639.125000",
    "133641.126000",
    "133643.125000",
    "133645.125000",
    "133647.125000",
    "133649.125000",
    "133651.125000",
    "133653.125000",
    "133655.125000",
    "133657.125000",
    "133659.124000",
    "133701.125000",
    "133703.125000",
    "133705.125000",
    "133707.125000",
    "133709.125000",
    "133711.125000",
    "133713.125000",
    "133715.126000",
    "133717.125000",
    "133719.125000",
    "133721.124000",
    "133723.124000",
    "133725.125000",
    "133727.125000",
    "133729.125000",
    "133731.124000",
    "133733.126000",
    "133735.125000",
    "133737.125000",
    "133739.125000",
    "133741.125000",
    "133743.125000",
    "133745.125000",
    "133747.125000",
    "133749.125000",
    "133751.125000",
    "133753.125000",
    "133755.125000",
    "133757.125000",
    "133759.125000",
    "133800.684000"
   ],
   "InstanceCreationTime": [
    "132931.629000",
    "132933.124000",
    "132935.125000",
    "132937.124000",
    "132939.124000",
    "132941.125000",
    "132943.124000",
    "132945.125000",
    "132947.125000",
    "132949.124000",
    "132951.124000",
    "132953.125000",
    "132955.125000",
    "132957.125000",
    "132959.124000",
    "133001.124000",
    "133003.124000",
    "133005.124000",
    "133007.124000",
    "133009.125000",
    "133011.125000",
    "133013.124000",
    "133015.125000",
    "133017.124000",
    "133019.124000",
    "133021.124000",
    "133023.125000",
    "133025.125000",
    "133027.125000",
    "133029.124000",
    "133031.125000",
    "133033.126000",
    "133035.125000",
    "133037.125000",
    "133039.125000",
    "133041.124000",
    "133043.125000",
    "133045.124000",
    "133047.125000",
    "133049.125000",
    "133051.125000",
    "133053.124000",
    "133055.125000",
    "133057.125000",
    "133059.125000",
    "133101.125000",
    "133103.124000",
    "133105.125000",
    "133107.125000",
    "133109.125000",
    "133111.125000",
    "133113.125000",
    "133115.124000",
    "133117.125000",
    "133119.125000",
    "133121.124000",
    "133123.125000",
    "133125.126000",
    "133127.124000",
    "133129.125000",
    "133131.124000",
    "133133.125000",
    "133135.124000",
    "133137.125000",
    "133139.124000",
    "133141.125000",
    "133143.126000",
    "133145.125000",
    "133147.124000",
    "133149.124000",
    "133151.124000",
    "133153.124000",
    "133155.124000",
    "133157.125000",
    "133159.125000",
    "133201.125000",
    "133203.124000",
    "133205.124000",
    "133207.125000",
    "133209.124000",
    "133211.125000",
    "133213.125000",
    "133215.124000",
    "133217.124000",
    "133219.124000",
    "133221.125000",
    "133223.124000",
    "133225.124000",
    "133227.124000",
    "133229.125000",
    "133231.125000",
    "133233.124000",
    "133235.125000",
    "133237.124000",
    "133239.124000",
    "133241.124000",
    "133243.124000",
    "133245.125000",
    "133247.124000",
    "133249.125000",
    "133251.124000",
    "133253.126000",
    "133255.124000",
    "133257.124000",
    "133259.124000",
    "133301.124000",
    "133303.125000",
    "133305.124000",
    "133307.124000",
    "133309.125000",
    "133311.126000",
    "133313.124000",
    "133315.124000",
    "133317.124000",
    "133319.125000",
    "133321.125000",
    "133323.125000",
    "133325.125000",
    "133327.125000",
    "133329.125000",
    "133331.125000",
    "133333.125000",
    "133335.124000",
    "133337.125000",
    "133339.125000",
    "133341.125000",
    "133343.124000",
    "133345.126000",
    "133347.125000",
    "133349.125000",
    "133351.124000",
    "133353.124000",
    "133355.124000",
    "133357.125000",
    "133359.125000",
    "133401.125000",
    "133403.125000",
    "133405.124000",
    "133407.125000",
    "133409.125000",
    "133411.125000",
    "133413.124000",
    "133415.125000",
    "133417.124000",
    "133419.125000",
    "133421.126000",
    "133423.124000",
    "133425.125000",
    "133427.124000",
    "133429.124000",
    "133431.125000",
    "133433.124000",
    "133435.125000",
    "133437.125000",
    "133439.125000",
    "133441.125000",
    "133443.125000",
    "133445.125000",
    "133447.124000",
    "133449.125000",
    "133451.125000",
    "133453.124000",
    "133455.126000",
    "133457.125000",
    "133459.124000",
    "133501.124000",
    "133503.124000",
    "133505.125000",
    "133507.125000",
    "133509.124000",
    "133511.125000",
    "133513.126000",
    "133515.125000",
    "133517.125000",
    "133519.125000",
    "133521.125000",
    "133523.124000",
    "133525.124000",
    "133527.125000",
    "133529.125000",
    "133531.126000",
    "133533.125000",
    "133535.125000",
    "133537.125000",
    "133539.125000",
    "133541.125000",
    "133543.125000",
    "133545.125000",
    "133547.124000",
    "133549.124000",
    "133551.125000",
    "133553.125000",
    "133555.125000",
    "133557.124000",
    "133559.124000",
    "133601.125000",
    "133603.124000",
    "133605.125000",
    "133607.125000",
    "133609.125000",
    "133611.125000",
    "133613.124000",
    "133615.124000",
    "133617.125000",
    "133619.124000",
    "133621.125000",
    "133623.126000",
    "133625.126000",
    "133627.125000",
    "133629.125000",
    "133631.124000",
    "133633.124000",
    "133635.124000",
    "133637.125000",
    "133639.125000",
    "133641.126000",
    "133643.125000",
    "133645.125000",
    "133647.125000",
    "133649.125000",
    "133651.125000",
    "133653.125000",
    "133655.125000",
    "133657.125000",
    "133659.124000",
    "133701.125000",
    "133703.125000",
    "133705.125000",
    "133707.125000",
    "133709.125000",
    "133711.125000",
    "133713.125000",
    "133715.126000",
    "133717.125000",
    "133719.125000",
    "133721.124000",
    "133723.124000",
    "133725.125000",
    "133727.125000",
    "133729.125000",
    "133731.124000",
    "133733.126000",
    "133735.125000",
    "133737.125000",
    "133739.125000",
    "133741.125000",
    "133743.125000",
    "133745.125000",
    "133747.125000",
    "133749.125000",
    "133751.125000",
    "133753.125000",
    "133755.125000",
    "133757.125000",
    "133759.125000",
    "133800.684000"
   ],
   "InstanceNumber": [
    1,
    2,
    3,
    4,
    5,
    6,
    7,
    8,
    9,
    10,
    11,
    12,
    13,
    14,
    15,
    16,
    17,
    18,
    19,
    20,
    21,
    22,
    23,
    24,
    25,
    26,
    27,
    28,
    29,
    30,
    31,
    32,
    33,
    34,
    35,
    36,
    37,
    38,
    39,
    40,
    41,
    42,
    43,
    44,
    45,
    46,
    47,
    48,
    49,
    50,
    51,
    52,
    53,
    54,
    55,
    56,
    57,
    58,
    59,
    60,
    61,
    62,
    63,
    64,
    65,
    66,
    67,
    68,
    69,
    70,
    71,
    72,
    73,
    74,
    75,
    76,
    77,
    78,
    79,
    80,
    81,
    82,
    83,
    84,
    85,
    86,
    87,
    88,
    89,
    90,
    91,
    92,
    93,
    94,
    95,
    96,
    97,
    98,
    99,
    100,
    101,
    102,
    103,
    104,
    105,
    106,
    107,
    108,
    109,
    110,
    111,
    112,
    113,
    114,
    115,
    116,
    117,
    118,
    119,
    120,
    121,
    122,
    123,
    124,
    125,
    126,
    127,
    128,
    129,
    130,
    131,
    132,
    133,
    134,
    135,
    136,
    137,
    138,
    139,
    140,
    141,
    142,
    143,
    144,
    145,
    146,
    147,
    148,
    149,
    150,
    151,
    152,
    153,
    154,
    155,
    156,
    157,
    158,
    159,
    160,
    161,
    162,
    163,
    164,
    165,
    166,
    167,
    168,
    169,
    170,
    171,
    172,
    173,
    174,
    175,
    176,
    177,
    178,
    179,
    180,
    181,
    182,
    183,
    184,
    185,
    186,
    187,
    188,
    189,
    190,
    191,
    192,
    193,
    194,
    195,
    196,
    197,
    198,
    199,
    200,
    201,
    202,
    203,
    204,
    205,
    206,
    207,
    208,
    209,
    210,
    211,
    212,
    213,
    214,
    215,
    216,
    217,
    218,
    219,
    220,
    221,
    222,
    223,
    224,
    225,
    226,
    227,
    228,
    229,
    230,
    231,
    232,
    233,
    234,
    235,
    236,
    237,
    238,
    239,
    240,
    241,
    242,
    243,
    244,
    245,
    246,
    247,
    248,
    249,
    250,
    251,
    252,
    253,
    254,
    255,
    256
   ],
   "LargestImagePixelValue": [
    3780,
    3713,
    3703,
    3708,
    3672,
    3691,
    3677,
    3652,
    3618,
    3632,
    3657,
    3670,
    3673,
    3664,
    3674,
    3667,
    3658,
    3665,
    3685,
    3710,
    3710,
    3651,
    3674,
    3662,
    3661,
    3655,
    3668,
    3689,
    3697,
    3705,
    3670,
    3674,
    3671,
    3666,
    3665,
    3672,
    3640,
    3648,
    3655,
    3678,
    3661,
    3675,
    3704,
    3679,
    3685,
    3656,
    3701,
    3693,
    3669,
    3676,
    3672,
    3657,
    3645,
    3669,
    3670,
    3672,
    3664,
    3687,
    3707,
    3690,
    3680,
    3668,
    3648,
    3670,
    3665,
    3774,
    3672,
    3681,
    3664,
    3666,
    3628,
    3696,
    3645,
    3663,
    3682,
    3676,
    3686,
    3688,
    3679,
    3654,
    3666,
    3657,
    3674,
    3650,
    3631,
    3672,
    3675,
    3673,
    3664,
    3654,
    3629,
    3662,
    3660,
    3683,
    3684,
    3675,
    3672,
    3660,
    3664,
    3679,
    3692,
    3663,
    3622,
    3641,
    3637,
    3649,
    3646,
    3683,
    3689,
    3667,
    3660,
    3673,
    3666,
    3642,
    3674,
    3677,
    3645,
    3714,
    3683,
    3708,
    3655,
    3689,
    3698,
    3678,
    3663,
    3679,
    3683,
    3665,
    3686,
    3656,
    3649,
    3688,
    3680,
    3699,
    3685,
    3662,
    3671,
    3647,
    3654,
    3660,
    3669,
    3684,
    3673,
    3656,
    3667,
    3673,
    3668,
    3671,
    3658,
    3689,
    3679,
    3652,
    3655,
    3650,
    3621,
    3695,
    3657,
    3680,
    3664,
    3653,
    3664,
    3672,
    3685,
    3702,
    3658,
    3678,
    3664,
    3658,
    3721,
    3644,
    3691,
    3686,
    3654,
    3688,
    3707,
    3699,
    3696,
    3640,
    3622,
    3619,
    3691,
    3694,
    3686,
    3673,
    3689,
    3688,
    3671,
    3681,
    3674,
    3703,
    3643,
    3683,
    3655,
    3678,
    3653,
    3657,
    3645,
    3674,
    3670,
    3701,
    3636,
    3705,
    3683,
    3666,
    3685,
    3674,
    3671,
    3659,
    3668,
    3647,
    3668,
    3673,
    3673,
    3676,
    3693,
    3687,
    3668,
    3688,
    3668,
    3690,
    3675,
    3679,
    3670,
    3673,
    3664,
    3651,
    3649,
    3679,
    3666,
    3673,
    3692,
    3671,
    3674,
    3680,
    3661,
    3687,
    3679,
    3675,
    3687,
    3663,
    3721,
    3666,
    3705,
    3674,
    3653,
    3645,
    3637,
    3660,
    3625,
    3656,
    3661,
    3670,
    3672,
    3670,
    3670,
    3646
   ],
   "WindowCenter": [
    847.0,
    845.0,
    845.0,
    846.0,
    846.0,
    843.0,
    842.0,
    841.0,
    840.0,
    840.0,
    841.0,
    841.0,
    842.0,
    841.0,
    841.0,
    839.0,
    839.0,
    838.0,
    839.0,
    840.0,
    841.0,
    842.0,
    841.0,
    840.0,
    839.0,
    839.0,
    839.0,
    840.0,
    840.0,
    841.0,
    841.0,
    841.0,
    840.0,
    839.0,
    839.0,
    839.0,
    839.0,
    840.0,
    840.0,
    841.0,
    840.0,
    839.0,
    840.0,
    839.0,
    841.0,
    840.0,
    841.0,
    842.0,
    842.0,
    842.0,
    842.0,
    841.0,
    842.0,
    843.0,
    842.0,
    841.0,
    840.0,
    840.0,
    841.0,
    842.0,
    842.0,
    842.0,
    842.0,
    841.0,
    841.0,
    841.0,
    841.0,
    841.0,
    841.0,
    840.0,
    839.0,
    840.0,
    840.0,
    841.0,
    841.0,
    842.0,
    842.0,
    841.0,
    840.0,
    840.0,
    840.0,
    841.0,
    842.0,
    842.0,
    843.0,
    843.0,
    842.0,
    840.0,
    838.0,
    838.0,
    838.0,
    839.0,
    839.0,
    840.0,
    839.0,
    839.0,
    839.0,
    839.0,
    840.0,
    840.0,
    842.0,
    841.0,
    841.0,
    840.0,
    839.0,
    839.0,
    839.0,
    840.0,
    841.0,
    840.0,
    839.0,
    839.0,
    839.0,
    839.0,
    840.0,
    839.0,
    838.0,
    838.0,
    838.0,
    840.0,
    841.0,
    842.0,
    843.0,
    842.0,
    841.0,
    840.0,
    840.0,
