{
 "AcquisitionMatrixPE": 100,
 "AcquisitionNumber": 1,
 "AcquisitionTime": "14:19:22.692500",
 "BandwidthPerPixelPhaseEncode": 18.519,
 "BaseResolution": 100,
 "BodyPartExamined": "BRAIN",
 "ConsistencyInfo": "N4_VE11C_LATEST_20160120",
 "ConversionSoftware": "dcm2niix",
 "ConversionSoftwareVersion": "v1.0.20180622 GCC4.9.2",
 "DerivedVendorReportedEchoSpacing": 0.000539986,
 "DeviceSerialNumber": "166078",
 "DwellTime": 2.1e-06,
 "EchoTime": 0.034,
 "EchoTrainLength": 100,
 "EffectiveEchoSpacing": 0.000539986,
 "FlipAngle": 90,
 "ImageOrientationPatientDICOM": [
  1,
  0,
  0,
  0,
  0.990268,
  -0.139173
 ],
 "ImageType": [
  "ORIGINAL",
  "PRIMARY",
  "M",
  "ND",
  "MOSAIC"
 ],
 "InPlanePhaseEncodingDirectionDICOM": "COL",
 "InstitutionAddress": "Street_StreetNo_Bei_Jing_District_CN_ZIP",
 "InstitutionName": "BeiJing_Normal_University",
 "InstitutionalDepartmentName": "Department",
 "MRAcquisitionType": "2D",
 "MagneticFieldStrength": 3,
 "Manufacturer": "Siemens",
 "ManufacturersModelName": "Prisma",
 "Modality": "MR",
 "MultibandAccelerationFactor": 3,
 "PartialFourier": 1,
 "PatientPosition": "HFS",
 "PercentPhaseFOV": 100,
 "PhaseEncodingDirection": "j-",
 "PhaseEncodingSteps": 100,
 "PhaseResolution": 1,
 "PixelBandwidth": 2380,
 "ProcedureStepDescription": "BNU_P2018_64CH_Zhen.ZongLei",
 "ProtocolName": "bold_100x100_s3_2x2x2_static_256",
 "PulseSequenceDetails": "%SiemensSeq%_ep2d_bold",
 "ReceiveCoilActiveElements": "HC1-7;NC1",
 "ReceiveCoilName": "HeadNeck_64",
 "ReconMatrixPE": 100,
 "RepetitionTime": 2,
 "SAR": 0.0748662,
 "ScanOptions": "FS",
 "ScanningSequence": "EP",
 "SequenceName": "_epfid2d1_100",
 "SequenceVariant": "SK",
 "SeriesDescription": "bold_100x100_s3_2x2x2_static_256",
 "SeriesNumber": 13,
 "ShimSetting": [
  -5461,
  -11505,
  -1246,
  356,
  -69,
  -68,
  -66,
  27
 ],
 "SliceThickness": 2,
 "SliceTiming": [
  1.4825,
  0,
  0.99,
  0.0825,
  1.0725,
  0.165,
  1.155,
  0.2475,
  1.2375,
  0.33,
  1.32,
  0.4125,
  1.4,
  0.5775,
  1.565,
  0.66,
  1.6475,
  0.7425,
  1.73,
  0.825,
  1.8125,
  0.9075,
  1.895,
  0.495,
  1.4825,
  0,
  0.99,
  0.0825,
  1.0725,
  0.165,
  1.155,
  0.2475,
  1.2375,
  0.33,
  1.32,
  0.4125,
  1.4,
  0.5775,
  1.565,
  0.66,
  1.6475,
  0.7425,
  1.73,
  0.825,
  1.8125,
  0.9075,
  1.895,
  0.495,
  1.4825,
  0,
  0.99,
  0.0825,
  1.0725,
  0.165,
  1.155,
  0.2475,
  1.2375,
  0.33,
  1.32,
  0.4125,
  1.4,
  0.5775,
  1.565,
  0.66,
  1.6475,
  0.7425,
  1.73,
  0.825,
  1.8125,
  0.9075,
  1.895,
  0.495
 ],
 "SoftwareVersions": "syngo_MR_E11",
 "SpacingBetweenSlices": 2,
 "StationName": "AWP166078",
 "TaskName": "imagenet",
 "TotalReadoutTime": 0.0534586,
 "TxRefAmp": 240.419,
 "dcmmeta_affine": [
  [
   -2.0,
   0.0,
   0.0,
   100.0
  ],
  [
   0.0,
   1.9805361032485962,
   -0.2783462107181549,
   -81.50396728515625
  ],
  [
   0.0,
   0.2783462107181549,
   1.9805361032485962,
   -75.27002716064453
  ],
  [
   0.0,
   0.0,
   0.0,
   1.0
  ]
 ],
 "dcmmeta_reorient_transform": [
  [
   0.0,
   -1.0,
   0.0,
   99.0
  ],
  [
   1.0,
   0.0,
   0.0,
   0.0
  ],
  [
   0.0,
   0.0,
   1.0,
   0.0
  ],
  [
   0.0,
   0.0,
   0.0,
   1.0
  ]
 ],
 "dcmmeta_shape": [
  100,
  100,
  72,
  256
 ],
 "dcmmeta_slice_dim": 2,
 "dcmmeta_version": 0.6,
 "global": {
  "const": {
   "AcquisitionMatrix": [
    100,
    0,
    0,
    100
   ],
   "AngioFlag": "N",
   "BitsAllocated": 16,
   "BitsStored": 12,
   "BodyPartExamined": "BRAIN",
   "Columns": 900,
   "EchoNumbers": 1,
   "EchoTime": 34.0,
   "EchoTrainLength": 100,
   "FlipAngle": 90.0,
   "HighBit": 11,
   "ImageOrientationPatient": [
    1.0,
    0.0,
    0.0,
    0.0,
    0.99026806878515,
    -0.13917310065
   ],
   "ImagePositionPatient": [
    -900.0,
    -906.78356880666,
    63.624725216303
   ],
   "ImageType": [
    "ORIGINAL",
    "PRIMARY",
    "M",
    "ND",
    "MOSAIC"
   ],
   "ImagedNucleus": "1H",
   "ImagingFrequency": 123.257712,
   "InPlanePhaseEncodingDirection": "COL",
   "MRAcquisitionType": "2D",
   "MagneticFieldStrength": 3.0,
   "Manufacturer": "SIEMENS",
   "ManufacturerModelName": "Prisma",
   "Modality": "MR",
   "NumberOfAverages": 1.0,
   "NumberOfPhaseEncodingSteps": 100,
   "PercentPhaseFieldOfView": 100.0,
   "PercentSampling": 100.0,
   "PerformedProcedureStepStartTime": "125257.997000",
   "PhotometricInterpretation": "MONOCHROME2",
   "PixelBandwidth": 2380.0,
   "PixelRepresentation": 0,
   "PixelSpacing": [
    2.0,
    2.0
   ],
   "ProtocolName": "bold_100x100_s3_2x2x2_static_256",
   "RepetitionTime": 2000.0,
   "Rows": 900,
   "SAR": 0.07486616944458,
   "SamplesPerPixel": 1,
   "ScanOptions": "FS",
   "ScanningSequence": "EP",
   "SequenceName": "*epfid2d1_100",
   "SequenceVariant": "SK",
   "SeriesDescription": "bold_100x100_s3_2x2x2_static_256",
   "SeriesNumber": 13,
   "SeriesTime": "141925.136000",
   "SliceLocation": -63.194347122316,
   "SliceThickness": 2.0,
   "SmallestImagePixelValue": 0,
   "SoftwareVersions": "syngo MR E11",
   "SpacingBetweenSlices": 1.9999999868931,
   "SpecificCharacterSet": "ISO_IR 100",
   "StudyID": "1",
   "StudyTime": "125257.889000",
   "TransmitCoilName": "Body",
   "VariableFlipAngleFlag": "N",
   "WindowCenterWidthExplanation": "Algo1",
   "dBdt": 0.0
  },
  "slices": {}
 },
 "time": {
  "samples": {
   "AcquisitionNumber": [
    1,
    2,
    3,
    4,
    5,
    6,
    7,
    8,
    9,
    10,
    11,
    12,
    13,
    14,
    15,
    16,
    17,
    18,
    19,
    20,
    21,
    22,
    23,
    24,
    25,
    26,
    27,
    28,
    29,
    30,
    31,
    32,
    33,
    34,
    35,
    36,
    37,
    38,
    39,
    40,
    41,
    42,
    43,
    44,
    45,
    46,
    47,
    48,
    49,
    50,
    51,
    52,
    53,
    54,
    55,
    56,
    57,
    58,
    59,
    60,
    61,
    62,
    63,
    64,
    65,
    66,
    67,
    68,
    69,
    70,
    71,
    72,
    73,
    74,
    75,
    76,
    77,
    78,
    79,
    80,
    81,
    82,
    83,
    84,
    85,
    86,
    87,
    88,
    89,
    90,
    91,
    92,
    93,
    94,
    95,
    96,
    97,
    98,
    99,
    100,
    101,
    102,
    103,
    104,
    105,
    106,
    107,
    108,
    109,
    110,
    111,
    112,
    113,
    114,
    115,
    116,
    117,
    118,
    119,
    120,
    121,
    122,
    123,
    124,
    125,
    126,
    127,
    128,
    129,
    130,
    131,
    132,
    133,
    134,
    135,
    136,
    137,
    138,
    139,
    140,
    141,
    142,
    143,
    144,
    145,
    146,
    147,
    148,
    149,
    150,
    151,
    152,
    153,
    154,
    155,
    156,
    157,
    158,
    159,
    160,
    161,
    162,
    163,
    164,
    165,
    166,
    167,
    168,
    169,
    170,
    171,
    172,
    173,
    174,
    175,
    176,
    177,
    178,
    179,
    180,
    181,
    182,
    183,
    184,
    185,
    186,
    187,
    188,
    189,
    190,
    191,
    192,
    193,
    194,
    195,
    196,
    197,
    198,
    199,
    200,
    201,
    202,
    203,
    204,
    205,
    206,
    207,
    208,
    209,
    210,
    211,
    212,
    213,
    214,
    215,
    216,
    217,
    218,
    219,
    220,
    221,
    222,
    223,
    224,
    225,
    226,
    227,
    228,
    229,
    230,
    231,
    232,
    233,
    234,
    235,
    236,
    237,
    238,
    239,
    240,
    241,
    242,
    243,
    244,
    245,
    246,
    247,
    248,
    249,
    250,
    251,
    252,
    253,
    254,
    255,
    256
   ],
   "AcquisitionTime": [
    "141922.692500",
    "141924.692500",
    "141926.692500",
    "141928.692500",
    "141930.692500",
    "141932.692500",
    "141934.692500",
    "141936.692500",
    "141938.692500",
    "141940.692500",
    "141942.692500",
    "141944.692500",
    "141946.692500",
    "141948.692500",
    "141950.692500",
    "141952.692500",
    "141954.692500",
    "141956.692500",
    "141958.692500",
    "142000.692500",
    "142002.692500",
    "142004.692500",
    "142006.692500",
    "142008.692500",
    "142010.692500",
    "142012.692500",
    "142014.692500",
    "142016.692500",
    "142018.692500",
    "142020.692500",
    "142022.692500",
    "142024.692500",
    "142026.692500",
    "142028.692500",
    "142030.692500",
    "142032.692500",
    "142034.692500",
    "142036.692500",
    "142038.692500",
    "142040.692500",
    "142042.692500",
    "142044.692500",
    "142046.692500",
    "142048.692500",
    "142050.692500",
    "142052.692500",
    "142054.692500",
    "142056.692500",
    "142058.692500",
    "142100.692500",
    "142102.692500",
    "142104.692500",
    "142106.692500",
    "142108.692500",
    "142110.692500",
    "142112.692500",
    "142114.692500",
    "142116.692500",
    "142118.692500",
    "142120.692500",
    "142122.692500",
    "142124.692500",
    "142126.692500",
    "142128.692500",
    "142130.692500",
    "142132.692500",
    "142134.692500",
    "142136.692500",
    "142138.692500",
    "142140.692500",
    "142142.692500",
    "142144.692500",
    "142146.692500",
    "142148.692500",
    "142150.692500",
    "142152.692500",
    "142154.692500",
    "142156.692500",
    "142158.692500",
    "142200.692500",
    "142202.692500",
    "142204.692500",
    "142206.692500",
    "142208.692500",
    "142210.692500",
    "142212.692500",
    "142214.692500",
    "142216.692500",
    "142218.692500",
    "142220.692500",
    "142222.692500",
    "142224.692500",
    "142226.692500",
    "142228.692500",
    "142230.692500",
    "142232.692500",
    "142234.692500",
    "142236.692500",
    "142238.692500",
    "142240.692500",
    "142242.692500",
    "142244.692500",
    "142246.692500",
    "142248.692500",
    "142250.692500",
    "142252.692500",
    "142254.692500",
    "142256.692500",
    "142258.692500",
    "142300.692500",
    "142302.692500",
    "142304.692500",
    "142306.692500",
    "142308.692500",
    "142310.692500",
    "142312.692500",
    "142314.692500",
    "142316.692500",
    "142318.692500",
    "142320.692500",
    "142322.692500",
    "142324.692500",
    "142326.692500",
    "142328.692500",
    "142330.692500",
    "142332.692500",
    "142334.692500",
    "142336.692500",
    "142338.692500",
    "142340.692500",
    "142342.692500",
    "142344.692500",
    "142346.692500",
    "142348.692500",
    "142350.692500",
    "142352.692500",
    "142354.692500",
    "142356.692500",
    "142358.692500",
    "142400.692500",
    "142402.692500",
    "142404.692500",
    "142406.692500",
    "142408.692500",
    "142410.692500",
    "142412.692500",
    "142414.692500",
    "142416.692500",
    "142418.692500",
    "142420.692500",
    "142422.692500",
    "142424.692500",
    "142426.692500",
    "142428.692500",
    "142430.692500",
    "142432.692500",
    "142434.692500",
    "142436.692500",
    "142438.692500",
    "142440.692500",
    "142442.692500",
    "142444.692500",
    "142446.692500",
    "142448.692500",
    "142450.692500",
    "142452.692500",
    "142454.692500",
    "142456.692500",
    "142458.692500",
    "142500.692500",
    "142502.692500",
    "142504.692500",
    "142506.692500",
    "142508.692500",
    "142510.692500",
    "142512.692500",
    "142514.692500",
    "142516.692500",
    "142518.692500",
    "142520.692500",
    "142522.692500",
    "142524.692500",
    "142526.692500",
    "142528.692500",
    "142530.692500",
    "142532.692500",
    "142534.692500",
    "142536.692500",
    "142538.692500",
    "142540.692500",
    "142542.692500",
    "142544.692500",
    "142546.692500",
    "142548.692500",
    "142550.692500",
    "142552.692500",
    "142554.692500",
    "142556.692500",
    "142558.692500",
    "142600.692500",
    "142602.692500",
    "142604.692500",
    "142606.692500",
    "142608.692500",
    "142610.692500",
    "142612.692500",
    "142614.692500",
    "142616.692500",
    "142618.692500",
    "142620.692500",
    "142622.692500",
    "142624.692500",
    "142626.692500",
    "142628.692500",
    "142630.692500",
    "142632.692500",
    "142634.692500",
    "142636.692500",
    "142638.692500",
    "142640.692500",
    "142642.692500",
    "142644.692500",
    "142646.692500",
    "142648.692500",
    "142650.692500",
    "142652.692500",
    "142654.692500",
    "142656.692500",
    "142658.692500",
    "142700.692500",
    "142702.692500",
    "142704.692500",
    "142706.692500",
    "142708.692500",
    "142710.692500",
    "142712.692500",
    "142714.692500",
    "142716.692500",
    "142718.692500",
    "142720.692500",
    "142722.692500",
    "142724.692500",
    "142726.692500",
    "142728.692500",
    "142730.692500",
    "142732.692500",
    "142734.692500",
    "142736.692500",
    "142738.692500",
    "142740.692500",
    "142742.692500",
    "142744.692500",
    "142746.692500",
    "142748.692500",
    "142750.692500",
    "142752.692500"
   ],
   "ContentTime": [
    "141925.140000",
    "141926.636000",
    "141928.636000",
    "141930.636000",
    "141932.636000",
    "141934.637000",
    "141936.637000",
    "141938.637000",
    "141940.636000",
    "141942.636000",
    "141944.635000",
    "141946.636000",
    "141948.637000",
    "141950.636000",
    "141952.636000",
    "141954.636000",
    "141956.637000",
    "141958.636000",
    "142000.635000",
    "142002.636000",
    "142004.635000",
    "142006.637000",
    "142008.637000",
    "142010.637000",
    "142012.636000",
    "142014.636000",
    "142016.635000",
    "142018.636000",
    "142020.636000",
    "142022.637000",
    "142024.637000",
    "142026.636000",
    "142028.636000",
    "142030.637000",
    "142032.636000",
    "142034.635000",
    "142036.636000",
    "142038.635000",
    "142040.636000",
    "142042.637000",
    "142044.636000",
    "142046.636000",
    "142048.637000",
    "142050.636000",
    "142052.635000",
    "142054.635000",
    "142056.636000",
    "142058.637000",
    "142100.637000",
    "142102.636000",
    "142104.636000",
    "142106.637000",
    "142108.635000",
    "142110.635000",
    "142112.636000",
    "142114.635000",
    "142116.636000",
    "142118.636000",
    "142120.636000",
    "142122.636000",
    "142124.636000",
    "142126.636000",
    "142128.635000",
    "142130.636000",
    "142132.636000",
    "142134.637000",
    "142136.637000",
    "142138.637000",
    "142140.639000",
    "142142.636000",
    "142144.636000",
    "142146.636000",
    "142148.636000",
    "142150.637000",
    "142152.637000",
    "142154.637000",
    "142156.637000",
    "142158.637000",
    "142200.636000",
    "142202.636000",
    "142204.636000",
    "142206.636000",
    "142208.637000",
    "142210.637000",
    "142212.637000",
    "142214.636000",
    "142216.637000",
    "142218.636000",
    "142220.636000",
    "142222.636000",
    "142224.637000",
    "142226.637000",
    "142228.637000",
    "142230.637000",
    "142232.637000",
    "142234.635000",
    "142236.636000",
    "142238.636000",
    "142240.636000",
    "142242.636000",
    "142244.637000",
    "142246.636000",
    "142248.636000",
    "142250.637000",
    "142252.636000",
    "142254.635000",
    "142256.636000",
    "142258.636000",
    "142300.637000",
    "142302.637000",
    "142304.637000",
    "142306.636000",
    "142308.637000",
    "142310.636000",
    "142312.636000",
    "142314.635000",
    "142316.636000",
    "142318.637000",
    "142320.636000",
    "142322.636000",
    "142324.637000",
    "142326.637000",
    "142328.636000",
    "142330.635000",
    "142332.635000",
    "142334.637000",
    "142336.637000",
    "142338.636000",
    "142340.637000",
    "142342.636000",
    "142344.636000",
    "142346.635000",
    "142348.636000",
    "142350.636000",
    "142352.636000",
    "142354.637000",
    "142356.637000",
    "142358.636000",
    "142400.636000",
    "142402.636000",
    "142404.636000",
    "142406.635000",
    "142408.635000",
    "142410.637000",
    "142412.637000",
    "142414.636000",
    "142416.637000",
    "142418.637000",
    "142420.636000",
    "142422.635000",
    "142424.635000",
    "142426.635000",
    "142428.636000",
    "142430.637000",
    "142432.637000",
    "142434.637000",
    "142436.637000",
    "142438.636000",
    "142440.636000",
    "142442.636000",
    "142444.636000",
    "142446.637000",
    "142448.637000",
    "142450.637000",
    "142452.637000",
    "142454.635000",
    "142456.636000",
    "142458.635000",
    "142500.635000",
    "142502.637000",
    "142504.637000",
    "142506.637000",
    "142508.637000",
    "142510.637000",
    "142512.636000",
    "142514.636000",
    "142516.635000",
    "142518.636000",
    "142520.637000",
    "142522.637000",
    "142524.637000",
    "142526.637000",
    "142528.636000",
    "142530.636000",
    "142532.636000",
    "142534.635000",
    "142536.636000",
    "142538.637000",
    "142540.636000",
    "142542.637000",
    "142544.637000",
    "142546.637000",
    "142548.636000",
    "142550.636000",
    "142552.636000",
    "142554.637000",
    "142556.637000",
    "142558.637000",
    "142600.637000",
    "142602.637000",
    "142604.635000",
    "142606.636000",
    "142608.635000",
    "142610.636000",
    "142612.637000",
    "142614.637000",
    "142616.637000",
    "142618.637000",
    "142620.636000",
    "142622.635000",
    "142624.636000",
    "142626.636000",
    "142628.636000",
    "142630.637000",
    "142632.637000",
    "142634.637000",
    "142636.636000",
    "142638.637000",
    "142640.636000",
    "142642.636000",
    "142644.636000",
    "142646.635000",
    "142648.637000",
    "142650.637000",
    "142652.637000",
    "142654.637000",
    "142656.637000",
    "142658.636000",
    "142700.636000",
    "142702.636000",
    "142704.637000",
    "142706.647000",
    "142708.636000",
    "142710.637000",
    "142712.637000",
    "142714.636000",
    "142716.636000",
    "142718.636000",
    "142720.635000",
    "142722.636000",
    "142724.636000",
    "142726.637000",
    "142728.637000",
    "142730.636000",
    "142732.636000",
    "142734.635000",
    "142736.636000",
    "142738.635000",
    "142740.636000",
    "142742.637000",
    "142744.637000",
    "142746.636000",
    "142748.636000",
    "142750.636000",
    "142752.636000",
    "142754.307000"
   ],
   "InstanceCreationTime": [
    "141925.140000",
    "141926.636000",
    "141928.636000",
    "141930.636000",
    "141932.636000",
    "141934.637000",
    "141936.637000",
    "141938.637000",
    "141940.636000",
    "141942.636000",
    "141944.635000",
    "141946.636000",
    "141948.637000",
    "141950.636000",
    "141952.636000",
    "141954.636000",
    "141956.637000",
    "141958.636000",
    "142000.635000",
    "142002.636000",
    "142004.635000",
    "142006.637000",
    "142008.637000",
    "142010.637000",
    "142012.636000",
    "142014.636000",
    "142016.635000",
    "142018.636000",
    "142020.636000",
    "142022.637000",
    "142024.637000",
    "142026.636000",
    "142028.636000",
    "142030.637000",
    "142032.636000",
    "142034.635000",
    "142036.636000",
    "142038.635000",
    "142040.636000",
    "142042.637000",
    "142044.636000",
    "142046.636000",
    "142048.637000",
    "142050.636000",
    "142052.635000",
    "142054.635000",
    "142056.636000",
    "142058.637000",
    "142100.637000",
    "142102.636000",
    "142104.636000",
    "142106.637000",
    "142108.635000",
    "142110.635000",
    "142112.636000",
    "142114.635000",
    "142116.636000",
    "142118.636000",
    "142120.636000",
    "142122.636000",
    "142124.636000",
    "142126.636000",
    "142128.635000",
    "142130.636000",
    "142132.636000",
    "142134.637000",
    "142136.637000",
    "142138.637000",
    "142140.639000",
    "142142.636000",
    "142144.636000",
    "142146.636000",
    "142148.636000",
    "142150.637000",
    "142152.637000",
    "142154.637000",
    "142156.637000",
    "142158.637000",
    "142200.636000",
    "142202.636000",
    "142204.636000",
    "142206.636000",
    "142208.637000",
    "142210.637000",
    "142212.637000",
    "142214.636000",
    "142216.637000",
    "142218.636000",
    "142220.636000",
    "142222.636000",
    "142224.637000",
    "142226.637000",
    "142228.637000",
    "142230.637000",
    "142232.637000",
    "142234.635000",
    "142236.636000",
    "142238.636000",
    "142240.636000",
    "142242.636000",
    "142244.637000",
    "142246.636000",
    "142248.636000",
    "142250.637000",
    "142252.636000",
    "142254.635000",
    "142256.636000",
    "142258.636000",
    "142300.637000",
    "142302.637000",
    "142304.637000",
    "142306.636000",
    "142308.637000",
    "142310.636000",
    "142312.636000",
    "142314.635000",
    "142316.636000",
    "142318.637000",
    "142320.636000",
    "142322.636000",
    "142324.637000",
    "142326.637000",
    "142328.636000",
    "142330.635000",
    "142332.635000",
    "142334.637000",
    "142336.637000",
    "142338.636000",
    "142340.637000",
    "142342.636000",
    "142344.636000",
    "142346.635000",
    "142348.636000",
    "142350.636000",
    "142352.636000",
    "142354.637000",
    "142356.637000",
    "142358.636000",
    "142400.636000",
    "142402.636000",
    "142404.636000",
    "142406.635000",
    "142408.635000",
    "142410.637000",
    "142412.637000",
    "142414.636000",
    "142416.637000",
    "142418.637000",
    "142420.636000",
    "142422.635000",
    "142424.635000",
    "142426.635000",
    "142428.636000",
    "142430.637000",
    "142432.637000",
    "142434.637000",
    "142436.637000",
    "142438.636000",
    "142440.636000",
    "142442.636000",
    "142444.636000",
    "142446.637000",
    "142448.637000",
    "142450.637000",
    "142452.637000",
    "142454.635000",
    "142456.636000",
    "142458.635000",
    "142500.635000",
    "142502.637000",
    "142504.637000",
    "142506.637000",
    "142508.637000",
    "142510.637000",
    "142512.636000",
    "142514.636000",
    "142516.635000",
    "142518.636000",
    "142520.637000",
    "142522.637000",
    "142524.637000",
    "142526.637000",
    "142528.636000",
    "142530.636000",
    "142532.636000",
    "142534.635000",
    "142536.636000",
    "142538.637000",
    "142540.636000",
    "142542.637000",
    "142544.637000",
    "142546.637000",
    "142548.636000",
    "142550.636000",
    "142552.636000",
    "142554.637000",
    "142556.637000",
    "142558.637000",
    "142600.637000",
    "142602.637000",
    "142604.635000",
    "142606.636000",
    "142608.635000",
    "142610.636000",
    "142612.637000",
    "142614.637000",
    "142616.637000",
    "142618.637000",
    "142620.636000",
    "142622.635000",
    "142624.636000",
    "142626.636000",
    "142628.636000",
    "142630.637000",
    "142632.637000",
    "142634.637000",
    "142636.636000",
    "142638.637000",
    "142640.636000",
    "142642.636000",
    "142644.636000",
    "142646.635000",
    "142648.637000",
    "142650.637000",
    "142652.637000",
    "142654.637000",
    "142656.637000",
    "142658.636000",
    "142700.636000",
    "142702.636000",
    "142704.637000",
    "142706.647000",
    "142708.636000",
    "142710.637000",
    "142712.637000",
    "142714.636000",
    "142716.636000",
    "142718.636000",
    "142720.635000",
    "142722.636000",
    "142724.636000",
    "142726.637000",
    "142728.637000",
    "142730.636000",
    "142732.636000",
    "142734.635000",
    "142736.636000",
    "142738.635000",
    "142740.636000",
    "142742.637000",
    "142744.637000",
    "142746.636000",
    "142748.636000",
    "142750.636000",
    "142752.636000",
    "142754.307000"
   ],
   "InstanceNumber": [
    1,
    2,
    3,
    4,
    5,
    6,
    7,
    8,
    9,
    10,
    11,
    12,
    13,
    14,
    15,
    16,
    17,
    18,
    19,
    20,
    21,
    22,
    23,
    24,
    25,
    26,
    27,
    28,
    29,
    30,
    31,
    32,
    33,
    34,
    35,
    36,
    37,
    38,
    39,
    40,
    41,
    42,
    43,
    44,
    45,
    46,
    47,
    48,
    49,
    50,
    51,
    52,
    53,
    54,
    55,
    56,
    57,
    58,
    59,
    60,
    61,
    62,
    63,
    64,
    65,
    66,
    67,
    68,
    69,
    70,
    71,
    72,
    73,
    74,
    75,
    76,
    77,
    78,
    79,
    80,
    81,
    82,
    83,
    84,
    85,
    86,
    87,
    88,
    89,
    90,
    91,
    92,
    93,
    94,
    95,
    96,
    97,
    98,
    99,
    100,
    101,
    102,
    103,
    104,
    105,
    106,
    107,
    108,
    109,
    110,
    111,
    112,
    113,
    114,
    115,
    116,
    117,
    118,
    119,
    120,
    121,
    122,
    123,
    124,
    125,
    126,
    127,
    128,
    129,
    130,
    131,
    132,
    133,
    134,
    135,
    136,
    137,
    138,
    139,
    140,
    141,
    142,
    143,
    144,
    145,
    146,
    147,
    148,
    149,
    150,
    151,
    152,
    153,
    154,
    155,
    156,
    157,
    158,
    159,
    160,
    161,
    162,
    163,
    164,
    165,
    166,
    167,
    168,
    169,
    170,
    171,
    172,
    173,
    174,
    175,
    176,
    177,
    178,
    179,
    180,
    181,
    182,
    183,
    184,
    185,
    186,
    187,
    188,
    189,
    190,
    191,
    192,
    193,
    194,
    195,
    196,
    197,
    198,
    199,
    200,
    201,
    202,
    203,
    204,
    205,
    206,
    207,
    208,
    209,
    210,
    211,
    212,
    213,
    214,
    215,
    216,
    217,
    218,
    219,
    220,
    221,
    222,
    223,
    224,
    225,
    226,
    227,
    228,
    229,
    230,
    231,
    232,
    233,
    234,
    235,
    236,
    237,
    238,
    239,
    240,
    241,
    242,
    243,
    244,
    245,
    246,
    247,
    248,
    249,
    250,
    251,
    252,
    253,
    254,
    255,
    256
   ],
   "LargestImagePixelValue": [
    3781,
    3675,
    3633,
    3625,
    3618,
    3641,
    3634,
    3602,
    3616,
    3632,
    3624,
    3628,
    3613,
    3617,
    3605,
    3625,
    3609,
    3631,
    3665,
    3631,
    3659,
    3608,
    3622,
    3642,
    3643,
    3644,
    3633,
    3590,
    3623,
    3607,
    3633,
    3640,
    3644,
    3650,
    3623,
    3621,
    3633,
    3635,
    3629,
    3661,
    3646,
    3644,
    3638,
    3645,
    3646,
    3635,
    3633,
    3619,
    3635,
    3615,
    3633,
    3635,
    3628,
    3618,
    3592,
    3603,
    3586,
    3642,
    3623,
    3640,
    3628,
    3634,
    3611,
    3615,
    3603,
    3640,
    3642,
    3624,
    3666,
    3655,
    3628,
    3644,
    3642,
    3643,
    3644,
    3645,
    3665,
    3634,
    3665,
    3642,
    3677,
    3647,
    3644,
    3608,
    3629,
    3609,
    3622,
    3632,
    3575,
    3606,
    3590,
    3588,
    3623,
    3612,
    3608,
    3625,
    3623,
    3656,
    3661,
    3633,
    3641,
    3630,
    3646,
    3626,
    3665,
    3630,
    3646,
    3654,
    3639,
    3637,
    3654,
    3660,
    3631,
    3645,
    3625,
    3654,
    3628,
    3667,
    3660,
    3652,
    3645,
    3660,
    3658,
    3623,
    3663,
    3648,
    3642,
    3633,
    3652,
    3640,
    3819,
    3650,
    3653,
    3665,
    3668,
    3641,
    3671,
    3673,
    3645,
    3635,
    3679,
    3650,
    3667,
    3659,
    3643,
    3625,
    3649,
    3660,
    3633,
    3652,
    3653,
    3662,
    3638,
    3681,
    3651,
    3642,
    3828,
    3642,
    3648,
    3706,
    3665,
    3648,
    3624,
    3658,
    3650,
    3645,
    3626,
    3651,
    3639,
    3615,
    3665,
    3670,
    3647,
    3650,
    3627,
    3674,
    3636,
    3682,
    3636,
    3652,
    3666,
    3657,
    3655,
    3653,
    3649,
    3670,
    3656,
    3633,
    3654,
    3659,
    3661,
    3640,
    3655,
    3646,
    3666,
    3654,
    3639,
    3664,
    3638,
    3672,
    3655,
    3639,
    3653,
    3660,
    3639,
    3661,
    3656,
    3670,
    3653,
    3641,
    3663,
    3656,
    3639,
    3632,
    3653,
    3647,
    3616,
    3612,
    3646,
    3656,
    3655,
    3619,
    3669,
    3669,
    3655,
    3645,
    3650,
    3653,
    3649,
    3643,
    3651,
    3643,
    3649,
    3628,
    3658,
    3658,
    3642,
    3626,
    3612,
    3667,
    3638,
    3636,
    3607,
    3605,
    3615,
    3615,
    3627,
    3634,
    3649,
    3639,
    3614,
    3629,
    3602,
    3625,
    3623,
    3622
   ],
   "WindowCenter": [
    845.0,
    841.0,
    840.0,
    840.0,
    840.0,
    839.0,
    838.0,
    837.0,
    838.0,
    839.0,
    839.0,
    838.0,
    838.0,
    839.0,
    839.0,
    839.0,
    839.0,
    839.0,
    840.0,
    840.0,
    840.0,
    839.0,
    839.0,
    839.0,
    839.0,
    839.0,
    840.0,
    839.0,
    840.0,
    839.0,
    839.0,
    838.0,
    838.0,
    839.0,
    839.0,
    839.0,
    839.0,
    838.0,
    837.0,
    837.0,
    837.0,
    837.0,
    837.0,
    838.0,
    839.0,
    839.0,
    840.0,
    840.0,
    841.0,
    840.0,
    839.0,
    837.0,
    835.0,
    834.0,
    835.0,
    836.0,
    836.0,
    837.0,
    838.0,
    840.0,
    841.0,
    842.0,
    841.0,
    840.0,
    839.0,
    839.0,
    838.0,
    839.0,
    839.0,
    839.0,
    838.0,
    838.0,
    838.0,
    840.0,
    842.0,
    843.0,
    842.0,
    840.0,
    840.0,
    839.0,
    838.0,
    837.0,
    837.0,
    838.0,
    839.0,
    838.0,
    839.0,
    840.0,
    840.0,
    839.0,
    838.0,
    838.0,
    839.0,
    840.0,
    838.0,
    839.0,
    838.0,
    838.0,
    839.0,
    839.0,
    839.0,
    839.0,
    839.0,
    839.0,
    839.0,
    839.0,
    840.0,
    840.0,
    839.0,
    839.0,
    840.0,
    839.0,
    838.0,
    838.0,
    839.0,
    839.0,
    840.0,
    841.0,
    841.0,
    842.0,
    841.0,
    842.0,
    842.0,
    840.0,
    839.0,
    839.0,
    840.0,
    839.0,
