{
 "AcquisitionMatrixPE": 100,
 "AcquisitionNumber": 1,
 "AcquisitionTime": "15:57:50.252500",
 "BandwidthPerPixelPhaseEncode": 18.519,
 "BaseResolution": 100,
 "BodyPartExamined": "BRAIN",
 "ConsistencyInfo": "N4_VE11C_LATEST_20160120",
 "ConversionSoftware": "dcm2niix",
 "ConversionSoftwareVersion": "v1.0.20180622 GCC4.9.2",
 "DerivedVendorReportedEchoSpacing": 0.000539986,
 "DeviceSerialNumber": "166078",
 "DwellTime": 2.1e-06,
 "EchoTime": 0.034,
 "EchoTrainLength": 100,
 "EffectiveEchoSpacing": 0.000539986,
 "FlipAngle": 90,
 "ImageOrientationPatientDICOM": [
  1,
  0,
  0,
  0,
  0.984503,
  -0.175367
 ],
 "ImageType": [
  "ORIGINAL",
  "PRIMARY",
  "M",
  "ND",
  "MOSAIC"
 ],
 "InPlanePhaseEncodingDirectionDICOM": "COL",
 "InstitutionAddress": "Street_StreetNo_Bei_Jing_District_CN_ZIP",
 "InstitutionName": "BeiJing_Normal_University",
 "InstitutionalDepartmentName": "Department",
 "MRAcquisitionType": "2D",
 "MagneticFieldStrength": 3,
 "Manufacturer": "Siemens",
 "ManufacturersModelName": "Prisma",
 "Modality": "MR",
 "MultibandAccelerationFactor": 3,
 "PartialFourier": 1,
 "PatientPosition": "HFS",
 "PercentPhaseFOV": 100,
 "PhaseEncodingDirection": "j-",
 "PhaseEncodingSteps": 100,
 "PhaseResolution": 1,
 "PixelBandwidth": 2380,
 "ProcedureStepDescription": "BNU_P2018_64CH_Zhen.ZongLei",
 "ProtocolName": "bold_100x100_s3_2x2x2_static_256",
 "PulseSequenceDetails": "%SiemensSeq%_ep2d_bold",
 "ReceiveCoilActiveElements": "HC1-7;NC1",
 "ReceiveCoilName": "HeadNeck_64",
 "ReconMatrixPE": 100,
 "RepetitionTime": 2,
 "SAR": 0.0827032,
 "ScanOptions": "FS",
 "ScanningSequence": "EP",
 "SequenceName": "_epfid2d1_100",
 "SequenceVariant": "SK",
 "SeriesDescription": "bold_100x100_s3_2x2x2_static_256",
 "SeriesNumber": 6,
 "ShimSetting": [
  -5460,
  -11523,
  -1298,
  523,
  -63,
  -248,
  32,
  27
 ],
 "SliceThickness": 2,
 "SliceTiming": [
  1.485,
  0,
  0.99,
  0.0825,
  1.0725,
  0.165,
  1.155,
  0.2475,
  1.2375,
  0.33,
  1.32,
  0.4125,
  1.4025,
  0.5775,
  1.5675,
  0.66,
  1.65,
  0.7425,
  1.7325,
  0.825,
  1.815,
  0.9075,
  1.8975,
  0.495,
  1.485,
  0,
  0.99,
  0.0825,
  1.0725,
  0.165,
  1.155,
  0.2475,
  1.2375,
  0.33,
  1.32,
  0.4125,
  1.4025,
  0.5775,
  1.5675,
  0.66,
  1.65,
  0.7425,
  1.7325,
  0.825,
  1.815,
  0.9075,
  1.8975,
  0.495,
  1.485,
  0,
  0.99,
  0.0825,
  1.0725,
  0.165,
  1.155,
  0.2475,
  1.2375,
  0.33,
  1.32,
  0.4125,
  1.4025,
  0.5775,
  1.5675,
  0.66,
  1.65,
  0.7425,
  1.7325,
  0.825,
  1.815,
  0.9075,
  1.8975,
  0.495
 ],
 "SoftwareVersions": "syngo_MR_E11",
 "SpacingBetweenSlices": 2,
 "StationName": "AWP166078",
 "TaskName": "imagenet",
 "TotalReadoutTime": 0.0534586,
 "TxRefAmp": 233.216,
 "dcmmeta_affine": [
  [
   -2.0,
   0.0,
   0.0,
   100.0
  ],
  [
   0.0,
   1.9690064191818237,
   -0.3507334589958191,
   -79.95763397216797
  ],
  [
   0.0,
   0.3507334589958191,
   1.9690064191818237,
   -94.60140228271484
  ],
  [
   0.0,
   0.0,
   0.0,
   1.0
  ]
 ],
 "dcmmeta_reorient_transform": [
  [
   0.0,
   -1.0,
   0.0,
   99.0
  ],
  [
   1.0,
   0.0,
   0.0,
   0.0
  ],
  [
   0.0,
   0.0,
   1.0,
   0.0
  ],
  [
   0.0,
   0.0,
   0.0,
   1.0
  ]
 ],
 "dcmmeta_shape": [
  100,
  100,
  72,
  256
 ],
 "dcmmeta_slice_dim": 2,
 "dcmmeta_version": 0.6,
 "global": {
  "const": {
   "AcquisitionMatrix": [
    100,
    0,
    0,
    100
   ],
   "AngioFlag": "N",
   "BitsAllocated": 16,
   "BitsStored": 12,
   "BodyPartExamined": "BRAIN",
   "Columns": 900,
   "EchoNumbers": 1,
   "EchoTime": 34.0,
   "EchoTrainLength": 100,
   "FlipAngle": 90.0,
   "HighBit": 11,
   "ImageOrientationPatient": [
    1.0,
    0.0,
    0.0,
    0.0,
    0.98450318022485,
    -0.1753667246862
   ],
   "ImagePositionPatient": [
    -900.0,
    -902.57653812094,
    80.414585908977
   ],
   "ImageType": [
    "ORIGINAL",
    "PRIMARY",
    "M",
    "ND",
    "MOSAIC"
   ],
   "ImagedNucleus": "1H",
   "ImagingFrequency": 123.257731,
   "InPlanePhaseEncodingDirection": "COL",
   "MRAcquisitionType": "2D",
   "MagneticFieldStrength": 3.0,
   "Manufacturer": "SIEMENS",
   "ManufacturerModelName": "Prisma",
   "Modality": "MR",
   "NumberOfAverages": 1.0,
   "NumberOfPhaseEncodingSteps": 100,
   "PercentPhaseFieldOfView": 100.0,
   "PercentSampling": 100.0,
   "PerformedProcedureStepStartTime": "151825.186000",
   "PhotometricInterpretation": "MONOCHROME2",
   "PixelBandwidth": 2380.0,
   "PixelRepresentation": 0,
   "PixelSpacing": [
    2.0,
    2.0
   ],
   "ProtocolName": "bold_100x100_s3_2x2x2_static_256",
   "RepetitionTime": 2000.0,
   "Rows": 900,
   "SAR": 0.08270318131158,
   "SamplesPerPixel": 1,
   "ScanOptions": "FS",
   "ScanningSequence": "EP",
   "SequenceName": "*epfid2d1_100",
   "SequenceVariant": "SK",
   "SeriesDescription": "bold_100x100_s3_2x2x2_static_256",
   "SeriesNumber": 6,
   "SeriesTime": "155753.300000",
   "SliceLocation": -79.113475705017,
   "SliceThickness": 2.0,
   "SmallestImagePixelValue": 0,
   "SoftwareVersions": "syngo MR E11",
   "SpacingBetweenSlices": 2.0000000271395,
   "SpecificCharacterSet": "ISO_IR 100",
   "StudyID": "1",
   "StudyTime": "151825.122000",
   "TransmitCoilName": "Body",
   "VariableFlipAngleFlag": "N",
   "WindowCenterWidthExplanation": "Algo1",
   "dBdt": 0.0
  },
  "slices": {}
 },
 "time": {
  "samples": {
   "AcquisitionNumber": [
    1,
    2,
    3,
    4,
    5,
    6,
    7,
    8,
    9,
    10,
    11,
    12,
    13,
    14,
    15,
    16,
    17,
    18,
    19,
    20,
    21,
    22,
    23,
    24,
    25,
    26,
    27,
    28,
    29,
    30,
    31,
    32,
    33,
    34,
    35,
    36,
    37,
    38,
    39,
    40,
    41,
    42,
    43,
    44,
    45,
    46,
    47,
    48,
    49,
    50,
    51,
    52,
    53,
    54,
    55,
    56,
    57,
    58,
    59,
    60,
    61,
    62,
    63,
    64,
    65,
    66,
    67,
    68,
    69,
    70,
    71,
    72,
    73,
    74,
    75,
    76,
    77,
    78,
    79,
    80,
    81,
    82,
    83,
    84,
    85,
    86,
    87,
    88,
    89,
    90,
    91,
    92,
    93,
    94,
    95,
    96,
    97,
    98,
    99,
    100,
    101,
    102,
    103,
    104,
    105,
    106,
    107,
    108,
    109,
    110,
    111,
    112,
    113,
    114,
    115,
    116,
    117,
    118,
    119,
    120,
    121,
    122,
    123,
    124,
    125,
    126,
    127,
    128,
    129,
    130,
    131,
    132,
    133,
    134,
    135,
    136,
    137,
    138,
    139,
    140,
    141,
    142,
    143,
    144,
    145,
    146,
    147,
    148,
    149,
    150,
    151,
    152,
    153,
    154,
    155,
    156,
    157,
    158,
    159,
    160,
    161,
    162,
    163,
    164,
    165,
    166,
    167,
    168,
    169,
    170,
    171,
    172,
    173,
    174,
    175,
    176,
    177,
    178,
    179,
    180,
    181,
    182,
    183,
    184,
    185,
    186,
    187,
    188,
    189,
    190,
    191,
    192,
    193,
    194,
    195,
    196,
    197,
    198,
    199,
    200,
    201,
    202,
    203,
    204,
    205,
    206,
    207,
    208,
    209,
    210,
    211,
    212,
    213,
    214,
    215,
    216,
    217,
    218,
    219,
    220,
    221,
    222,
    223,
    224,
    225,
    226,
    227,
    228,
    229,
    230,
    231,
    232,
    233,
    234,
    235,
    236,
    237,
    238,
    239,
    240,
    241,
    242,
    243,
    244,
    245,
    246,
    247,
    248,
    249,
    250,
    251,
    252,
    253,
    254,
    255,
    256
   ],
   "AcquisitionTime": [
    "155750.252500",
    "155752.252500",
    "155754.252500",
    "155756.252500",
    "155758.252500",
    "155800.252500",
    "155802.252500",
    "155804.252500",
    "155806.252500",
    "155808.252500",
    "155810.252500",
    "155812.252500",
    "155814.252500",
    "155816.252500",
    "155818.252500",
    "155820.252500",
    "155822.252500",
    "155824.252500",
    "155826.252500",
    "155828.252500",
    "155830.252500",
    "155832.252500",
    "155834.252500",
    "155836.252500",
    "155838.252500",
    "155840.252500",
    "155842.252500",
    "155844.252500",
    "155846.252500",
    "155848.252500",
    "155850.252500",
    "155852.252500",
    "155854.252500",
    "155856.252500",
    "155858.252500",
    "155900.252500",
    "155902.252500",
    "155904.252500",
    "155906.252500",
    "155908.252500",
    "155910.252500",
    "155912.252500",
    "155914.252500",
    "155916.252500",
    "155918.252500",
    "155920.252500",
    "155922.252500",
    "155924.252500",
    "155926.252500",
    "155928.252500",
    "155930.252500",
    "155932.252500",
    "155934.252500",
    "155936.252500",
    "155938.252500",
    "155940.252500",
    "155942.252500",
    "155944.252500",
    "155946.252500",
    "155948.252500",
    "155950.252500",
    "155952.252500",
    "155954.252500",
    "155956.252500",
    "155958.252500",
    "160000.252500",
    "160002.252500",
    "160004.252500",
    "160006.252500",
    "160008.252500",
    "160010.252500",
    "160012.252500",
    "160014.252500",
    "160016.252500",
    "160018.252500",
    "160020.252500",
    "160022.252500",
    "160024.252500",
    "160026.252500",
    "160028.252500",
    "160030.252500",
    "160032.252500",
    "160034.252500",
    "160036.252500",
    "160038.252500",
    "160040.252500",
    "160042.252500",
    "160044.252500",
    "160046.252500",
    "160048.252500",
    "160050.252500",
    "160052.252500",
    "160054.252500",
    "160056.252500",
    "160058.252500",
    "160100.252500",
    "160102.252500",
    "160104.252500",
    "160106.252500",
    "160108.252500",
    "160110.252500",
    "160112.252500",
    "160114.252500",
    "160116.252500",
    "160118.252500",
    "160120.252500",
    "160122.252500",
    "160124.252500",
    "160126.252500",
    "160128.252500",
    "160130.252500",
    "160132.252500",
    "160134.252500",
    "160136.252500",
    "160138.252500",
    "160140.252500",
    "160142.252500",
    "160144.252500",
    "160146.252500",
    "160148.252500",
    "160150.252500",
    "160152.252500",
    "160154.252500",
    "160156.252500",
    "160158.252500",
    "160200.252500",
    "160202.252500",
    "160204.252500",
    "160206.252500",
    "160208.252500",
    "160210.252500",
    "160212.252500",
    "160214.252500",
    "160216.252500",
    "160218.252500",
    "160220.252500",
    "160222.252500",
    "160224.252500",
    "160226.252500",
    "160228.252500",
    "160230.252500",
    "160232.252500",
    "160234.252500",
    "160236.252500",
    "160238.252500",
    "160240.252500",
    "160242.252500",
    "160244.252500",
    "160246.252500",
    "160248.252500",
    "160250.252500",
    "160252.252500",
    "160254.252500",
    "160256.252500",
    "160258.252500",
    "160300.252500",
    "160302.252500",
    "160304.252500",
    "160306.252500",
    "160308.252500",
    "160310.252500",
    "160312.252500",
    "160314.252500",
    "160316.252500",
    "160318.252500",
    "160320.252500",
    "160322.252500",
    "160324.252500",
    "160326.252500",
    "160328.252500",
    "160330.252500",
    "160332.252500",
    "160334.252500",
    "160336.252500",
    "160338.252500",
    "160340.252500",
    "160342.252500",
    "160344.252500",
    "160346.252500",
    "160348.252500",
    "160350.252500",
    "160352.252500",
    "160354.252500",
    "160356.252500",
    "160358.252500",
    "160400.252500",
    "160402.252500",
    "160404.252500",
    "160406.252500",
    "160408.252500",
    "160410.252500",
    "160412.252500",
    "160414.252500",
    "160416.252500",
    "160418.252500",
    "160420.252500",
    "160422.252500",
    "160424.252500",
    "160426.252500",
    "160428.252500",
    "160430.252500",
    "160432.252500",
    "160434.252500",
    "160436.252500",
    "160438.252500",
    "160440.252500",
    "160442.252500",
    "160444.252500",
    "160446.252500",
    "160448.252500",
    "160450.252500",
    "160452.252500",
    "160454.252500",
    "160456.252500",
    "160458.252500",
    "160500.252500",
    "160502.252500",
    "160504.252500",
    "160506.252500",
    "160508.252500",
    "160510.252500",
    "160512.252500",
    "160514.252500",
    "160516.252500",
    "160518.252500",
    "160520.252500",
    "160522.252500",
    "160524.252500",
    "160526.252500",
    "160528.252500",
    "160530.252500",
    "160532.252500",
    "160534.252500",
    "160536.252500",
    "160538.252500",
    "160540.252500",
    "160542.252500",
    "160544.252500",
    "160546.252500",
    "160548.252500",
    "160550.252500",
    "160552.252500",
    "160554.252500",
    "160556.252500",
    "160558.252500",
    "160600.252500",
    "160602.252500",
    "160604.252500",
    "160606.252500",
    "160608.252500",
    "160610.252500",
    "160612.252500",
    "160614.252500",
    "160616.252500",
    "160618.252500",
    "160620.252500"
   ],
   "ContentTime": [
    "155753.303000",
    "155754.799000",
    "155756.798000",
    "155758.798000",
    "155800.798000",
    "155802.799000",
    "155804.799000",
    "155806.798000",
    "155808.798000",
    "155810.798000",
    "155812.799000",
    "155814.799000",
    "155816.798000",
    "155818.799000",
    "155820.798000",
    "155822.798000",
    "155824.798000",
    "155826.798000",
    "155828.799000",
    "155830.797000",
    "155832.799000",
    "155834.799000",
    "155836.799000",
    "155838.798000",
    "155840.798000",
    "155842.799000",
    "155844.799000",
    "155846.798000",
    "155848.797000",
    "155850.799000",
    "155852.798000",
    "155854.798000",
    "155856.799000",
    "155858.798000",
    "155900.798000",
    "155902.799000",
    "155904.799000",
    "155906.798000",
    "155908.799000",
    "155910.799000",
    "155912.799000",
    "155914.799000",
    "155916.798000",
    "155918.798000",
    "155920.798000",
    "155922.798000",
    "155924.799000",
    "155926.798000",
    "155928.798000",
    "155930.799000",
    "155932.799000",
    "155934.798000",
    "155936.799000",
    "155938.798000",
    "155940.798000",
    "155942.798000",
    "155944.798000",
    "155946.799000",
    "155948.799000",
    "155950.799000",
    "155952.799000",
    "155954.798000",
    "155956.799000",
    "155958.798000",
    "160000.799000",
    "160002.798000",
    "160004.799000",
    "160006.799000",
    "160008.798000",
    "160010.799000",
    "160012.799000",
    "160014.798000",
    "160016.798000",
    "160018.799000",
    "160020.799000",
    "160022.799000",
    "160024.799000",
    "160026.798000",
    "160028.799000",
    "160030.798000",
    "160032.798000",
    "160034.798000",
    "160036.798000",
    "160038.798000",
    "160040.799000",
    "160042.799000",
    "160044.799000",
    "160046.798000",
    "160048.799000",
    "160050.797000",
    "160052.798000",
    "160054.798000",
    "160056.798000",
    "160058.798000",
    "160100.798000",
    "160102.798000",
    "160104.798000",
    "160106.798000",
    "160108.798000",
    "160110.799000",
    "160112.798000",
    "160114.799000",
    "160116.799000",
    "160118.798000",
    "160120.798000",
    "160122.799000",
    "160124.799000",
    "160126.798000",
    "160128.799000",
    "160130.799000",
    "160132.799000",
    "160134.799000",
    "160136.799000",
    "160138.799000",
    "160140.799000",
    "160142.798000",
    "160144.799000",
    "160146.798000",
    "160148.799000",
    "160150.798000",
    "160152.798000",
    "160154.798000",
    "160156.799000",
    "160158.798000",
    "160200.797000",
    "160202.798000",
    "160204.799000",
    "160206.799000",
    "160208.799000",
    "160210.799000",
    "160212.799000",
    "160214.798000",
    "160216.799000",
    "160218.797000",
    "160220.798000",
    "160222.798000",
    "160224.798000",
    "160226.798000",
    "160228.798000",
    "160230.798000",
    "160232.798000",
    "160234.798000",
    "160236.799000",
    "160238.799000",
    "160240.799000",
    "160242.798000",
    "160244.799000",
    "160246.798000",
    "160248.799000",
    "160250.799000",
    "160252.799000",
    "160254.799000",
    "160256.799000",
    "160258.798000",
    "160300.799000",
    "160302.799000",
    "160304.799000",
    "160306.799000",
    "160308.798000",
    "160310.797000",
    "160312.799000",
    "160314.799000",
    "160316.799000",
    "160318.799000",
    "160320.799000",
    "160322.799000",
    "160324.799000",
    "160326.799000",
    "160328.797000",
    "160330.799000",
    "160332.799000",
    "160334.799000",
    "160336.798000",
    "160338.799000",
    "160340.799000",
    "160342.799000",
    "160344.807000",
    "160346.799000",
    "160348.799000",
    "160350.799000",
    "160352.799000",
    "160354.798000",
    "160356.798000",
    "160358.798000",
    "160400.799000",
    "160402.799000",
    "160404.799000",
    "160406.798000",
    "160408.799000",
    "160410.799000",
    "160412.799000",
    "160414.798000",
    "160416.798000",
    "160418.798000",
    "160420.798000",
    "160422.799000",
    "160424.798000",
    "160426.799000",
    "160428.799000",
    "160430.799000",
    "160432.799000",
    "160434.799000",
    "160436.799000",
    "160438.798000",
    "160440.798000",
    "160442.798000",
    "160444.799000",
    "160446.799000",
    "160448.799000",
    "160450.799000",
    "160452.799000",
    "160454.799000",
    "160456.798000",
    "160458.799000",
    "160500.799000",
    "160502.799000",
    "160504.799000",
    "160506.799000",
    "160508.798000",
    "160510.799000",
    "160512.798000",
    "160514.799000",
    "160516.799000",
    "160518.799000",
    "160520.798000",
    "160522.799000",
    "160524.798000",
    "160526.799000",
    "160528.799000",
    "160530.797000",
    "160532.798000",
    "160534.799000",
    "160536.798000",
    "160538.798000",
    "160540.798000",
    "160542.799000",
    "160544.799000",
    "160546.798000",
    "160548.798000",
    "160550.799000",
    "160552.799000",
    "160554.799000",
    "160556.799000",
    "160558.799000",
    "160600.799000",
    "160602.799000",
    "160604.799000",
    "160606.799000",
    "160608.799000",
    "160610.799000",
    "160612.798000",
    "160614.799000",
    "160616.799000",
    "160618.799000",
    "160620.799000",
    "160622.540000"
   ],
   "InstanceCreationTime": [
    "155753.303000",
    "155754.799000",
    "155756.798000",
    "155758.798000",
    "155800.798000",
    "155802.799000",
    "155804.799000",
    "155806.798000",
    "155808.798000",
    "155810.798000",
    "155812.799000",
    "155814.799000",
    "155816.798000",
    "155818.799000",
    "155820.798000",
    "155822.798000",
    "155824.798000",
    "155826.798000",
    "155828.799000",
    "155830.797000",
    "155832.799000",
    "155834.799000",
    "155836.799000",
    "155838.798000",
    "155840.798000",
    "155842.799000",
    "155844.799000",
    "155846.798000",
    "155848.797000",
    "155850.799000",
    "155852.798000",
    "155854.798000",
    "155856.799000",
    "155858.798000",
    "155900.798000",
    "155902.799000",
    "155904.799000",
    "155906.798000",
    "155908.799000",
    "155910.799000",
    "155912.799000",
    "155914.799000",
    "155916.798000",
    "155918.798000",
    "155920.798000",
    "155922.798000",
    "155924.799000",
    "155926.798000",
    "155928.798000",
    "155930.799000",
    "155932.799000",
    "155934.798000",
    "155936.799000",
    "155938.798000",
    "155940.798000",
    "155942.798000",
    "155944.798000",
    "155946.799000",
    "155948.799000",
    "155950.799000",
    "155952.799000",
    "155954.798000",
    "155956.799000",
    "155958.798000",
    "160000.799000",
    "160002.798000",
    "160004.799000",
    "160006.799000",
    "160008.798000",
    "160010.799000",
    "160012.799000",
    "160014.798000",
    "160016.798000",
    "160018.799000",
    "160020.799000",
    "160022.799000",
    "160024.799000",
    "160026.798000",
    "160028.799000",
    "160030.798000",
    "160032.798000",
    "160034.798000",
    "160036.798000",
    "160038.798000",
    "160040.799000",
    "160042.799000",
    "160044.799000",
    "160046.798000",
    "160048.799000",
    "160050.797000",
    "160052.798000",
    "160054.798000",
    "160056.798000",
    "160058.798000",
    "160100.798000",
    "160102.798000",
    "160104.798000",
    "160106.798000",
    "160108.798000",
    "160110.799000",
    "160112.798000",
    "160114.799000",
    "160116.799000",
    "160118.798000",
    "160120.798000",
    "160122.799000",
    "160124.799000",
    "160126.798000",
    "160128.799000",
    "160130.799000",
    "160132.799000",
    "160134.799000",
    "160136.799000",
    "160138.799000",
    "160140.799000",
    "160142.798000",
    "160144.799000",
    "160146.798000",
    "160148.799000",
    "160150.798000",
    "160152.798000",
    "160154.798000",
    "160156.799000",
    "160158.798000",
    "160200.797000",
    "160202.798000",
    "160204.799000",
    "160206.799000",
    "160208.799000",
    "160210.799000",
    "160212.799000",
    "160214.798000",
    "160216.799000",
    "160218.797000",
    "160220.798000",
    "160222.798000",
    "160224.798000",
    "160226.798000",
    "160228.798000",
    "160230.798000",
    "160232.798000",
    "160234.798000",
    "160236.799000",
    "160238.799000",
    "160240.799000",
    "160242.798000",
    "160244.799000",
    "160246.798000",
    "160248.799000",
    "160250.799000",
    "160252.799000",
    "160254.799000",
    "160256.799000",
    "160258.798000",
    "160300.799000",
    "160302.799000",
    "160304.799000",
    "160306.799000",
    "160308.798000",
    "160310.797000",
    "160312.799000",
    "160314.799000",
    "160316.799000",
    "160318.799000",
    "160320.799000",
    "160322.799000",
    "160324.799000",
    "160326.799000",
    "160328.797000",
    "160330.799000",
    "160332.799000",
    "160334.799000",
    "160336.798000",
    "160338.799000",
    "160340.799000",
    "160342.799000",
    "160344.807000",
    "160346.799000",
    "160348.799000",
    "160350.799000",
    "160352.799000",
    "160354.798000",
    "160356.798000",
    "160358.798000",
    "160400.799000",
    "160402.799000",
    "160404.799000",
    "160406.798000",
    "160408.799000",
    "160410.799000",
    "160412.799000",
    "160414.798000",
    "160416.798000",
    "160418.798000",
    "160420.798000",
    "160422.799000",
    "160424.798000",
    "160426.799000",
    "160428.799000",
    "160430.799000",
    "160432.799000",
    "160434.799000",
    "160436.799000",
    "160438.798000",
    "160440.798000",
    "160442.798000",
    "160444.799000",
    "160446.799000",
    "160448.799000",
    "160450.799000",
    "160452.799000",
    "160454.799000",
    "160456.798000",
    "160458.799000",
    "160500.799000",
    "160502.799000",
    "160504.799000",
    "160506.799000",
    "160508.798000",
    "160510.799000",
    "160512.798000",
    "160514.799000",
    "160516.799000",
    "160518.799000",
    "160520.798000",
    "160522.799000",
    "160524.798000",
    "160526.799000",
    "160528.799000",
    "160530.797000",
    "160532.798000",
    "160534.799000",
    "160536.798000",
    "160538.798000",
    "160540.798000",
    "160542.799000",
    "160544.799000",
    "160546.798000",
    "160548.798000",
    "160550.799000",
    "160552.799000",
    "160554.799000",
    "160556.799000",
    "160558.799000",
    "160600.799000",
    "160602.799000",
    "160604.799000",
    "160606.799000",
    "160608.799000",
    "160610.799000",
    "160612.798000",
    "160614.799000",
    "160616.799000",
    "160618.799000",
    "160620.799000",
    "160622.540000"
   ],
   "InstanceNumber": [
    1,
    2,
    3,
    4,
    5,
    6,
    7,
    8,
    9,
    10,
    11,
    12,
    13,
    14,
    15,
    16,
    17,
    18,
    19,
    20,
    21,
    22,
    23,
    24,
    25,
    26,
    27,
    28,
    29,
    30,
    31,
    32,
    33,
    34,
    35,
    36,
    37,
    38,
    39,
    40,
    41,
    42,
    43,
    44,
    45,
    46,
    47,
    48,
    49,
    50,
    51,
    52,
    53,
    54,
    55,
    56,
    57,
    58,
    59,
    60,
    61,
    62,
    63,
    64,
    65,
    66,
    67,
    68,
    69,
    70,
    71,
    72,
    73,
    74,
    75,
    76,
    77,
    78,
    79,
    80,
    81,
    82,
    83,
    84,
    85,
    86,
    87,
    88,
    89,
    90,
    91,
    92,
    93,
    94,
    95,
    96,
    97,
    98,
    99,
    100,
    101,
    102,
    103,
    104,
    105,
    106,
    107,
    108,
    109,
    110,
    111,
    112,
    113,
    114,
    115,
    116,
    117,
    118,
    119,
    120,
    121,
    122,
    123,
    124,
    125,
    126,
    127,
    128,
    129,
    130,
    131,
    132,
    133,
    134,
    135,
    136,
    137,
    138,
    139,
    140,
    141,
    142,
    143,
    144,
    145,
    146,
    147,
    148,
    149,
    150,
    151,
    152,
    153,
    154,
    155,
    156,
    157,
    158,
    159,
    160,
    161,
    162,
    163,
    164,
    165,
    166,
    167,
    168,
    169,
    170,
    171,
    172,
    173,
    174,
    175,
    176,
    177,
    178,
    179,
    180,
    181,
    182,
    183,
    184,
    185,
    186,
    187,
    188,
    189,
    190,
    191,
    192,
    193,
    194,
    195,
    196,
    197,
    198,
    199,
    200,
    201,
    202,
    203,
    204,
    205,
    206,
    207,
    208,
    209,
    210,
    211,
    212,
    213,
    214,
    215,
    216,
    217,
    218,
    219,
    220,
    221,
    222,
    223,
    224,
    225,
    226,
    227,
    228,
    229,
    230,
    231,
    232,
    233,
    234,
    235,
    236,
    237,
    238,
    239,
    240,
    241,
    242,
    243,
    244,
    245,
    246,
    247,
    248,
    249,
    250,
    251,
    252,
    253,
    254,
    255,
    256
   ],
   "LargestImagePixelValue": [
    2747,
    2676,
    2661,
    2634,
    2644,
    2632,
    2643,
    2630,
    2660,
    2662,
    2657,
    2676,
    2674,
    2704,
    2704,
    2647,
    2668,
    2681,
    2660,
    2699,
    2638,
    2666,
    2670,
    2642,
    2669,
    2702,
    2675,
    2695,
    2588,
    2621,
    2608,
    2654,
    2617,
    2614,
    2642,
    2619,
    2642,
    2652,
    2649,
    2680,
    2675,
    2655,
    2642,
    2680,
    2685,
    2642,
    2634,
    2643,
    2636,
    2631,
    2670,
    2651,
    2677,
    2669,
    2639,
    2682,
    2713,
    2674,
    2646,
    2663,
    2629,
    2672,
    2625,
    2666,
    2685,
    2667,
    2676,
    2661,
    2639,
    2678,
    2647,
    2686,
    2650,
    2683,
    2684,
    2662,
    2635,
    2655,
    2628,
    2618,
    2614,
    2666,
    2653,
    2656,
    2680,
    2670,
    2693,
    2665,
    2642,
    2600,
    2678,
    2657,
    2655,
    2684,
    2635,
    2666,
    2628,
    2669,
    2676,
    2642,
    2670,
    2673,
    2636,
    2675,
    2657,
    2638,
    2599,
    2607,
    2628,
    2639,
    2635,
    2646,
    2625,
    2704,
    2639,
    2620,
    2633,
    2627,
    2634,
    2621,
    2656,
    2633,
    2637,
    2651,
    2638,
    2664,
    2630,
    2663,
    2657,
    2649,
    2633,
    2655,
    2643,
    2655,
    2680,
    2642,
    2676,
    2642,
    2658,
    2648,
    2634,
    2677,
    2649,
    2618,
    2659,
    2671,
    2639,
    2648,
    2640,
    2621,
    2620,
    2578,
    2670,
    2640,
    2682,
    2668,
    2655,
    2669,
    2628,
    2653,
    2638,
    2627,
    2672,
    2622,
    2634,
    2633,
    2644,
    2662,
    2651,
    2658,
    2654,
    2667,
    2656,
    2627,
    2602,
    2669,
    2675,
    2636,
    2613,
    2656,
    2648,
    2655,
    2614,
    2634,
    2606,
    2628,
    2643,
    2652,
    2636,
    2627,
    2619,
    2584,
    2639,
    2591,
    2607,
    2617,
    2605,
    2600,
    2620,
    2601,
    2632,
    2597,
    2606,
    2633,
    2599,
    2629,
    2654,
    2601,
    2646,
    2618,
    2614,
    2624,
    2573,
    2630,
    2644,
    2628,
    2663,
    2641,
    2623,
    2606,
    2627,
    2645,
    2607,
    2612,
    2632,
    2595,
    2629,
    2608,
    2614,
    2610,
    2632,
    2620,
    2642,
    2603,
    2635,
    2599,
    2608,
    2627,
    2577,
    2639,
    2629,
    2620,
    2618,
    2616,
    2636,
    2637,
    2604,
    2613,
    2620,
    2634,
    2649,
    2592,
    2647,
    2613,
    2628,
    2635
   ],
   "WindowCenter": [
    729.0,
    726.0,
    726.0,
    724.0,
    727.0,
    727.0,
    726.0,
    724.0,
    725.0,
    726.0,
    727.0,
    728.0,
    728.0,
    727.0,
    727.0,
    727.0,
    726.0,
    727.0,
    727.0,
    728.0,
    727.0,
    727.0,
    726.0,
    727.0,
    729.0,
    730.0,
    729.0,
    728.0,
    727.0,
    727.0,
    726.0,
    726.0,
    725.0,
    725.0,
    726.0,
    727.0,
    727.0,
    728.0,
    728.0,
    729.0,
    728.0,
    728.0,
    728.0,
    729.0,
    729.0,
    729.0,
    729.0,
    729.0,
    729.0,
    730.0,
    730.0,
    729.0,
    729.0,
    728.0,
    727.0,
    729.0,
    731.0,
    731.0,
    731.0,
    731.0,
    730.0,
    730.0,
    731.0,
    731.0,
    731.0,
    729.0,
    729.0,
    729.0,
    728.0,
    729.0,
    730.0,
    732.0,
    731.0,
    730.0,
    730.0,
    730.0,
    730.0,
    730.0,
    727.0,
    729.0,
    730.0,
    730.0,
    729.0,
    730.0,
    731.0,
    730.0,
    730.0,
    728.0,
    728.0,
    729.0,
    731.0,
    731.0,
    730.0,
    730.0,
    731.0,
    732.0,
    732.0,
    732.0,
    731.0,
    730.0,
    730.0,
    730.0,
    730.0,
    731.0,
    731.0,
    730.0,
    731.0,
    732.0,
    732.0,
    732.0,
    732.0,
    733.0,
    732.0,
    732.0,
    730.0,
    730.0,
    730.0,
    730.0,
    731.0,
    732.0,
    732.0,
    731.0,
    731.0,
    732.0,
    732.0,
    732.0,
    731.0,
