{
 "AcquisitionMatrixPE": 100,
 "AcquisitionNumber": 1,
 "AcquisitionTime": "15:36:6.750000",
 "BandwidthPerPixelPhaseEncode": 18.519,
 "BaseResolution": 100,
 "BodyPartExamined": "BRAIN",
 "ConsistencyInfo": "N4_VE11C_LATEST_20160120",
 "ConversionSoftware": "dcm2niix",
 "ConversionSoftwareVersion": "v1.0.20180622 GCC4.9.2",
 "DerivedVendorReportedEchoSpacing": 0.000539986,
 "DeviceSerialNumber": "166078",
 "DwellTime": 2.1e-06,
 "EchoTime": 0.034,
 "EchoTrainLength": 100,
 "EffectiveEchoSpacing": 0.000539986,
 "FlipAngle": 90,
 "ImageOrientationPatientDICOM": [
  1,
  0,
  0,
  0,
  0.984503,
  -0.175367
 ],
 "ImageType": [
  "ORIGINAL",
  "PRIMARY",
  "M",
  "ND",
  "MOSAIC"
 ],
 "InPlanePhaseEncodingDirectionDICOM": "COL",
 "InstitutionAddress": "Street_StreetNo_Bei_Jing_District_CN_ZIP",
 "InstitutionName": "BeiJing_Normal_University",
 "InstitutionalDepartmentName": "Department",
 "MRAcquisitionType": "2D",
 "MagneticFieldStrength": 3,
 "Manufacturer": "Siemens",
 "ManufacturersModelName": "Prisma",
 "Modality": "MR",
 "MultibandAccelerationFactor": 3,
 "PartialFourier": 1,
 "PatientPosition": "HFS",
 "PercentPhaseFOV": 100,
 "PhaseEncodingDirection": "j-",
 "PhaseEncodingSteps": 100,
 "PhaseResolution": 1,
 "PixelBandwidth": 2380,
 "ProcedureStepDescription": "BNU_P2018_64CH_Zhen.ZongLei",
 "ProtocolName": "bold_100x100_s3_2x2x2_static_256",
 "PulseSequenceDetails": "%SiemensSeq%_ep2d_bold",
 "ReceiveCoilActiveElements": "HC1-7;NC1",
 "ReceiveCoilName": "HeadNeck_64",
 "ReconMatrixPE": 100,
 "RepetitionTime": 2,
 "SAR": 0.0827032,
 "ScanOptions": "FS",
 "ScanningSequence": "EP",
 "SequenceName": "_epfid2d1_100",
 "SequenceVariant": "SK",
 "SeriesDescription": "bold_100x100_s3_2x2x2_static_256",
 "SeriesNumber": 4,
 "ShimSetting": [
  -5460,
  -11523,
  -1298,
  523,
  -63,
  -248,
  32,
  27
 ],
 "SliceThickness": 2,
 "SliceTiming": [
  1.485,
  0,
  0.99,
  0.0825,
  1.0725,
  0.165,
  1.155,
  0.2475,
  1.2375,
  0.33,
  1.32,
  0.4125,
  1.4025,
  0.5775,
  1.5675,
  0.66,
  1.65,
  0.7425,
  1.7325,
  0.825,
  1.815,
  0.9075,
  1.8975,
  0.495,
  1.485,
  0,
  0.99,
  0.0825,
  1.0725,
  0.165,
  1.155,
  0.2475,
  1.2375,
  0.33,
  1.32,
  0.4125,
  1.4025,
  0.5775,
  1.5675,
  0.66,
  1.65,
  0.7425,
  1.7325,
  0.825,
  1.815,
  0.9075,
  1.8975,
  0.495,
  1.485,
  0,
  0.99,
  0.0825,
  1.0725,
  0.165,
  1.155,
  0.2475,
  1.2375,
  0.33,
  1.32,
  0.4125,
  1.4025,
  0.5775,
  1.5675,
  0.66,
  1.65,
  0.7425,
  1.7325,
  0.825,
  1.815,
  0.9075,
  1.8975,
  0.495
 ],
 "SoftwareVersions": "syngo_MR_E11",
 "SpacingBetweenSlices": 2,
 "StationName": "AWP166078",
 "TaskName": "imagenet",
 "TotalReadoutTime": 0.0534586,
 "TxRefAmp": 233.216,
 "dcmmeta_affine": [
  [
   -2.0,
   0.0,
   0.0,
   100.0
  ],
  [
   0.0,
   1.9690064191818237,
   -0.3507334589958191,
   -79.95763397216797
  ],
  [
   0.0,
   0.3507334589958191,
   1.9690064191818237,
   -94.60140228271484
  ],
  [
   0.0,
   0.0,
   0.0,
   1.0
  ]
 ],
 "dcmmeta_reorient_transform": [
  [
   0.0,
   -1.0,
   0.0,
   99.0
  ],
  [
   1.0,
   0.0,
   0.0,
   0.0
  ],
  [
   0.0,
   0.0,
   1.0,
   0.0
  ],
  [
   0.0,
   0.0,
   0.0,
   1.0
  ]
 ],
 "dcmmeta_shape": [
  100,
  100,
  72,
  256
 ],
 "dcmmeta_slice_dim": 2,
 "dcmmeta_version": 0.6,
 "global": {
  "const": {
   "AcquisitionMatrix": [
    100,
    0,
    0,
    100
   ],
   "AngioFlag": "N",
   "BitsAllocated": 16,
   "BitsStored": 12,
   "BodyPartExamined": "BRAIN",
   "Columns": 900,
   "EchoNumbers": 1,
   "EchoTime": 34.0,
   "EchoTrainLength": 100,
   "FlipAngle": 90.0,
   "HighBit": 11,
   "ImageOrientationPatient": [
    1.0,
    0.0,
    0.0,
    0.0,
    0.98450318022485,
    -0.1753667246862
   ],
   "ImagePositionPatient": [
    -900.0,
    -902.57653812094,
    80.414585908977
   ],
   "ImageType": [
    "ORIGINAL",
    "PRIMARY",
    "M",
    "ND",
    "MOSAIC"
   ],
   "ImagedNucleus": "1H",
   "ImagingFrequency": 123.257725,
   "InPlanePhaseEncodingDirection": "COL",
   "MRAcquisitionType": "2D",
   "MagneticFieldStrength": 3.0,
   "Manufacturer": "SIEMENS",
   "ManufacturerModelName": "Prisma",
   "Modality": "MR",
   "NumberOfAverages": 1.0,
   "NumberOfPhaseEncodingSteps": 100,
   "PercentPhaseFieldOfView": 100.0,
   "PercentSampling": 100.0,
   "PerformedProcedureStepStartTime": "151825.186000",
   "PhotometricInterpretation": "MONOCHROME2",
   "PixelBandwidth": 2380.0,
   "PixelRepresentation": 0,
   "PixelSpacing": [
    2.0,
    2.0
   ],
   "ProtocolName": "bold_100x100_s3_2x2x2_static_256",
   "RepetitionTime": 2000.0,
   "Rows": 900,
   "SAR": 0.08270318131158,
   "SamplesPerPixel": 1,
   "ScanOptions": "FS",
   "ScanningSequence": "EP",
   "SequenceName": "*epfid2d1_100",
   "SequenceVariant": "SK",
   "SeriesDescription": "bold_100x100_s3_2x2x2_static_256",
   "SeriesNumber": 4,
   "SeriesTime": "153609.028000",
   "SliceLocation": -79.113475705017,
   "SliceThickness": 2.0,
   "SmallestImagePixelValue": 0,
   "SoftwareVersions": "syngo MR E11",
   "SpacingBetweenSlices": 2.0000000271395,
   "SpecificCharacterSet": "ISO_IR 100",
   "StudyID": "1",
   "StudyTime": "151825.122000",
   "TransmitCoilName": "Body",
   "VariableFlipAngleFlag": "N",
   "WindowCenterWidthExplanation": "Algo1",
   "dBdt": 0.0
  },
  "slices": {}
 },
 "time": {
  "samples": {
   "AcquisitionNumber": [
    1,
    2,
    3,
    4,
    5,
    6,
    7,
    8,
    9,
    10,
    11,
    12,
    13,
    14,
    15,
    16,
    17,
    18,
    19,
    20,
    21,
    22,
    23,
    24,
    25,
    26,
    27,
    28,
    29,
    30,
    31,
    32,
    33,
    34,
    35,
    36,
    37,
    38,
    39,
    40,
    41,
    42,
    43,
    44,
    45,
    46,
    47,
    48,
    49,
    50,
    51,
    52,
    53,
    54,
    55,
    56,
    57,
    58,
    59,
    60,
    61,
    62,
    63,
    64,
    65,
    66,
    67,
    68,
    69,
    70,
    71,
    72,
    73,
    74,
    75,
    76,
    77,
    78,
    79,
    80,
    81,
    82,
    83,
    84,
    85,
    86,
    87,
    88,
    89,
    90,
    91,
    92,
    93,
    94,
    95,
    96,
    97,
    98,
    99,
    100,
    101,
    102,
    103,
    104,
    105,
    106,
    107,
    108,
    109,
    110,
    111,
    112,
    113,
    114,
    115,
    116,
    117,
    118,
    119,
    120,
    121,
    122,
    123,
    124,
    125,
    126,
    127,
    128,
    129,
    130,
    131,
    132,
    133,
    134,
    135,
    136,
    137,
    138,
    139,
    140,
    141,
    142,
    143,
    144,
    145,
    146,
    147,
    148,
    149,
    150,
    151,
    152,
    153,
    154,
    155,
    156,
    157,
    158,
    159,
    160,
    161,
    162,
    163,
    164,
    165,
    166,
    167,
    168,
    169,
    170,
    171,
    172,
    173,
    174,
    175,
    176,
    177,
    178,
    179,
    180,
    181,
    182,
    183,
    184,
    185,
    186,
    187,
    188,
    189,
    190,
    191,
    192,
    193,
    194,
    195,
    196,
    197,
    198,
    199,
    200,
    201,
    202,
    203,
    204,
    205,
    206,
    207,
    208,
    209,
    210,
    211,
    212,
    213,
    214,
    215,
    216,
    217,
    218,
    219,
    220,
    221,
    222,
    223,
    224,
    225,
    226,
    227,
    228,
    229,
    230,
    231,
    232,
    233,
    234,
    235,
    236,
    237,
    238,
    239,
    240,
    241,
    242,
    243,
    244,
    245,
    246,
    247,
    248,
    249,
    250,
    251,
    252,
    253,
    254,
    255,
    256
   ],
   "AcquisitionTime": [
    "153606.750000",
    "153608.750000",
    "153610.750000",
    "153612.750000",
    "153614.750000",
    "153616.750000",
    "153618.750000",
    "153620.750000",
    "153622.750000",
    "153624.750000",
    "153626.750000",
    "153628.750000",
    "153630.750000",
    "153632.750000",
    "153634.750000",
    "153636.750000",
    "153638.750000",
    "153640.750000",
    "153642.750000",
    "153644.750000",
    "153646.750000",
    "153648.750000",
    "153650.750000",
    "153652.750000",
    "153654.750000",
    "153656.750000",
    "153658.750000",
    "153700.750000",
    "153702.750000",
    "153704.750000",
    "153706.750000",
    "153708.750000",
    "153710.750000",
    "153712.750000",
    "153714.750000",
    "153716.750000",
    "153718.750000",
    "153720.750000",
    "153722.750000",
    "153724.750000",
    "153726.750000",
    "153728.750000",
    "153730.750000",
    "153732.750000",
    "153734.750000",
    "153736.750000",
    "153738.750000",
    "153740.750000",
    "153742.750000",
    "153744.750000",
    "153746.750000",
    "153748.750000",
    "153750.750000",
    "153752.750000",
    "153754.750000",
    "153756.750000",
    "153758.750000",
    "153800.750000",
    "153802.750000",
    "153804.750000",
    "153806.750000",
    "153808.750000",
    "153810.750000",
    "153812.750000",
    "153814.750000",
    "153816.750000",
    "153818.750000",
    "153820.750000",
    "153822.750000",
    "153824.750000",
    "153826.750000",
    "153828.750000",
    "153830.750000",
    "153832.750000",
    "153834.750000",
    "153836.750000",
    "153838.750000",
    "153840.750000",
    "153842.750000",
    "153844.750000",
    "153846.750000",
    "153848.750000",
    "153850.750000",
    "153852.750000",
    "153854.750000",
    "153856.750000",
    "153858.750000",
    "153900.750000",
    "153902.750000",
    "153904.750000",
    "153906.750000",
    "153908.750000",
    "153910.750000",
    "153912.750000",
    "153914.750000",
    "153916.750000",
    "153918.750000",
    "153920.750000",
    "153922.750000",
    "153924.750000",
    "153926.750000",
    "153928.750000",
    "153930.750000",
    "153932.750000",
    "153934.750000",
    "153936.750000",
    "153938.750000",
    "153940.750000",
    "153942.750000",
    "153944.750000",
    "153946.750000",
    "153948.750000",
    "153950.750000",
    "153952.750000",
    "153954.750000",
    "153956.750000",
    "153958.750000",
    "154000.750000",
    "154002.750000",
    "154004.750000",
    "154006.750000",
    "154008.750000",
    "154010.750000",
    "154012.750000",
    "154014.750000",
    "154016.750000",
    "154018.750000",
    "154020.750000",
    "154022.750000",
    "154024.750000",
    "154026.750000",
    "154028.750000",
    "154030.750000",
    "154032.750000",
    "154034.750000",
    "154036.750000",
    "154038.750000",
    "154040.750000",
    "154042.750000",
    "154044.750000",
    "154046.750000",
    "154048.750000",
    "154050.750000",
    "154052.750000",
    "154054.750000",
    "154056.750000",
    "154058.750000",
    "154100.750000",
    "154102.750000",
    "154104.750000",
    "154106.750000",
    "154108.750000",
    "154110.750000",
    "154112.750000",
    "154114.750000",
    "154116.750000",
    "154118.750000",
    "154120.750000",
    "154122.750000",
    "154124.750000",
    "154126.750000",
    "154128.750000",
    "154130.750000",
    "154132.750000",
    "154134.750000",
    "154136.750000",
    "154138.750000",
    "154140.750000",
    "154142.750000",
    "154144.750000",
    "154146.750000",
    "154148.750000",
    "154150.750000",
    "154152.750000",
    "154154.750000",
    "154156.750000",
    "154158.750000",
    "154200.750000",
    "154202.750000",
    "154204.750000",
    "154206.750000",
    "154208.750000",
    "154210.750000",
    "154212.750000",
    "154214.750000",
    "154216.750000",
    "154218.750000",
    "154220.750000",
    "154222.750000",
    "154224.750000",
    "154226.750000",
    "154228.750000",
    "154230.750000",
    "154232.750000",
    "154234.750000",
    "154236.750000",
    "154238.750000",
    "154240.750000",
    "154242.750000",
    "154244.750000",
    "154246.750000",
    "154248.750000",
    "154250.750000",
    "154252.750000",
    "154254.750000",
    "154256.750000",
    "154258.750000",
    "154300.750000",
    "154302.750000",
    "154304.750000",
    "154306.750000",
    "154308.750000",
    "154310.750000",
    "154312.750000",
    "154314.750000",
    "154316.750000",
    "154318.750000",
    "154320.750000",
    "154322.750000",
    "154324.750000",
    "154326.750000",
    "154328.750000",
    "154330.750000",
    "154332.750000",
    "154334.750000",
    "154336.750000",
    "154338.750000",
    "154340.750000",
    "154342.750000",
    "154344.750000",
    "154346.750000",
    "154348.750000",
    "154350.750000",
    "154352.750000",
    "154354.750000",
    "154356.750000",
    "154358.750000",
    "154400.750000",
    "154402.750000",
    "154404.750000",
    "154406.750000",
    "154408.750000",
    "154410.750000",
    "154412.750000",
    "154414.750000",
    "154416.750000",
    "154418.750000",
    "154420.750000",
    "154422.750000",
    "154424.750000",
    "154426.750000",
    "154428.750000",
    "154430.750000",
    "154432.750000",
    "154434.750000",
    "154436.750000"
   ],
   "ContentTime": [
    "153609.031000",
    "153610.526000",
    "153612.526000",
    "153614.527000",
    "153616.526000",
    "153618.526000",
    "153620.527000",
    "153622.527000",
    "153624.527000",
    "153626.526000",
    "153628.526000",
    "153630.527000",
    "153632.527000",
    "153634.527000",
    "153636.527000",
    "153638.527000",
    "153640.526000",
    "153642.527000",
    "153644.526000",
    "153646.527000",
    "153648.527000",
    "153650.526000",
    "153652.526000",
    "153654.526000",
    "153656.526000",
    "153658.527000",
    "153700.528000",
    "153702.527000",
    "153704.527000",
    "153706.527000",
    "153708.526000",
    "153710.527000",
    "153712.527000",
    "153714.527000",
    "153716.528000",
    "153718.526000",
    "153720.527000",
    "153722.526000",
    "153724.527000",
    "153726.526000",
    "153728.526000",
    "153730.527000",
    "153732.527000",
    "153734.527000",
    "153736.527000",
    "153738.527000",
    "153740.527000",
    "153742.527000",
    "153744.526000",
    "153746.527000",
    "153748.527000",
    "153750.528000",
    "153752.527000",
    "153754.527000",
    "153756.526000",
    "153758.526000",
    "153800.526000",
    "153802.526000",
    "153804.527000",
    "153806.527000",
    "153808.528000",
    "153810.527000",
    "153812.526000",
    "153814.527000",
    "153816.526000",
    "153818.527000",
    "153820.527000",
    "153822.526000",
    "153824.526000",
    "153826.528000",
    "153828.526000",
    "153830.526000",
    "153832.526000",
    "153834.527000",
    "153836.526000",
    "153838.527000",
    "153840.527000",
    "153842.526000",
    "153844.527000",
    "153846.526000",
    "153848.527000",
    "153850.526000",
    "153852.526000",
    "153854.526000",
    "153856.527000",
    "153858.527000",
    "153900.528000",
    "153902.528000",
    "153904.527000",
    "153906.527000",
    "153908.526000",
    "153910.526000",
    "153912.527000",
    "153914.526000",
    "153916.526000",
    "153918.527000",
    "153920.528000",
    "153922.527000",
    "153924.528000",
    "153926.528000",
    "153928.526000",
    "153930.526000",
    "153932.526000",
    "153934.527000",
    "153936.528000",
    "153938.527000",
    "153940.526000",
    "153942.526000",
    "153944.527000",
    "153946.526000",
    "153948.526000",
    "153950.527000",
    "153952.527000",
    "153954.528000",
    "153956.527000",
    "153958.527000",
    "154000.527000",
    "154002.527000",
    "154004.526000",
    "154006.526000",
    "154008.527000",
    "154010.528000",
    "154012.528000",
    "154014.527000",
    "154016.527000",
    "154018.527000",
    "154020.526000",
    "154022.526000",
    "154024.526000",
    "154026.527000",
    "154028.528000",
    "154030.528000",
    "154032.527000",
    "154034.526000",
    "154036.526000",
    "154038.527000",
    "154040.526000",
    "154042.526000",
    "154044.526000",
    "154046.527000",
    "154048.526000",
    "154050.526000",
    "154052.526000",
    "154054.526000",
    "154056.527000",
    "154058.527000",
    "154100.526000",
    "154102.526000",
    "154104.528000",
    "154106.526000",
    "154108.526000",
    "154110.527000",
    "154112.527000",
    "154114.526000",
    "154116.527000",
    "154118.527000",
    "154120.527000",
    "154122.527000",
    "154124.527000",
    "154126.526000",
    "154128.526000",
    "154130.527000",
    "154132.527000",
    "154134.527000",
    "154136.527000",
    "154138.528000",
    "154140.528000",
    "154142.527000",
    "154144.527000",
    "154146.527000",
    "154148.526000",
    "154150.526000",
    "154152.526000",
    "154154.527000",
    "154156.528000",
    "154158.527000",
    "154200.527000",
    "154202.527000",
    "154204.526000",
    "154206.526000",
    "154208.526000",
    "154210.527000",
    "154212.526000",
    "154214.527000",
    "154216.527000",
    "154218.527000",
    "154220.527000",
    "154222.526000",
    "154224.527000",
    "154226.527000",
    "154228.526000",
    "154230.528000",
    "154232.527000",
    "154234.526000",
    "154236.527000",
    "154238.527000",
    "154240.527000",
    "154242.526000",
    "154244.527000",
    "154246.527000",
    "154248.527000",
    "154250.528000",
    "154252.526000",
    "154254.526000",
    "154256.526000",
    "154258.526000",
    "154300.527000",
    "154302.527000",
    "154304.527000",
    "154306.527000",
    "154308.527000",
    "154310.526000",
    "154312.527000",
    "154314.527000",
    "154316.527000",
    "154318.526000",
    "154320.527000",
    "154322.526000",
    "154324.527000",
    "154326.526000",
    "154328.527000",
    "154330.526000",
    "154332.526000",
    "154334.526000",
    "154336.526000",
    "154338.527000",
    "154340.528000",
    "154342.528000",
    "154344.527000",
    "154346.526000",
    "154348.527000",
    "154350.527000",
    "154352.526000",
    "154354.526000",
    "154356.526000",
    "154358.528000",
    "154400.526000",
    "154402.527000",
    "154404.526000",
    "154406.527000",
    "154408.527000",
    "154410.526000",
    "154412.526000",
    "154414.527000",
    "154416.528000",
    "154418.527000",
    "154420.527000",
    "154422.527000",
    "154424.526000",
    "154426.526000",
    "154428.526000",
    "154430.526000",
    "154432.527000",
    "154434.528000",
    "154436.527000",
    "154438.197000"
   ],
   "InstanceCreationTime": [
    "153609.031000",
    "153610.526000",
    "153612.526000",
    "153614.527000",
    "153616.526000",
    "153618.526000",
    "153620.527000",
    "153622.527000",
    "153624.527000",
    "153626.526000",
    "153628.526000",
    "153630.527000",
    "153632.527000",
    "153634.527000",
    "153636.527000",
    "153638.527000",
    "153640.526000",
    "153642.527000",
    "153644.526000",
    "153646.527000",
    "153648.527000",
    "153650.526000",
    "153652.526000",
    "153654.526000",
    "153656.526000",
    "153658.527000",
    "153700.528000",
    "153702.527000",
    "153704.527000",
    "153706.527000",
    "153708.526000",
    "153710.527000",
    "153712.527000",
    "153714.527000",
    "153716.528000",
    "153718.526000",
    "153720.527000",
    "153722.526000",
    "153724.527000",
    "153726.526000",
    "153728.526000",
    "153730.527000",
    "153732.527000",
    "153734.527000",
    "153736.527000",
    "153738.527000",
    "153740.527000",
    "153742.527000",
    "153744.526000",
    "153746.527000",
    "153748.527000",
    "153750.528000",
    "153752.527000",
    "153754.527000",
    "153756.526000",
    "153758.526000",
    "153800.526000",
    "153802.526000",
    "153804.527000",
    "153806.527000",
    "153808.528000",
    "153810.527000",
    "153812.526000",
    "153814.527000",
    "153816.526000",
    "153818.527000",
    "153820.527000",
    "153822.526000",
    "153824.526000",
    "153826.528000",
    "153828.526000",
    "153830.526000",
    "153832.526000",
    "153834.527000",
    "153836.526000",
    "153838.527000",
    "153840.527000",
    "153842.526000",
    "153844.527000",
    "153846.526000",
    "153848.527000",
    "153850.526000",
    "153852.526000",
    "153854.526000",
    "153856.527000",
    "153858.527000",
    "153900.528000",
    "153902.528000",
    "153904.527000",
    "153906.527000",
    "153908.526000",
    "153910.526000",
    "153912.527000",
    "153914.526000",
    "153916.526000",
    "153918.527000",
    "153920.528000",
    "153922.527000",
    "153924.528000",
    "153926.528000",
    "153928.526000",
    "153930.526000",
    "153932.526000",
    "153934.527000",
    "153936.528000",
    "153938.527000",
    "153940.526000",
    "153942.526000",
    "153944.527000",
    "153946.526000",
    "153948.526000",
    "153950.527000",
    "153952.527000",
    "153954.528000",
    "153956.527000",
    "153958.527000",
    "154000.527000",
    "154002.527000",
    "154004.526000",
    "154006.526000",
    "154008.527000",
    "154010.528000",
    "154012.528000",
    "154014.527000",
    "154016.527000",
    "154018.527000",
    "154020.526000",
    "154022.526000",
    "154024.526000",
    "154026.527000",
    "154028.528000",
    "154030.528000",
    "154032.527000",
    "154034.526000",
    "154036.526000",
    "154038.527000",
    "154040.526000",
    "154042.526000",
    "154044.526000",
    "154046.527000",
    "154048.526000",
    "154050.526000",
    "154052.526000",
    "154054.526000",
    "154056.527000",
    "154058.527000",
    "154100.526000",
    "154102.526000",
    "154104.528000",
    "154106.526000",
    "154108.526000",
    "154110.527000",
    "154112.527000",
    "154114.526000",
    "154116.527000",
    "154118.527000",
    "154120.527000",
    "154122.527000",
    "154124.527000",
    "154126.526000",
    "154128.526000",
    "154130.527000",
    "154132.527000",
    "154134.527000",
    "154136.527000",
    "154138.528000",
    "154140.528000",
    "154142.527000",
    "154144.527000",
    "154146.527000",
    "154148.526000",
    "154150.526000",
    "154152.526000",
    "154154.527000",
    "154156.528000",
    "154158.527000",
    "154200.527000",
    "154202.527000",
    "154204.526000",
    "154206.526000",
    "154208.526000",
    "154210.527000",
    "154212.526000",
    "154214.527000",
    "154216.527000",
    "154218.527000",
    "154220.527000",
    "154222.526000",
    "154224.527000",
    "154226.527000",
    "154228.526000",
    "154230.528000",
    "154232.527000",
    "154234.526000",
    "154236.527000",
    "154238.527000",
    "154240.527000",
    "154242.526000",
    "154244.527000",
    "154246.527000",
    "154248.527000",
    "154250.528000",
    "154252.526000",
    "154254.526000",
    "154256.526000",
    "154258.526000",
    "154300.527000",
    "154302.527000",
    "154304.527000",
    "154306.527000",
    "154308.527000",
    "154310.526000",
    "154312.527000",
    "154314.527000",
    "154316.527000",
    "154318.526000",
    "154320.527000",
    "154322.526000",
    "154324.527000",
    "154326.526000",
    "154328.527000",
    "154330.526000",
    "154332.526000",
    "154334.526000",
    "154336.526000",
    "154338.527000",
    "154340.528000",
    "154342.528000",
    "154344.527000",
    "154346.526000",
    "154348.527000",
    "154350.527000",
    "154352.526000",
    "154354.526000",
    "154356.526000",
    "154358.528000",
    "154400.526000",
    "154402.527000",
    "154404.526000",
    "154406.527000",
    "154408.527000",
    "154410.526000",
    "154412.526000",
    "154414.527000",
    "154416.528000",
    "154418.527000",
    "154420.527000",
    "154422.527000",
    "154424.526000",
    "154426.526000",
    "154428.526000",
    "154430.526000",
    "154432.527000",
    "154434.528000",
    "154436.527000",
    "154438.197000"
   ],
   "InstanceNumber": [
    1,
    2,
    3,
    4,
    5,
    6,
    7,
    8,
    9,
    10,
    11,
    12,
    13,
    14,
    15,
    16,
    17,
    18,
    19,
    20,
    21,
    22,
    23,
    24,
    25,
    26,
    27,
    28,
    29,
    30,
    31,
    32,
    33,
    34,
    35,
    36,
    37,
    38,
    39,
    40,
    41,
    42,
    43,
    44,
    45,
    46,
    47,
    48,
    49,
    50,
    51,
    52,
    53,
    54,
    55,
    56,
    57,
    58,
    59,
    60,
    61,
    62,
    63,
    64,
    65,
    66,
    67,
    68,
    69,
    70,
    71,
    72,
    73,
    74,
    75,
    76,
    77,
    78,
    79,
    80,
    81,
    82,
    83,
    84,
    85,
    86,
    87,
    88,
    89,
    90,
    91,
    92,
    93,
    94,
    95,
    96,
    97,
    98,
    99,
    100,
    101,
    102,
    103,
    104,
    105,
    106,
    107,
    108,
    109,
    110,
    111,
    112,
    113,
    114,
    115,
    116,
    117,
    118,
    119,
    120,
    121,
    122,
    123,
    124,
    125,
    126,
    127,
    128,
    129,
    130,
    131,
    132,
    133,
    134,
    135,
    136,
    137,
    138,
    139,
    140,
    141,
    142,
    143,
    144,
    145,
    146,
    147,
    148,
    149,
    150,
    151,
    152,
    153,
    154,
    155,
    156,
    157,
    158,
    159,
    160,
    161,
    162,
    163,
    164,
    165,
    166,
    167,
    168,
    169,
    170,
    171,
    172,
    173,
    174,
    175,
    176,
    177,
    178,
    179,
    180,
    181,
    182,
    183,
    184,
    185,
    186,
    187,
    188,
    189,
    190,
    191,
    192,
    193,
    194,
    195,
    196,
    197,
    198,
    199,
    200,
    201,
    202,
    203,
    204,
    205,
    206,
    207,
    208,
    209,
    210,
    211,
    212,
    213,
    214,
    215,
    216,
    217,
    218,
    219,
    220,
    221,
    222,
    223,
    224,
    225,
    226,
    227,
    228,
    229,
    230,
    231,
    232,
    233,
    234,
    235,
    236,
    237,
    238,
    239,
    240,
    241,
    242,
    243,
    244,
    245,
    246,
    247,
    248,
    249,
    250,
    251,
    252,
    253,
    254,
    255,
    256
   ],
   "LargestImagePixelValue": [
    2589,
    2599,
    2570,
    2578,
    2707,
    2550,
    2599,
    2554,
    2608,
    2535,
    2543,
    2571,
    2585,
    2571,
    2572,
    2552,
    2585,
    2565,
    2609,
    2607,
    2568,
    2601,
    2615,
    2583,
    2560,
    2550,
    2555,
    2588,
    2572,
    2558,
    2582,
    2548,
    2588,
    2559,
    2582,
    2579,
    2546,
    2553,
    2552,
    2555,
    2595,
    2575,
    2591,
    2564,
    2600,
    2547,
    2597,
    2583,
    2551,
    2600,
    2551,
    2551,
    2600,
    2550,
    2580,
    2540,
    2573,
    2577,
    2569,
    2557,
    2601,
    2571,
    2616,
    2548,
    2589,
    2564,
    2586,
    2558,
    2563,
    2554,
    2549,
    2547,
    2571,
    2556,
    2549,
    2568,
    2597,
    2551,
    2556,
    2543,
    2558,
    2550,
    2574,
    2551,
    2560,
    2575,
    2538,
    2550,
    2596,
    2551,
    2636,
    2599,
    2542,
    2568,
    2618,
    2549,
    2548,
    2551,
    2560,
    2548,
    2563,
    2545,
    2554,
    2571,
    2574,
    2558,
    2567,
    2591,
    2557,
    2548,
    2560,
    2567,
    2579,
    2550,
    2564,
    2581,
    2561,
    2584,
    2591,
    2553,
    2589,
    2557,
    2562,
    2559,
    2582,
    2581,
    2555,
    2570,
    2531,
    2573,
    2555,
    2574,
    2574,
    2565,
    2548,
    2555,
    2580,
    2539,
    2552,
    2584,
    2537,
    2575,
    2556,
    2567,
    2557,
    2551,
    2571,
    2737,
    2557,
    2555,
    2561,
    2552,
    2558,
    2552,
    2543,
    2557,
    2556,
    2535,
    2580,
    2534,
    2574,
    2545,
    2555,
    2576,
    2556,
    2568,
    2558,
    2590,
    2581,
    2579,
    2562,
    2566,
    2559,
    2581,
    2536,
    2558,
    2589,
    2543,
    2571,
    2620,
    2569,
    2543,
    2540,
    2641,
    2551,
    2563,
    2552,
    2564,
    2525,
    2561,
    2554,
    2577,
    2533,
    2556,
    2552,
    2561,
    2573,
    2562,
    2553,
    2531,
    2557,
    2539,
    2533,
    2567,
    2531,
    2615,
    2563,
    2551,
    2572,
    2553,
    2559,
    2544,
    2568,
    2564,
    2543,
    2545,
    2550,
    2549,
    2562,
    2583,
    2539,
    2598,
    2539,
    2553,
    2560,
    2535,
    2546,
    2557,
    2557,
    2570,
    2539,
    2564,
    2558,
    2553,
    2560,
    2541,
    2549,
    2559,
    2563,
    2568,
    2559,
    2597,
    2582,
    2556,
    2545,
    2561,
    2554,
    2567,
    2553,
    2561,
    2591,
    2595,
    2583,
    2563,
    2566,
    2565
   ],
   "WindowCenter": [
    732.0,
    732.0,
    731.0,
    730.0,
    731.0,
    730.0,
    730.0,
    729.0,
    729.0,
    730.0,
    732.0,
    732.0,
    731.0,
    730.0,
    730.0,
    731.0,
    731.0,
    731.0,
    731.0,
    731.0,
    730.0,
    732.0,
    732.0,
    731.0,
    730.0,
    730.0,
    731.0,
    732.0,
    731.0,
    731.0,
    730.0,
    730.0,
    730.0,
    731.0,
    731.0,
    731.0,
    730.0,
    730.0,
    730.0,
    731.0,
    732.0,
    732.0,
    733.0,
    731.0,
    731.0,
    730.0,
    731.0,
    732.0,
    731.0,
    732.0,
    731.0,
    731.0,
    731.0,
    730.0,
    730.0,
    730.0,
    731.0,
    731.0,
    730.0,
    730.0,
    731.0,
    731.0,
    732.0,
    731.0,
    730.0,
    729.0,
    729.0,
    729.0,
    729.0,
    729.0,
    729.0,
    731.0,
    732.0,
    731.0,
    730.0,
    731.0,
    731.0,
    731.0,
    730.0,
    730.0,
    730.0,
    730.0,
    730.0,
    730.0,
    730.0,
    730.0,
    730.0,
    731.0,
    732.0,
    731.0,
    731.0,
    731.0,
    730.0,
    731.0,
    732.0,
    731.0,
    731.0,
    731.0,
    731.0,
    731.0,
    730.0,
    730.0,
    730.0,
    731.0,
    731.0,
    731.0,
    731.0,
    731.0,
    731.0,
    731.0,
    732.0,
    731.0,
    732.0,
    732.0,
    732.0,
    732.0,
    731.0,
    732.0,
    733.0,
    732.0,
    732.0,
    731.0,
    731.0,
    730.0,
    730.0,
    731.0,
    731.0,
