{
 "AcquisitionMatrixPE": 100,
 "AcquisitionNumber": 1,
 "AcquisitionTime": "09:51:3.417500",
 "BandwidthPerPixelPhaseEncode": 18.519,
 "BaseResolution": 100,
 "BodyPartExamined": "BRAIN",
 "ConsistencyInfo": "N4_VE11C_LATEST_20160120",
 "ConversionSoftware": "dcm2niix",
 "ConversionSoftwareVersion": "v1.0.20180622 GCC4.9.2",
 "DerivedVendorReportedEchoSpacing": 0.000539986,
 "DeviceSerialNumber": "166078",
 "DwellTime": 2.1e-06,
 "EchoTime": 0.034,
 "EchoTrainLength": 100,
 "EffectiveEchoSpacing": 0.000539986,
 "FlipAngle": 90,
 "ImageOrientationPatientDICOM": [
  1,
  0,
  0,
  0,
  0.982613,
  -0.185667
 ],
 "ImageType": [
  "ORIGINAL",
  "PRIMARY",
  "M",
  "ND",
  "MOSAIC"
 ],
 "InPlanePhaseEncodingDirectionDICOM": "COL",
 "InstitutionAddress": "Street_StreetNo_Bei_Jing_District_CN_ZIP",
 "InstitutionName": "BeiJing_Normal_University",
 "InstitutionalDepartmentName": "Department",
 "MRAcquisitionType": "2D",
 "MagneticFieldStrength": 3,
 "Manufacturer": "Siemens",
 "ManufacturersModelName": "Prisma",
 "Modality": "MR",
 "MultibandAccelerationFactor": 3,
 "PartialFourier": 1,
 "PatientPosition": "HFS",
 "PercentPhaseFOV": 100,
 "PhaseEncodingDirection": "j-",
 "PhaseEncodingSteps": 100,
 "PhaseResolution": 1,
 "PixelBandwidth": 2380,
 "ProcedureStepDescription": "BNU_P2018_64CH_Zhen.ZongLei",
 "ProtocolName": "bold_100x100_s3_2x2x2_retino_150",
 "PulseSequenceDetails": "%SiemensSeq%_ep2d_bold",
 "ReceiveCoilActiveElements": "HC1-7;NC1",
 "ReceiveCoilName": "HeadNeck_64",
 "ReconMatrixPE": 100,
 "RepetitionTime": 2,
 "SAR": 0.0600828,
 "ScanOptions": "FS",
 "ScanningSequence": "EP",
 "SequenceName": "_epfid2d1_100",
 "SequenceVariant": "SK",
 "SeriesDescription": "bold_100x100_s3_2x2x2_retino_150",
 "SeriesNumber": 8,
 "ShimSetting": [
  -5459,
  -11481,
  -1266,
  375,
  -10,
  -160,
  -174,
  40
 ],
 "SliceThickness": 2,
 "SliceTiming": [
  1.485,
  0,
  0.99,
  0.0825,
  1.0725,
  0.165,
  1.155,
  0.2475,
  1.2375,
  0.33,
  1.32,
  0.4125,
  1.4025,
  0.5775,
  1.5675,
  0.66,
  1.65,
  0.7425,
  1.7325,
  0.825,
  1.815,
  0.9075,
  1.8975,
  0.495,
  1.485,
  0,
  0.99,
  0.0825,
  1.0725,
  0.165,
  1.155,
  0.2475,
  1.2375,
  0.33,
  1.32,
  0.4125,
  1.4025,
  0.5775,
  1.5675,
  0.66,
  1.65,
  0.7425,
  1.7325,
  0.825,
  1.815,
  0.9075,
  1.8975,
  0.495,
  1.485,
  0,
  0.99,
  0.0825,
  1.0725,
  0.165,
  1.155,
  0.2475,
  1.2375,
  0.33,
  1.32,
  0.4125,
  1.4025,
  0.5775,
  1.5675,
  0.66,
  1.65,
  0.7425,
  1.7325,
  0.825,
  1.815,
  0.9075,
  1.8975,
  0.495
 ],
 "SoftwareVersions": "syngo_MR_E11",
 "SpacingBetweenSlices": 2,
 "StationName": "AWP166078",
 "TaskName": "prf",
 "TotalReadoutTime": 0.0534586,
 "TxRefAmp": 203.919,
 "dcmmeta_affine": [
  [
   -2.0,
   0.0,
   0.0,
   100.67469787597656
  ],
  [
   0.0,
   1.9652255773544312,
   -0.37133321166038513,
   -82.88722229003906
  ],
  [
   0.0,
   0.37133321166038513,
   1.9652255773544312,
   -82.91023254394531
  ],
  [
   0.0,
   0.0,
   0.0,
   1.0
  ]
 ],
 "dcmmeta_reorient_transform": [
  [
   0.0,
   -1.0,
   0.0,
   99.0
  ],
  [
   1.0,
   0.0,
   0.0,
   0.0
  ],
  [
   0.0,
   0.0,
   1.0,
   0.0
  ],
  [
   0.0,
   0.0,
   0.0,
   1.0
  ]
 ],
 "dcmmeta_shape": [
  100,
  100,
  72,
  150
 ],
 "dcmmeta_slice_dim": 2,
 "dcmmeta_version": 0.6,
 "global": {
  "const": {
   "AcquisitionMatrix": [
    100,
    0,
    0,
    100
   ],
   "AngioFlag": "N",
   "BitsAllocated": 16,
   "BitsStored": 12,
   "BodyPartExamined": "BRAIN",
   "Columns": 900,
   "EchoNumbers": 1,
   "EchoTime": 34.0,
   "EchoTrainLength": 100,
   "FlipAngle": 90.0,
   "HighBit": 11,
   "ImageOrientationPatient": [
    1.0,
    0.0,
    0.0,
    0.0,
    0.9826127972607,
    -0.1856666115905
   ],
   "ImagePositionPatient": [
    -900.67469877005,
    -897.7603529457,
    102.38504564632
   ],
   "ImageType": [
    "ORIGINAL",
    "PRIMARY",
    "M",
    "ND",
    "MOSAIC"
   ],
   "ImagedNucleus": "1H",
   "ImagingFrequency": 123.257763,
   "InPlanePhaseEncodingDirection": "COL",
   "MRAcquisitionType": "2D",
   "MagneticFieldStrength": 3.0,
   "Manufacturer": "SIEMENS",
   "ManufacturerModelName": "Prisma",
   "Modality": "MR",
   "NumberOfAverages": 1.0,
   "NumberOfPhaseEncodingSteps": 100,
   "PercentPhaseFieldOfView": 100.0,
   "PercentSampling": 100.0,
   "PerformedProcedureStepStartTime": "090738.955000",
   "PhotometricInterpretation": "MONOCHROME2",
   "PixelBandwidth": 2380.0,
   "PixelRepresentation": 0,
   "PixelSpacing": [
    2.0,
    2.0
   ],
   "ProtocolName": "bold_100x100_s3_2x2x2_retino_150",
   "RepetitionTime": 2000.0,
   "Rows": 900,
   "SAR": 0.06008278792699,
   "SamplesPerPixel": 1,
   "ScanOptions": "FS",
   "ScanningSequence": "EP",
   "SequenceName": "*epfid2d1_100",
   "SequenceVariant": "SK",
   "SeriesDescription": "bold_100x100_s3_2x2x2_retino_150",
   "SeriesNumber": 8,
   "SeriesTime": "095106.299000",
   "SliceLocation": -66.079266651551,
   "SliceThickness": 2.0,
   "SmallestImagePixelValue": 0,
   "SoftwareVersions": "syngo MR E11",
   "SpacingBetweenSlices": 1.9999999496976,
   "SpecificCharacterSet": "ISO_IR 100",
   "StudyID": "1",
   "StudyTime": "090738.859000",
   "TransmitCoilName": "Body",
   "VariableFlipAngleFlag": "N",
   "WindowCenterWidthExplanation": "Algo1",
   "dBdt": 0.0
  },
  "slices": {}
 },
 "time": {
  "samples": {
   "AcquisitionNumber": [
    1,
    2,
    3,
    4,
    5,
    6,
    7,
    8,
    9,
    10,
    11,
    12,
    13,
    14,
    15,
    16,
    17,
    18,
    19,
    20,
    21,
    22,
    23,
    24,
    25,
    26,
    27,
    28,
    29,
    30,
    31,
    32,
    33,
    34,
    35,
    36,
    37,
    38,
    39,
    40,
    41,
    42,
    43,
    44,
    45,
    46,
    47,
    48,
    49,
    50,
    51,
    52,
    53,
    54,
    55,
    56,
    57,
    58,
    59,
    60,
    61,
    62,
    63,
    64,
    65,
    66,
    67,
    68,
    69,
    70,
    71,
    72,
    73,
    74,
    75,
    76,
    77,
    78,
    79,
    80,
    81,
    82,
    83,
    84,
    85,
    86,
    87,
    88,
    89,
    90,
    91,
    92,
    93,
    94,
    95,
    96,
    97,
    98,
    99,
    100,
    101,
    102,
    103,
    104,
    105,
    106,
    107,
    108,
    109,
    110,
    111,
    112,
    113,
    114,
    115,
    116,
    117,
    118,
    119,
    120,
    121,
    122,
    123,
    124,
    125,
    126,
    127,
    128,
    129,
    130,
    131,
    132,
    133,
    134,
    135,
    136,
    137,
    138,
    139,
    140,
    141,
    142,
    143,
    144,
    145,
    146,
    147,
    148,
    149,
    150
   ],
   "AcquisitionTime": [
    "095103.417500",
    "095105.417500",
    "095107.417500",
    "095109.417500",
    "095111.417500",
    "095113.417500",
    "095115.417500",
    "095117.417500",
    "095119.417500",
    "095121.417500",
    "095123.417500",
    "095125.417500",
    "095127.417500",
    "095129.417500",
    "095131.417500",
    "095133.417500",
    "095135.417500",
    "095137.417500",
    "095139.417500",
    "095141.417500",
    "095143.417500",
    "095145.417500",
    "095147.417500",
    "095149.417500",
    "095151.417500",
    "095153.417500",
    "095155.417500",
    "095157.417500",
    "095159.417500",
    "095201.417500",
    "095203.417500",
    "095205.417500",
    "095207.417500",
    "095209.417500",
    "095211.417500",
    "095213.417500",
    "095215.417500",
    "095217.417500",
    "095219.417500",
    "095221.417500",
    "095223.417500",
    "095225.417500",
    "095227.417500",
    "095229.417500",
    "095231.417500",
    "095233.417500",
    "095235.417500",
    "095237.417500",
    "095239.417500",
    "095241.417500",
    "095243.417500",
    "095245.417500",
    "095247.417500",
    "095249.417500",
    "095251.417500",
    "095253.417500",
    "095255.417500",
    "095257.417500",
    "095259.417500",
    "095301.417500",
    "095303.417500",
    "095305.417500",
    "095307.417500",
    "095309.417500",
    "095311.417500",
    "095313.417500",
    "095315.417500",
    "095317.417500",
    "095319.417500",
    "095321.417500",
    "095323.417500",
    "095325.417500",
    "095327.417500",
    "095329.417500",
    "095331.417500",
    "095333.417500",
    "095335.417500",
    "095337.417500",
    "095339.417500",
    "095341.417500",
    "095343.417500",
    "095345.417500",
    "095347.417500",
    "095349.417500",
    "095351.417500",
    "095353.417500",
    "095355.417500",
    "095357.417500",
    "095359.417500",
    "095401.417500",
    "095403.417500",
    "095405.417500",
    "095407.417500",
    "095409.417500",
    "095411.417500",
    "095413.417500",
    "095415.417500",
    "095417.417500",
    "095419.417500",
    "095421.417500",
    "095423.417500",
    "095425.417500",
    "095427.417500",
    "095429.417500",
    "095431.417500",
    "095433.417500",
    "095435.417500",
    "095437.417500",
    "095439.417500",
    "095441.417500",
    "095443.417500",
    "095445.417500",
    "095447.417500",
    "095449.417500",
    "095451.417500",
    "095453.417500",
    "095455.417500",
    "095457.417500",
    "095459.417500",
    "095501.417500",
    "095503.417500",
    "095505.417500",
    "095507.417500",
    "095509.417500",
    "095511.417500",
    "095513.417500",
    "095515.417500",
    "095517.417500",
    "095519.417500",
    "095521.417500",
    "095523.417500",
    "095525.417500",
    "095527.417500",
    "095529.417500",
    "095531.417500",
    "095533.417500",
    "095535.417500",
    "095537.417500",
    "095539.417500",
    "095541.417500",
    "095543.417500",
    "095545.417500",
    "095547.417500",
    "095549.417500",
    "095551.417500",
    "095553.417500",
    "095555.417500",
    "095557.417500",
    "095559.417500",
    "095601.417500"
   ],
   "ContentTime": [
    "095106.302000",
    "095107.797000",
    "095109.797000",
    "095111.798000",
    "095113.797000",
    "095115.797000",
    "095117.796000",
    "095119.797000",
    "095121.797000",
    "095123.797000",
    "095125.797000",
    "095127.798000",
    "095129.798000",
    "095131.797000",
    "095133.797000",
    "095135.796000",
    "095137.798000",
    "095139.797000",
    "095141.797000",
    "095143.797000",
    "095145.798000",
    "095147.797000",
    "095149.797000",
    "095151.796000",
    "095153.796000",
    "095155.797000",
    "095157.797000",
    "095159.797000",
    "095201.797000",
    "095203.798000",
    "095205.797000",
    "095207.797000",
    "095209.796000",
    "095211.796000",
    "095213.797000",
    "095215.797000",
    "095217.797000",
    "095219.797000",
    "095221.797000",
    "095223.797000",
    "095225.797000",
    "095227.796000",
    "095229.797000",
    "095231.798000",
    "095233.798000",
    "095235.797000",
    "095237.797000",
    "095239.798000",
    "095241.798000",
    "095243.797000",
    "095245.796000",
    "095247.797000",
    "095249.797000",
    "095252.297000",
    "095253.798000",
    "095255.797000",
    "095257.797000",
    "095259.798000",
    "095301.796000",
    "095304.296000",
    "095305.797000",
    "095307.797000",
    "095309.797000",
    "095311.797000",
    "095313.797000",
    "095315.798000",
    "095317.798000",
    "095319.796000",
    "095321.796000",
    "095323.798000",
    "095325.797000",
    "095327.798000",
    "095329.797000",
    "095331.798000",
    "095333.797000",
    "095335.797000",
    "095337.796000",
    "095339.797000",
    "095341.798000",
    "095343.798000",
    "095345.797000",
    "095347.797000",
    "095349.797000",
    "095351.797000",
    "095353.797000",
    "095355.796000",
    "095357.797000",
    "095359.797000",
    "095401.797000",
    "095403.798000",
    "095405.798000",
    "095407.797000",
    "095409.798000",
    "095411.797000",
    "095413.796000",
    "095415.797000",
    "095417.797000",
    "095419.798000",
    "095421.797000",
    "095423.797000",
    "095425.797000",
    "095427.797000",
    "095429.796000",
    "095431.797000",
    "095433.798000",
    "095435.798000",
    "095437.797000",
    "095439.797000",
    "095441.797000",
    "095443.798000",
    "095445.797000",
    "095448.297000",
    "095449.797000",
    "095451.797000",
    "095453.797000",
    "095455.798000",
    "095457.798000",
    "095459.797000",
    "095501.797000",
    "095503.798000",
    "095505.796000",
    "095507.798000",
    "095509.797000",
    "095511.798000",
    "095513.797000",
    "095515.798000",
    "095517.797000",
    "095519.797000",
    "095521.796000",
    "095523.796000",
    "095525.798000",
    "095527.798000",
    "095529.798000",
    "095531.797000",
    "095533.798000",
    "095535.798000",
    "095537.797000",
    "095539.797000",
    "095541.796000",
    "095543.798000",
    "095545.798000",
    "095547.797000",
    "095549.797000",
    "095551.798000",
    "095553.797000",
    "095555.797000",
    "095557.796000",
    "095559.798000",
    "095601.798000",
    "095603.732000"
   ],
   "InstanceCreationTime": [
    "095106.302000",
    "095107.797000",
    "095109.797000",
    "095111.798000",
    "095113.797000",
    "095115.797000",
    "095117.796000",
    "095119.797000",
    "095121.797000",
    "095123.797000",
    "095125.797000",
    "095127.798000",
    "095129.798000",
    "095131.797000",
    "095133.797000",
    "095135.796000",
    "095137.798000",
    "095139.797000",
    "095141.797000",
    "095143.797000",
    "095145.798000",
    "095147.797000",
    "095149.797000",
    "095151.796000",
    "095153.796000",
    "095155.797000",
    "095157.797000",
    "095159.797000",
    "095201.797000",
    "095203.798000",
    "095205.797000",
    "095207.797000",
    "095209.796000",
    "095211.796000",
    "095213.797000",
    "095215.797000",
    "095217.797000",
    "095219.797000",
    "095221.797000",
    "095223.797000",
    "095225.797000",
    "095227.796000",
    "095229.797000",
    "095231.798000",
    "095233.798000",
    "095235.797000",
    "095237.797000",
    "095239.798000",
    "095241.798000",
    "095243.797000",
    "095245.796000",
    "095247.797000",
    "095249.797000",
    "095252.297000",
    "095253.798000",
    "095255.797000",
    "095257.797000",
    "095259.798000",
    "095301.796000",
    "095304.296000",
    "095305.797000",
    "095307.797000",
    "095309.797000",
    "095311.797000",
    "095313.797000",
    "095315.798000",
    "095317.798000",
    "095319.796000",
    "095321.796000",
    "095323.798000",
    "095325.797000",
    "095327.798000",
    "095329.797000",
    "095331.798000",
    "095333.797000",
    "095335.797000",
    "095337.796000",
    "095339.797000",
    "095341.798000",
    "095343.798000",
    "095345.797000",
    "095347.797000",
    "095349.797000",
    "095351.797000",
    "095353.797000",
    "095355.796000",
    "095357.797000",
    "095359.797000",
    "095401.797000",
    "095403.798000",
    "095405.798000",
    "095407.797000",
    "095409.798000",
    "095411.797000",
    "095413.796000",
    "095415.797000",
    "095417.797000",
    "095419.798000",
    "095421.797000",
    "095423.797000",
    "095425.797000",
    "095427.797000",
    "095429.796000",
    "095431.797000",
    "095433.798000",
    "095435.798000",
    "095437.797000",
    "095439.797000",
    "095441.797000",
    "095443.798000",
    "095445.797000",
    "095448.297000",
    "095449.797000",
    "095451.797000",
    "095453.797000",
    "095455.798000",
    "095457.798000",
    "095459.797000",
    "095501.797000",
    "095503.798000",
    "095505.796000",
    "095507.798000",
    "095509.797000",
    "095511.798000",
    "095513.797000",
    "095515.798000",
    "095517.797000",
    "095519.797000",
    "095521.796000",
    "095523.796000",
    "095525.798000",
    "095527.798000",
    "095529.798000",
    "095531.797000",
    "095533.798000",
    "095535.798000",
    "095537.797000",
    "095539.797000",
    "095541.796000",
    "095543.798000",
    "095545.798000",
    "095547.797000",
    "095549.797000",
    "095551.798000",
    "095553.797000",
    "095555.797000",
    "095557.796000",
    "095559.798000",
    "095601.798000",
    "095603.732000"
   ],
   "InstanceNumber": [
    1,
    2,
    3,
    4,
    5,
    6,
    7,
    8,
    9,
    10,
    11,
    12,
    13,
    14,
    15,
    16,
    17,
    18,
    19,
    20,
    21,
    22,
    23,
    24,
    25,
    26,
    27,
    28,
    29,
    30,
    31,
    32,
    33,
    34,
    35,
    36,
    37,
    38,
    39,
    40,
    41,
    42,
    43,
    44,
    45,
    46,
    47,
    48,
    49,
    50,
    51,
    52,
    53,
    54,
    55,
    56,
    57,
    58,
    59,
    60,
    61,
    62,
    63,
    64,
    65,
    66,
    67,
    68,
    69,
    70,
    71,
    72,
    73,
    74,
    75,
    76,
    77,
    78,
    79,
    80,
    81,
    82,
    83,
    84,
    85,
    86,
    87,
    88,
    89,
    90,
    91,
    92,
    93,
    94,
    95,
    96,
    97,
    98,
    99,
    100,
    101,
    102,
    103,
    104,
    105,
    106,
    107,
    108,
    109,
    110,
    111,
    112,
    113,
    114,
    115,
    116,
    117,
    118,
    119,
    120,
    121,
    122,
    123,
    124,
    125,
    126,
    127,
    128,
    129,
    130,
    131,
    132,
    133,
    134,
    135,
    136,
    137,
    138,
    139,
    140,
    141,
    142,
    143,
    144,
    145,
    146,
    147,
    148,
    149,
    150
   ],
   "LargestImagePixelValue": [
    3907,
    3803,
    3796,
    3823,
    3912,
    3871,
    3757,
    3763,
    3905,
    3947,
    3804,
    3858,
    3828,
    3766,
    3776,
    3752,
    3930,
    3882,
    3903,
    3857,
    3852,
    3843,
    3820,
    3944,
    3861,
    3758,
    3778,
    3939,
    3819,
    3827,
    3779,
    3969,
    3871,
    3839,
    3819,
    3968,
    3825,
    3732,
    3755,
    3719,
    3847,
    3841,
    3862,
    3852,
    3823,
    4069,
    3951,
    3906,
    3838,
    3811,
    4041,
    3872,
    3876,
    3823,
    3830,
    3962,
    3959,
    3930,
    3860,
    3809,
    3756,
    3948,
    3835,
    3893,
    3814,
    3774,
    4023,
    3770,
    3815,
    3789,
    3795,
    3790,
    3814,
    3923,
    3899,
    3856,
    3812,
    3766,
    3755,
    3738,
    3760,
    3975,
    3936,
    3876,
    3799,
    3769,
    3766,
    3920,
    3933,
    3920,
    3871,
    3858,
    3778,
    3734,
    3753,
    3857,
    3982,
    3830,
    3832,
    3807,
    3775,
    3734,
    3720,
    3852,
    3813,
    3831,
    3826,
    3824,
    3800,
    3795,
    3779,
    3926,
    3865,
    3880,
    3796,
    3762,
    3806,
    3794,
    3757,
    3758,
    3769,
    3730,
    3910,
    3884,
    3799,
    3805,
    3756,
    3706,
    3905,
    3843,
    3747,
    3801,
    3855,
    3800,
    3802,
    4039,
    3883,
    3880,
    3747,
    3770,
    3960,
    3908,
    3874,
    3848,
    3821,
    3945,
    3940,
    3821,
    3803,
    3800
   ],
   "WindowCenter": [
    805.0,
    802.0,
    801.0,
    803.0,
    803.0,
    804.0,
    803.0,
    804.0,
    805.0,
    805.0,
    804.0,
    805.0,
    805.0,
    806.0,
    805.0,
    804.0,
    804.0,
    804.0,
    805.0,
    806.0,
    806.0,
    806.0,
    804.0,
    804.0,
    803.0,
    803.0,
    803.0,
    803.0,
    803.0,
    802.0,
    802.0,
    803.0,
    803.0,
    804.0,
    804.0,
    805.0,
    805.0,
    804.0,
    803.0,
    803.0,
    804.0,
    804.0,
    804.0,
    804.0,
    804.0,
    805.0,
    806.0,
    805.0,
    804.0,
    804.0,
    805.0,
    805.0,
    805.0,
    804.0,
    804.0,
    805.0,
    805.0,
    805.0,
    804.0,
    804.0,
    803.0,
    804.0,
    804.0,
    805.0,
    806.0,
    805.0,
    806.0,
    804.0,
    804.0,
    805.0,
    804.0,
    803.0,
    803.0,
    804.0,
    805.0,
    805.0,
    803.0,
    802.0,
    801.0,
    802.0,
    802.0,
    804.0,
    804.0,
    803.0,
    803.0,
    803.0,
    804.0,
    806.0,
    807.0,
    806.0,
    804.0,
    803.0,
    803.0,
    802.0,
    803.0,
    803.0,
    804.0,
    803.0,
    804.0,
    804.0,
    804.0,
    804.0,
    804.0,
    805.0,
    804.0,
    804.0,
    805.0,
    805.0,
    804.0,
    804.0,
    803.0,
    804.0,
    804.0,
    804.0,
    803.0,
    803.0,
    804.0,
    805.0,
    805.0,
    804.0,
    803.0,
    803.0,
    805.0,
    804.0,
    804.0,
    804.0,
    804.0,
    804.0,
    806.0,
    806.0,
    805.0,
    805.0,
    804.0,
    804.0,
    804.0,
    806.0,
    806.0,
    805.0,
    804.0,
    804.0,
    804.0,
    804.0,
    804.0,
    804.0,
    804.0,
    805.0,
    804.0,
    804.0,
    805.0,
    805.0
   ],
   "WindowWidth": [
    1759.0,
    1751.0,
    1748.0,
    1752.0,
    1754.0,
    1756.0,
    1753.0,
    1755.0,
    1759.0,
    1760.0,
    1757.0,
    1759.0,
    1760.0,
    1761.0,
    1759.0,
    1756.0,
    1757.0,
    1755.0,
    1759.0,
    1761.0,
    1762.0,
    1761.0,
    1758.0,
    1757.0,
    1755.0,
    1753.0,
    1753.0,
    1753.0,
    1752.0,
    1750.0,
    1750.0,
    1754.0,
    1753.0,
    1755.0,
    1756.0,
    1760.0,
    1759.0,
    1754.0,
    1753.0,
    1752.0,
    1755.0,
    1756.0,
    1757.0,
    1756.0,
    1756.0,
    1760.0,
    1761.0,
    1759.0,
    1756.0,
    1755.0,
    1761.0,
    1759.0,
    1758.0,
    1755.0,
    1755.0,
    1758.0,
    1758.0,
    1758.0,
    1757.0,
    1755.0,
    1754.0,
    1756.0,
    1754.0,
    1759.0,
    1760.0,
    1759.0,
    1762.0,
    1755.0,
    1756.0,
    1757.0,
    1757.0,
    1754.0,
    1753.0,
    1755.0,
    1758.0,
    1758.0,
    1753.0,
    1749.0,
    1748.0,
    1749.0,
    1751.0,
    1755.0,
    1755.0,
    1753.0,
    1751.0,
    1752.0,
    1755.0,
    1763.0,
    1766.0,
    1761.0,
    1756.0,
    1752.0,
    1752.0,
    1750.0,
    1751.0,
    1754.0,
    1756.0,
    1754.0,
    1754.0,
    1755.0,
    1756.0,
    1756.0,
    1756.0,
    1757.0,
    1755.0,
    1756.0,
    1757.0,
    1758.0,
    1756.0,
    1754.0,
    1753.0,
    1757.0,
    1756.0,
    1756.0,
    1752.0,
    1752.0,
    1754.0,
    1756.0,
    1757.0,
    1754.0,
    1753.0,
    1753.0,
    1757.0,
    1756.0,
    1755.0,
    1755.0,
    1755.0,
    1755.0,
    1761.0,
    1760.0,
    1759.0,
    1757.0,
    1756.0,
    1755.0,
    1756.0,
    1763.0,
    1760.0,
    1760.0,
    1755.0,
    1755.0,
    1757.0,
    1755.0,
    1756.0,
    1756.0,
    1756.0,
    1757.0,
    1757.0,
    1755.0,
    1758.0,
    1758.0
   ]
  },
  "slices": {}
 }
}