{
 "AcquisitionMatrixPE": 100,
 "AcquisitionNumber": 1,
 "AcquisitionTime": "09:36:6.232500",
 "BandwidthPerPixelPhaseEncode": 18.519,
 "BaseResolution": 100,
 "BodyPartExamined": "BRAIN",
 "ConsistencyInfo": "N4_VE11C_LATEST_20160120",
 "ConversionSoftware": "dcm2niix",
 "ConversionSoftwareVersion": "v1.0.20180622 GCC4.9.2",
 "DerivedVendorReportedEchoSpacing": 0.000539986,
 "DeviceSerialNumber": "166078",
 "DwellTime": 2.1e-06,
 "EchoTime": 0.034,
 "EchoTrainLength": 100,
 "EffectiveEchoSpacing": 0.000539986,
 "FlipAngle": 90,
 "ImageOrientationPatientDICOM": [
  1,
  0,
  0,
  0,
  0.982613,
  -0.185667
 ],
 "ImageType": [
  "ORIGINAL",
  "PRIMARY",
  "M",
  "ND",
  "MOSAIC"
 ],
 "InPlanePhaseEncodingDirectionDICOM": "COL",
 "InstitutionAddress": "Street_StreetNo_Bei_Jing_District_CN_ZIP",
 "InstitutionName": "BeiJing_Normal_University",
 "InstitutionalDepartmentName": "Department",
 "MRAcquisitionType": "2D",
 "MagneticFieldStrength": 3,
 "Manufacturer": "Siemens",
 "ManufacturersModelName": "Prisma",
 "Modality": "MR",
 "MultibandAccelerationFactor": 3,
 "PartialFourier": 1,
 "PatientPosition": "HFS",
 "PercentPhaseFOV": 100,
 "PhaseEncodingDirection": "j-",
 "PhaseEncodingSteps": 100,
 "PhaseResolution": 1,
 "PixelBandwidth": 2380,
 "ProcedureStepDescription": "BNU_P2018_64CH_Zhen.ZongLei",
 "ProtocolName": "bold_100x100_s3_2x2x2_retino_150",
 "PulseSequenceDetails": "%SiemensSeq%_ep2d_bold",
 "ReceiveCoilActiveElements": "HC1-7;NC1",
 "ReceiveCoilName": "HeadNeck_64",
 "ReconMatrixPE": 100,
 "RepetitionTime": 2,
 "SAR": 0.0600828,
 "ScanOptions": "FS",
 "ScanningSequence": "EP",
 "SequenceName": "_epfid2d1_100",
 "SequenceVariant": "SK",
 "SeriesDescription": "bold_100x100_s3_2x2x2_retino_150",
 "SeriesNumber": 6,
 "ShimSetting": [
  -5459,
  -11481,
  -1266,
  375,
  -10,
  -160,
  -174,
  40
 ],
 "SliceThickness": 2,
 "SliceTiming": [
  1.485,
  0,
  0.99,
  0.0825,
  1.0725,
  0.165,
  1.155,
  0.2475,
  1.2375,
  0.33,
  1.32,
  0.4125,
  1.4025,
  0.5775,
  1.5675,
  0.66,
  1.65,
  0.7425,
  1.7325,
  0.825,
  1.815,
  0.9075,
  1.8975,
  0.495,
  1.485,
  0,
  0.99,
  0.0825,
  1.0725,
  0.165,
  1.155,
  0.2475,
  1.2375,
  0.33,
  1.32,
  0.4125,
  1.4025,
  0.5775,
  1.5675,
  0.66,
  1.65,
  0.7425,
  1.7325,
  0.825,
  1.815,
  0.9075,
  1.8975,
  0.495,
  1.485,
  0,
  0.99,
  0.0825,
  1.0725,
  0.165,
  1.155,
  0.2475,
  1.2375,
  0.33,
  1.32,
  0.4125,
  1.4025,
  0.5775,
  1.5675,
  0.66,
  1.65,
  0.7425,
  1.7325,
  0.825,
  1.815,
  0.9075,
  1.8975,
  0.495
 ],
 "SoftwareVersions": "syngo_MR_E11",
 "SpacingBetweenSlices": 2,
 "StationName": "AWP166078",
 "TaskName": "prf",
 "TotalReadoutTime": 0.0534586,
 "TxRefAmp": 203.919,
 "dcmmeta_affine": [
  [
   -2.0,
   0.0,
   0.0,
   100.67469787597656
  ],
  [
   0.0,
   1.9652255773544312,
   -0.37133321166038513,
   -82.88722229003906
  ],
  [
   0.0,
   0.37133321166038513,
   1.9652255773544312,
   -82.91023254394531
  ],
  [
   0.0,
   0.0,
   0.0,
   1.0
  ]
 ],
 "dcmmeta_reorient_transform": [
  [
   0.0,
   -1.0,
   0.0,
   99.0
  ],
  [
   1.0,
   0.0,
   0.0,
   0.0
  ],
  [
   0.0,
   0.0,
   1.0,
   0.0
  ],
  [
   0.0,
   0.0,
   0.0,
   1.0
  ]
 ],
 "dcmmeta_shape": [
  100,
  100,
  72,
  150
 ],
 "dcmmeta_slice_dim": 2,
 "dcmmeta_version": 0.6,
 "global": {
  "const": {
   "AcquisitionMatrix": [
    100,
    0,
    0,
    100
   ],
   "AngioFlag": "N",
   "BitsAllocated": 16,
   "BitsStored": 12,
   "BodyPartExamined": "BRAIN",
   "Columns": 900,
   "EchoNumbers": 1,
   "EchoTime": 34.0,
   "EchoTrainLength": 100,
   "FlipAngle": 90.0,
   "HighBit": 11,
   "ImageOrientationPatient": [
    1.0,
    0.0,
    0.0,
    0.0,
    0.9826127972607,
    -0.1856666115905
   ],
   "ImagePositionPatient": [
    -900.67469877005,
    -897.7603529457,
    102.38504564632
   ],
   "ImageType": [
    "ORIGINAL",
    "PRIMARY",
    "M",
    "ND",
    "MOSAIC"
   ],
   "ImagedNucleus": "1H",
   "ImagingFrequency": 123.257757,
   "InPlanePhaseEncodingDirection": "COL",
   "MRAcquisitionType": "2D",
   "MagneticFieldStrength": 3.0,
   "Manufacturer": "SIEMENS",
   "ManufacturerModelName": "Prisma",
   "Modality": "MR",
   "NumberOfAverages": 1.0,
   "NumberOfPhaseEncodingSteps": 100,
   "PercentPhaseFieldOfView": 100.0,
   "PercentSampling": 100.0,
   "PerformedProcedureStepStartTime": "090738.955000",
   "PhotometricInterpretation": "MONOCHROME2",
   "PixelBandwidth": 2380.0,
   "PixelRepresentation": 0,
   "PixelSpacing": [
    2.0,
    2.0
   ],
   "ProtocolName": "bold_100x100_s3_2x2x2_retino_150",
   "RepetitionTime": 2000.0,
   "Rows": 900,
   "SAR": 0.06008278792699,
   "SamplesPerPixel": 1,
   "ScanOptions": "FS",
   "ScanningSequence": "EP",
   "SequenceName": "*epfid2d1_100",
   "SequenceVariant": "SK",
   "SeriesDescription": "bold_100x100_s3_2x2x2_retino_150",
   "SeriesNumber": 6,
   "SeriesTime": "093609.234000",
   "SliceLocation": -66.079266651551,
   "SliceThickness": 2.0,
   "SmallestImagePixelValue": 0,
   "SoftwareVersions": "syngo MR E11",
   "SpacingBetweenSlices": 1.9999999496976,
   "SpecificCharacterSet": "ISO_IR 100",
   "StudyID": "1",
   "StudyTime": "090738.859000",
   "TransmitCoilName": "Body",
   "VariableFlipAngleFlag": "N",
   "WindowCenterWidthExplanation": "Algo1",
   "dBdt": 0.0
  },
  "slices": {}
 },
 "time": {
  "samples": {
   "AcquisitionNumber": [
    1,
    2,
    3,
    4,
    5,
    6,
    7,
    8,
    9,
    10,
    11,
    12,
    13,
    14,
    15,
    16,
    17,
    18,
    19,
    20,
    21,
    22,
    23,
    24,
    25,
    26,
    27,
    28,
    29,
    30,
    31,
    32,
    33,
    34,
    35,
    36,
    37,
    38,
    39,
    40,
    41,
    42,
    43,
    44,
    45,
    46,
    47,
    48,
    49,
    50,
    51,
    52,
    53,
    54,
    55,
    56,
    57,
    58,
    59,
    60,
    61,
    62,
    63,
    64,
    65,
    66,
    67,
    68,
    69,
    70,
    71,
    72,
    73,
    74,
    75,
    76,
    77,
    78,
    79,
    80,
    81,
    82,
    83,
    84,
    85,
    86,
    87,
    88,
    89,
    90,
    91,
    92,
    93,
    94,
    95,
    96,
    97,
    98,
    99,
    100,
    101,
    102,
    103,
    104,
    105,
    106,
    107,
    108,
    109,
    110,
    111,
    112,
    113,
    114,
    115,
    116,
    117,
    118,
    119,
    120,
    121,
    122,
    123,
    124,
    125,
    126,
    127,
    128,
    129,
    130,
    131,
    132,
    133,
    134,
    135,
    136,
    137,
    138,
    139,
    140,
    141,
    142,
    143,
    144,
    145,
    146,
    147,
    148,
    149,
    150
   ],
   "AcquisitionTime": [
    "093606.232500",
    "093608.232500",
    "093610.232500",
    "093612.232500",
    "093614.232500",
    "093616.232500",
    "093618.232500",
    "093620.232500",
    "093622.232500",
    "093624.232500",
    "093626.232500",
    "093628.232500",
    "093630.232500",
    "093632.232500",
    "093634.232500",
    "093636.232500",
    "093638.232500",
    "093640.232500",
    "093642.232500",
    "093644.232500",
    "093646.232500",
    "093648.232500",
    "093650.232500",
    "093652.232500",
    "093654.232500",
    "093656.232500",
    "093658.232500",
    "093700.232500",
    "093702.232500",
    "093704.232500",
    "093706.232500",
    "093708.232500",
    "093710.232500",
    "093712.232500",
    "093714.232500",
    "093716.232500",
    "093718.232500",
    "093720.232500",
    "093722.232500",
    "093724.232500",
    "093726.232500",
    "093728.232500",
    "093730.232500",
    "093732.232500",
    "093734.232500",
    "093736.232500",
    "093738.232500",
    "093740.232500",
    "093742.232500",
    "093744.232500",
    "093746.232500",
    "093748.232500",
    "093750.232500",
    "093752.232500",
    "093754.232500",
    "093756.232500",
    "093758.232500",
    "093800.232500",
    "093802.232500",
    "093804.232500",
    "093806.232500",
    "093808.232500",
    "093810.232500",
    "093812.232500",
    "093814.232500",
    "093816.232500",
    "093818.232500",
    "093820.232500",
    "093822.232500",
    "093824.232500",
    "093826.232500",
    "093828.232500",
    "093830.232500",
    "093832.232500",
    "093834.232500",
    "093836.232500",
    "093838.232500",
    "093840.232500",
    "093842.232500",
    "093844.232500",
    "093846.232500",
    "093848.232500",
    "093850.232500",
    "093852.232500",
    "093854.232500",
    "093856.232500",
    "093858.232500",
    "093900.232500",
    "093902.232500",
    "093904.232500",
    "093906.232500",
    "093908.232500",
    "093910.232500",
    "093912.232500",
    "093914.232500",
    "093916.232500",
    "093918.232500",
    "093920.232500",
    "093922.232500",
    "093924.232500",
    "093926.232500",
    "093928.232500",
    "093930.232500",
    "093932.232500",
    "093934.232500",
    "093936.232500",
    "093938.232500",
    "093940.232500",
    "093942.232500",
    "093944.232500",
    "093946.232500",
    "093948.232500",
    "093950.232500",
    "093952.232500",
    "093954.232500",
    "093956.232500",
    "093958.232500",
    "094000.232500",
    "094002.232500",
    "094004.232500",
    "094006.232500",
    "094008.232500",
    "094010.232500",
    "094012.232500",
    "094014.232500",
    "094016.232500",
    "094018.232500",
    "094020.232500",
    "094022.232500",
    "094024.232500",
    "094026.232500",
    "094028.232500",
    "094030.232500",
    "094032.232500",
    "094034.232500",
    "094036.232500",
    "094038.232500",
    "094040.232500",
    "094042.232500",
    "094044.232500",
    "094046.232500",
    "094048.232500",
    "094050.232500",
    "094052.232500",
    "094054.232500",
    "094056.232500",
    "094058.232500",
    "094100.232500",
    "094102.232500",
    "094104.232500"
   ],
   "ContentTime": [
    "093609.238000",
    "093610.735000",
    "093612.734000",
    "093614.735000",
    "093616.735000",
    "093618.734000",
    "093620.735000",
    "093622.735000",
    "093624.734000",
    "093626.734000",
    "093628.735000",
    "093630.734000",
    "093632.734000",
    "093634.735000",
    "093636.734000",
    "093638.734000",
    "093640.734000",
    "093642.734000",
    "093644.733000",
    "093646.734000",
    "093648.734000",
    "093650.735000",
    "093652.735000",
    "093654.734000",
    "093656.735000",
    "093658.733000",
    "093700.734000",
    "093702.734000",
    "093704.735000",
    "093706.735000",
    "093708.734000",
    "093710.735000",
    "093712.734000",
    "093714.734000",
    "093716.734000",
    "093718.734000",
    "093720.735000",
    "093722.735000",
    "093724.735000",
    "093726.734000",
    "093728.735000",
    "093730.735000",
    "093732.735000",
    "093734.734000",
    "093736.733000",
    "093738.734000",
    "093740.734000",
    "093742.734000",
    "093744.734000",
    "093746.734000",
    "093748.735000",
    "093750.735000",
    "093752.734000",
    "093754.734000",
    "093756.734000",
    "093758.734000",
    "093800.734000",
    "093802.734000",
    "093804.734000",
    "093806.734000",
    "093808.734000",
    "093810.734000",
    "093812.733000",
    "093814.734000",
    "093816.735000",
    "093818.734000",
    "093820.735000",
    "093822.734000",
    "093824.735000",
    "093826.734000",
    "093828.734000",
    "093830.734000",
    "093832.734000",
    "093834.735000",
    "093836.735000",
    "093838.734000",
    "093840.734000",
    "093842.734000",
    "093844.734000",
    "093846.734000",
    "093848.735000",
    "093850.734000",
    "093852.734000",
    "093854.735000",
    "093856.735000",
    "093858.734000",
    "093900.734000",
    "093902.733000",
    "093904.733000",
    "093906.734000",
    "093908.734000",
    "093910.735000",
    "093912.734000",
    "093914.735000",
    "093916.734000",
    "093918.734000",
    "093920.733000",
    "093922.733000",
    "093924.735000",
    "093926.735000",
    "093928.735000",
    "093930.734000",
    "093932.735000",
    "093934.734000",
    "093936.734000",
    "093938.733000",
    "093940.735000",
    "093942.734000",
    "093944.735000",
    "093946.735000",
    "093948.735000",
    "093950.735000",
    "093952.735000",
    "093954.734000",
    "093956.733000",
    "093958.735000",
    "094000.735000",
    "094002.735000",
    "094004.735000",
    "094006.735000",
    "094008.734000",
    "094010.734000",
    "094012.733000",
    "094014.734000",
    "094016.734000",
    "094018.735000",
    "094020.734000",
    "094022.735000",
    "094024.735000",
    "094026.735000",
    "094028.734000",
    "094030.734000",
    "094032.734000",
    "094034.735000",
    "094036.734000",
    "094038.735000",
    "094040.735000",
    "094042.735000",
    "094044.735000",
    "094046.733000",
    "094048.734000",
    "094050.734000",
    "094052.735000",
    "094054.734000",
    "094056.735000",
    "094058.734000",
    "094100.735000",
    "094102.735000",
    "094104.734000",
    "094106.457000"
   ],
   "InstanceCreationTime": [
    "093609.238000",
    "093610.735000",
    "093612.734000",
    "093614.735000",
    "093616.735000",
    "093618.734000",
    "093620.735000",
    "093622.735000",
    "093624.734000",
    "093626.734000",
    "093628.735000",
    "093630.734000",
    "093632.734000",
    "093634.735000",
    "093636.734000",
    "093638.734000",
    "093640.734000",
    "093642.734000",
    "093644.733000",
    "093646.734000",
    "093648.734000",
    "093650.735000",
    "093652.735000",
    "093654.734000",
    "093656.735000",
    "093658.733000",
    "093700.734000",
    "093702.734000",
    "093704.735000",
    "093706.735000",
    "093708.734000",
    "093710.735000",
    "093712.734000",
    "093714.734000",
    "093716.734000",
    "093718.734000",
    "093720.735000",
    "093722.735000",
    "093724.735000",
    "093726.734000",
    "093728.735000",
    "093730.735000",
    "093732.735000",
    "093734.734000",
    "093736.733000",
    "093738.734000",
    "093740.734000",
    "093742.734000",
    "093744.734000",
    "093746.734000",
    "093748.735000",
    "093750.735000",
    "093752.734000",
    "093754.734000",
    "093756.734000",
    "093758.734000",
    "093800.734000",
    "093802.734000",
    "093804.734000",
    "093806.734000",
    "093808.734000",
    "093810.734000",
    "093812.733000",
    "093814.734000",
    "093816.735000",
    "093818.734000",
    "093820.735000",
    "093822.734000",
    "093824.735000",
    "093826.734000",
    "093828.734000",
    "093830.734000",
    "093832.734000",
    "093834.735000",
    "093836.735000",
    "093838.734000",
    "093840.734000",
    "093842.734000",
    "093844.734000",
    "093846.734000",
    "093848.735000",
    "093850.734000",
    "093852.734000",
    "093854.735000",
    "093856.735000",
    "093858.734000",
    "093900.734000",
    "093902.733000",
    "093904.733000",
    "093906.734000",
    "093908.734000",
    "093910.735000",
    "093912.734000",
    "093914.735000",
    "093916.734000",
    "093918.734000",
    "093920.733000",
    "093922.733000",
    "093924.735000",
    "093926.735000",
    "093928.735000",
    "093930.734000",
    "093932.735000",
    "093934.734000",
    "093936.734000",
    "093938.733000",
    "093940.735000",
    "093942.734000",
    "093944.735000",
    "093946.735000",
    "093948.735000",
    "093950.735000",
    "093952.735000",
    "093954.734000",
    "093956.733000",
    "093958.735000",
    "094000.735000",
    "094002.735000",
    "094004.735000",
    "094006.735000",
    "094008.734000",
    "094010.734000",
    "094012.733000",
    "094014.734000",
    "094016.734000",
    "094018.735000",
    "094020.734000",
    "094022.735000",
    "094024.735000",
    "094026.735000",
    "094028.734000",
    "094030.734000",
    "094032.734000",
    "094034.735000",
    "094036.734000",
    "094038.735000",
    "094040.735000",
    "094042.735000",
    "094044.735000",
    "094046.733000",
    "094048.734000",
    "094050.734000",
    "094052.735000",
    "094054.734000",
    "094056.735000",
    "094058.734000",
    "094100.735000",
    "094102.735000",
    "094104.734000",
    "094106.457000"
   ],
   "InstanceNumber": [
    1,
    2,
    3,
    4,
    5,
    6,
    7,
    8,
    9,
    10,
    11,
    12,
    13,
    14,
    15,
    16,
    17,
    18,
    19,
    20,
    21,
    22,
    23,
    24,
    25,
    26,
    27,
    28,
    29,
    30,
    31,
    32,
    33,
    34,
    35,
    36,
    37,
    38,
    39,
    40,
    41,
    42,
    43,
    44,
    45,
    46,
    47,
    48,
    49,
    50,
    51,
    52,
    53,
    54,
    55,
    56,
    57,
    58,
    59,
    60,
    61,
    62,
    63,
    64,
    65,
    66,
    67,
    68,
    69,
    70,
    71,
    72,
    73,
    74,
    75,
    76,
    77,
    78,
    79,
    80,
    81,
    82,
    83,
    84,
    85,
    86,
    87,
    88,
    89,
    90,
    91,
    92,
    93,
    94,
    95,
    96,
    97,
    98,
    99,
    100,
    101,
    102,
    103,
    104,
    105,
    106,
    107,
    108,
    109,
    110,
    111,
    112,
    113,
    114,
    115,
    116,
    117,
    118,
    119,
    120,
    121,
    122,
    123,
    124,
    125,
    126,
    127,
    128,
    129,
    130,
    131,
    132,
    133,
    134,
    135,
    136,
    137,
    138,
    139,
    140,
    141,
    142,
    143,
    144,
    145,
    146,
    147,
    148,
    149,
    150
   ],
   "LargestImagePixelValue": [
    3777,
    3761,
    3772,
    3758,
    3717,
    3678,
    3880,
    3820,
    3845,
    3844,
    3853,
    3737,
    3829,
    3778,
    3847,
    3779,
    3754,
    3822,
    3729,
    3666,
    3723,
    3697,
    3772,
    3749,
    3822,
    3717,
    3825,
    3768,
    3819,
    3743,
    3816,
    3821,
    3885,
    3795,
    3826,
    3783,
    3852,
    3867,
    3854,
    3829,
    3821,
    3856,
    3894,
    3826,
    3870,
    3827,
    3799,
    3793,
    3847,
    3748,
    3767,
    3711,
    3695,
    3696,
    3709,
    3757,
    3696,
    3792,
    3822,
    3852,
    3821,
    3867,
    3811,
    3860,
    3894,
    3906,
    3915,
    3838,
    3864,
    3810,
    3888,
    3844,
    3872,
    3848,
    3933,
    3835,
    3891,
    3777,
    3816,
    3778,
    3787,
    3774,
    3720,
    3736,
    3694,
    3806,
    3745,
    3853,
    3726,
    3849,
    3838,
    3837,
    3900,
    3857,
    3881,
    3768,
    3893,
    3855,
    3860,
    3934,
    3846,
    3847,
    3826,
    3799,
    3867,
    3779,
    3883,
    3724,
    3777,
    3845,
    3818,
    3796,
    3747,
    3756,
    3786,
    3703,
    3787,
    3759,
    3822,
    3813,
    3891,
    3804,
    3866,
    3831,
    3841,
    3805,
    3816,
    3878,
    3875,
    3835,
    3856,
    3863,
    3825,
    3836,
    3802,
    3871,
    3834,
    3849,
    3810,
    3841,
    3822,
    3791,
    3753,
    3709,
    3688,
    3689,
    3737,
    3738,
    3675,
    3787
   ],
   "WindowCenter": [
    811.0,
    809.0,
    809.0,
    808.0,
    808.0,
    806.0,
    810.0,
    811.0,
    812.0,
    812.0,
    812.0,
    811.0,
    812.0,
    812.0,
    812.0,
    812.0,
    812.0,
    813.0,
    813.0,
    813.0,
    812.0,
    811.0,
    810.0,
    810.0,
    811.0,
    811.0,
    812.0,
    812.0,
    812.0,
    812.0,
    812.0,
    811.0,
    812.0,
    811.0,
    812.0,
    812.0,
    812.0,
    813.0,
    813.0,
    812.0,
    811.0,
    811.0,
    812.0,
    812.0,
    812.0,
    811.0,
    811.0,
    812.0,
    813.0,
    813.0,
    813.0,
    812.0,
    812.0,
    813.0,
    813.0,
    812.0,
    811.0,
    810.0,
    809.0,
    809.0,
    811.0,
    813.0,
    812.0,
    810.0,
    810.0,
    809.0,
    810.0,
    810.0,
    811.0,
    812.0,
    813.0,
    813.0,
    813.0,
    812.0,
    811.0,
    811.0,
    811.0,
    812.0,
    812.0,
    811.0,
    811.0,
    811.0,
    812.0,
    813.0,
    812.0,
    812.0,
    811.0,
    812.0,
    811.0,
    811.0,
    811.0,
    811.0,
    812.0,
    812.0,
    812.0,
    811.0,
    812.0,
    811.0,
    810.0,
    812.0,
    814.0,
    814.0,
    813.0,
    812.0,
    811.0,
    811.0,
    812.0,
    812.0,
    813.0,
    813.0,
    812.0,
    812.0,
    814.0,
    816.0,
    815.0,
    813.0,
    811.0,
    810.0,
    809.0,
    809.0,
    810.0,
    809.0,
    811.0,
    813.0,
    815.0,
    814.0,
    812.0,
    810.0,
    810.0,
    809.0,
    810.0,
    813.0,
    814.0,
    812.0,
    810.0,
    810.0,
    810.0,
    810.0,
    810.0,
    810.0,
    810.0,
    810.0,
    812.0,
    814.0,
    814.0,
    812.0,
    810.0,
    809.0,
    809.0,
    810.0
   ],
   "WindowWidth": [
    1777.0,
    1772.0,
    1769.0,
    1765.0,
    1764.0,
    1762.0,
    1773.0,
    1775.0,
    1779.0,
    1780.0,
    1780.0,
    1778.0,
    1780.0,
    1780.0,
    1781.0,
    1780.0,
    1781.0,
    1784.0,
    1784.0,
    1781.0,
    1780.0,
    1776.0,
    1775.0,
    1774.0,
    1776.0,
    1778.0,
    1780.0,
    1780.0,
    1781.0,
    1779.0,
    1779.0,
    1778.0,
    1779.0,
    1778.0,
    1781.0,
    1780.0,
    1782.0,
    1782.0,
    1782.0,
    1781.0,
    1777.0,
    1776.0,
    1779.0,
    1779.0,
    1779.0,
    1777.0,
    1777.0,
    1780.0,
    1784.0,
    1781.0,
    1782.0,
    1780.0,
    1780.0,
    1780.0,
    1782.0,
    1780.0,
    1775.0,
    1772.0,
    1771.0,
    1772.0,
    1777.0,
    1782.0,
    1779.0,
    1775.0,
    1773.0,
    1772.0,
    1774.0,
    1775.0,
    1777.0,
    1779.0,
    1783.0,
    1782.0,
    1782.0,
    1779.0,
    1779.0,
    1776.0,
    1778.0,
    1778.0,
    1780.0,
    1777.0,
    1776.0,
    1776.0,
    1780.0,
    1781.0,
    1779.0,
    1780.0,
    1777.0,
    1780.0,
    1776.0,
    1778.0,
    1778.0,
    1776.0,
    1778.0,
    1779.0,
    1779.0,
    1777.0,
    1778.0,
    1777.0,
    1775.0,
    1780.0,
    1784.0,
    1787.0,
    1784.0,
    1780.0,
    1778.0,
    1777.0,
    1779.0,
    1781.0,
    1782.0,
    1782.0,
    1779.0,
    1780.0,
    1786.0,
    1790.0,
    1789.0,
    1781.0,
    1776.0,
    1772.0,
    1771.0,
    1771.0,
    1773.0,
    1771.0,
    1776.0,
    1781.0,
    1787.0,
    1784.0,
    1778.0,
    1774.0,
    1774.0,
    1771.0,
    1775.0,
    1781.0,
    1784.0,
    1779.0,
    1774.0,
    1773.0,
    1774.0,
    1774.0,
    1773.0,
    1773.0,
    1773.0,
    1773.0,
    1779.0,
    1785.0,
    1784.0,
    1778.0,
    1773.0,
    1771.0,
    1771.0,
    1774.0
   ]
  },
  "slices": {}
 }
}