{
 "AcquisitionMatrixPE": 100,
 "AcquisitionNumber": 1,
 "AcquisitionTime": "15:37:0.700000",
 "BandwidthPerPixelPhaseEncode": 18.519,
 "BaseResolution": 100,
 "BodyPartExamined": "BRAIN",
 "ConsistencyInfo": "N4_VE11C_LATEST_20160120",
 "ConversionSoftware": "dcm2niix",
 "ConversionSoftwareVersion": "v1.0.20180622 GCC4.9.2",
 "DerivedVendorReportedEchoSpacing": 0.000539986,
 "DeviceSerialNumber": "166078",
 "DwellTime": 2.1e-06,
 "EchoTime": 0.034,
 "EchoTrainLength": 100,
 "EffectiveEchoSpacing": 0.000539986,
 "FlipAngle": 90,
 "ImageOrientationPatientDICOM": [
  0.999938,
  0.00935759,
  0.00610927,
  -0.00698104,
  0.94993,
  -0.312385
 ],
 "ImageType": [
  "ORIGINAL",
  "PRIMARY",
  "M",
  "ND",
  "MOSAIC"
 ],
 "InPlanePhaseEncodingDirectionDICOM": "COL",
 "InstitutionAddress": "Street_StreetNo_Bei_Jing_District_CN_ZIP",
 "InstitutionName": "BeiJing_Normal_University",
 "InstitutionalDepartmentName": "Department",
 "MRAcquisitionType": "2D",
 "MagneticFieldStrength": 3,
 "Manufacturer": "Siemens",
 "ManufacturersModelName": "Prisma",
 "Modality": "MR",
 "MultibandAccelerationFactor": 3,
 "PartialFourier": 1,
 "PatientPosition": "HFS",
 "PercentPhaseFOV": 100,
 "PhaseEncodingDirection": "j-",
 "PhaseEncodingSteps": 100,
 "PhaseResolution": 1,
 "PixelBandwidth": 2380,
 "ProcedureStepDescription": "BNU_P2018_64CH_Zhen.ZongLei",
 "ProtocolName": "bold_100x100_s3_2x2x2_static_test_241",
 "PulseSequenceDetails": "%SiemensSeq%_ep2d_bold",
 "ReceiveCoilActiveElements": "HC1-7;NC1",
 "ReceiveCoilName": "HeadNeck_64",
 "ReconMatrixPE": 100,
 "RepetitionTime": 2,
 "SAR": 0.0687371,
 "ScanOptions": "FS",
 "ScanningSequence": "EP",
 "SequenceName": "_epfid2d1_100",
 "SequenceVariant": "SK",
 "SeriesDescription": "bold_100x100_s3_2x2x2_static_test_241",
 "SeriesNumber": 6,
 "ShimSetting": [
  -5456,
  -11436,
  -1321,
  438,
  -13,
  -465,
  -309,
  47
 ],
 "SliceThickness": 2,
 "SliceTiming": [
  1.485,
  0,
  0.99,
  0.0825,
  1.0725,
  0.165,
  1.155,
  0.2475,
  1.2375,
  0.33,
  1.32,
  0.4125,
  1.4025,
  0.5775,
  1.5675,
  0.66,
  1.65,
  0.7425,
  1.7325,
  0.825,
  1.815,
  0.9075,
  1.8975,
  0.495,
  1.485,
  0,
  0.99,
  0.0825,
  1.0725,
  0.165,
  1.155,
  0.2475,
  1.2375,
  0.33,
  1.32,
  0.4125,
  1.4025,
  0.5775,
  1.5675,
  0.66,
  1.65,
  0.7425,
  1.7325,
  0.825,
  1.815,
  0.9075,
  1.8975,
  0.495,
  1.485,
  0,
  0.99,
  0.0825,
  1.0725,
  0.165,
  1.155,
  0.2475,
  1.2375,
  0.33,
  1.32,
  0.4125,
  1.4025,
  0.5775,
  1.5675,
  0.66,
  1.65,
  0.7425,
  1.7325,
  0.825,
  1.815,
  0.9075,
  1.8975,
  0.495
 ],
 "SoftwareVersions": "syngo_MR_E11",
 "SpacingBetweenSlices": 2,
 "StationName": "AWP166078",
 "TaskName": "coco",
 "TotalReadoutTime": 0.0534586,
 "TxRefAmp": 215.371,
 "dcmmeta_affine": [
  [
   -1.9998750686645508,
   -0.01396208256483078,
   0.017453106120228767,
   101.40771484375
  ],
  [
   -0.01871517486870289,
   1.8998597860336304,
   -0.6246460676193237,
   -71.0829849243164
  ],
  [
   0.01221854705363512,
   0.6247703433036804,
   1.8998717069625854,
   -113.97283935546875
  ],
  [
   0.0,
   0.0,
   0.0,
   1.0
  ]
 ],
 "dcmmeta_reorient_transform": [
  [
   0.0,
   -1.0,
   0.0,
   99.0
  ],
  [
   1.0,
   0.0,
   0.0,
   0.0
  ],
  [
   0.0,
   0.0,
   1.0,
   0.0
  ],
  [
   0.0,
   0.0,
   0.0,
   1.0
  ]
 ],
 "dcmmeta_shape": [
  100,
  100,
  72,
  241
 ],
 "dcmmeta_slice_dim": 2,
 "dcmmeta_version": 0.6,
 "global": {
  "const": {
   "AcquisitionMatrix": [
    100,
    0,
    0,
    100
   ],
   "AngioFlag": "N",
   "BitsAllocated": 16,
   "BitsStored": 12,
   "BodyPartExamined": "BRAIN",
   "Columns": 900,
   "EchoNumbers": 1,
   "EchoTime": 34.0,
   "EchoTrainLength": 100,
   "FlipAngle": 90.0,
   "HighBit": 11,
   "ImageOrientationPatient": [
    0.99993755421714,
    0.00935758761115,
    0.00610927330787,
    -0.006981041455,
    0.94992987145245,
    -0.3123851859204
   ],
   "ImagePositionPatient": [
    -894.39067506163,
    -884.43309403187,
    192.90016003537
   ],
   "ImageType": [
    "ORIGINAL",
    "PRIMARY",
    "M",
    "ND",
    "MOSAIC"
   ],
   "ImagedNucleus": "1H",
   "ImagingFrequency": 123.257797,
   "InPlanePhaseEncodingDirection": "COL",
   "MRAcquisitionType": "2D",
   "MagneticFieldStrength": 3.0,
   "Manufacturer": "SIEMENS",
   "ManufacturerModelName": "Prisma",
   "Modality": "MR",
   "NumberOfAverages": 1.0,
   "NumberOfPhaseEncodingSteps": 100,
   "PercentPhaseFieldOfView": 100.0,
   "PercentSampling": 100.0,
   "PerformedProcedureStepStartTime": "150705.759000",
   "PhotometricInterpretation": "MONOCHROME2",
   "PixelBandwidth": 2380.0,
   "PixelRepresentation": 0,
   "PixelSpacing": [
    2.0,
    2.0
   ],
   "ProtocolName": "bold_100x100_s3_2x2x2_static_test_241",
   "RepetitionTime": 2000.0,
   "Rows": 900,
   "SAR": 0.06873709161607,
   "SamplesPerPixel": 1,
   "ScanOptions": "FS",
   "ScanningSequence": "EP",
   "SequenceName": "*epfid2d1_100",
   "SequenceVariant": "SK",
   "SeriesDescription": "bold_100x100_s3_2x2x2_static_test_241",
   "SeriesNumber": 6,
   "SeriesTime": "153703.668000",
   "SliceLocation": -85.181093003094,
   "SliceThickness": 2.0,
   "SmallestImagePixelValue": 0,
   "SoftwareVersions": "syngo MR E11",
   "SpacingBetweenSlices": 2.0000000088882,
   "SpecificCharacterSet": "ISO_IR 100",
   "StudyID": "1",
   "StudyTime": "150705.681000",
   "TransmitCoilName": "Body",
   "VariableFlipAngleFlag": "N",
   "WindowCenterWidthExplanation": "Algo1",
   "dBdt": 0.0
  },
  "slices": {}
 },
 "time": {
  "samples": {
   "AcquisitionNumber": [
    1,
    2,
    3,
    4,
    5,
    6,
    7,
    8,
    9,
    10,
    11,
    12,
    13,
    14,
    15,
    16,
    17,
    18,
    19,
    20,
    21,
    22,
    23,
    24,
    25,
    26,
    27,
    28,
    29,
    30,
    31,
    32,
    33,
    34,
    35,
    36,
    37,
    38,
    39,
    40,
    41,
    42,
    43,
    44,
    45,
    46,
    47,
    48,
    49,
    50,
    51,
    52,
    53,
    54,
    55,
    56,
    57,
    58,
    59,
    60,
    61,
    62,
    63,
    64,
    65,
    66,
    67,
    68,
    69,
    70,
    71,
    72,
    73,
    74,
    75,
    76,
    77,
    78,
    79,
    80,
    81,
    82,
    83,
    84,
    85,
    86,
    87,
    88,
    89,
    90,
    91,
    92,
    93,
    94,
    95,
    96,
    97,
    98,
    99,
    100,
    101,
    102,
    103,
    104,
    105,
    106,
    107,
    108,
    109,
    110,
    111,
    112,
    113,
    114,
    115,
    116,
    117,
    118,
    119,
    120,
    121,
    122,
    123,
    124,
    125,
    126,
    127,
    128,
    129,
    130,
    131,
    132,
    133,
    134,
    135,
    136,
    137,
    138,
    139,
    140,
    141,
    142,
    143,
    144,
    145,
    146,
    147,
    148,
    149,
    150,
    151,
    152,
    153,
    154,
    155,
    156,
    157,
    158,
    159,
    160,
    161,
    162,
    163,
    164,
    165,
    166,
    167,
    168,
    169,
    170,
    171,
    172,
    173,
    174,
    175,
    176,
    177,
    178,
    179,
    180,
    181,
    182,
    183,
    184,
    185,
    186,
    187,
    188,
    189,
    190,
    191,
    192,
    193,
    194,
    195,
    196,
    197,
    198,
    199,
    200,
    201,
    202,
    203,
    204,
    205,
    206,
    207,
    208,
    209,
    210,
    211,
    212,
    213,
    214,
    215,
    216,
    217,
    218,
    219,
    220,
    221,
    222,
    223,
    224,
    225,
    226,
    227,
    228,
    229,
    230,
    231,
    232,
    233,
    234,
    235,
    236,
    237,
    238,
    239,
    240,
    241
   ],
   "AcquisitionTime": [
    "153700.700000",
    "153702.700000",
    "153704.700000",
    "153706.700000",
    "153708.700000",
    "153710.700000",
    "153712.700000",
    "153714.700000",
    "153716.700000",
    "153718.700000",
    "153720.700000",
    "153722.700000",
    "153724.700000",
    "153726.700000",
    "153728.700000",
    "153730.700000",
    "153732.700000",
    "153734.700000",
    "153736.700000",
    "153738.700000",
    "153740.700000",
    "153742.700000",
    "153744.700000",
    "153746.700000",
    "153748.700000",
    "153750.700000",
    "153752.700000",
    "153754.700000",
    "153756.700000",
    "153758.700000",
    "153800.700000",
    "153802.700000",
    "153804.700000",
    "153806.700000",
    "153808.700000",
    "153810.700000",
    "153812.700000",
    "153814.700000",
    "153816.700000",
    "153818.700000",
    "153820.700000",
    "153822.700000",
    "153824.700000",
    "153826.700000",
    "153828.700000",
    "153830.700000",
    "153832.700000",
    "153834.700000",
    "153836.700000",
    "153838.700000",
    "153840.700000",
    "153842.700000",
    "153844.700000",
    "153846.700000",
    "153848.700000",
    "153850.700000",
    "153852.700000",
    "153854.700000",
    "153856.700000",
    "153858.700000",
    "153900.700000",
    "153902.700000",
    "153904.700000",
    "153906.700000",
    "153908.700000",
    "153910.700000",
    "153912.700000",
    "153914.700000",
    "153916.700000",
    "153918.700000",
    "153920.700000",
    "153922.700000",
    "153924.700000",
    "153926.700000",
    "153928.700000",
    "153930.700000",
    "153932.700000",
    "153934.700000",
    "153936.700000",
    "153938.700000",
    "153940.700000",
    "153942.700000",
    "153944.700000",
    "153946.700000",
    "153948.700000",
    "153950.700000",
    "153952.700000",
    "153954.700000",
    "153956.700000",
    "153958.700000",
    "154000.700000",
    "154002.700000",
    "154004.700000",
    "154006.700000",
    "154008.700000",
    "154010.700000",
    "154012.700000",
    "154014.700000",
    "154016.700000",
    "154018.700000",
    "154020.700000",
    "154022.700000",
    "154024.700000",
    "154026.700000",
    "154028.700000",
    "154030.700000",
    "154032.700000",
    "154034.700000",
    "154036.700000",
    "154038.700000",
    "154040.700000",
    "154042.700000",
    "154044.700000",
    "154046.700000",
    "154048.700000",
    "154050.700000",
    "154052.700000",
    "154054.700000",
    "154056.700000",
    "154058.700000",
    "154100.700000",
    "154102.700000",
    "154104.700000",
    "154106.700000",
    "154108.700000",
    "154110.700000",
    "154112.700000",
    "154114.700000",
    "154116.700000",
    "154118.700000",
    "154120.700000",
    "154122.700000",
    "154124.700000",
    "154126.700000",
    "154128.700000",
    "154130.700000",
    "154132.700000",
    "154134.700000",
    "154136.700000",
    "154138.700000",
    "154140.700000",
    "154142.700000",
    "154144.700000",
    "154146.700000",
    "154148.700000",
    "154150.700000",
    "154152.700000",
    "154154.700000",
    "154156.700000",
    "154158.700000",
    "154200.700000",
    "154202.700000",
    "154204.700000",
    "154206.700000",
    "154208.700000",
    "154210.700000",
    "154212.700000",
    "154214.700000",
    "154216.700000",
    "154218.700000",
    "154220.700000",
    "154222.700000",
    "154224.700000",
    "154226.700000",
    "154228.700000",
    "154230.700000",
    "154232.700000",
    "154234.700000",
    "154236.700000",
    "154238.700000",
    "154240.700000",
    "154242.700000",
    "154244.700000",
    "154246.700000",
    "154248.700000",
    "154250.700000",
    "154252.700000",
    "154254.700000",
    "154256.700000",
    "154258.700000",
    "154300.700000",
    "154302.700000",
    "154304.700000",
    "154306.700000",
    "154308.700000",
    "154310.700000",
    "154312.700000",
    "154314.700000",
    "154316.700000",
    "154318.700000",
    "154320.700000",
    "154322.700000",
    "154324.700000",
    "154326.700000",
    "154328.700000",
    "154330.700000",
    "154332.700000",
    "154334.700000",
    "154336.700000",
    "154338.700000",
    "154340.700000",
    "154342.700000",
    "154344.700000",
    "154346.700000",
    "154348.700000",
    "154350.700000",
    "154352.700000",
    "154354.700000",
    "154356.700000",
    "154358.700000",
    "154400.700000",
    "154402.700000",
    "154404.700000",
    "154406.700000",
    "154408.700000",
    "154410.700000",
    "154412.700000",
    "154414.700000",
    "154416.700000",
    "154418.700000",
    "154420.700000",
    "154422.700000",
    "154424.700000",
    "154426.700000",
    "154428.700000",
    "154430.700000",
    "154432.700000",
    "154434.700000",
    "154436.700000",
    "154438.700000",
    "154440.700000",
    "154442.700000",
    "154444.700000",
    "154446.700000",
    "154448.700000",
    "154450.700000",
    "154452.700000",
    "154454.700000",
    "154456.700000",
    "154458.700000",
    "154500.700000"
   ],
   "ContentTime": [
    "153703.671000",
    "153705.166000",
    "153707.167000",
    "153709.168000",
    "153711.167000",
    "153713.167000",
    "153715.167000",
    "153717.167000",
    "153719.167000",
    "153721.167000",
    "153723.167000",
    "153725.168000",
    "153727.167000",
    "153729.168000",
    "153731.167000",
    "153733.167000",
    "153735.166000",
    "153737.167000",
    "153739.167000",
    "153741.167000",
    "153743.168000",
    "153745.168000",
    "153747.167000",
    "153749.167000",
    "153751.167000",
    "153753.166000",
    "153755.167000",
    "153757.167000",
    "153759.167000",
    "153801.168000",
    "153803.167000",
    "153805.167000",
    "153807.167000",
    "153809.167000",
    "153811.166000",
    "153813.167000",
    "153815.167000",
    "153817.168000",
    "153819.167000",
    "153821.168000",
    "153823.166000",
    "153825.167000",
    "153827.167000",
    "153829.166000",
    "153831.167000",
    "153833.167000",
    "153835.167000",
    "153837.168000",
    "153839.168000",
    "153841.167000",
    "153843.167000",
    "153845.166000",
    "153847.167000",
    "153849.166000",
    "153851.167000",
    "153853.168000",
    "153855.168000",
    "153857.167000",
    "153859.167000",
    "153901.167000",
    "153903.167000",
    "153905.167000",
    "153907.167000",
    "153909.166000",
    "153911.168000",
    "153913.168000",
    "153915.167000",
    "153917.166000",
    "153919.167000",
    "153921.166000",
    "153923.167000",
    "153925.167000",
    "153927.167000",
    "153929.168000",
    "153931.168000",
    "153933.167000",
    "153935.166000",
    "153937.167000",
    "153939.166000",
    "153941.167000",
    "153943.167000",
    "153945.168000",
    "153947.168000",
    "153949.168000",
    "153951.167000",
    "153953.166000",
    "153955.167000",
    "153957.166000",
    "153959.167000",
    "154001.167000",
    "154003.168000",
    "154005.168000",
    "154007.168000",
    "154009.166000",
    "154011.167000",
    "154013.167000",
    "154015.167000",
    "154017.166000",
    "154019.166000",
    "154021.168000",
    "154023.168000",
    "154025.166000",
    "154027.166000",
    "154029.167000",
    "154031.167000",
    "154033.166000",
    "154035.167000",
    "154037.168000",
    "154039.168000",
    "154041.168000",
    "154043.167000",
    "154045.167000",
    "154047.167000",
    "154049.166000",
    "154051.167000",
    "154053.167000",
    "154055.168000",
    "154057.167000",
    "154059.168000",
    "154101.166000",
    "154103.166000",
    "154105.167000",
    "154107.167000",
    "154109.167000",
    "154111.166000",
    "154113.167000",
    "154115.168000",
    "154117.167000",
    "154119.166000",
    "154121.167000",
    "154123.166000",
    "154125.167000",
    "154127.167000",
    "154129.167000",
    "154131.168000",
    "154133.168000",
    "154135.167000",
    "154137.166000",
    "154139.167000",
    "154141.166000",
    "154143.167000",
    "154145.167000",
    "154147.167000",
    "154149.168000",
    "154151.168000",
    "154153.166000",
    "154155.166000",
    "154157.166000",
    "154159.167000",
    "154201.167000",
    "154203.166000",
    "154205.167000",
    "154207.167000",
    "154209.168000",
    "154211.174000",
    "154213.167000",
    "154215.167000",
    "154217.166000",
    "154219.167000",
    "154221.167000",
    "154223.168000",
    "154225.168000",
    "154227.168000",
    "154229.166000",
    "154231.166000",
    "154233.166000",
    "154235.166000",
    "154237.166000",
    "154239.167000",
    "154241.168000",
    "154243.167000",
    "154245.167000",
    "154247.167000",
    "154249.167000",
    "154251.167000",
    "154253.167000",
    "154255.167000",
    "154257.168000",
    "154259.168000",
    "154301.167000",
    "154303.167000",
    "154305.166000",
    "154307.167000",
    "154309.167000",
    "154311.167000",
    "154313.167000",
    "154315.168000",
    "154317.168000",
    "154319.167000",
    "154321.167000",
    "154323.166000",
    "154325.167000",
    "154327.167000",
    "154329.167000",
    "154331.167000",
    "154333.168000",
    "154335.168000",
    "154337.167000",
    "154339.167000",
    "154341.167000",
    "154343.167000",
    "154345.167000",
    "154347.167000",
    "154349.166000",
    "154351.168000",
    "154353.168000",
    "154355.167000",
    "154357.167000",
    "154359.166000",
    "154401.167000",
    "154403.167000",
    "154405.167000",
    "154407.168000",
    "154409.168000",
    "154411.168000",
    "154413.167000",
    "154415.167000",
    "154417.167000",
    "154419.166000",
    "154421.167000",
    "154423.167000",
    "154425.168000",
    "154427.168000",
    "154429.168000",
    "154431.167000",
    "154433.166000",
    "154435.167000",
    "154437.167000",
    "154439.166000",
    "154441.167000",
    "154443.168000",
    "154445.167000",
    "154447.167000",
    "154449.167000",
    "154451.167000",
    "154453.167000",
    "154455.167000",
    "154457.167000",
    "154459.166000",
    "154501.168000",
    "154502.817000"
   ],
   "InstanceCreationTime": [
    "153703.671000",
    "153705.166000",
    "153707.167000",
    "153709.168000",
    "153711.167000",
    "153713.167000",
    "153715.167000",
    "153717.167000",
    "153719.167000",
    "153721.167000",
    "153723.167000",
    "153725.168000",
    "153727.167000",
    "153729.168000",
    "153731.167000",
    "153733.167000",
    "153735.166000",
    "153737.167000",
    "153739.167000",
    "153741.167000",
    "153743.168000",
    "153745.168000",
    "153747.167000",
    "153749.167000",
    "153751.167000",
    "153753.166000",
    "153755.167000",
    "153757.167000",
    "153759.167000",
    "153801.168000",
    "153803.167000",
    "153805.167000",
    "153807.167000",
    "153809.167000",
    "153811.166000",
    "153813.167000",
    "153815.167000",
    "153817.168000",
    "153819.167000",
    "153821.168000",
    "153823.166000",
    "153825.167000",
    "153827.167000",
    "153829.166000",
    "153831.167000",
    "153833.167000",
    "153835.167000",
    "153837.168000",
    "153839.168000",
    "153841.167000",
    "153843.167000",
    "153845.166000",
    "153847.167000",
    "153849.166000",
    "153851.167000",
    "153853.168000",
    "153855.168000",
    "153857.167000",
    "153859.167000",
    "153901.167000",
    "153903.167000",
    "153905.167000",
    "153907.167000",
    "153909.166000",
    "153911.168000",
    "153913.168000",
    "153915.167000",
    "153917.166000",
    "153919.167000",
    "153921.166000",
    "153923.167000",
    "153925.167000",
    "153927.167000",
    "153929.168000",
    "153931.168000",
    "153933.167000",
    "153935.166000",
    "153937.167000",
    "153939.166000",
    "153941.167000",
    "153943.167000",
    "153945.168000",
    "153947.168000",
    "153949.168000",
    "153951.167000",
    "153953.166000",
    "153955.167000",
    "153957.166000",
    "153959.167000",
    "154001.167000",
    "154003.168000",
    "154005.168000",
    "154007.168000",
    "154009.166000",
    "154011.167000",
    "154013.167000",
    "154015.167000",
    "154017.166000",
    "154019.166000",
    "154021.168000",
    "154023.168000",
    "154025.166000",
    "154027.166000",
    "154029.167000",
    "154031.167000",
    "154033.166000",
    "154035.167000",
    "154037.168000",
    "154039.168000",
    "154041.168000",
    "154043.167000",
    "154045.167000",
    "154047.167000",
    "154049.166000",
    "154051.167000",
    "154053.167000",
    "154055.168000",
    "154057.167000",
    "154059.168000",
    "154101.166000",
    "154103.166000",
    "154105.167000",
    "154107.167000",
    "154109.167000",
    "154111.166000",
    "154113.167000",
    "154115.168000",
    "154117.167000",
    "154119.166000",
    "154121.167000",
    "154123.166000",
    "154125.167000",
    "154127.167000",
    "154129.167000",
    "154131.168000",
    "154133.168000",
    "154135.167000",
    "154137.166000",
    "154139.167000",
    "154141.166000",
    "154143.167000",
    "154145.167000",
    "154147.167000",
    "154149.168000",
    "154151.168000",
    "154153.166000",
    "154155.166000",
    "154157.166000",
    "154159.167000",
    "154201.167000",
    "154203.166000",
    "154205.167000",
    "154207.167000",
    "154209.168000",
    "154211.174000",
    "154213.167000",
    "154215.167000",
    "154217.166000",
    "154219.167000",
    "154221.167000",
    "154223.168000",
    "154225.168000",
    "154227.168000",
    "154229.166000",
    "154231.166000",
    "154233.166000",
    "154235.166000",
    "154237.166000",
    "154239.167000",
    "154241.168000",
    "154243.167000",
    "154245.167000",
    "154247.167000",
    "154249.167000",
    "154251.167000",
    "154253.167000",
    "154255.167000",
    "154257.168000",
    "154259.168000",
    "154301.167000",
    "154303.167000",
    "154305.166000",
    "154307.167000",
    "154309.167000",
    "154311.167000",
    "154313.167000",
    "154315.168000",
    "154317.168000",
    "154319.167000",
    "154321.167000",
    "154323.166000",
    "154325.167000",
    "154327.167000",
    "154329.167000",
    "154331.167000",
    "154333.168000",
    "154335.168000",
    "154337.167000",
    "154339.167000",
    "154341.167000",
    "154343.167000",
    "154345.167000",
    "154347.167000",
    "154349.166000",
    "154351.168000",
    "154353.168000",
    "154355.167000",
    "154357.167000",
    "154359.166000",
    "154401.167000",
    "154403.167000",
    "154405.167000",
    "154407.168000",
    "154409.168000",
    "154411.168000",
    "154413.167000",
    "154415.167000",
    "154417.167000",
    "154419.166000",
    "154421.167000",
    "154423.167000",
    "154425.168000",
    "154427.168000",
    "154429.168000",
    "154431.167000",
    "154433.166000",
    "154435.167000",
    "154437.167000",
    "154439.166000",
    "154441.167000",
    "154443.168000",
    "154445.167000",
    "154447.167000",
    "154449.167000",
    "154451.167000",
    "154453.167000",
    "154455.167000",
    "154457.167000",
    "154459.166000",
    "154501.168000",
    "154502.817000"
   ],
   "InstanceNumber": [
    1,
    2,
    3,
    4,
    5,
    6,
    7,
    8,
    9,
    10,
    11,
    12,
    13,
    14,
    15,
    16,
    17,
    18,
    19,
    20,
    21,
    22,
    23,
    24,
    25,
    26,
    27,
    28,
    29,
    30,
    31,
    32,
    33,
    34,
    35,
    36,
    37,
    38,
    39,
    40,
    41,
    42,
    43,
    44,
    45,
    46,
    47,
    48,
    49,
    50,
    51,
    52,
    53,
    54,
    55,
    56,
    57,
    58,
    59,
    60,
    61,
    62,
    63,
    64,
    65,
    66,
    67,
    68,
    69,
    70,
    71,
    72,
    73,
    74,
    75,
    76,
    77,
    78,
    79,
    80,
    81,
    82,
    83,
    84,
    85,
    86,
    87,
    88,
    89,
    90,
    91,
    92,
    93,
    94,
    95,
    96,
    97,
    98,
    99,
    100,
    101,
    102,
    103,
    104,
    105,
    106,
    107,
    108,
    109,
    110,
    111,
    112,
    113,
    114,
    115,
    116,
    117,
    118,
    119,
    120,
    121,
    122,
    123,
    124,
    125,
    126,
    127,
    128,
    129,
    130,
    131,
    132,
    133,
    134,
    135,
    136,
    137,
    138,
    139,
    140,
    141,
    142,
    143,
    144,
    145,
    146,
    147,
    148,
    149,
    150,
    151,
    152,
    153,
    154,
    155,
    156,
    157,
    158,
    159,
    160,
    161,
    162,
    163,
    164,
    165,
    166,
    167,
    168,
    169,
    170,
    171,
    172,
    173,
    174,
    175,
    176,
    177,
    178,
    179,
    180,
    181,
    182,
    183,
    184,
    185,
    186,
    187,
    188,
    189,
    190,
    191,
    192,
    193,
    194,
    195,
    196,
    197,
    198,
    199,
    200,
    201,
    202,
    203,
    204,
    205,
    206,
    207,
    208,
    209,
    210,
    211,
    212,
    213,
    214,
    215,
    216,
    217,
    218,
    219,
    220,
    221,
    222,
    223,
    224,
    225,
    226,
    227,
    228,
    229,
    230,
    231,
    232,
    233,
    234,
    235,
    236,
    237,
    238,
    239,
    240,
    241
   ],
   "LargestImagePixelValue": [
    3239,
    3174,
    3129,
    3137,
    3120,
    3113,
    3103,
    3127,
    3107,
    3126,
    3136,
    3139,
    3123,
    3126,
    3128,
    3142,
    3154,
    3188,
    3198,
    3169,
    3117,
    3099,
    3145,
    3153,
    3159,
    3124,
    3165,
    3161,
    3176,
    3135,
    3140,
    3185,
    3154,
    3160,
    3137,
    3113,
    3136,
    3143,
    3145,
    3142,
    3141,
    3132,
    3120,
    3131,
    3144,
    3154,
    3155,
    3126,
    3136,
    3132,
    3147,
    3179,
    3161,
    3151,
    3113,
    3131,
    3120,
    3143,
    3152,
    3121,
    3108,
    3138,
    3090,
    3113,
    3131,
    3113,
    3113,
    3103,
    3113,
    3132,
    3120,
    3138,
    3125,
    3119,
    3143,
    3137,
    3147,
    3134,
    3141,
    3144,
    3132,
    3133,
    3130,
    3112,
    3122,
    3137,
    3112,
    3126,
    3157,
    3117,
    3138,
    3127,
    3137,
    3132,
    3143,
    3142,
    3139,
    3120,
    3147,
    3131,
    3123,
    3105,
    3146,
    3149,
    3117,
    3134,
    3139,
    3119,
    3111,
    3125,
    3139,
    3126,
    3124,
    3110,
    3133,
    3153,
    3126,
    3141,
    3164,
    3139,
    3151,
    3122,
    3115,
    3114,
    3099,
    3145,
    3111,
    3107,
    3101,
    3142,
    3115,
    3131,
    3134,
    3126,
    3124,
    3129,
    3120,
    3152,
    3148,
    3131,
    3130,
    3160,
    3158,
    3129,
    3115,
    3120,
    3142,
    3128,
    3126,
    3129,
    3177,
    3132,
    3117,
    3174,
    3127,
    3127,
    3144,
    3107,
    3133,
    3122,
    3135,
    3143,
    3089,
    3120,
    3123,
    3100,
    3109,
    3111,
    3160,
    3135,
    3104,
    3137,
    3139,
    3128,
    3128,
    3134,
    3151,
    3145,
    3139,
    3131,
    3126,
    3122,
    3108,
    3143,
    3126,
    3156,
    3115,
    3147,
    3161,
    3148,
    3154,
    3157,
    3154,
    3138,
    3170,
    3125,
    3143,
    3141,
    3130,
    3129,
    3152,
    3161,
    3140,
    3135,
    3154,
    3173,
    3152,
    3173,
    3136,
    3151,
    3135,
    3120,
    3120,
    3148,
    3145,
    3136,
    3140,
    3161,
    3161,
    3117,
    3117,
    3132,
    3153,
    3128,
    3113,
    3140,
    3143,
    3152,
    3155,
    3155,
    3138,
    3130,
    3143,
    3140,
    3166,
    3134,
    3147,
    3129,
    3139,
    3136,
    3138
   ],
   "WindowCenter": [
    766.0,
    764.0,
    762.0,
    762.0,
    761.0,
    761.0,
    762.0,
    762.0,
    763.0,
    763.0,
    765.0,
    765.0,
    764.0,
    764.0,
    764.0,
    764.0,
    765.0,
    766.0,
    767.0,
    766.0,
    764.0,
    764.0,
    764.0,
    765.0,
    764.0,
    764.0,
    766.0,
    766.0,
    765.0,
    765.0,
    765.0,
    765.0,
    764.0,
    764.0,
    762.0,
    762.0,
    764.0,
    765.0,
    764.0,
    764.0,
    764.0,
    764.0,
    765.0,
    764.0,
    764.0,
    765.0,
    764.0,
    763.0,
    763.0,
    763.0,
    764.0,
    765.0,
    766.0,
    766.0,
    764.0,
    764.0,
    765.0,
    765.0,
    765.0,
    764.0,
    763.0,
    763.0,
    763.0,
    763.0,
    764.0,
    764.0,
    764.0,
    765.0,
    764.0,
    764.0,
    764.0,
    764.0,
    765.0,
    765.0,
    766.0,
    766.0,
    766.0,
    766.0,
    765.0,
    765.0,
    766.0,
    767.0,
    766.0,
    766.0,
    765.0,
    766.0,
    766.0,
    767.0,
    766.0,
    765.0,
    765.0,
    764.0,
    764.0,
    765.0,
    764.0,
    764.0,
    764.0,
    763.0,
    763.0,
    763.0,
    762.0,
    763.0,
    764.0,
    764.0,
    763.0,
    764.0,
    764.0,
    764.0,
    763.0,
    763.0,
    764.0,
    764.0,
    764.0,
    763.0,
    763.0,
    763.0,
    762.0,
    764.0,
    765.0,
    765.0,
    765.0,
    766.0,
    765.0,
    764.0,
    765.0,
    765.0,
    765.0,
    765.0,
    764.0,
    763.0,
    764.0,
    764.0,
    764.0,
    765.0,
    766.0,
    766.0,
    765.0,
    765.0,
    766.0,
    767.0,
    766.0,
    766.0,
    766.0,
    765.0,
    764.0,
    764.0,
    765.0,
    765.0,
    765.0,
    765.0,
    765.0,
    765.0,
    764.0,
    765.0,
    766.0,
    765.0,
    764.0,
    765.0,
    765.0,
    766.0,
    767.0,
    767.0,
    765.0,
    764.0,
    765.0,
    765.0,
    765.0,
    765.0,
    765.0,
    765.0,
    765.0,
    765.0,
    765.0,
    766.0,
    766.0,
    765.0,
    765.0,
    766.0,
    766.0,
    765.0,
    764.0,
    765.0,
    765.0,
    766.0,
    765.0,
    764.0,
    764.0,
    765.0,
    766.0,
    765.0,
    765.0,
    764.0,
    765.0,
    764.0,
    765.0,
    764.0,
    764.0,
    764.0,
    765.0,
    765.0,
    765.0,
    766.0,
    766.0,
    765.0,
    766.0,
    766.0,
    766.0,
    766.0,
    765.0,
    766.0,
    766.0,
    766.0,
    765.0,
    766.0,
    766.0,
    767.0,
    766.0,
    765.0,
    765.0,
    764.0,
    763.0,
    764.0,
    764.0,
    764.0,
    764.0,
    763.0,
    763.0,
    764.0,
    765.0,
    765.0,
    765.0,
    765.0,
