{
 "AcquisitionMatrixPE": 100,
 "AcquisitionNumber": 1,
 "AcquisitionTime": "15:53:11.675000",
 "BandwidthPerPixelPhaseEncode": 18.519,
 "BaseResolution": 100,
 "BodyPartExamined": "BRAIN",
 "ConsistencyInfo": "N4_VE11C_LATEST_20160120",
 "ConversionSoftware": "dcm2niix",
 "ConversionSoftwareVersion": "v1.0.20180622 GCC4.9.2",
 "DerivedVendorReportedEchoSpacing": 0.000539986,
 "DeviceSerialNumber": "166078",
 "DwellTime": 2.1e-06,
 "EchoTime": 0.034,
 "EchoTrainLength": 100,
 "EffectiveEchoSpacing": 0.000539986,
 "FlipAngle": 90,
 "ImageOrientationPatientDICOM": [
  0.999893,
  0.00262549,
  -0.0143657,
  -0.00698067,
  0.949972,
  -0.312256
 ],
 "ImageType": [
  "ORIGINAL",
  "PRIMARY",
  "M",
  "ND",
  "MOSAIC"
 ],
 "InPlanePhaseEncodingDirectionDICOM": "COL",
 "InstitutionAddress": "Street_StreetNo_Bei_Jing_District_CN_ZIP",
 "InstitutionName": "BeiJing_Normal_University",
 "InstitutionalDepartmentName": "Department",
 "MRAcquisitionType": "2D",
 "MagneticFieldStrength": 3,
 "Manufacturer": "Siemens",
 "ManufacturersModelName": "Prisma",
 "Modality": "MR",
 "MultibandAccelerationFactor": 3,
 "PartialFourier": 1,
 "PatientPosition": "HFS",
 "PercentPhaseFOV": 100,
 "PhaseEncodingDirection": "j-",
 "PhaseEncodingSteps": 100,
 "PhaseResolution": 1,
 "PixelBandwidth": 2380,
 "ProcedureStepDescription": "BNU_P2018_64CH_Zhen.ZongLei",
 "ProtocolName": "bold_100x100_s3_2x2x2_static_test_241",
 "PulseSequenceDetails": "%SiemensSeq%_ep2d_bold",
 "ReceiveCoilActiveElements": "HC1-7;NC1",
 "ReceiveCoilName": "HeadNeck_64",
 "ReconMatrixPE": 100,
 "RepetitionTime": 2,
 "SAR": 0.0689345,
 "ScanOptions": "FS",
 "ScanningSequence": "EP",
 "SequenceName": "_epfid2d1_100",
 "SequenceVariant": "SK",
 "SeriesDescription": "bold_100x100_s3_2x2x2_static_test_241",
 "SeriesNumber": 9,
 "ShimSetting": [
  -5463,
  -11479,
  -1282,
  476,
  19,
  -355,
  -225,
  70
 ],
 "SliceThickness": 2,
 "SliceTiming": [
  1.485,
  0,
  0.99,
  0.0825,
  1.0725,
  0.165,
  1.155,
  0.2475,
  1.2375,
  0.33,
  1.32,
  0.4125,
  1.4025,
  0.5775,
  1.5675,
  0.66,
  1.65,
  0.7425,
  1.7325,
  0.825,
  1.815,
  0.9075,
  1.8975,
  0.495,
  1.485,
  0,
  0.99,
  0.0825,
  1.0725,
  0.165,
  1.155,
  0.2475,
  1.2375,
  0.33,
  1.32,
  0.4125,
  1.4025,
  0.5775,
  1.5675,
  0.66,
  1.65,
  0.7425,
  1.7325,
  0.825,
  1.815,
  0.9075,
  1.8975,
  0.495,
  1.485,
  0,
  0.99,
  0.0825,
  1.0725,
  0.165,
  1.155,
  0.2475,
  1.2375,
  0.33,
  1.32,
  0.4125,
  1.4025,
  0.5775,
  1.5675,
  0.66,
  1.65,
  0.7425,
  1.7325,
  0.825,
  1.815,
  0.9075,
  1.8975,
  0.495
 ],
 "SoftwareVersions": "syngo_MR_E11",
 "SpacingBetweenSlices": 2,
 "StationName": "AWP166078",
 "TaskName": "coco",
 "TotalReadoutTime": 0.0534586,
 "TxRefAmp": 213.025,
 "dcmmeta_affine": [
  [
   -1.9997867345809937,
   -0.01396134402602911,
   -0.025654451921582222,
   102.93708801269531
  ],
  [
   -0.005250974558293819,
   1.8999446630477905,
   -0.6246460676193237,
   -71.14349365234375
  ],
  [
   -0.028731469064950943,
   0.6245120763778687,
   1.8997787237167358,
   -104.50528717041016
  ],
  [
   0.0,
   0.0,
   0.0,
   1.0
  ]
 ],
 "dcmmeta_reorient_transform": [
  [
   0.0,
   -1.0,
   0.0,
   99.0
  ],
  [
   1.0,
   0.0,
   0.0,
   0.0
  ],
  [
   0.0,
   0.0,
   1.0,
   0.0
  ],
  [
   0.0,
   0.0,
   0.0,
   1.0
  ]
 ],
 "dcmmeta_shape": [
  100,
  100,
  72,
  241
 ],
 "dcmmeta_slice_dim": 2,
 "dcmmeta_version": 0.6,
 "global": {
  "const": {
   "AcquisitionMatrix": [
    100,
    0,
    0,
    100
   ],
   "AngioFlag": "N",
   "BitsAllocated": 16,
   "BitsStored": 12,
   "BodyPartExamined": "BRAIN",
   "Columns": 900,
   "EchoNumbers": 1,
   "EchoTime": 34.0,
   "EchoTrainLength": 100,
   "FlipAngle": 90.0,
   "HighBit": 11,
   "ImageOrientationPatient": [
    0.99989336056034,
    0.00262548721514,
    -0.0143657343787,
    -0.0069806719624,
    0.94997233416477,
    -0.3122560400384
   ],
   "ImagePositionPatient": [
    -895.88506204926,
    -879.02928718198,
    218.61883006871
   ],
   "ImageType": [
    "ORIGINAL",
    "PRIMARY",
    "M",
    "ND",
    "MOSAIC"
   ],
   "ImagedNucleus": "1H",
   "ImagingFrequency": 123.257786,
   "InPlanePhaseEncodingDirection": "COL",
   "MRAcquisitionType": "2D",
   "MagneticFieldStrength": 3.0,
   "Manufacturer": "SIEMENS",
   "ManufacturerModelName": "Prisma",
   "Modality": "MR",
   "NumberOfAverages": 1.0,
   "NumberOfPhaseEncodingSteps": 100,
   "PercentPhaseFieldOfView": 100.0,
   "PercentSampling": 100.0,
   "PerformedProcedureStepStartTime": "150705.759000",
   "PhotometricInterpretation": "MONOCHROME2",
   "PixelBandwidth": 2380.0,
   "PixelRepresentation": 0,
   "PixelSpacing": [
    2.0,
    2.0
   ],
   "ProtocolName": "bold_100x100_s3_2x2x2_static_test_241",
   "RepetitionTime": 2000.0,
   "Rows": 900,
   "SAR": 0.06893445742794,
   "SamplesPerPixel": 1,
   "ScanOptions": "FS",
   "ScanningSequence": "EP",
   "SequenceName": "*epfid2d1_100",
   "SequenceVariant": "SK",
   "SeriesDescription": "bold_100x100_s3_2x2x2_static_test_241",
   "SeriesNumber": 9,
   "SeriesTime": "155314.587000",
   "SliceLocation": -78.369105052572,
   "SliceThickness": 2.0,
   "SmallestImagePixelValue": 0,
   "SoftwareVersions": "syngo MR E11",
   "SpacingBetweenSlices": 1.9999999979547,
   "SpecificCharacterSet": "ISO_IR 100",
   "StudyID": "1",
   "StudyTime": "150705.681000",
   "TransmitCoilName": "Body",
   "VariableFlipAngleFlag": "N",
   "WindowCenterWidthExplanation": "Algo1",
   "dBdt": 0.0
  },
  "slices": {}
 },
 "time": {
  "samples": {
   "AcquisitionNumber": [
    1,
    2,
    3,
    4,
    5,
    6,
    7,
    8,
    9,
    10,
    11,
    12,
    13,
    14,
    15,
    16,
    17,
    18,
    19,
    20,
    21,
    22,
    23,
    24,
    25,
    26,
    27,
    28,
    29,
    30,
    31,
    32,
    33,
    34,
    35,
    36,
    37,
    38,
    39,
    40,
    41,
    42,
    43,
    44,
    45,
    46,
    47,
    48,
    49,
    50,
    51,
    52,
    53,
    54,
    55,
    56,
    57,
    58,
    59,
    60,
    61,
    62,
    63,
    64,
    65,
    66,
    67,
    68,
    69,
    70,
    71,
    72,
    73,
    74,
    75,
    76,
    77,
    78,
    79,
    80,
    81,
    82,
    83,
    84,
    85,
    86,
    87,
    88,
    89,
    90,
    91,
    92,
    93,
    94,
    95,
    96,
    97,
    98,
    99,
    100,
    101,
    102,
    103,
    104,
    105,
    106,
    107,
    108,
    109,
    110,
    111,
    112,
    113,
    114,
    115,
    116,
    117,
    118,
    119,
    120,
    121,
    122,
    123,
    124,
    125,
    126,
    127,
    128,
    129,
    130,
    131,
    132,
    133,
    134,
    135,
    136,
    137,
    138,
    139,
    140,
    141,
    142,
    143,
    144,
    145,
    146,
    147,
    148,
    149,
    150,
    151,
    152,
    153,
    154,
    155,
    156,
    157,
    158,
    159,
    160,
    161,
    162,
    163,
    164,
    165,
    166,
    167,
    168,
    169,
    170,
    171,
    172,
    173,
    174,
    175,
    176,
    177,
    178,
    179,
    180,
    181,
    182,
    183,
    184,
    185,
    186,
    187,
    188,
    189,
    190,
    191,
    192,
    193,
    194,
    195,
    196,
    197,
    198,
    199,
    200,
    201,
    202,
    203,
    204,
    205,
    206,
    207,
    208,
    209,
    210,
    211,
    212,
    213,
    214,
    215,
    216,
    217,
    218,
    219,
    220,
    221,
    222,
    223,
    224,
    225,
    226,
    227,
    228,
    229,
    230,
    231,
    232,
    233,
    234,
    235,
    236,
    237,
    238,
    239,
    240,
    241
   ],
   "AcquisitionTime": [
    "155311.675000",
    "155313.675000",
    "155315.675000",
    "155317.675000",
    "155319.675000",
    "155321.675000",
    "155323.675000",
    "155325.675000",
    "155327.675000",
    "155329.675000",
    "155331.675000",
    "155333.675000",
    "155335.675000",
    "155337.675000",
    "155339.675000",
    "155341.675000",
    "155343.675000",
    "155345.675000",
    "155347.675000",
    "155349.675000",
    "155351.675000",
    "155353.675000",
    "155355.675000",
    "155357.675000",
    "155359.675000",
    "155401.675000",
    "155403.675000",
    "155405.675000",
    "155407.675000",
    "155409.675000",
    "155411.675000",
    "155413.675000",
    "155415.675000",
    "155417.675000",
    "155419.675000",
    "155421.675000",
    "155423.675000",
    "155425.675000",
    "155427.675000",
    "155429.675000",
    "155431.675000",
    "155433.675000",
    "155435.675000",
    "155437.675000",
    "155439.675000",
    "155441.675000",
    "155443.675000",
    "155445.675000",
    "155447.675000",
    "155449.675000",
    "155451.675000",
    "155453.675000",
    "155455.675000",
    "155457.675000",
    "155459.675000",
    "155501.675000",
    "155503.675000",
    "155505.675000",
    "155507.675000",
    "155509.675000",
    "155511.675000",
    "155513.675000",
    "155515.675000",
    "155517.675000",
    "155519.675000",
    "155521.675000",
    "155523.675000",
    "155525.675000",
    "155527.675000",
    "155529.675000",
    "155531.675000",
    "155533.675000",
    "155535.675000",
    "155537.675000",
    "155539.675000",
    "155541.675000",
    "155543.675000",
    "155545.675000",
    "155547.675000",
    "155549.675000",
    "155551.675000",
    "155553.675000",
    "155555.675000",
    "155557.675000",
    "155559.675000",
    "155601.675000",
    "155603.675000",
    "155605.675000",
    "155607.675000",
    "155609.675000",
    "155611.675000",
    "155613.675000",
    "155615.675000",
    "155617.675000",
    "155619.675000",
    "155621.675000",
    "155623.675000",
    "155625.675000",
    "155627.675000",
    "155629.675000",
    "155631.675000",
    "155633.675000",
    "155635.675000",
    "155637.675000",
    "155639.675000",
    "155641.675000",
    "155643.675000",
    "155645.675000",
    "155647.675000",
    "155649.675000",
    "155651.675000",
    "155653.675000",
    "155655.675000",
    "155657.675000",
    "155659.675000",
    "155701.675000",
    "155703.675000",
    "155705.675000",
    "155707.675000",
    "155709.675000",
    "155711.675000",
    "155713.675000",
    "155715.675000",
    "155717.675000",
    "155719.675000",
    "155721.675000",
    "155723.675000",
    "155725.675000",
    "155727.675000",
    "155729.675000",
    "155731.675000",
    "155733.675000",
    "155735.675000",
    "155737.675000",
    "155739.675000",
    "155741.675000",
    "155743.675000",
    "155745.675000",
    "155747.675000",
    "155749.675000",
    "155751.675000",
    "155753.675000",
    "155755.675000",
    "155757.675000",
    "155759.675000",
    "155801.675000",
    "155803.675000",
    "155805.675000",
    "155807.675000",
    "155809.675000",
    "155811.675000",
    "155813.675000",
    "155815.675000",
    "155817.675000",
    "155819.675000",
    "155821.675000",
    "155823.675000",
    "155825.675000",
    "155827.675000",
    "155829.675000",
    "155831.675000",
    "155833.675000",
    "155835.675000",
    "155837.675000",
    "155839.675000",
    "155841.675000",
    "155843.675000",
    "155845.675000",
    "155847.675000",
    "155849.675000",
    "155851.675000",
    "155853.675000",
    "155855.675000",
    "155857.675000",
    "155859.675000",
    "155901.675000",
    "155903.675000",
    "155905.675000",
    "155907.675000",
    "155909.675000",
    "155911.675000",
    "155913.675000",
    "155915.675000",
    "155917.675000",
    "155919.675000",
    "155921.675000",
    "155923.675000",
    "155925.675000",
    "155927.675000",
    "155929.675000",
    "155931.675000",
    "155933.675000",
    "155935.675000",
    "155937.675000",
    "155939.675000",
    "155941.675000",
    "155943.675000",
    "155945.675000",
    "155947.675000",
    "155949.675000",
    "155951.675000",
    "155953.675000",
    "155955.675000",
    "155957.675000",
    "155959.675000",
    "160001.675000",
    "160003.675000",
    "160005.675000",
    "160007.675000",
    "160009.675000",
    "160011.675000",
    "160013.675000",
    "160015.675000",
    "160017.675000",
    "160019.675000",
    "160021.675000",
    "160023.675000",
    "160025.675000",
    "160027.675000",
    "160029.675000",
    "160031.675000",
    "160033.675000",
    "160035.675000",
    "160037.675000",
    "160039.675000",
    "160041.675000",
    "160043.675000",
    "160045.675000",
    "160047.675000",
    "160049.675000",
    "160051.675000",
    "160053.675000",
    "160055.675000",
    "160057.675000",
    "160059.675000",
    "160101.675000",
    "160103.675000",
    "160105.675000",
    "160107.675000",
    "160109.675000",
    "160111.675000"
   ],
   "ContentTime": [
    "155314.591000",
    "155316.086000",
    "155318.086000",
    "155320.086000",
    "155322.085000",
    "155324.085000",
    "155326.086000",
    "155328.087000",
    "155330.087000",
    "155332.087000",
    "155334.086000",
    "155336.086000",
    "155338.086000",
    "155340.086000",
    "155342.085000",
    "155344.087000",
    "155346.087000",
    "155348.087000",
    "155350.086000",
    "155352.086000",
    "155354.085000",
    "155356.086000",
    "155358.085000",
    "155400.086000",
    "155402.087000",
    "155404.086000",
    "155406.087000",
    "155408.086000",
    "155410.085000",
    "155412.086000",
    "155414.086000",
    "155416.086000",
    "155418.085000",
    "155420.087000",
    "155422.087000",
    "155424.086000",
    "155426.087000",
    "155428.085000",
    "155430.086000",
    "155432.085000",
    "155434.086000",
    "155436.085000",
    "155438.086000",
    "155440.086000",
    "155442.086000",
    "155444.086000",
    "155446.085000",
    "155448.086000",
    "155450.085000",
    "155452.085000",
    "155454.086000",
    "155456.087000",
    "155458.087000",
    "155500.087000",
    "155502.086000",
    "155504.086000",
    "155506.086000",
    "155508.086000",
    "155510.085000",
    "155512.087000",
    "155514.086000",
    "155516.086000",
    "155518.098000",
    "155520.086000",
    "155522.086000",
    "155524.085000",
    "155526.086000",
    "155528.086000",
    "155530.087000",
    "155532.093000",
    "155534.107000",
    "155536.086000",
    "155538.086000",
    "155540.086000",
    "155542.089000",
    "155544.086000",
    "155546.085000",
    "155548.086000",
    "155550.086000",
    "155552.087000",
    "155554.086000",
    "155556.086000",
    "155558.085000",
    "155600.086000",
    "155602.085000",
    "155604.087000",
    "155606.087000",
    "155608.087000",
    "155610.086000",
    "155612.085000",
    "155614.085000",
    "155616.086000",
    "155618.086000",
    "155620.085000",
    "155622.087000",
    "155624.086000",
    "155626.087000",
    "155628.087000",
    "155630.085000",
    "155632.086000",
    "155634.086000",
    "155636.085000",
    "155638.086000",
    "155640.086000",
    "155642.087000",
    "155644.087000",
    "155646.087000",
    "155648.086000",
    "155650.086000",
    "155652.086000",
    "155654.085000",
    "155656.087000",
    "155658.086000",
    "155700.087000",
    "155702.087000",
    "155704.086000",
    "155706.085000",
    "155708.085000",
    "155710.086000",
    "155712.085000",
    "155714.087000",
    "155716.087000",
    "155718.086000",
    "155720.087000",
    "155722.085000",
    "155724.085000",
    "155726.085000",
    "155728.085000",
    "155730.086000",
    "155732.090000",
    "155734.086000",
    "155736.086000",
    "155738.087000",
    "155740.085000",
    "155742.086000",
    "155744.086000",
    "155746.086000",
    "155748.086000",
    "155750.087000",
    "155752.086000",
    "155754.086000",
    "155756.087000",
    "155758.086000",
    "155800.086000",
    "155802.085000",
    "155804.085000",
    "155806.087000",
    "155808.086000",
    "155810.086000",
    "155812.086000",
    "155814.086000",
    "155816.086000",
    "155818.086000",
    "155820.086000",
    "155822.086000",
    "155824.086000",
    "155826.086000",
    "155828.086000",
    "155830.087000",
    "155832.086000",
    "155834.086000",
    "155836.086000",
    "155838.086000",
    "155840.086000",
    "155842.087000",
    "155844.086000",
    "155846.087000",
    "155848.086000",
    "155850.086000",
    "155852.085000",
    "155854.086000",
    "155856.086000",
    "155858.086000",
    "155900.087000",
    "155902.087000",
    "155904.087000",
    "155906.087000",
    "155908.086000",
    "155910.085000",
    "155912.086000",
    "155914.085000",
    "155916.086000",
    "155918.086000",
    "155920.087000",
    "155922.087000",
    "155924.085000",
    "155926.086000",
    "155928.085000",
    "155930.086000",
    "155932.086000",
    "155934.087000",
    "155936.087000",
    "155938.086000",
    "155940.086000",
    "155942.086000",
    "155944.085000",
    "155946.086000",
    "155948.086000",
    "155950.096000",
    "155952.087000",
    "155954.087000",
    "155956.087000",
    "155958.087000",
    "160000.086000",
    "160002.086000",
    "160004.085000",
    "160006.086000",
    "160008.086000",
    "160010.087000",
    "160012.087000",
    "160014.086000",
    "160016.087000",
    "160018.085000",
    "160020.085000",
    "160022.085000",
    "160024.086000",
    "160026.087000",
    "160028.087000",
    "160030.087000",
    "160032.087000",
    "160034.085000",
    "160036.086000",
    "160038.086000",
    "160040.086000",
    "160042.085000",
    "160044.087000",
    "160046.087000",
    "160048.087000",
    "160050.086000",
    "160052.086000",
    "160054.085000",
    "160056.086000",
    "160058.086000",
    "160100.086000",
    "160102.087000",
    "160104.087000",
    "160106.087000",
    "160108.086000",
    "160110.085000",
    "160112.085000",
    "160113.788000"
   ],
   "InstanceCreationTime": [
    "155314.591000",
    "155316.086000",
    "155318.086000",
    "155320.086000",
    "155322.085000",
    "155324.085000",
    "155326.086000",
    "155328.087000",
    "155330.087000",
    "155332.087000",
    "155334.086000",
    "155336.086000",
    "155338.086000",
    "155340.086000",
    "155342.085000",
    "155344.087000",
    "155346.087000",
    "155348.087000",
    "155350.086000",
    "155352.086000",
    "155354.085000",
    "155356.086000",
    "155358.085000",
    "155400.086000",
    "155402.087000",
    "155404.086000",
    "155406.087000",
    "155408.086000",
    "155410.085000",
    "155412.086000",
    "155414.086000",
    "155416.086000",
    "155418.085000",
    "155420.087000",
    "155422.087000",
    "155424.086000",
    "155426.087000",
    "155428.085000",
    "155430.086000",
    "155432.085000",
    "155434.086000",
    "155436.085000",
    "155438.086000",
    "155440.086000",
    "155442.086000",
    "155444.086000",
    "155446.085000",
    "155448.086000",
    "155450.085000",
    "155452.085000",
    "155454.086000",
    "155456.087000",
    "155458.087000",
    "155500.087000",
    "155502.086000",
    "155504.086000",
    "155506.086000",
    "155508.086000",
    "155510.085000",
    "155512.087000",
    "155514.086000",
    "155516.086000",
    "155518.098000",
    "155520.086000",
    "155522.086000",
    "155524.085000",
    "155526.086000",
    "155528.086000",
    "155530.087000",
    "155532.093000",
    "155534.107000",
    "155536.086000",
    "155538.086000",
    "155540.086000",
    "155542.089000",
    "155544.086000",
    "155546.085000",
    "155548.086000",
    "155550.086000",
    "155552.087000",
    "155554.086000",
    "155556.086000",
    "155558.085000",
    "155600.086000",
    "155602.085000",
    "155604.087000",
    "155606.087000",
    "155608.087000",
    "155610.086000",
    "155612.085000",
    "155614.085000",
    "155616.086000",
    "155618.086000",
    "155620.085000",
    "155622.087000",
    "155624.086000",
    "155626.087000",
    "155628.087000",
    "155630.085000",
    "155632.086000",
    "155634.086000",
    "155636.085000",
    "155638.086000",
    "155640.086000",
    "155642.087000",
    "155644.087000",
    "155646.087000",
    "155648.086000",
    "155650.086000",
    "155652.086000",
    "155654.085000",
    "155656.087000",
    "155658.086000",
    "155700.087000",
    "155702.087000",
    "155704.086000",
    "155706.085000",
    "155708.085000",
    "155710.086000",
    "155712.085000",
    "155714.087000",
    "155716.087000",
    "155718.086000",
    "155720.087000",
    "155722.085000",
    "155724.085000",
    "155726.085000",
    "155728.085000",
    "155730.086000",
    "155732.090000",
    "155734.086000",
    "155736.086000",
    "155738.087000",
    "155740.085000",
    "155742.086000",
    "155744.086000",
    "155746.086000",
    "155748.086000",
    "155750.087000",
    "155752.086000",
    "155754.086000",
    "155756.087000",
    "155758.086000",
    "155800.086000",
    "155802.085000",
    "155804.085000",
    "155806.087000",
    "155808.086000",
    "155810.086000",
    "155812.086000",
    "155814.086000",
    "155816.086000",
    "155818.086000",
    "155820.086000",
    "155822.086000",
    "155824.086000",
    "155826.086000",
    "155828.086000",
    "155830.087000",
    "155832.086000",
    "155834.086000",
    "155836.086000",
    "155838.086000",
    "155840.086000",
    "155842.087000",
    "155844.086000",
    "155846.087000",
    "155848.086000",
    "155850.086000",
    "155852.085000",
    "155854.086000",
    "155856.086000",
    "155858.086000",
    "155900.087000",
    "155902.087000",
    "155904.087000",
    "155906.087000",
    "155908.086000",
    "155910.085000",
    "155912.086000",
    "155914.085000",
    "155916.086000",
    "155918.086000",
    "155920.087000",
    "155922.087000",
    "155924.085000",
    "155926.086000",
    "155928.085000",
    "155930.086000",
    "155932.086000",
    "155934.087000",
    "155936.087000",
    "155938.086000",
    "155940.086000",
    "155942.086000",
    "155944.085000",
    "155946.086000",
    "155948.086000",
    "155950.096000",
    "155952.087000",
    "155954.087000",
    "155956.087000",
    "155958.087000",
    "160000.086000",
    "160002.086000",
    "160004.085000",
    "160006.086000",
    "160008.086000",
    "160010.087000",
    "160012.087000",
    "160014.086000",
    "160016.087000",
    "160018.085000",
    "160020.085000",
    "160022.085000",
    "160024.086000",
    "160026.087000",
    "160028.087000",
    "160030.087000",
    "160032.087000",
    "160034.085000",
    "160036.086000",
    "160038.086000",
    "160040.086000",
    "160042.085000",
    "160044.087000",
    "160046.087000",
    "160048.087000",
    "160050.086000",
    "160052.086000",
    "160054.085000",
    "160056.086000",
    "160058.086000",
    "160100.086000",
    "160102.087000",
    "160104.087000",
    "160106.087000",
    "160108.086000",
    "160110.085000",
    "160112.085000",
    "160113.788000"
   ],
   "InstanceNumber": [
    1,
    2,
    3,
    4,
    5,
    6,
    7,
    8,
    9,
    10,
    11,
    12,
    13,
    14,
    15,
    16,
    17,
    18,
    19,
    20,
    21,
    22,
    23,
    24,
    25,
    26,
    27,
    28,
    29,
    30,
    31,
    32,
    33,
    34,
    35,
    36,
    37,
    38,
    39,
    40,
    41,
    42,
    43,
    44,
    45,
    46,
    47,
    48,
    49,
    50,
    51,
    52,
    53,
    54,
    55,
    56,
    57,
    58,
    59,
    60,
    61,
    62,
    63,
    64,
    65,
    66,
    67,
    68,
    69,
    70,
    71,
    72,
    73,
    74,
    75,
    76,
    77,
    78,
    79,
    80,
    81,
    82,
    83,
    84,
    85,
    86,
    87,
    88,
    89,
    90,
    91,
    92,
    93,
    94,
    95,
    96,
    97,
    98,
    99,
    100,
    101,
    102,
    103,
    104,
    105,
    106,
    107,
    108,
    109,
    110,
    111,
    112,
    113,
    114,
    115,
    116,
    117,
    118,
    119,
    120,
    121,
    122,
    123,
    124,
    125,
    126,
    127,
    128,
    129,
    130,
    131,
    132,
    133,
    134,
    135,
    136,
    137,
    138,
    139,
    140,
    141,
    142,
    143,
    144,
    145,
    146,
    147,
    148,
    149,
    150,
    151,
    152,
    153,
    154,
    155,
    156,
    157,
    158,
    159,
    160,
    161,
    162,
    163,
    164,
    165,
    166,
    167,
    168,
    169,
    170,
    171,
    172,
    173,
    174,
    175,
    176,
    177,
    178,
    179,
    180,
    181,
    182,
    183,
    184,
    185,
    186,
    187,
    188,
    189,
    190,
    191,
    192,
    193,
    194,
    195,
    196,
    197,
    198,
    199,
    200,
    201,
    202,
    203,
    204,
    205,
    206,
    207,
    208,
    209,
    210,
    211,
    212,
    213,
    214,
    215,
    216,
    217,
    218,
    219,
    220,
    221,
    222,
    223,
    224,
    225,
    226,
    227,
    228,
    229,
    230,
    231,
    232,
    233,
    234,
    235,
    236,
    237,
    238,
    239,
    240,
    241
   ],
   "LargestImagePixelValue": [
    3457,
    3426,
    3409,
    3390,
    3340,
    3364,
    3374,
    3378,
    3333,
    3420,
    3372,
    3335,
    3351,
    3335,
    3312,
    3399,
    3428,
    3337,
    3285,
    3244,
    3220,
    3314,
    3261,
    3294,
    3223,
    3186,
    3214,
    3200,
    3168,
    3211,
    3219,
    3203,
    3183,
    3231,
    3251,
    3193,
    3140,
    3219,
    3170,
    3160,
    3182,
    3160,
    3187,
    3199,
    3138,
    3167,
    3220,
    3198,
    3226,
    3281,
    3288,
    3221,
    3209,
    3271,
    3294,
    3221,
    3230,
    3187,
    3194,
    3176,
    3241,
    3268,
    3190,
    3212,
    3249,
    3272,
    3250,
    3275,
    3273,
    3194,
    3263,
    3292,
    3295,
    3279,
    3265,
    3311,
    3234,
    3236,
    3219,
    3200,
    3243,
    3273,
    3277,
    3215,
    3207,
    3250,
    3297,
    3298,
    3236,
    3230,
    3303,
    3321,
    3283,
    3268,
    3214,
    3268,
    3279,
    3281,
    3229,
    3287,
    3319,
    3304,
    3291,
    3274,
    3292,
    3300,
    3248,
    3246,
    3312,
    3323,
    3286,
    3240,
    3313,
    3308,
    3259,
    3265,
    3271,
    3270,
    3287,
    3290,
    3283,
    3290,
    3319,
    3316,
    3288,
    3274,
    3269,
    3320,
    3351,
    3307,
    3289,
    3292,
    3307,
    3278,
    3313,
    3305,
    3314,
    3325,
    3308,
    3305,
    3289,
    3339,
    3361,
    3357,
    3291,
    3294,
    3280,
    3317,
    3309,
    3307,
    3305,
    3312,
    3377,
    3351,
    3389,
    3345,
    3386,
    3400,
    3410,
    3364,
    3423,
    3430,
    3466,
    3430,
    3306,
    3334,
    3318,
    3283,
    3336,
    3350,
    3304,
    3277,
    3322,
    3361,
    3331,
    3347,
    3328,
    3356,
    3341,
    3348,
    3304,
    3386,
    3387,
    3365,
    3326,
    3305,
    3364,
    3329,
    3361,
    3377,
    3364,
    3350,
    3402,
    3431,
    3357,
    3348,
    3370,
    3361,
    3326,
    3330,
    3316,
    3276,
    3278,
    3359,
    3363,
    3311,
    3309,
    3385,
    3351,
    3286,
    3349,
    3339,
    3288,
    3333,
    3333,
    3305,
    3323,
    3350,
    3347,
    3350,
    3327,
    3332,
    3305,
    3344,
    3333,
    3355,
    3313,
    3318,
    3328,
    3336,
    3355,
    3374,
    3344,
    3329,
    3375,
    3373,
    3280,
    3290,
    3345,
    3325,
    3364
   ],
   "WindowCenter": [
    766.0,
    765.0,
    764.0,
    763.0,
    763.0,
    763.0,
    763.0,
    763.0,
    762.0,
    762.0,
    763.0,
    763.0,
    763.0,
    762.0,
    761.0,
    764.0,
    766.0,
    764.0,
    762.0,
    761.0,
    761.0,
    762.0,
    761.0,
    762.0,
    761.0,
    761.0,
    761.0,
    760.0,
    760.0,
    760.0,
    761.0,
    761.0,
    761.0,
    763.0,
    763.0,
    762.0,
    761.0,
    762.0,
    761.0,
    762.0,
    762.0,
    762.0,
    762.0,
    762.0,
    762.0,
    762.0,
    762.0,
    762.0,
    762.0,
    762.0,
    762.0,
    760.0,
    761.0,
    763.0,
    762.0,
    760.0,
    759.0,
    759.0,
    759.0,
    760.0,
    760.0,
    761.0,
    761.0,
    762.0,
    762.0,
    762.0,
    762.0,
    762.0,
    763.0,
    762.0,
    762.0,
    763.0,
    764.0,
    764.0,
    765.0,
    765.0,
    764.0,
    764.0,
    763.0,
    763.0,
    763.0,
    764.0,
    764.0,
    763.0,
    763.0,
    764.0,
    764.0,
    764.0,
    764.0,
    764.0,
    765.0,
    765.0,
    763.0,
    763.0,
    762.0,
    763.0,
    764.0,
    763.0,
    763.0,
    763.0,
    763.0,
    763.0,
    763.0,
    763.0,
    764.0,
    765.0,
    764.0,
    764.0,
    763.0,
    764.0,
    764.0,
    764.0,
    764.0,
    764.0,
    763.0,
    763.0,
    763.0,
    764.0,
    764.0,
    765.0,
    765.0,
    764.0,
    763.0,
    764.0,
    764.0,
    764.0,
    764.0,
    764.0,
    764.0,
    763.0,
    763.0,
    763.0,
    762.0,
    762.0,
    763.0,
    764.0,
    763.0,
    762.0,
    762.0,
    763.0,
    762.0,
    763.0,
    763.0,
    763.0,
    762.0,
    762.0,
    761.0,
    762.0,
    763.0,
    763.0,
    763.0,
    763.0,
    764.0,
    764.0,
    764.0,
    764.0,
    764.0,
    764.0,
    764.0,
    763.0,
    763.0,
    764.0,
    766.0,
    766.0,
    763.0,
    763.0,
    762.0,
    763.0,
    764.0,
    765.0,
    764.0,
    763.0,
    763.0,
    763.0,
    764.0,
    764.0,
    763.0,
    764.0,
    764.0,
    764.0,
    764.0,
    764.0,
    764.0,
    763.0,
    763.0,
    762.0,
    763.0,
    762.0,
    763.0,
    764.0,
    764.0,
    764.0,
    763.0,
    764.0,
    763.0,
    763.0,
    764.0,
    764.0,
    762.0,
    762.0,
    763.0,
    763.0,
    763.0,
    764.0,
    764.0,
    764.0,
    764.0,
    765.0,
    765.0,
    763.0,
    763.0,
    764.0,
    764.0,
    764.0,
    764.0,
    764.0,
    765.0,
    766.0,
    765.0,
    764.0,
    764.0,
    764.0,
    763.0,
    762.0,
    762.0,
    762.0,
    762.0,
    762.0,
    762.0,
    763.0,
    763.0,
