{
  "AcquisitionMatrixPE": 100,
  "AcquisitionNumber": 1,
  "AcquisitionTime": "13:47:11.972500",
  "BandwidthPerPixelPhaseEncode": 18.519,
  "BaseResolution": 100,
  "BodyPartExamined": "BRAIN",
  "ConsistencyInfo": "N4_VE11C_LATEST_20160120",
  "ConversionSoftware": "dcm2niix",
  "ConversionSoftwareVersion": "v1.0.20180622 GCC4.9.2",
  "DerivedVendorReportedEchoSpacing": 0.000539986,
  "DeviceSerialNumber": "166078",
  "DwellTime": 2.1e-06,
  "EchoTime": 0.034,
  "EchoTrainLength": 100,
  "EffectiveEchoSpacing": 0.000539986,
  "FlipAngle": 90,
  "ImageOrientationPatientDICOM": [1, 0, 0, 0, 0.985109, -0.171929],
  "ImageType": [
    "ORIGINAL",
    "PRIMARY",
    "M",
    "ND",
    "MOSAIC"
],
  "InPlanePhaseEncodingDirectionDICOM": "COL",
  "InstitutionAddress": "Street_StreetNo_Bei_Jing_District_CN_ZIP",
  "InstitutionName": "BeiJing_Normal_University",
  "InstitutionalDepartmentName": "Department",
  "MRAcquisitionType": "2D",
  "MagneticFieldStrength": 3,
  "Manufacturer": "Siemens",
  "ManufacturersModelName": "Prisma",
  "Modality": "MR",
  "MultibandAccelerationFactor": 3,
  "PartialFourier": 1,
  "PatientPosition": "HFS",
  "PercentPhaseFOV": 100,
  "PhaseEncodingDirection": "j-",
  "PhaseEncodingSteps": 100,
  "PhaseResolution": 1,
  "PixelBandwidth": 2380,
  "ProcedureStepDescription": "BNU_P2018_64CH_Zhen.ZongLei",
  "ProtocolName": "bold_100x100_s3_2x2x2_static_256",
  "PulseSequenceDetails": "%SiemensSeq%_ep2d_bold",
  "ReceiveCoilActiveElements": "HC1-7;NC1",
  "ReceiveCoilName": "HeadNeck_64",
  "ReconMatrixPE": 100,
  "RepetitionTime": 2,
  "SAR": 0.0847101,
  "ScanOptions": "FS",
  "ScanningSequence": "EP",
  "SequenceName": "_epfid2d1_100",
  "SequenceVariant": "SK",
  "SeriesDescription": "bold_100x100_s3_2x2x2_static_256",
  "SeriesNumber": 16,
  "ShimSetting": [-5481, -11509, -1252, 521, -54, -236, -148, 128],
  "SliceThickness": 2,
  "SliceTiming": [1.485, 0, 0.99, 0.0825, 1.0725, 0.165, 1.155, 0.2475, 1.2375, 0.33, 1.32, 0.4125, 1.4025, 0.5775, 1.5675, 0.66, 1.65, 0.7425, 1.7325, 0.825, 1.815, 0.9075, 1.8975, 0.495, 1.485, 0, 0.99, 0.0825, 1.0725, 0.165, 1.155, 0.2475, 1.2375, 0.33, 1.32, 0.4125, 1.4025, 0.5775, 1.5675, 0.66, 1.65, 0.7425, 1.7325, 0.825, 1.815, 0.9075, 1.8975, 0.495, 1.485, 0, 0.99, 0.0825, 1.0725, 0.165, 1.155, 0.2475, 1.2375, 0.33, 1.32, 0.4125, 1.4025, 0.5775, 1.5675, 0.66, 1.65, 0.7425, 1.7325, 0.825, 1.815, 0.9075, 1.8975, 0.495],
  "SoftwareVersions": "syngo_MR_E11",
  "SpacingBetweenSlices": 2,
  "StationName": "AWP166078",
  "TaskName": "naturalvision",
  "TotalReadoutTime": 0.0534586,
  "TxRefAmp": 230.376,
  "dcmmeta_affine": [
    [-2.0, 0.0, 0.0, 102.02409362792969],
    [0.0, 1.9702186584472656, -0.34385818243026733, -84.04940795898438],
    [0.0, 0.3438582122325897, 1.9702186584472656, -83.70747375488281],
    [0.0, 0.0, 0.0, 1.0]
],
  "dcmmeta_reorient_transform": [
    [0.0, -1.0, 0.0, 99.0],
    [1.0, 0.0, 0.0, 0.0],
    [0.0, 0.0, 1.0, 0.0],
    [0.0, 0.0, 0.0, 1.0]
],
  "dcmmeta_shape": [100, 100, 72, 256],
  "dcmmeta_slice_dim": 2,
  "dcmmeta_version": 0.6,
  "global": {
    "const": {
      "AcquisitionMatrix": [100, 0, 0, 100],
      "AngioFlag": "N",
      "BitsAllocated": 16,
      "BitsStored": 12,
      "BodyPartExamined": "BRAIN",
      "Columns": 900,
      "EchoNumbers": 1,
      "EchoTime": 34.0,
      "EchoTrainLength": 100,
      "FlipAngle": 90.0,
      "HighBit": 11,
      "ImageOrientationPatient": [1.0, 0.0, 0.0, 0.0, 0.98510932620277, -0.1719291000044],
      "ImagePositionPatient": [-902.02409648895, -899.0896970264, 87.877768678303],
      "ImageType": [
        "ORIGINAL",
        "PRIMARY",
        "M",
        "ND",
        "MOSAIC"
],
      "ImagedNucleus": "1H",
      "ImagingFrequency": 123.257762,
      "InPlanePhaseEncodingDirection": "COL",
      "MRAcquisitionType": "2D",
      "MagneticFieldStrength": 3.0,
      "Manufacturer": "SIEMENS",
      "ManufacturerModelName": "Prisma",
      "Modality": "MR",
      "NumberOfAverages": 1.0,
      "NumberOfPhaseEncodingSteps": 100,
      "PercentPhaseFieldOfView": 100.0,
      "PercentSampling": 100.0,
      "PerformedProcedureStepStartTime": "121324.353000",
      "PhotometricInterpretation": "MONOCHROME2",
      "PixelBandwidth": 2380.0,
      "PixelRepresentation": 0,
      "PixelSpacing": [2.0, 2.0],
      "ProtocolName": "bold_100x100_s3_2x2x2_static_256",
      "RepetitionTime": 2000.0,
      "Rows": 900,
      "SAR": 0.08471007746966,
      "SamplesPerPixel": 1,
      "ScanOptions": "FS",
      "ScanningSequence": "EP",
      "SequenceName": "*epfid2d1_100",
      "SequenceVariant": "SK",
      "SeriesDescription": "bold_100x100_s3_2x2x2_static_256",
      "SeriesNumber": 16,
      "SeriesTime": "134714.840000",
      "SliceLocation": -68.010472942118,
      "SliceThickness": 2.0,
      "SmallestImagePixelValue": 0,
      "SoftwareVersions": "syngo MR E11",
      "SpacingBetweenSlices": 1.9999999521664,
      "SpecificCharacterSet": "ISO_IR 100",
      "StudyID": "1",
      "StudyTime": "121324.253000",
      "TransmitCoilName": "Body",
      "VariableFlipAngleFlag": "N",
      "WindowCenterWidthExplanation": "Algo1",
      "dBdt": 0.0},
    "slices": {}
  },
  "time": {
    "samples": {
      "AcquisitionNumber": [1, 2, 3, 4, 5, 6, 7, 8, 9, 10, 11, 12, 13, 14, 15, 16, 17, 18, 19, 20, 21, 22, 23, 24, 25, 26, 27, 28, 29, 30, 31, 32, 33, 34, 35, 36, 37, 38, 39, 40, 41, 42, 43, 44, 45, 46, 47, 48, 49, 50, 51, 52, 53, 54, 55, 56, 57, 58, 59, 60, 61, 62, 63, 64, 65, 66, 67, 68, 69, 70, 71, 72, 73, 74, 75, 76, 77, 78, 79, 80, 81, 82, 83, 84, 85, 86, 87, 88, 89, 90, 91, 92, 93, 94, 95, 96, 97, 98, 99, 100, 101, 102, 103, 104, 105, 106, 107, 108, 109, 110, 111, 112, 113, 114, 115, 116, 117, 118, 119, 120, 121, 122, 123, 124, 125, 126, 127, 128, 129, 130, 131, 132, 133, 134, 135, 136, 137, 138, 139, 140, 141, 142, 143, 144, 145, 146, 147, 148, 149, 150, 151, 152, 153, 154, 155, 156, 157, 158, 159, 160, 161, 162, 163, 164, 165, 166, 167, 168, 169, 170, 171, 172, 173, 174, 175, 176, 177, 178, 179, 180, 181, 182, 183, 184, 185, 186, 187, 188, 189, 190, 191, 192, 193, 194, 195, 196, 197, 198, 199, 200, 201, 202, 203, 204, 205, 206, 207, 208, 209, 210, 211, 212, 213, 214, 215, 216, 217, 218, 219, 220, 221, 222, 223, 224, 225, 226, 227, 228, 229, 230, 231, 232, 233, 234, 235, 236, 237, 238, 239, 240, 241, 242, 243, 244, 245, 246, 247, 248, 249, 250, 251, 252, 253, 254, 255, 256],
      "AcquisitionTime": ["134711.972500", "134713.972500", "134715.972500", "134717.972500", "134719.972500", "134721.972500", "134723.972500", "134725.972500", "134727.972500", "134729.972500", "134731.972500", "134733.972500", "134735.972500", "134737.972500", "134739.972500", "134741.972500", "134743.972500", "134745.972500", "134747.972500", "134749.972500", "134751.972500", "134753.972500", "134755.972500", "134757.972500", "134759.972500", "134801.972500", "134803.972500", "134805.972500", "134807.972500", "134809.972500", "134811.972500", "134813.972500", "134815.972500", "134817.972500", "134819.972500", "134821.972500", "134823.972500", "134825.972500", "134827.972500", "134829.972500", "134831.972500", "134833.972500", "134835.972500", "134837.972500", "134839.972500", "134841.972500", "134843.972500", "134845.972500", "134847.972500", "134849.972500", "134851.972500", "134853.972500", "134855.972500", "134857.972500", "134859.972500", "134901.972500", "134903.972500", "134905.972500", "134907.972500", "134909.972500", "134911.972500", "134913.972500", "134915.972500", "134917.972500", "134919.972500", "134921.972500", "134923.972500", "134925.972500", "134927.972500", "134929.972500", "134931.972500", "134933.972500", "134935.972500", "134937.972500", "134939.972500", "134941.972500", "134943.972500", "134945.972500", "134947.972500", "134949.972500", "134951.972500", "134953.972500", "134955.972500", "134957.972500", "134959.972500", "135001.972500", "135003.972500", "135005.972500", "135007.972500", "135009.972500", "135011.972500", "135013.972500", "135015.972500", "135017.972500", "135019.972500", "135021.972500", "135023.972500", "135025.972500", "135027.972500", "135029.972500", "135031.972500", "135033.972500", "135035.972500", "135037.972500", "135039.972500", "135041.972500", "135043.972500", "135045.972500", "135047.972500", "135049.972500", "135051.972500", "135053.972500", "135055.972500", "135057.972500", "135059.972500", "135101.972500", "135103.972500", "135105.972500", "135107.972500", "135109.972500", "135111.972500", "135113.972500", "135115.972500", "135117.972500", "135119.972500", "135121.972500", "135123.972500", "135125.972500", "135127.972500", "135129.972500", "135131.972500", "135133.972500", "135135.972500", "135137.972500", "135139.972500", "135141.972500", "135143.972500", "135145.972500", "135147.972500", "135149.972500", "135151.972500", "135153.972500", "135155.972500", "135157.972500", "135159.972500", "135201.972500", "135203.972500", "135205.972500", "135207.972500", "135209.972500", "135211.972500", "135213.972500", "135215.972500", "135217.972500", "135219.972500", "135221.972500", "135223.972500", "135225.972500", "135227.972500", "135229.972500", "135231.972500", "135233.972500", "135235.972500", "135237.972500", "135239.972500", "135241.972500", "135243.972500", "135245.972500", "135247.972500", "135249.972500", "135251.972500", "135253.972500", "135255.972500", "135257.972500", "135259.972500", "135301.972500", "135303.972500", "135305.972500", "135307.972500", "135309.972500", "135311.972500", "135313.972500", "135315.972500", "135317.972500", "135319.972500", "135321.972500", "135323.972500", "135325.972500", "135327.972500", "135329.972500", "135331.972500", "135333.972500", "135335.972500", "135337.972500", "135339.972500", "135341.972500", "135343.972500", "135345.972500", "135347.972500", "135349.972500", "135351.972500", "135353.972500", "135355.972500", "135357.972500", "135359.972500", "135401.972500", "135403.972500", "135405.972500", "135407.972500", "135409.972500", "135411.972500", "135413.972500", "135415.972500", "135417.972500", "135419.972500", "135421.972500", "135423.972500", "135425.972500", "135427.972500", "135429.972500", "135431.972500", "135433.972500", "135435.972500", "135437.972500", "135439.972500", "135441.972500", "135443.972500", "135445.972500", "135447.972500", "135449.972500", "135451.972500", "135453.972500", "135455.972500", "135457.972500", "135459.972500", "135501.972500", "135503.972500", "135505.972500", "135507.972500", "135509.972500", "135511.972500", "135513.972500", "135515.972500", "135517.972500", "135519.972500", "135521.972500", "135523.972500", "135525.972500", "135527.972500", "135529.972500", "135531.972500", "135533.972500", "135535.972500", "135537.972500", "135539.972500", "135541.972500"],
      "ContentTime": ["134714.844000", "134716.339000", "134717.838000", "134719.838000", "134722.339000", "134723.840000", "134726.340000", "134727.839000", "134729.839000", "134731.840000", "134733.839000", "134735.839000", "134737.838000", "134739.840000", "134741.839000", "134743.839000", "134745.839000", "134747.840000", "134749.839000", "134751.839000", "134754.338000", "134755.838000", "134758.340000", "134759.839000", "134801.840000", "134803.840000", "134805.839000", "134807.840000", "134810.338000", "134812.338000", "134813.838000", "134815.839000", "134817.839000", "134820.339000", "134821.839000", "134823.840000", "134826.340000", "134827.838000", "134829.839000", "134832.339000", "134833.839000", "134835.839000", "134837.839000", "134839.840000", "134841.840000", "134843.839000", "134845.838000", "134848.339000", "134849.840000", "134851.839000", "134853.839000", "134855.839000", "134857.839000", "134859.840000", "134901.839000", "134903.838000", "134906.340000", "134907.839000", "134909.840000", "134911.839000", "134913.840000", "134915.839000", "134917.839000", "134919.839000", "134921.838000", "134923.840000", "134925.839000", "134927.839000", "134929.839000", "134931.839000", "134933.839000", "134935.840000", "134937.839000", "134939.838000", "134941.840000", "134943.839000", "134945.840000", "134947.839000", "134949.840000", "134951.839000", "134953.840000", "134955.839000", "134957.839000", "134959.840000", "135001.840000", "135003.839000", "135005.840000", "135008.339000", "135010.339000", "135011.838000", "135013.839000", "135015.838000", "135017.839000", "135019.839000", "135021.839000", "135023.840000", "135025.839000", "135027.840000", "135029.838000", "135031.838000", "135033.839000", "135035.839000", "135037.839000", "135039.839000", "135041.840000", "135043.840000", "135045.840000", "135047.839000", "135050.339000", "135051.840000", "135053.839000", "135055.839000", "135058.340000", "135059.840000", "135101.839000", "135103.840000", "135106.339000", "135108.338000", "135110.340000", "135111.839000", "135114.340000", "135115.840000", "135117.840000", "135119.839000", "135121.839000", "135123.838000", "135126.339000", "135127.839000", "135129.840000", "135132.340000", "135133.839000", "135135.839000", "135137.839000", "135140.338000", "135141.838000", "135143.839000", "135146.340000", "135147.839000", "135149.839000", "135151.840000", "135153.840000", "135155.839000", "135157.838000", "135159.838000", "135201.840000", "135203.839000", "135205.839000", "135208.339000", "135209.840000", "135212.339000", "135213.840000", "135216.339000", "135217.839000", "135219.839000", "135221.839000", "135223.839000", "135226.340000", "135227.840000", "135229.840000", "135231.838000", "135233.838000", "135235.839000", "135237.839000", "135239.839000", "135242.339000", "135243.840000", "135245.839000", "135247.840000", "135249.838000", "135251.839000", "135253.839000", "135255.839000", "135257.839000", "135259.840000", "135301.839000", "135303.839000", "135305.839000", "135307.838000", "135309.838000", "135312.339000", "135313.839000", "135315.840000", "135317.839000", "135319.840000", "135321.840000", "135323.839000", "135325.839000", "135327.839000", "135329.840000", "135332.340000", "135333.839000", "135335.839000", "135337.840000", "135339.840000", "135341.839000", "135343.838000", "135345.839000", "135347.840000", "135349.839000", "135351.840000", "135353.840000", "135355.840000", "135357.840000", "135400.339000", "135401.839000", "135403.839000", "135405.839000", "135407.839000", "135409.839000", "135411.840000", "135413.839000", "135415.840000", "135417.839000", "135420.338000", "135421.839000", "135423.839000", "135425.839000", "135427.839000", "135429.839000", "135431.839000", "135433.839000", "135435.838000", "135437.839000", "135439.840000", "135441.839000", "135443.839000", "135445.839000", "135448.340000", "135449.840000", "135451.839000", "135453.838000", "135455.839000", "135457.839000", "135459.840000", "135501.840000", "135504.340000", "135506.340000", "135508.339000", "135509.839000", "135511.838000", "135513.840000", "135515.839000", "135517.839000", "135519.840000", "135521.840000", "135523.840000", "135525.839000", "135527.839000", "135529.839000", "135531.840000", "135534.340000", "135535.839000", "135537.840000", "135539.840000", "135541.839000", "135543.798000"],
      "InstanceCreationTime": ["134714.844000", "134716.339000", "134717.838000", "134719.838000", "134722.339000", "134723.840000", "134726.340000", "134727.839000", "134729.839000", "134731.840000", "134733.839000", "134735.839000", "134737.838000", "134739.840000", "134741.839000", "134743.839000", "134745.839000", "134747.840000", "134749.839000", "134751.839000", "134754.338000", "134755.838000", "134758.340000", "134759.839000", "134801.840000", "134803.840000", "134805.839000", "134807.840000", "134810.338000", "134812.338000", "134813.838000", "134815.839000", "134817.839000", "134820.339000", "134821.839000", "134823.840000", "134826.340000", "134827.838000", "134829.839000", "134832.339000", "134833.839000", "134835.839000", "134837.839000", "134839.840000", "134841.840000", "134843.839000", "134845.838000", "134848.339000", "134849.840000", "134851.839000", "134853.839000", "134855.839000", "134857.839000", "134859.840000", "134901.839000", "134903.838000", "134906.340000", "134907.839000", "134909.840000", "134911.839000", "134913.840000", "134915.839000", "134917.839000", "134919.839000", "134921.838000", "134923.840000", "134925.839000", "134927.839000", "134929.839000", "134931.839000", "134933.839000", "134935.840000", "134937.839000", "134939.838000", "134941.840000", "134943.839000", "134945.840000", "134947.839000", "134949.840000", "134951.839000", "134953.840000", "134955.839000", "134957.839000", "134959.840000", "135001.840000", "135003.839000", "135005.840000", "135008.339000", "135010.339000", "135011.838000", "135013.839000", "135015.838000", "135017.839000", "135019.839000", "135021.839000", "135023.840000", "135025.839000", "135027.840000", "135029.838000", "135031.838000", "135033.839000", "135035.839000", "135037.839000", "135039.839000", "135041.840000", "135043.840000", "135045.840000", "135047.839000", "135050.339000", "135051.840000", "135053.839000", "135055.839000", "135058.340000", "135059.840000", "135101.839000", "135103.840000", "135106.339000", "135108.338000", "135110.340000", "135111.839000", "135114.340000", "135115.840000", "135117.840000", "135119.839000", "135121.839000", "135123.838000", "135126.339000", "135127.839000", "135129.840000", "135132.340000", "135133.839000", "135135.839000", "135137.839000", "135140.338000", "135141.838000", "135143.839000", "135146.340000", "135147.839000", "135149.839000", "135151.840000", "135153.840000", "135155.839000", "135157.838000", "135159.838000", "135201.840000", "135203.839000", "135205.839000", "135208.339000", "135209.840000", "135212.339000", "135213.840000", "135216.339000", "135217.839000", "135219.839000", "135221.839000", "135223.839000", "135226.340000", "135227.840000", "135229.840000", "135231.838000", "135233.838000", "135235.839000", "135237.839000", "135239.839000", "135242.339000", "135243.840000", "135245.839000", "135247.840000", "135249.838000", "135251.839000", "135253.839000", "135255.839000", "135257.839000", "135259.840000", "135301.839000", "135303.839000", "135305.839000", "135307.838000", "135309.838000", "135312.339000", "135313.839000", "135315.840000", "135317.839000", "135319.840000", "135321.840000", "135323.839000", "135325.839000", "135327.839000", "135329.840000", "135332.340000", "135333.839000", "135335.839000", "135337.840000", "135339.840000", "135341.839000", "135343.838000", "135345.839000", "135347.840000", "135349.839000", "135351.840000", "135353.840000", "135355.840000", "135357.840000", "135400.339000", "135401.839000", "135403.839000", "135405.839000", "135407.839000", "135409.839000", "135411.840000", "135413.839000", "135415.840000", "135417.839000", "135420.338000", "135421.839000", "135423.839000", "135425.839000", "135427.839000", "135429.839000", "135431.839000", "135433.839000", "135435.838000", "135437.839000", "135439.840000", "135441.839000", "135443.839000", "135445.839000", "135448.340000", "135449.840000", "135451.839000", "135453.838000", "135455.839000", "135457.839000", "135459.840000", "135501.840000", "135504.340000", "135506.340000", "135508.339000", "135509.839000", "135511.838000", "135513.840000", "135515.839000", "135517.839000", "135519.840000", "135521.840000", "135523.840000", "135525.839000", "135527.839000", "135529.839000", "135531.840000", "135534.340000", "135535.839000", "135537.840000", "135539.840000", "135541.839000", "135543.798000"],
      "InstanceNumber": [1, 2, 3, 4, 5, 6, 7, 8, 9, 10, 11, 12, 13, 14, 15, 16, 17, 18, 19, 20, 21, 22, 23, 24, 25, 26, 27, 28, 29, 30, 31, 32, 33, 34, 35, 36, 37, 38, 39, 40, 41, 42, 43, 44, 45, 46, 47, 48, 49, 50, 51, 52, 53, 54, 55, 56, 57, 58, 59, 60, 61, 62, 63, 64, 65, 66, 67, 68, 69, 70, 71, 72, 73, 74, 75, 76, 77, 78, 79, 80, 81, 82, 83, 84, 85, 86, 87, 88, 89, 90, 91, 92, 93, 94, 95, 96, 97, 98, 99, 100, 101, 102, 103, 104, 105, 106, 107, 108, 109, 110, 111, 112, 113, 114, 115, 116, 117, 118, 119, 120, 121, 122, 123, 124, 125, 126, 127, 128, 129, 130, 131, 132, 133, 134, 135, 136, 137, 138, 139, 140, 141, 142, 143, 144, 145, 146, 147, 148, 149, 150, 151, 152, 153, 154, 155, 156, 157, 158, 159, 160, 161, 162, 163, 164, 165, 166, 167, 168, 169, 170, 171, 172, 173, 174, 175, 176, 177, 178, 179, 180, 181, 182, 183, 184, 185, 186, 187, 188, 189, 190, 191, 192, 193, 194, 195, 196, 197, 198, 199, 200, 201, 202, 203, 204, 205, 206, 207, 208, 209, 210, 211, 212, 213, 214, 215, 216, 217, 218, 219, 220, 221, 222, 223, 224, 225, 226, 227, 228, 229, 230, 231, 232, 233, 234, 235, 236, 237, 238, 239, 240, 241, 242, 243, 244, 245, 246, 247, 248, 249, 250, 251, 252, 253, 254, 255, 256],
      "LargestImagePixelValue": [3196, 3137, 3127, 3160, 3108, 3104, 3083, 3044, 3071, 3108, 3088, 3100, 3075, 3047, 3083, 3108, 3132, 3108, 3110, 3121, 3110, 3118, 3087, 3071, 3054, 3068, 3062, 3070, 3061, 3063, 3087, 3076, 3086, 3074, 3115, 3077, 3077, 3064, 3099, 3137, 3111, 3060, 3050, 3035, 3071, 3090, 3034, 3055, 3064, 3093, 3063, 3058, 3072, 3076, 3093, 3057, 3067, 3057, 3061, 3069, 3078, 3078, 3049, 3058, 3088, 3058, 3089, 3096, 3120, 3124, 3082, 3095, 3121, 3102, 3096, 3096, 3103, 3070, 3072, 3059, 3058, 3090, 3077, 3067, 3095, 3092, 3069, 3102, 3086, 3085, 3099, 3087, 3100, 3137, 3095, 3082, 3060, 3036, 3039, 3077, 3072, 3048, 3103, 3074, 3101, 3081, 3093, 3062, 3053, 3050, 3049, 3062, 3028, 3072, 3072, 3095, 3062, 3066, 3042, 3043, 3032, 3027, 3066, 3085, 3079, 3096, 3080, 3086, 3074, 3081, 3054, 3092, 3058, 3041, 3076, 3084, 3036, 3087, 3072, 3092, 3100, 3109, 3096, 3116, 3110, 3109, 3095, 3120, 3094, 3054, 3089, 3079, 3062, 3067, 3069, 3057, 3039, 3014, 3056, 3055, 3045, 3078, 3057, 3077, 3081, 3047, 3065, 3090, 3082, 3050, 3057, 3057, 3029, 3063, 3058, 3056, 3060, 3151, 3080, 3148, 3011, 3150, 3153, 3077, 3031, 3099, 3130, 3126, 3142, 3184, 3114, 3165, 3169, 3165, 3174, 3203, 3205, 3231, 3200, 3207, 3208, 3208, 3201, 3200, 3186, 3186, 3142, 3091, 3103, 3088, 3043, 3087, 3103, 3058, 3072, 3081, 3047, 3069, 3079, 3064, 3088, 3146, 3117, 3156, 3160, 3171, 3172, 3143, 3068, 3073, 3082, 3079, 3078, 3081, 3066, 3090, 3103, 3113, 3066, 3094, 3095, 3069, 3057, 3122, 3059, 3061, 3101, 3151, 3098, 3117, 3119, 3099, 3099, 3099, 3088, 3097],
      "WindowCenter": [792.0, 790.0, 791.0, 791.0, 790.0, 789.0, 788.0, 788.0, 789.0, 790.0, 790.0, 790.0, 790.0, 790.0, 791.0, 791.0, 790.0, 790.0, 790.0, 790.0, 789.0, 789.0, 789.0, 789.0, 789.0, 788.0, 788.0, 788.0, 788.0, 789.0, 789.0, 788.0, 787.0, 788.0, 789.0, 788.0, 788.0, 789.0, 790.0, 789.0, 788.0, 787.0, 787.0, 787.0, 787.0, 788.0, 789.0, 789.0, 788.0, 788.0, 788.0, 788.0, 788.0, 789.0, 790.0, 789.0, 788.0, 787.0, 787.0, 788.0, 788.0, 788.0, 789.0, 788.0, 788.0, 788.0, 787.0, 787.0, 788.0, 788.0, 789.0, 789.0, 789.0, 788.0, 788.0, 788.0, 789.0, 788.0, 788.0, 787.0, 787.0, 787.0, 787.0, 787.0, 789.0, 788.0, 787.0, 788.0, 788.0, 788.0, 788.0, 788.0, 788.0, 789.0, 789.0, 788.0, 787.0, 787.0, 787.0, 787.0, 787.0, 787.0, 788.0, 788.0, 788.0, 787.0, 788.0, 788.0, 788.0, 787.0, 786.0, 786.0, 786.0, 787.0, 788.0, 787.0, 786.0, 786.0, 787.0, 786.0, 786.0, 787.0, 788.0, 787.0, 788.0, 788.0, 789.0, 788.0, 787.0, 788.0, 787.0, 788.0, 788.0, 788.0, 788.0, 788.0, 788.0, 788.0, 787.0, 787.0, 787.0, 787.0, 788.0, 788.0, 788.0, 788.0, 789.0, 789.0, 788.0, 788.0, 788.0, 787.0, 786.0, 787.0, 788.0, 787.0, 786.0, 786.0, 787.0, 787.0, 787.0, 788.0, 788.0, 788.0, 788.0, 787.0, 788.0, 788.0, 789.0, 789.0, 788.0, 787.0, 786.0, 786.0, 787.0, 787.0, 787.0, 788.0, 787.0, 788.0, 787.0, 789.0, 789.0, 788.0, 788.0, 788.0, 789.0, 789.0, 788.0, 788.0, 789.0, 790.0, 790.0, 789.0, 789.0, 789.0, 789.0, 790.0, 789.0, 789.0, 789.0, 790.0, 790.0, 790.0, 790.0, 790.0, 788.0, 787.0, 787.0, 788.0, 787.0, 787.0, 787.0, 786.0, 788.0, 788.0, 788.0, 788.0, 788.0, 787.0, 788.0, 788.0, 789.0, 789.0, 789.0, 789.0, 790.0, 790.0, 790.0, 789.0, 788.0, 788.0, 788.0, 788.0, 789.0, 790.0, 789.0, 787.0, 787.0, 788.0, 790.0, 788.0, 788.0, 788.0, 787.0, 787.0, 788.0, 788.0, 787.0, 787.0, 788.0, 788.0, 789.0, 789.0, 789.0, 788.0],
      "WindowWidth": [1706.0, 1701.0, 1702.0, 1702.0, 1700.0, 1697.0, 1695.0, 1695.0, 1698.0, 1701.0, 1701.0, 1699.0, 1699.0, 1699.0, 1702.0, 1702.0, 1701.0, 1700.0, 1701.0, 1700.0, 1698.0, 1697.0, 1697.0, 1698.0, 1698.0, 1696.0, 1694.0, 1694.0, 1696.0, 1697.0, 1698.0, 1696.0, 1692.0, 1694.0, 1697.0, 1695.0, 1696.0, 1697.0, 1699.0, 1698.0, 1696.0, 1693.0, 1693.0, 1691.0, 1691.0, 1694.0, 1698.0, 1697.0, 1695.0, 1694.0, 1694.0, 1694.0, 1696.0, 1698.0, 1699.0, 1698.0, 1694.0, 1692.0, 1693.0, 1694.0, 1696.0, 1696.0, 1696.0, 1696.0, 1695.0, 1694.0, 1693.0, 1693.0, 1694.0, 1694.0, 1696.0, 1696.0, 1697.0, 1695.0, 1696.0, 1696.0, 1697.0, 1695.0, 1694.0, 1692.0, 1692.0, 1693.0, 1692.0, 1693.0, 1697.0, 1695.0, 1693.0, 1694.0, 1695.0, 1695.0, 1696.0, 1694.0, 1694.0, 1698.0, 1698.0, 1695.0, 1693.0, 1692.0, 1692.0, 1693.0, 1692.0, 1691.0, 1695.0, 1695.0, 1695.0, 1693.0, 1693.0, 1694.0, 1694.0, 1692.0, 1689.0, 1688.0, 1689.0, 1693.0, 1694.0, 1692.0, 1689.0, 1689.0, 1691.0, 1690.0, 1690.0, 1691.0, 1693.0, 1692.0, 1693.0, 1694.0, 1696.0, 1694.0, 1692.0, 1694.0, 1693.0, 1696.0, 1693.0, 1693.0, 1695.0, 1694.0, 1695.0, 1696.0, 1693.0, 1691.0, 1690.0, 1692.0, 1693.0, 1695.0, 1693.0, 1694.0, 1696.0, 1697.0, 1694.0, 1693.0, 1693.0, 1692.0, 1690.0, 1691.0, 1695.0, 1691.0, 1690.0, 1690.0, 1692.0, 1692.0, 1691.0, 1694.0, 1695.0, 1694.0, 1693.0, 1693.0, 1693.0, 1694.0, 1696.0, 1695.0, 1693.0, 1692.0, 1689.0, 1690.0, 1691.0, 1693.0, 1692.0, 1693.0, 1692.0, 1694.0, 1690.0, 1696.0, 1696.0, 1695.0, 1694.0, 1695.0, 1698.0, 1697.0, 1694.0, 1695.0, 1697.0, 1700.0, 1701.0, 1698.0, 1696.0, 1697.0, 1697.0, 1699.0, 1698.0, 1697.0, 1698.0, 1700.0, 1700.0, 1700.0, 1700.0, 1699.0, 1694.0, 1692.0, 1693.0, 1693.0, 1693.0, 1690.0, 1690.0, 1690.0, 1693.0, 1695.0, 1693.0, 1695.0, 1695.0, 1692.0, 1693.0, 1696.0, 1698.0, 1698.0, 1698.0, 1697.0, 1699.0, 1700.0, 1699.0, 1697.0, 1694.0, 1694.0, 1694.0, 1695.0, 1697.0, 1699.0, 1695.0, 1691.0, 1691.0, 1695.0, 1698.0, 1695.0, 1695.0, 1695.0, 1693.0, 1692.0, 1694.0, 1695.0, 1691.0, 1692.0, 1694.0, 1695.0, 1697.0, 1696.0, 1695.0, 1695.0]
    },
    "slices": {}
  }
}