{
  "AcquisitionMatrixPE": 100,
  "AcquisitionNumber": 1,
  "AcquisitionTime": "09:56:50.702500",
  "BandwidthPerPixelPhaseEncode": 18.519,
  "BaseResolution": 100,
  "BodyPartExamined": "BRAIN",
  "ConsistencyInfo": "N4_VE11C_LATEST_20160120",
  "ConversionSoftware": "dcm2niix",
  "ConversionSoftwareVersion": "v1.0.20180622 GCC4.9.2",
  "DerivedVendorReportedEchoSpacing": 0.000539986,
  "DeviceSerialNumber": "166078",
  "DwellTime": 2.1e-06,
  "EchoTime": 0.034,
  "EchoTrainLength": 100,
  "EffectiveEchoSpacing": 0.000539986,
  "FlipAngle": 90,
  "ImageOrientationPatientDICOM": [0.999719, 0.0132877, 0.0196131, -0.00872443, 0.976206, -0.216669],
  "ImageType": [
    "ORIGINAL",
    "PRIMARY",
    "M",
    "ND",
    "MOSAIC"
],
  "InPlanePhaseEncodingDirectionDICOM": "COL",
  "InstitutionAddress": "Street_StreetNo_Bei_Jing_District_CN_ZIP",
  "InstitutionName": "BeiJing_Normal_University",
  "InstitutionalDepartmentName": "Department",
  "MRAcquisitionType": "2D",
  "MagneticFieldStrength": 3,
  "Manufacturer": "Siemens",
  "ManufacturersModelName": "Prisma",
  "Modality": "MR",
  "MultibandAccelerationFactor": 3,
  "PartialFourier": 1,
  "PatientPosition": "HFS",
  "PercentPhaseFOV": 100,
  "PhaseEncodingDirection": "j-",
  "PhaseEncodingSteps": 100,
  "PhaseResolution": 1,
  "PixelBandwidth": 2380,
  "ProcedureStepDescription": "BNU_P2018_64CH_Zhen.ZongLei",
  "ProtocolName": "bold_100x100_s3_2x2x2_static_256",
  "PulseSequenceDetails": "%SiemensSeq%_ep2d_bold",
  "ReceiveCoilActiveElements": "HC1-7;NC1",
  "ReceiveCoilName": "HeadNeck_64",
  "ReconMatrixPE": 100,
  "RepetitionTime": 2,
  "SAR": 0.0602393,
  "ScanOptions": "FS",
  "ScanningSequence": "EP",
  "SequenceName": "_epfid2d1_100",
  "SequenceVariant": "SK",
  "SeriesDescription": "bold_100x100_s3_2x2x2_static_256",
  "SeriesNumber": 6,
  "ShimSetting": [-5455, -11485, -1293, 524, 12, -139, -173, 69],
  "SliceThickness": 2,
  "SliceTiming": [1.485, 0, 0.99, 0.0825, 1.0725, 0.165, 1.155, 0.2475, 1.2375, 0.33, 1.32, 0.4125, 1.4025, 0.5775, 1.5675, 0.66, 1.65, 0.7425, 1.7325, 0.825, 1.815, 0.9075, 1.8975, 0.495, 1.485, 0, 0.99, 0.0825, 1.0725, 0.165, 1.155, 0.2475, 1.2375, 0.33, 1.32, 0.4125, 1.4025, 0.5775, 1.5675, 0.66, 1.65, 0.7425, 1.7325, 0.825, 1.815, 0.9075, 1.8975, 0.495, 1.485, 0, 0.99, 0.0825, 1.0725, 0.165, 1.155, 0.2475, 1.2375, 0.33, 1.32, 0.4125, 1.4025, 0.5775, 1.5675, 0.66, 1.65, 0.7425, 1.7325, 0.825, 1.815, 0.9075, 1.8975, 0.495],
  "SoftwareVersions": "syngo_MR_E11",
  "SpacingBetweenSlices": 2,
  "StationName": "AWP166078",
  "TaskName": "naturalvision",
  "TotalReadoutTime": 0.0534586,
  "TxRefAmp": 207.313,
  "dcmmeta_affine": [
    [-1.9994386434555054, -0.01744886115193367, 0.04405096173286438, 99.02194213867188],
    [-0.02657538838684559, 1.952412486076355, -0.43287327885627747, -73.90641021728516],
    [0.03922625258564949, 0.43333712220191956, 1.9520963430404663, -101.12844848632812],
    [0.0, 0.0, 0.0, 1.0]
],
  "dcmmeta_reorient_transform": [
    [0.0, -1.0, 0.0, 99.0],
    [1.0, 0.0, 0.0, 0.0],
    [0.0, 0.0, 1.0, 0.0],
    [0.0, 0.0, 0.0, 1.0]
],
  "dcmmeta_shape": [100, 100, 72, 256],
  "dcmmeta_slice_dim": 2,
  "dcmmeta_version": 0.6,
  "global": {
    "const": {
      "AcquisitionMatrix": [100, 0, 0, 100],
      "AngioFlag": "N",
      "BitsAllocated": 16,
      "BitsStored": 12,
      "BodyPartExamined": "BRAIN",
      "Columns": 900,
      "EchoNumbers": 1,
      "EchoTime": 34.0,
      "EchoTrainLength": 100,
      "FlipAngle": 90.0,
      "HighBit": 11,
      "ImageOrientationPatient": [0.99971934186107, 0.0132876940621, 0.01961312558925, -0.0087244305584, 0.97620623639043, -0.2166685679647],
      "ImagePositionPatient": [-890.09043512603, -910.97756848943, 99.416281499706],
      "ImageType": [
        "ORIGINAL",
        "PRIMARY",
        "M",
        "ND",
        "MOSAIC"
],
      "ImagedNucleus": "1H",
      "ImagingFrequency": 123.257765,
      "InPlanePhaseEncodingDirection": "COL",
      "MRAcquisitionType": "2D",
      "MagneticFieldStrength": 3.0,
      "Manufacturer": "SIEMENS",
      "ManufacturerModelName": "Prisma",
      "Modality": "MR",
      "NumberOfAverages": 1.0,
      "NumberOfPhaseEncodingSteps": 100,
      "PercentPhaseFieldOfView": 100.0,
      "PercentSampling": 100.0,
      "PerformedProcedureStepStartTime": "091221.094000",
      "PhotometricInterpretation": "MONOCHROME2",
      "PixelBandwidth": 2380.0,
      "PixelRepresentation": 0,
      "PixelSpacing": [2.0, 2.0],
      "ProtocolName": "bold_100x100_s3_2x2x2_static_256",
      "RepetitionTime": 2000.0,
      "Rows": 900,
      "SAR": 0.06023934089953,
      "SamplesPerPixel": 1,
      "ScanOptions": "FS",
      "ScanningSequence": "EP",
      "SequenceName": "*epfid2d1_100",
      "SequenceVariant": "SK",
      "SeriesDescription": "bold_100x100_s3_2x2x2_static_256",
      "SeriesNumber": 6,
      "SeriesTime": "095653.807000",
      "SliceLocation": -80.529177326096,
      "SliceThickness": 2.0,
      "SmallestImagePixelValue": 0,
      "SoftwareVersions": "syngo MR E11",
      "SpacingBetweenSlices": 2.0000000060451,
      "SpecificCharacterSet": "ISO_IR 100",
      "StudyID": "1",
      "StudyTime": "091220.948000",
      "TransmitCoilName": "Body",
      "VariableFlipAngleFlag": "N",
      "WindowCenterWidthExplanation": "Algo1",
      "dBdt": 0.0},
    "slices": {}
  },
  "time": {
    "samples": {
      "AcquisitionNumber": [1, 2, 3, 4, 5, 6, 7, 8, 9, 10, 11, 12, 13, 14, 15, 16, 17, 18, 19, 20, 21, 22, 23, 24, 25, 26, 27, 28, 29, 30, 31, 32, 33, 34, 35, 36, 37, 38, 39, 40, 41, 42, 43, 44, 45, 46, 47, 48, 49, 50, 51, 52, 53, 54, 55, 56, 57, 58, 59, 60, 61, 62, 63, 64, 65, 66, 67, 68, 69, 70, 71, 72, 73, 74, 75, 76, 77, 78, 79, 80, 81, 82, 83, 84, 85, 86, 87, 88, 89, 90, 91, 92, 93, 94, 95, 96, 97, 98, 99, 100, 101, 102, 103, 104, 105, 106, 107, 108, 109, 110, 111, 112, 113, 114, 115, 116, 117, 118, 119, 120, 121, 122, 123, 124, 125, 126, 127, 128, 129, 130, 131, 132, 133, 134, 135, 136, 137, 138, 139, 140, 141, 142, 143, 144, 145, 146, 147, 148, 149, 150, 151, 152, 153, 154, 155, 156, 157, 158, 159, 160, 161, 162, 163, 164, 165, 166, 167, 168, 169, 170, 171, 172, 173, 174, 175, 176, 177, 178, 179, 180, 181, 182, 183, 184, 185, 186, 187, 188, 189, 190, 191, 192, 193, 194, 195, 196, 197, 198, 199, 200, 201, 202, 203, 204, 205, 206, 207, 208, 209, 210, 211, 212, 213, 214, 215, 216, 217, 218, 219, 220, 221, 222, 223, 224, 225, 226, 227, 228, 229, 230, 231, 232, 233, 234, 235, 236, 237, 238, 239, 240, 241, 242, 243, 244, 245, 246, 247, 248, 249, 250, 251, 252, 253, 254, 255, 256],
      "AcquisitionTime": ["095650.702500", "095652.702500", "095654.702500", "095656.702500", "095658.702500", "095700.702500", "095702.702500", "095704.702500", "095706.702500", "095708.702500", "095710.702500", "095712.702500", "095714.702500", "095716.702500", "095718.702500", "095720.702500", "095722.702500", "095724.702500", "095726.702500", "095728.702500", "095730.702500", "095732.702500", "095734.702500", "095736.702500", "095738.702500", "095740.702500", "095742.702500", "095744.702500", "095746.702500", "095748.702500", "095750.702500", "095752.702500", "095754.702500", "095756.702500", "095758.702500", "095800.702500", "095802.702500", "095804.702500", "095806.702500", "095808.702500", "095810.702500", "095812.702500", "095814.702500", "095816.702500", "095818.702500", "095820.702500", "095822.702500", "095824.702500", "095826.702500", "095828.702500", "095830.702500", "095832.702500", "095834.702500", "095836.702500", "095838.702500", "095840.702500", "095842.702500", "095844.702500", "095846.702500", "095848.702500", "095850.702500", "095852.702500", "095854.702500", "095856.702500", "095858.702500", "095900.702500", "095902.702500", "095904.702500", "095906.702500", "095908.702500", "095910.702500", "095912.702500", "095914.702500", "095916.702500", "095918.702500", "095920.702500", "095922.702500", "095924.702500", "095926.702500", "095928.702500", "095930.702500", "095932.702500", "095934.702500", "095936.702500", "095938.702500", "095940.702500", "095942.702500", "095944.702500", "095946.702500", "095948.702500", "095950.702500", "095952.702500", "095954.702500", "095956.702500", "095958.702500", "100000.702500", "100002.702500", "100004.702500", "100006.702500", "100008.702500", "100010.702500", "100012.702500", "100014.702500", "100016.702500", "100018.702500", "100020.702500", "100022.702500", "100024.702500", "100026.702500", "100028.702500", "100030.702500", "100032.702500", "100034.702500", "100036.702500", "100038.702500", "100040.702500", "100042.702500", "100044.702500", "100046.702500", "100048.702500", "100050.702500", "100052.702500", "100054.702500", "100056.702500", "100058.702500", "100100.702500", "100102.702500", "100104.702500", "100106.702500", "100108.702500", "100110.702500", "100112.702500", "100114.702500", "100116.702500", "100118.702500", "100120.702500", "100122.702500", "100124.702500", "100126.702500", "100128.702500", "100130.702500", "100132.702500", "100134.702500", "100136.702500", "100138.702500", "100140.702500", "100142.702500", "100144.702500", "100146.702500", "100148.702500", "100150.702500", "100152.702500", "100154.702500", "100156.702500", "100158.702500", "100200.702500", "100202.702500", "100204.702500", "100206.702500", "100208.702500", "100210.702500", "100212.702500", "100214.702500", "100216.702500", "100218.702500", "100220.702500", "100222.702500", "100224.702500", "100226.702500", "100228.702500", "100230.702500", "100232.702500", "100234.702500", "100236.702500", "100238.702500", "100240.702500", "100242.702500", "100244.702500", "100246.702500", "100248.702500", "100250.702500", "100252.702500", "100254.702500", "100256.702500", "100258.702500", "100300.702500", "100302.702500", "100304.702500", "100306.702500", "100308.702500", "100310.702500", "100312.702500", "100314.702500", "100316.702500", "100318.702500", "100320.702500", "100322.702500", "100324.702500", "100326.702500", "100328.702500", "100330.702500", "100332.702500", "100334.702500", "100336.702500", "100338.702500", "100340.702500", "100342.702500", "100344.702500", "100346.702500", "100348.702500", "100350.702500", "100352.702500", "100354.702500", "100356.702500", "100358.702500", "100400.702500", "100402.702500", "100404.702500", "100406.702500", "100408.702500", "100410.702500", "100412.702500", "100414.702500", "100416.702500", "100418.702500", "100420.702500", "100422.702500", "100424.702500", "100426.702500", "100428.702500", "100430.702500", "100432.702500", "100434.702500", "100436.702500", "100438.702500", "100440.702500", "100442.702500", "100444.702500", "100446.702500", "100448.702500", "100450.702500", "100452.702500", "100454.702500", "100456.702500", "100458.702500", "100500.702500", "100502.702500", "100504.702500", "100506.702500", "100508.702500", "100510.702500", "100512.702500", "100514.702500", "100516.702500", "100518.702500", "100520.702500"],
      "ContentTime": ["095653.811000", "095655.306000", "095657.308000", "095659.307000", "095701.307000", "095703.308000", "095705.307000", "095707.306000", "095709.306000", "095711.306000", "095713.308000", "095715.308000", "095717.307000", "095719.307000", "095721.307000", "095723.308000", "095725.306000", "095727.306000", "095729.326000", "095731.308000", "095733.307000", "095735.307000", "095737.307000", "095739.307000", "095741.307000", "095743.306000", "095745.306000", "095747.307000", "095749.307000", "095751.307000", "095753.308000", "095755.308000", "095757.307000", "095759.307000", "095801.306000", "095803.307000", "095805.307000", "095807.308000", "095809.307000", "095811.307000", "095813.308000", "095815.307000", "095817.307000", "095819.306000", "095821.306000", "095823.307000", "095825.307000", "095827.307000", "095829.307000", "095831.307000", "095833.307000", "095835.306000", "095837.307000", "095839.306000", "095841.308000", "095843.308000", "095845.308000", "095847.307000", "095849.307000", "095851.307000", "095853.307000", "095855.306000", "095857.306000", "095859.307000", "095901.308000", "095903.308000", "095905.307000", "095907.307000", "095909.307000", "095911.307000", "095913.307000", "095915.306000", "095917.308000", "095919.307000", "095921.308000", "095923.308000", "095925.308000", "095927.307000", "095929.307000", "095931.306000", "095933.307000", "095935.308000", "095937.308000", "095939.308000", "095941.307000", "095943.308000", "095945.307000", "095947.307000", "095949.307000", "095951.308000", "095953.308000", "095955.308000", "095957.307000", "095959.308000", "100001.308000", "100003.306000", "100005.307000", "100007.306000", "100009.307000", "100011.308000", "100013.308000", "100015.308000", "100017.307000", "100019.307000", "100021.307000", "100023.307000", "100025.306000", "100027.307000", "100029.307000", "100031.307000", "100033.308000", "100035.307000", "100037.306000", "100039.307000", "100041.306000", "100043.307000", "100045.308000", "100047.308000", "100049.307000", "100051.308000", "100053.307000", "100055.306000", "100057.307000", "100059.306000", "100101.308000", "100103.308000", "100105.308000", "100107.308000", "100109.307000", "100111.308000", "100113.307000", "100115.307000", "100117.307000", "100119.307000", "100121.308000", "100123.307000", "100125.308000", "100127.307000", "100129.308000", "100131.307000", "100133.306000", "100135.306000", "100137.307000", "100139.307000", "100141.308000", "100143.307000", "100145.307000", "100147.306000", "100149.307000", "100151.307000", "100153.307000", "100155.307000", "100157.307000", "100159.308000", "100201.308000", "100203.308000", "100205.306000", "100207.306000", "100209.306000", "100211.308000", "100213.307000", "100215.308000", "100217.308000", "100219.308000", "100221.308000", "100223.307000", "100225.307000", "100227.307000", "100229.308000", "100231.307000", "100233.308000", "100235.307000", "100237.307000", "100239.308000", "100241.307000", "100243.306000", "100245.307000", "100247.308000", "100249.308000", "100251.308000", "100253.308000", "100255.307000", "100257.306000", "100259.307000", "100301.306000", "100303.307000", "100305.307000", "100307.323000", "100309.308000", "100311.307000", "100313.308000", "100315.306000", "100317.307000", "100319.307000", "100321.307000", "100323.308000", "100325.308000", "100327.308000", "100329.308000", "100331.308000", "100333.307000", "100335.306000", "100337.306000", "100339.308000", "100341.307000", "100343.308000", "100345.307000", "100347.308000", "100349.307000", "100351.307000", "100353.306000", "100355.307000", "100357.307000", "100359.308000", "100401.308000", "100403.308000", "100405.307000", "100407.307000", "100409.307000", "100411.306000", "100413.307000", "100415.308000", "100417.308000", "100419.308000", "100421.308000", "100423.308000", "100425.307000", "100427.306000", "100429.306000", "100431.308000", "100433.307000", "100435.307000", "100437.308000", "100439.308000", "100441.308000", "100443.306000", "100445.307000", "100447.306000", "100449.307000", "100451.308000", "100453.308000", "100455.307000", "100457.307000", "100459.307000", "100501.306000", "100503.307000", "100505.307000", "100507.308000", "100509.307000", "100511.307000", "100513.307000", "100515.308000", "100517.306000", "100519.306000", "100521.306000", "100523.090000"],
      "InstanceCreationTime": ["095653.811000", "095655.306000", "095657.308000", "095659.307000", "095701.307000", "095703.308000", "095705.307000", "095707.306000", "095709.306000", "095711.306000", "095713.308000", "095715.308000", "095717.307000", "095719.307000", "095721.307000", "095723.308000", "095725.306000", "095727.306000", "095729.326000", "095731.308000", "095733.307000", "095735.307000", "095737.307000", "095739.307000", "095741.307000", "095743.306000", "095745.306000", "095747.307000", "095749.307000", "095751.307000", "095753.308000", "095755.308000", "095757.307000", "095759.307000", "095801.306000", "095803.307000", "095805.307000", "095807.308000", "095809.307000", "095811.307000", "095813.308000", "095815.307000", "095817.307000", "095819.306000", "095821.306000", "095823.307000", "095825.307000", "095827.307000", "095829.307000", "095831.307000", "095833.307000", "095835.306000", "095837.307000", "095839.306000", "095841.308000", "095843.308000", "095845.308000", "095847.307000", "095849.307000", "095851.307000", "095853.307000", "095855.306000", "095857.306000", "095859.307000", "095901.308000", "095903.308000", "095905.307000", "095907.307000", "095909.307000", "095911.307000", "095913.307000", "095915.306000", "095917.308000", "095919.307000", "095921.308000", "095923.308000", "095925.308000", "095927.307000", "095929.307000", "095931.306000", "095933.307000", "095935.308000", "095937.308000", "095939.308000", "095941.307000", "095943.308000", "095945.307000", "095947.307000", "095949.307000", "095951.308000", "095953.308000", "095955.308000", "095957.307000", "095959.308000", "100001.308000", "100003.306000", "100005.307000", "100007.306000", "100009.307000", "100011.308000", "100013.308000", "100015.308000", "100017.307000", "100019.307000", "100021.307000", "100023.307000", "100025.306000", "100027.307000", "100029.307000", "100031.307000", "100033.308000", "100035.307000", "100037.306000", "100039.307000", "100041.306000", "100043.307000", "100045.308000", "100047.308000", "100049.307000", "100051.308000", "100053.307000", "100055.306000", "100057.307000", "100059.306000", "100101.308000", "100103.308000", "100105.308000", "100107.308000", "100109.307000", "100111.308000", "100113.307000", "100115.307000", "100117.307000", "100119.307000", "100121.308000", "100123.307000", "100125.308000", "100127.307000", "100129.308000", "100131.307000", "100133.306000", "100135.306000", "100137.307000", "100139.307000", "100141.308000", "100143.307000", "100145.307000", "100147.306000", "100149.307000", "100151.307000", "100153.307000", "100155.307000", "100157.307000", "100159.308000", "100201.308000", "100203.308000", "100205.306000", "100207.306000", "100209.306000", "100211.308000", "100213.307000", "100215.308000", "100217.308000", "100219.308000", "100221.308000", "100223.307000", "100225.307000", "100227.307000", "100229.308000", "100231.307000", "100233.308000", "100235.307000", "100237.307000", "100239.308000", "100241.307000", "100243.306000", "100245.307000", "100247.308000", "100249.308000", "100251.308000", "100253.308000", "100255.307000", "100257.306000", "100259.307000", "100301.306000", "100303.307000", "100305.307000", "100307.323000", "100309.308000", "100311.307000", "100313.308000", "100315.306000", "100317.307000", "100319.307000", "100321.307000", "100323.308000", "100325.308000", "100327.308000", "100329.308000", "100331.308000", "100333.307000", "100335.306000", "100337.306000", "100339.308000", "100341.307000", "100343.308000", "100345.307000", "100347.308000", "100349.307000", "100351.307000", "100353.306000", "100355.307000", "100357.307000", "100359.308000", "100401.308000", "100403.308000", "100405.307000", "100407.307000", "100409.307000", "100411.306000", "100413.307000", "100415.308000", "100417.308000", "100419.308000", "100421.308000", "100423.308000", "100425.307000", "100427.306000", "100429.306000", "100431.308000", "100433.307000", "100435.307000", "100437.308000", "100439.308000", "100441.308000", "100443.306000", "100445.307000", "100447.306000", "100449.307000", "100451.308000", "100453.308000", "100455.307000", "100457.307000", "100459.307000", "100501.306000", "100503.307000", "100505.307000", "100507.308000", "100509.307000", "100511.307000", "100513.307000", "100515.308000", "100517.306000", "100519.306000", "100521.306000", "100523.090000"],
      "InstanceNumber": [1, 2, 3, 4, 5, 6, 7, 8, 9, 10, 11, 12, 13, 14, 15, 16, 17, 18, 19, 20, 21, 22, 23, 24, 25, 26, 27, 28, 29, 30, 31, 32, 33, 34, 35, 36, 37, 38, 39, 40, 41, 42, 43, 44, 45, 46, 47, 48, 49, 50, 51, 52, 53, 54, 55, 56, 57, 58, 59, 60, 61, 62, 63, 64, 65, 66, 67, 68, 69, 70, 71, 72, 73, 74, 75, 76, 77, 78, 79, 80, 81, 82, 83, 84, 85, 86, 87, 88, 89, 90, 91, 92, 93, 94, 95, 96, 97, 98, 99, 100, 101, 102, 103, 104, 105, 106, 107, 108, 109, 110, 111, 112, 113, 114, 115, 116, 117, 118, 119, 120, 121, 122, 123, 124, 125, 126, 127, 128, 129, 130, 131, 132, 133, 134, 135, 136, 137, 138, 139, 140, 141, 142, 143, 144, 145, 146, 147, 148, 149, 150, 151, 152, 153, 154, 155, 156, 157, 158, 159, 160, 161, 162, 163, 164, 165, 166, 167, 168, 169, 170, 171, 172, 173, 174, 175, 176, 177, 178, 179, 180, 181, 182, 183, 184, 185, 186, 187, 188, 189, 190, 191, 192, 193, 194, 195, 196, 197, 198, 199, 200, 201, 202, 203, 204, 205, 206, 207, 208, 209, 210, 211, 212, 213, 214, 215, 216, 217, 218, 219, 220, 221, 222, 223, 224, 225, 226, 227, 228, 229, 230, 231, 232, 233, 234, 235, 236, 237, 238, 239, 240, 241, 242, 243, 244, 245, 246, 247, 248, 249, 250, 251, 252, 253, 254, 255, 256],
      "LargestImagePixelValue": [2959, 2977, 2977, 2932, 2930, 2985, 2986, 2963, 2949, 2998, 3001, 2953, 2986, 3013, 2960, 2915, 3135, 2929, 2867, 2866, 2885, 2891, 2859, 2850, 2866, 2844, 2883, 2901, 2946, 2951, 2913, 2936, 2925, 2903, 2900, 2857, 2931, 2930, 2892, 2961, 2987, 2960, 2920, 2871, 2889, 2852, 2849, 2827, 2864, 2849, 2866, 2860, 2924, 2903, 2878, 2923, 2886, 2933, 2870, 2918, 2954, 2910, 2970, 2920, 2968, 2866, 2924, 2871, 2838, 2839, 2826, 2810, 2822, 2806, 2885, 2828, 2862, 2842, 2875, 2848, 2904, 2878, 2860, 2874, 2941, 2881, 2853, 2850, 2836, 2823, 2900, 2860, 2903, 2853, 2819, 2890, 2846, 2816, 2815, 2827, 2781, 2847, 2827, 2818, 2798, 2795, 2839, 2805, 2807, 2847, 2856, 2907, 2860, 2857, 2942, 2889, 2968, 2914, 2911, 2936, 2891, 2853, 2897, 2827, 2862, 2857, 2838, 2819, 2795, 2791, 2783, 2818, 2873, 2826, 2835, 2911, 2883, 2882, 2944, 2871, 2938, 2888, 2971, 2912, 2909, 2955, 2956, 2930, 2951, 2943, 2909, 2964, 2926, 2886, 2895, 2888, 2840, 2796, 2803, 2824, 2810, 2870, 2855, 2745, 2858, 2863, 2841, 2861, 2895, 2942, 2900, 2903, 2885, 2953, 2907, 2890, 2947, 2917, 2923, 2928, 2928, 2965, 2904, 2958, 2917, 2943, 2903, 2880, 2878, 2814, 2843, 2816, 2843, 2881, 2894, 2845, 2837, 2906, 2888, 2913, 2910, 2891, 2958, 2939, 2922, 2944, 2917, 2928, 2949, 2908, 2893, 2916, 2956, 2953, 2923, 2919, 2909, 2906, 2916, 2899, 2913, 2921, 2864, 2873, 2826, 2805, 2868, 2840, 2879, 2846, 2847, 2885, 2878, 2858, 2908, 2905, 2846, 2916, 2890, 2951, 2961, 2913, 2962, 2938, 2923, 2930, 2908, 2981, 2940, 2909, 2896, 3005, 2818, 2798, 2814, 3094],
      "WindowCenter": [760.0, 757.0, 757.0, 760.0, 761.0, 761.0, 761.0, 761.0, 761.0, 761.0, 761.0, 760.0, 760.0, 760.0, 761.0, 762.0, 763.0, 760.0, 759.0, 759.0, 762.0, 762.0, 762.0, 761.0, 761.0, 760.0, 759.0, 759.0, 758.0, 758.0, 760.0, 760.0, 760.0, 760.0, 759.0, 759.0, 760.0, 760.0, 760.0, 760.0, 760.0, 760.0, 760.0, 760.0, 760.0, 759.0, 758.0, 758.0, 758.0, 758.0, 758.0, 758.0, 757.0, 757.0, 758.0, 760.0, 760.0, 758.0, 759.0, 759.0, 760.0, 759.0, 759.0, 760.0, 760.0, 759.0, 759.0, 760.0, 759.0, 758.0, 758.0, 758.0, 758.0, 757.0, 758.0, 756.0, 756.0, 756.0, 759.0, 760.0, 760.0, 758.0, 757.0, 756.0, 758.0, 759.0, 758.0, 756.0, 752.0, 750.0, 750.0, 749.0, 752.0, 753.0, 754.0, 755.0, 756.0, 756.0, 756.0, 757.0, 757.0, 758.0, 757.0, 758.0, 757.0, 758.0, 759.0, 760.0, 759.0, 758.0, 759.0, 758.0, 757.0, 757.0, 758.0, 758.0, 759.0, 758.0, 758.0, 759.0, 760.0, 759.0, 759.0, 758.0, 757.0, 756.0, 757.0, 758.0, 759.0, 759.0, 758.0, 757.0, 758.0, 757.0, 757.0, 757.0, 756.0, 757.0, 758.0, 758.0, 759.0, 758.0, 759.0, 759.0, 759.0, 759.0, 758.0, 758.0, 757.0, 757.0, 757.0, 757.0, 757.0, 758.0, 758.0, 758.0, 758.0, 757.0, 757.0, 756.0, 754.0, 755.0, 755.0, 756.0, 758.0, 756.0, 753.0, 750.0, 750.0, 750.0, 751.0, 750.0, 753.0, 755.0, 755.0, 755.0, 755.0, 755.0, 756.0, 756.0, 756.0, 756.0, 756.0, 756.0, 757.0, 758.0, 759.0, 759.0, 759.0, 758.0, 758.0, 758.0, 759.0, 758.0, 758.0, 758.0, 758.0, 758.0, 758.0, 757.0, 757.0, 756.0, 757.0, 756.0, 756.0, 757.0, 758.0, 760.0, 759.0, 757.0, 757.0, 756.0, 755.0, 754.0, 753.0, 752.0, 751.0, 751.0, 751.0, 752.0, 754.0, 754.0, 755.0, 755.0, 754.0, 754.0, 755.0, 755.0, 757.0, 757.0, 758.0, 758.0, 757.0, 756.0, 757.0, 758.0, 757.0, 758.0, 757.0, 758.0, 758.0, 759.0, 759.0, 759.0, 758.0, 758.0, 757.0, 757.0, 758.0, 759.0, 758.0, 759.0, 755.0, 753.0, 753.0, 755.0],
      "WindowWidth": [1629.0, 1621.0, 1622.0, 1628.0, 1633.0, 1634.0, 1634.0, 1632.0, 1633.0, 1633.0, 1631.0, 1630.0, 1630.0, 1630.0, 1632.0, 1635.0, 1638.0, 1629.0, 1628.0, 1628.0, 1634.0, 1636.0, 1634.0, 1632.0, 1632.0, 1629.0, 1628.0, 1626.0, 1625.0, 1625.0, 1629.0, 1630.0, 1630.0, 1629.0, 1628.0, 1626.0, 1630.0, 1629.0, 1629.0, 1629.0, 1628.0, 1628.0, 1629.0, 1629.0, 1629.0, 1627.0, 1625.0, 1623.0, 1625.0, 1623.0, 1624.0, 1623.0, 1622.0, 1622.0, 1625.0, 1629.0, 1629.0, 1624.0, 1626.0, 1627.0, 1630.0, 1625.0, 1628.0, 1628.0, 1629.0, 1625.0, 1627.0, 1629.0, 1627.0, 1625.0, 1624.0, 1625.0, 1624.0, 1621.0, 1622.0, 1618.0, 1618.0, 1618.0, 1626.0, 1629.0, 1628.0, 1624.0, 1621.0, 1617.0, 1624.0, 1626.0, 1623.0, 1617.0, 1608.0, 1601.0, 1601.0, 1601.0, 1607.0, 1610.0, 1612.0, 1616.0, 1618.0, 1617.0, 1619.0, 1622.0, 1622.0, 1622.0, 1622.0, 1622.0, 1621.0, 1622.0, 1627.0, 1629.0, 1627.0, 1624.0, 1625.0, 1624.0, 1621.0, 1620.0, 1623.0, 1622.0, 1624.0, 1622.0, 1624.0, 1626.0, 1628.0, 1626.0, 1626.0, 1623.0, 1621.0, 1618.0, 1620.0, 1622.0, 1627.0, 1626.0, 1624.0, 1621.0, 1622.0, 1620.0, 1620.0, 1619.0, 1617.0, 1619.0, 1623.0, 1623.0, 1625.0, 1624.0, 1627.0, 1624.0, 1626.0, 1627.0, 1624.0, 1622.0, 1621.0, 1620.0, 1620.0, 1620.0, 1620.0, 1623.0, 1624.0, 1624.0, 1624.0, 1620.0, 1620.0, 1617.0, 1613.0, 1615.0, 1615.0, 1618.0, 1621.0, 1617.0, 1611.0, 1602.0, 1601.0, 1602.0, 1604.0, 1602.0, 1608.0, 1615.0, 1616.0, 1614.0, 1615.0, 1615.0, 1617.0, 1617.0, 1618.0, 1618.0, 1617.0, 1618.0, 1620.0, 1622.0, 1624.0, 1627.0, 1626.0, 1622.0, 1624.0, 1623.0, 1624.0, 1622.0, 1622.0, 1624.0, 1622.0, 1623.0, 1621.0, 1620.0, 1619.0, 1618.0, 1619.0, 1616.0, 1618.0, 1620.0, 1624.0, 1628.0, 1626.0, 1620.0, 1619.0, 1618.0, 1614.0, 1611.0, 1608.0, 1606.0, 1605.0, 1604.0, 1605.0, 1608.0, 1612.0, 1613.0, 1614.0, 1614.0, 1612.0, 1612.0, 1616.0, 1616.0, 1619.0, 1621.0, 1622.0, 1621.0, 1620.0, 1618.0, 1620.0, 1623.0, 1621.0, 1621.0, 1620.0, 1622.0, 1623.0, 1624.0, 1625.0, 1624.0, 1623.0, 1621.0, 1620.0, 1620.0, 1621.0, 1625.0, 1623.0, 1625.0, 1615.0, 1611.0, 1608.0, 1616.0]
    },
    "slices": {}
  }
}