{
 "AcquisitionMatrixPE": 100,
 "AcquisitionNumber": 1,
 "AcquisitionTime": "13:14:31.377500",
 "BandwidthPerPixelPhaseEncode": 18.519,
 "BaseResolution": 100,
 "BodyPartExamined": "BRAIN",
 "ConsistencyInfo": "N4_VE11C_LATEST_20160120",
 "ConversionSoftware": "dcm2niix",
 "ConversionSoftwareVersion": "v1.0.20180622 GCC4.9.2",
 "DerivedVendorReportedEchoSpacing": 0.000539986,
 "DeviceSerialNumber": "166078",
 "DwellTime": 2.1e-06,
 "EchoTime": 0.034,
 "EchoTrainLength": 100,
 "EffectiveEchoSpacing": 0.000539986,
 "FlipAngle": 90,
 "ImageOrientationPatientDICOM": [
  1,
  0,
  0,
  0,
  0.985996,
  -0.166769
 ],
 "ImageType": [
  "ORIGINAL",
  "PRIMARY",
  "M",
  "ND",
  "MOSAIC"
 ],
 "InPlanePhaseEncodingDirectionDICOM": "COL",
 "InstitutionAddress": "Street_StreetNo_Bei_Jing_District_CN_ZIP",
 "InstitutionName": "BeiJing_Normal_University",
 "InstitutionalDepartmentName": "Department",
 "MRAcquisitionType": "2D",
 "MagneticFieldStrength": 3,
 "Manufacturer": "Siemens",
 "ManufacturersModelName": "Prisma",
 "Modality": "MR",
 "MultibandAccelerationFactor": 3,
 "PartialFourier": 1,
 "PatientPosition": "HFS",
 "PercentPhaseFOV": 100,
 "PhaseEncodingDirection": "j-",
 "PhaseEncodingSteps": 100,
 "PhaseResolution": 1,
 "PixelBandwidth": 2380,
 "ProcedureStepDescription": "BNU_P2018_64CH_Zhen.ZongLei",
 "ProtocolName": "bold_100x100_s3_2x2x2_static_256",
 "PulseSequenceDetails": "%SiemensSeq%_ep2d_bold",
 "ReceiveCoilActiveElements": "HC1-7;NC1",
 "ReceiveCoilName": "HeadNeck_64",
 "ReconMatrixPE": 100,
 "RepetitionTime": 2,
 "SAR": 0.0757053,
 "ScanOptions": "FS",
 "ScanningSequence": "EP",
 "SequenceName": "_epfid2d1_100",
 "SequenceVariant": "SK",
 "SeriesDescription": "bold_100x100_s3_2x2x2_static_256",
 "SeriesNumber": 4,
 "ShimSetting": [
  -5460,
  -11537,
  -1250,
  483,
  -22,
  -387,
  -91,
  30
 ],
 "SliceThickness": 2,
 "SliceTiming": [
  1.485,
  0,
  0.99,
  0.0825,
  1.0725,
  0.165,
  1.155,
  0.2475,
  1.2375,
  0.33,
  1.32,
  0.4125,
  1.4025,
  0.5775,
  1.5675,
  0.66,
  1.65,
  0.7425,
  1.7325,
  0.825,
  1.815,
  0.9075,
  1.8975,
  0.495,
  1.485,
  0,
  0.99,
  0.0825,
  1.0725,
  0.165,
  1.155,
  0.2475,
  1.2375,
  0.33,
  1.32,
  0.4125,
  1.4025,
  0.5775,
  1.5675,
  0.66,
  1.65,
  0.7425,
  1.7325,
  0.825,
  1.815,
  0.9075,
  1.8975,
  0.495,
  1.485,
  0,
  0.99,
  0.0825,
  1.0725,
  0.165,
  1.155,
  0.2475,
  1.2375,
  0.33,
  1.32,
  0.4125,
  1.4025,
  0.5775,
  1.5675,
  0.66,
  1.65,
  0.7425,
  1.7325,
  0.825,
  1.815,
  0.9075,
  1.8975,
  0.495
 ],
 "SoftwareVersions": "syngo_MR_E11",
 "SpacingBetweenSlices": 2,
 "StationName": "AWP166078",
 "TaskName": "imagenet",
 "TotalReadoutTime": 0.0534586,
 "TxRefAmp": 210.46,
 "dcmmeta_affine": [
  [
   -2.0,
   0.0,
   0.0,
   100.0
  ],
  [
   0.0,
   1.971992015838623,
   -0.3335374891757965,
   -86.56427001953125
  ],
  [
   0.0,
   0.3335374891757965,
   1.971992015838623,
   -85.72920227050781
  ],
  [
   0.0,
   0.0,
   0.0,
   1.0
  ]
 ],
 "dcmmeta_reorient_transform": [
  [
   0.0,
   -1.0,
   0.0,
   99.0
  ],
  [
   1.0,
   0.0,
   0.0,
   0.0
  ],
  [
   0.0,
   0.0,
   1.0,
   0.0
  ],
  [
   0.0,
   0.0,
   0.0,
   1.0
  ]
 ],
 "dcmmeta_shape": [
  100,
  100,
  72,
  256
 ],
 "dcmmeta_slice_dim": 2,
 "dcmmeta_version": 0.6,
 "global": {
  "const": {
   "AcquisitionMatrix": [
    100,
    0,
    0,
    100
   ],
   "AngioFlag": "N",
   "BitsAllocated": 16,
   "BitsStored": 12,
   "BodyPartExamined": "BRAIN",
   "Columns": 900,
   "EchoNumbers": 1,
   "EchoTime": 34.0,
   "EchoTrainLength": 100,
   "FlipAngle": 90.0,
   "HighBit": 11,
   "ImageOrientationPatient": [
    1.0,
    0.0,
    0.0,
    0.0,
    0.98599603751451,
    -0.166768744091
   ],
   "ImagePositionPatient": [
    -900.0,
    -897.45977490381,
    80.706005424105
   ],
   "ImageType": [
    "ORIGINAL",
    "PRIMARY",
    "M",
    "ND",
    "MOSAIC"
   ],
   "ImagedNucleus": "1H",
   "ImagingFrequency": 123.257725,
   "InPlanePhaseEncodingDirection": "COL",
   "MRAcquisitionType": "2D",
   "MagneticFieldStrength": 3.0,
   "Manufacturer": "SIEMENS",
   "ManufacturerModelName": "Prisma",
   "Modality": "MR",
   "NumberOfAverages": 1.0,
   "NumberOfPhaseEncodingSteps": 100,
   "PercentPhaseFieldOfView": 100.0,
   "PercentSampling": 100.0,
   "PerformedProcedureStepStartTime": "130057.019000",
   "PhotometricInterpretation": "MONOCHROME2",
   "PixelBandwidth": 2380.0,
   "PixelRepresentation": 0,
   "PixelSpacing": [
    2.0,
    2.0
   ],
   "ProtocolName": "bold_100x100_s3_2x2x2_static_256",
   "RepetitionTime": 2000.0,
   "Rows": 900,
   "SAR": 0.07570534304364,
   "SamplesPerPixel": 1,
   "ScanOptions": "FS",
   "ScanningSequence": "EP",
   "SequenceName": "*epfid2d1_100",
   "SequenceVariant": "SK",
   "SeriesDescription": "bold_100x100_s3_2x2x2_static_256",
   "SeriesNumber": 4,
   "SeriesTime": "131433.551000",
   "SliceLocation": -70.092437981124,
   "SliceThickness": 2.0,
   "SmallestImagePixelValue": 0,
   "SoftwareVersions": "syngo MR E11",
   "SpacingBetweenSlices": 1.999999988508,
   "SpecificCharacterSet": "ISO_IR 100",
   "StudyID": "1",
   "StudyTime": "130056.942000",
   "TransmitCoilName": "Body",
   "VariableFlipAngleFlag": "N",
   "WindowCenterWidthExplanation": "Algo1",
   "dBdt": 0.0
  },
  "slices": {}
 },
 "time": {
  "samples": {
   "AcquisitionNumber": [
    1,
    2,
    3,
    4,
    5,
    6,
    7,
    8,
    9,
    10,
    11,
    12,
    13,
    14,
    15,
    16,
    17,
    18,
    19,
    20,
    21,
    22,
    23,
    24,
    25,
    26,
    27,
    28,
    29,
    30,
    31,
    32,
    33,
    34,
    35,
    36,
    37,
    38,
    39,
    40,
    41,
    42,
    43,
    44,
    45,
    46,
    47,
    48,
    49,
    50,
    51,
    52,
    53,
    54,
    55,
    56,
    57,
    58,
    59,
    60,
    61,
    62,
    63,
    64,
    65,
    66,
    67,
    68,
    69,
    70,
    71,
    72,
    73,
    74,
    75,
    76,
    77,
    78,
    79,
    80,
    81,
    82,
    83,
    84,
    85,
    86,
    87,
    88,
    89,
    90,
    91,
    92,
    93,
    94,
    95,
    96,
    97,
    98,
    99,
    100,
    101,
    102,
    103,
    104,
    105,
    106,
    107,
    108,
    109,
    110,
    111,
    112,
    113,
    114,
    115,
    116,
    117,
    118,
    119,
    120,
    121,
    122,
    123,
    124,
    125,
    126,
    127,
    128,
    129,
    130,
    131,
    132,
    133,
    134,
    135,
    136,
    137,
    138,
    139,
    140,
    141,
    142,
    143,
    144,
    145,
    146,
    147,
    148,
    149,
    150,
    151,
    152,
    153,
    154,
    155,
    156,
    157,
    158,
    159,
    160,
    161,
    162,
    163,
    164,
    165,
    166,
    167,
    168,
    169,
    170,
    171,
    172,
    173,
    174,
    175,
    176,
    177,
    178,
    179,
    180,
    181,
    182,
    183,
    184,
    185,
    186,
    187,
    188,
    189,
    190,
    191,
    192,
    193,
    194,
    195,
    196,
    197,
    198,
    199,
    200,
    201,
    202,
    203,
    204,
    205,
    206,
    207,
    208,
    209,
    210,
    211,
    212,
    213,
    214,
    215,
    216,
    217,
    218,
    219,
    220,
    221,
    222,
    223,
    224,
    225,
    226,
    227,
    228,
    229,
    230,
    231,
    232,
    233,
    234,
    235,
    236,
    237,
    238,
    239,
    240,
    241,
    242,
    243,
    244,
    245,
    246,
    247,
    248,
    249,
    250,
    251,
    252,
    253,
    254,
    255,
    256
   ],
   "AcquisitionTime": [
    "131431.377500",
    "131433.377500",
    "131435.377500",
    "131437.377500",
    "131439.377500",
    "131441.377500",
    "131443.377500",
    "131445.377500",
    "131447.377500",
    "131449.377500",
    "131451.377500",
    "131453.377500",
    "131455.377500",
    "131457.377500",
    "131459.377500",
    "131501.377500",
    "131503.377500",
    "131505.377500",
    "131507.377500",
    "131509.377500",
    "131511.377500",
    "131513.377500",
    "131515.377500",
    "131517.377500",
    "131519.377500",
    "131521.377500",
    "131523.377500",
    "131525.377500",
    "131527.377500",
    "131529.377500",
    "131531.377500",
    "131533.377500",
    "131535.377500",
    "131537.377500",
    "131539.377500",
    "131541.377500",
    "131543.377500",
    "131545.377500",
    "131547.377500",
    "131549.377500",
    "131551.377500",
    "131553.377500",
    "131555.377500",
    "131557.377500",
    "131559.377500",
    "131601.377500",
    "131603.377500",
    "131605.377500",
    "131607.377500",
    "131609.377500",
    "131611.377500",
    "131613.377500",
    "131615.377500",
    "131617.377500",
    "131619.377500",
    "131621.377500",
    "131623.377500",
    "131625.377500",
    "131627.377500",
    "131629.377500",
    "131631.377500",
    "131633.377500",
    "131635.377500",
    "131637.377500",
    "131639.377500",
    "131641.377500",
    "131643.377500",
    "131645.377500",
    "131647.377500",
    "131649.377500",
    "131651.377500",
    "131653.377500",
    "131655.377500",
    "131657.377500",
    "131659.377500",
    "131701.377500",
    "131703.377500",
    "131705.377500",
    "131707.377500",
    "131709.377500",
    "131711.377500",
    "131713.377500",
    "131715.377500",
    "131717.377500",
    "131719.377500",
    "131721.377500",
    "131723.377500",
    "131725.377500",
    "131727.377500",
    "131729.377500",
    "131731.377500",
    "131733.377500",
    "131735.377500",
    "131737.377500",
    "131739.377500",
    "131741.377500",
    "131743.377500",
    "131745.377500",
    "131747.377500",
    "131749.377500",
    "131751.377500",
    "131753.377500",
    "131755.377500",
    "131757.377500",
    "131759.377500",
    "131801.377500",
    "131803.377500",
    "131805.377500",
    "131807.377500",
    "131809.377500",
    "131811.377500",
    "131813.377500",
    "131815.377500",
    "131817.377500",
    "131819.377500",
    "131821.377500",
    "131823.377500",
    "131825.377500",
    "131827.377500",
    "131829.377500",
    "131831.377500",
    "131833.377500",
    "131835.377500",
    "131837.377500",
    "131839.377500",
    "131841.377500",
    "131843.377500",
    "131845.377500",
    "131847.377500",
    "131849.377500",
    "131851.377500",
    "131853.377500",
    "131855.377500",
    "131857.377500",
    "131859.377500",
    "131901.377500",
    "131903.377500",
    "131905.377500",
    "131907.377500",
    "131909.377500",
    "131911.377500",
    "131913.377500",
    "131915.377500",
    "131917.377500",
    "131919.377500",
    "131921.377500",
    "131923.377500",
    "131925.377500",
    "131927.377500",
    "131929.377500",
    "131931.377500",
    "131933.377500",
    "131935.377500",
    "131937.377500",
    "131939.377500",
    "131941.377500",
    "131943.377500",
    "131945.377500",
    "131947.377500",
    "131949.377500",
    "131951.377500",
    "131953.377500",
    "131955.377500",
    "131957.377500",
    "131959.377500",
    "132001.377500",
    "132003.377500",
    "132005.377500",
    "132007.377500",
    "132009.377500",
    "132011.377500",
    "132013.377500",
    "132015.377500",
    "132017.377500",
    "132019.377500",
    "132021.377500",
    "132023.377500",
    "132025.377500",
    "132027.377500",
    "132029.377500",
    "132031.377500",
    "132033.377500",
    "132035.377500",
    "132037.377500",
    "132039.377500",
    "132041.377500",
    "132043.377500",
    "132045.377500",
    "132047.377500",
    "132049.377500",
    "132051.377500",
    "132053.377500",
    "132055.377500",
    "132057.377500",
    "132059.377500",
    "132101.377500",
    "132103.377500",
    "132105.377500",
    "132107.377500",
    "132109.377500",
    "132111.377500",
    "132113.377500",
    "132115.377500",
    "132117.377500",
    "132119.377500",
    "132121.377500",
    "132123.377500",
    "132125.377500",
    "132127.377500",
    "132129.377500",
    "132131.377500",
    "132133.377500",
    "132135.377500",
    "132137.377500",
    "132139.377500",
    "132141.377500",
    "132143.377500",
    "132145.377500",
    "132147.377500",
    "132149.377500",
    "132151.377500",
    "132153.377500",
    "132155.377500",
    "132157.377500",
    "132159.377500",
    "132201.377500",
    "132203.377500",
    "132205.377500",
    "132207.377500",
    "132209.377500",
    "132211.377500",
    "132213.377500",
    "132215.377500",
    "132217.377500",
    "132219.377500",
    "132221.377500",
    "132223.377500",
    "132225.377500",
    "132227.377500",
    "132229.377500",
    "132231.377500",
    "132233.377500",
    "132235.377500",
    "132237.377500",
    "132239.377500",
    "132241.377500",
    "132243.377500",
    "132245.377500",
    "132247.377500",
    "132249.377500",
    "132251.377500",
    "132253.377500",
    "132255.377500",
    "132257.377500",
    "132259.377500",
    "132301.377500"
   ],
   "ContentTime": [
    "131433.554000",
    "131435.049000",
    "131437.049000",
    "131439.049000",
    "131441.049000",
    "131443.049000",
    "131445.049000",
    "131447.049000",
    "131449.050000",
    "131451.050000",
    "131453.050000",
    "131455.050000",
    "131457.050000",
    "131459.049000",
    "131501.050000",
    "131503.049000",
    "131505.049000",
    "131507.049000",
    "131509.049000",
    "131511.050000",
    "131513.050000",
    "131515.049000",
    "131517.050000",
    "131519.049000",
    "131521.049000",
    "131523.049000",
    "131525.050000",
    "131527.050000",
    "131529.049000",
    "131531.049000",
    "131533.050000",
    "131535.049000",
    "131537.049000",
    "131539.050000",
    "131541.049000",
    "131543.049000",
    "131545.050000",
    "131547.050000",
    "131549.049000",
    "131551.050000",
    "131553.050000",
    "131555.049000",
    "131557.049000",
    "131559.050000",
    "131601.050000",
    "131603.050000",
    "131605.049000",
    "131607.050000",
    "131609.049000",
    "131611.050000",
    "131613.050000",
    "131615.050000",
    "131617.049000",
    "131619.050000",
    "131621.050000",
    "131623.050000",
    "131625.050000",
    "131627.050000",
    "131629.050000",
    "131631.049000",
    "131633.049000",
    "131635.049000",
    "131637.050000",
    "131639.049000",
    "131641.050000",
    "131643.049000",
    "131645.049000",
    "131647.049000",
    "131649.050000",
    "131651.050000",
    "131653.050000",
    "131655.049000",
    "131657.050000",
    "131659.050000",
    "131701.049000",
    "131703.050000",
    "131705.050000",
    "131707.050000",
    "131709.050000",
    "131711.050000",
    "131713.049000",
    "131715.049000",
    "131717.049000",
    "131719.050000",
    "131721.051000",
    "131723.049000",
    "131725.049000",
    "131727.050000",
    "131729.050000",
    "131731.050000",
    "131733.049000",
    "131735.049000",
    "131737.049000",
    "131739.049000",
    "131741.049000",
    "131743.049000",
    "131745.050000",
    "131747.050000",
    "131749.050000",
    "131751.050000",
    "131753.050000",
    "131755.050000",
    "131757.050000",
    "131759.050000",
    "131801.049000",
    "131803.050000",
    "131805.050000",
    "131807.050000",
    "131809.049000",
    "131811.050000",
    "131813.051000",
    "131815.050000",
    "131817.050000",
    "131819.050000",
    "131821.050000",
    "131823.050000",
    "131825.049000",
    "131827.049000",
    "131829.049000",
    "131831.050000",
    "131833.050000",
    "131835.049000",
    "131837.050000",
    "131839.049000",
    "131841.050000",
    "131843.050000",
    "131845.049000",
    "131847.049000",
    "131849.049000",
    "131851.050000",
    "131853.050000",
    "131855.050000",
    "131857.050000",
    "131859.049000",
    "131901.050000",
    "131903.050000",
    "131905.050000",
    "131907.050000",
    "131909.050000",
    "131911.050000",
    "131913.049000",
    "131915.050000",
    "131917.049000",
    "131919.062000",
    "131921.049000",
    "131923.051000",
    "131925.049000",
    "131927.050000",
    "131929.050000",
    "131931.050000",
    "131933.050000",
    "131935.050000",
    "131937.050000",
    "131939.049000",
    "131941.051000",
    "131943.050000",
    "131945.049000",
    "131947.049000",
    "131949.050000",
    "131951.049000",
    "131953.050000",
    "131955.050000",
    "131957.050000",
    "131959.050000",
    "132001.050000",
    "132003.050000",
    "132005.050000",
    "132007.050000",
    "132009.050000",
    "132011.050000",
    "132013.050000",
    "132015.050000",
    "132017.049000",
    "132019.050000",
    "132021.050000",
    "132023.050000",
    "132025.049000",
    "132027.050000",
    "132029.050000",
    "132031.050000",
    "132033.051000",
    "132035.050000",
    "132037.050000",
    "132039.049000",
    "132041.050000",
    "132043.050000",
    "132045.050000",
    "132047.050000",
    "132049.050000",
    "132051.051000",
    "132053.049000",
    "132055.050000",
    "132057.049000",
    "132059.050000",
    "132101.049000",
    "132103.049000",
    "132105.049000",
    "132107.049000",
    "132109.049000",
    "132111.049000",
    "132113.050000",
    "132115.050000",
    "132117.050000",
    "132119.049000",
    "132121.050000",
    "132123.050000",
    "132125.050000",
    "132127.050000",
    "132129.050000",
    "132131.050000",
    "132133.049000",
    "132135.050000",
    "132137.049000",
    "132139.050000",
    "132141.050000",
    "132143.050000",
    "132145.050000",
    "132147.049000",
    "132149.050000",
    "132151.050000",
    "132153.050000",
    "132155.050000",
    "132157.050000",
    "132159.050000",
    "132201.051000",
    "132203.050000",
    "132205.050000",
    "132207.049000",
    "132209.050000",
    "132211.050000",
    "132213.049000",
    "132215.050000",
    "132217.050000",
    "132219.049000",
    "132221.049000",
    "132223.049000",
    "132225.049000",
    "132227.049000",
    "132229.050000",
    "132231.050000",
    "132233.050000",
    "132235.050000",
    "132237.049000",
    "132239.050000",
    "132241.050000",
    "132243.050000",
    "132245.050000",
    "132247.049000",
    "132249.049000",
    "132251.049000",
    "132253.051000",
    "132255.049000",
    "132257.049000",
    "132259.050000",
    "132301.050000",
    "132302.893000"
   ],
   "InstanceCreationTime": [
    "131433.554000",
    "131435.049000",
    "131437.049000",
    "131439.049000",
    "131441.049000",
    "131443.049000",
    "131445.049000",
    "131447.049000",
    "131449.050000",
    "131451.050000",
    "131453.050000",
    "131455.050000",
    "131457.050000",
    "131459.049000",
    "131501.050000",
    "131503.049000",
    "131505.049000",
    "131507.049000",
    "131509.049000",
    "131511.050000",
    "131513.050000",
    "131515.049000",
    "131517.050000",
    "131519.049000",
    "131521.049000",
    "131523.049000",
    "131525.050000",
    "131527.050000",
    "131529.049000",
    "131531.049000",
    "131533.050000",
    "131535.049000",
    "131537.049000",
    "131539.050000",
    "131541.049000",
    "131543.049000",
    "131545.050000",
    "131547.050000",
    "131549.049000",
    "131551.050000",
    "131553.050000",
    "131555.049000",
    "131557.049000",
    "131559.050000",
    "131601.050000",
    "131603.050000",
    "131605.049000",
    "131607.050000",
    "131609.049000",
    "131611.050000",
    "131613.050000",
    "131615.050000",
    "131617.049000",
    "131619.050000",
    "131621.050000",
    "131623.050000",
    "131625.050000",
    "131627.050000",
    "131629.050000",
    "131631.049000",
    "131633.049000",
    "131635.049000",
    "131637.050000",
    "131639.049000",
    "131641.050000",
    "131643.049000",
    "131645.049000",
    "131647.049000",
    "131649.050000",
    "131651.050000",
    "131653.050000",
    "131655.049000",
    "131657.050000",
    "131659.050000",
    "131701.049000",
    "131703.050000",
    "131705.050000",
    "131707.050000",
    "131709.050000",
    "131711.050000",
    "131713.049000",
    "131715.049000",
    "131717.049000",
    "131719.050000",
    "131721.051000",
    "131723.049000",
    "131725.049000",
    "131727.050000",
    "131729.050000",
    "131731.050000",
    "131733.049000",
    "131735.049000",
    "131737.049000",
    "131739.049000",
    "131741.049000",
    "131743.049000",
    "131745.050000",
    "131747.050000",
    "131749.050000",
    "131751.050000",
    "131753.050000",
    "131755.050000",
    "131757.050000",
    "131759.050000",
    "131801.049000",
    "131803.050000",
    "131805.050000",
    "131807.050000",
    "131809.049000",
    "131811.050000",
    "131813.051000",
    "131815.050000",
    "131817.050000",
    "131819.050000",
    "131821.050000",
    "131823.050000",
    "131825.049000",
    "131827.049000",
    "131829.049000",
    "131831.050000",
    "131833.050000",
    "131835.049000",
    "131837.050000",
    "131839.049000",
    "131841.050000",
    "131843.050000",
    "131845.049000",
    "131847.049000",
    "131849.049000",
    "131851.050000",
    "131853.050000",
    "131855.050000",
    "131857.050000",
    "131859.049000",
    "131901.050000",
    "131903.050000",
    "131905.050000",
    "131907.050000",
    "131909.050000",
    "131911.050000",
    "131913.049000",
    "131915.050000",
    "131917.049000",
    "131919.062000",
    "131921.049000",
    "131923.051000",
    "131925.049000",
    "131927.050000",
    "131929.050000",
    "131931.050000",
    "131933.050000",
    "131935.050000",
    "131937.050000",
    "131939.049000",
    "131941.051000",
    "131943.050000",
    "131945.049000",
    "131947.049000",
    "131949.050000",
    "131951.049000",
    "131953.050000",
    "131955.050000",
    "131957.050000",
    "131959.050000",
    "132001.050000",
    "132003.050000",
    "132005.050000",
    "132007.050000",
    "132009.050000",
    "132011.050000",
    "132013.050000",
    "132015.050000",
    "132017.049000",
    "132019.050000",
    "132021.050000",
    "132023.050000",
    "132025.049000",
    "132027.050000",
    "132029.050000",
    "132031.050000",
    "132033.051000",
    "132035.050000",
    "132037.050000",
    "132039.049000",
    "132041.050000",
    "132043.050000",
    "132045.050000",
    "132047.050000",
    "132049.050000",
    "132051.051000",
    "132053.049000",
    "132055.050000",
    "132057.049000",
    "132059.050000",
    "132101.049000",
    "132103.049000",
    "132105.049000",
    "132107.049000",
    "132109.049000",
    "132111.049000",
    "132113.050000",
    "132115.050000",
    "132117.050000",
    "132119.049000",
    "132121.050000",
    "132123.050000",
    "132125.050000",
    "132127.050000",
    "132129.050000",
    "132131.050000",
    "132133.049000",
    "132135.050000",
    "132137.049000",
    "132139.050000",
    "132141.050000",
    "132143.050000",
    "132145.050000",
    "132147.049000",
    "132149.050000",
    "132151.050000",
    "132153.050000",
    "132155.050000",
    "132157.050000",
    "132159.050000",
    "132201.051000",
    "132203.050000",
    "132205.050000",
    "132207.049000",
    "132209.050000",
    "132211.050000",
    "132213.049000",
    "132215.050000",
    "132217.050000",
    "132219.049000",
    "132221.049000",
    "132223.049000",
    "132225.049000",
    "132227.049000",
    "132229.050000",
    "132231.050000",
    "132233.050000",
    "132235.050000",
    "132237.049000",
    "132239.050000",
    "132241.050000",
    "132243.050000",
    "132245.050000",
    "132247.049000",
    "132249.049000",
    "132251.049000",
    "132253.051000",
    "132255.049000",
    "132257.049000",
    "132259.050000",
    "132301.050000",
    "132302.893000"
   ],
   "InstanceNumber": [
    1,
    2,
    3,
    4,
    5,
    6,
    7,
    8,
    9,
    10,
    11,
    12,
    13,
    14,
    15,
    16,
    17,
    18,
    19,
    20,
    21,
    22,
    23,
    24,
    25,
    26,
    27,
    28,
    29,
    30,
    31,
    32,
    33,
    34,
    35,
    36,
    37,
    38,
    39,
    40,
    41,
    42,
    43,
    44,
    45,
    46,
    47,
    48,
    49,
    50,
    51,
    52,
    53,
    54,
    55,
    56,
    57,
    58,
    59,
    60,
    61,
    62,
    63,
    64,
    65,
    66,
    67,
    68,
    69,
    70,
    71,
    72,
    73,
    74,
    75,
    76,
    77,
    78,
    79,
    80,
    81,
    82,
    83,
    84,
    85,
    86,
    87,
    88,
    89,
    90,
    91,
    92,
    93,
    94,
    95,
    96,
    97,
    98,
    99,
    100,
    101,
    102,
    103,
    104,
    105,
    106,
    107,
    108,
    109,
    110,
    111,
    112,
    113,
    114,
    115,
    116,
    117,
    118,
    119,
    120,
    121,
    122,
    123,
    124,
    125,
    126,
    127,
    128,
    129,
    130,
    131,
    132,
    133,
    134,
    135,
    136,
    137,
    138,
    139,
    140,
    141,
    142,
    143,
    144,
    145,
    146,
    147,
    148,
    149,
    150,
    151,
    152,
    153,
    154,
    155,
    156,
    157,
    158,
    159,
    160,
    161,
    162,
    163,
    164,
    165,
    166,
    167,
    168,
    169,
    170,
    171,
    172,
    173,
    174,
    175,
    176,
    177,
    178,
    179,
    180,
    181,
    182,
    183,
    184,
    185,
    186,
    187,
    188,
    189,
    190,
    191,
    192,
    193,
    194,
    195,
    196,
    197,
    198,
    199,
    200,
    201,
    202,
    203,
    204,
    205,
    206,
    207,
    208,
    209,
    210,
    211,
    212,
    213,
    214,
    215,
    216,
    217,
    218,
    219,
    220,
    221,
    222,
    223,
    224,
    225,
    226,
    227,
    228,
    229,
    230,
    231,
    232,
    233,
    234,
    235,
    236,
    237,
    238,
    239,
    240,
    241,
    242,
    243,
    244,
    245,
    246,
    247,
    248,
    249,
    250,
    251,
    252,
    253,
    254,
    255,
    256
   ],
   "LargestImagePixelValue": [
    2670,
    2592,
    2620,
    2595,
    2575,
    2563,
    2574,
    2616,
    2592,
    2545,
    2577,
    2586,
    2577,
    2555,
    2572,
    2586,
    2600,
    2591,
    2582,
    2583,
    2637,
    2603,
    2578,
    2636,
    2645,
    2549,
    2627,
    2580,
    2585,
    2676,
    2603,
    2672,
    2661,
    2535,
    2623,
    2657,
    2700,
    2671,
    2652,
    2576,
    2633,
    2629,
    2577,
    2674,
    2579,
    2559,
    2680,
    2686,
    2563,
    2689,
    2661,
    2596,
    2653,
    2666,
    2648,
    2709,
    2637,
    2623,
    2688,
    2608,
    2565,
    2642,
    2607,
    2575,
    2607,
    2561,
    2578,
    2611,
    2700,
    2612,
    2673,
    2692,
    2678,
    2631,
    2650,
    2674,
    2633,
    2667,
    2629,
    2544,
    2693,
    2690,
    2636,
    2643,
    2651,
    2578,
    2602,
    2644,
    2655,
    2648,
    2687,
    2705,
    2624,
    2677,
    2688,
    2673,
    2631,
    2713,
    2666,
    2630,
    2664,
    2638,
    2673,
    2667,
    2659,
    2657,
    2692,
    2697,
    2690,
    2677,
    2633,
    2682,
    2675,
    2653,
    2666,
    2590,
    2689,
    2702,
    2673,
    2647,
    2647,
    2648,
    2602,
    2673,
    2617,
    2577,
    2583,
    2665,
    2648,
    2632,
    2703,
    2598,
    2663,
    2666,
    2605,
    2647,
    2662,
    2596,
    2647,
    2616,
    2668,
    2678,
    2616,
    2693,
    2665,
    2621,
    2604,
    2670,
    2619,
    2660,
    2644,
    2664,
    2649,
    2602,
    2603,
    2636,
    2634,
    2608,
    2620,
    2633,
    2600,
    2597,
    2609,
    2656,
    2629,
    2637,
    2614,
    2602,
    2628,
    2619,
    2639,
    2641,
    2601,
    2598,
    2639,
    2613,
    2648,
    2605,
    2608,
    2585,
    2625,
    2605,
    2610,
    2618,
    2613,
    2626,
    2616,
    2617,
    2639,
    2609,
    2594,
    2614,
    2641,
    2606,
    2632,
    2620,
    2604,
    2596,
    2632,
    2628,
    2619,
    2621,
    2623,
    2627,
    2632,
    2619,
    2594,
    2631,
    2625,
    2625,
    2641,
    2635,
    2635,
    2638,
    2625,
    2598,
    2626,
    2663,
    2611,
    2625,
    2641,
    2629,
    2624,
    2596,
    2628,
    2630,
    2610,
    2626,
    2635,
    2634,
    2613,
    2630,
    2630,
    2609,
    2629,
    2640,
    2626,
    2629,
    2611,
    2633,
    2639,
    2684,
    2662,
    2649,
    2695,
    2670,
    2610,
    2641,
    2632,
    2620,
    2626,
    2623,
    2627,
    2622,
    2624,
    2644
   ],
   "WindowCenter": [
    721.0,
    719.0,
    720.0,
    720.0,
    719.0,
    718.0,
    717.0,
    718.0,
    718.0,
    719.0,
    721.0,
    720.0,
    720.0,
    719.0,
    720.0,
    720.0,
    720.0,
    720.0,
    720.0,
    719.0,
    719.0,
    719.0,
    719.0,
    719.0,
    720.0,
    719.0,
    719.0,
    719.0,
    719.0,
    720.0,
    720.0,
    720.0,
    720.0,
    719.0,
    720.0,
    720.0,
    721.0,
    721.0,
    721.0,
    719.0,
    719.0,
    719.0,
    719.0,
    721.0,
    719.0,
    718.0,
    720.0,
    720.0,
    718.0,
    719.0,
    719.0,
    718.0,
    720.0,
    719.0,
    718.0,
    718.0,
    718.0,
    720.0,
    721.0,
    720.0,
    718.0,
    719.0,
    719.0,
    719.0,
    719.0,
    719.0,
    719.0,
    719.0,
    719.0,
    718.0,
    719.0,
    719.0,
    719.0,
    719.0,
    719.0,
    719.0,
    719.0,
    720.0,
    720.0,
    718.0,
    720.0,
    719.0,
    719.0,
    719.0,
    720.0,
    720.0,
    720.0,
    719.0,
    720.0,
    719.0,
    720.0,
    719.0,
    719.0,
    720.0,
    721.0,
    720.0,
    719.0,
    720.0,
    719.0,
    719.0,
    720.0,
    720.0,
    720.0,
    720.0,
    719.0,
    720.0,
    721.0,
    721.0,
    721.0,
    720.0,
    720.0,
    720.0,
    720.0,
    720.0,
    720.0,
    718.0,
    720.0,
    721.0,
    720.0,
    719.0,
    719.0,
    719.0,
    719.0,
    720.0,
    719.0,
    719.0,
    719.0,
