{
 "AcquisitionMatrixPE": 100,
 "AcquisitionNumber": 1,
 "AcquisitionTime": "16:46:43.207500",
 "BandwidthPerPixelPhaseEncode": 18.519,
 "BaseResolution": 100,
 "BodyPartExamined": "BRAIN",
 "ConsistencyInfo": "N4_VE11C_LATEST_20160120",
 "ConversionSoftware": "dcm2niix",
 "ConversionSoftwareVersion": "v1.0.20180622 GCC4.9.2",
 "DerivedVendorReportedEchoSpacing": 0.000539986,
 "DeviceSerialNumber": "166078",
 "DwellTime": 2.1e-06,
 "EchoTime": 0.034,
 "EchoTrainLength": 100,
 "EffectiveEchoSpacing": 0.000539986,
 "FlipAngle": 90,
 "ImageOrientationPatientDICOM": [
  1,
  0,
  0,
  0,
  0.964095,
  -0.265556
 ],
 "ImageType": [
  "ORIGINAL",
  "PRIMARY",
  "M",
  "ND",
  "MOSAIC"
 ],
 "InPlanePhaseEncodingDirectionDICOM": "COL",
 "InstitutionAddress": "Street_StreetNo_Bei_Jing_District_CN_ZIP",
 "InstitutionName": "BeiJing_Normal_University",
 "InstitutionalDepartmentName": "Department",
 "MRAcquisitionType": "2D",
 "MagneticFieldStrength": 3,
 "Manufacturer": "Siemens",
 "ManufacturersModelName": "Prisma",
 "Modality": "MR",
 "MultibandAccelerationFactor": 3,
 "PartialFourier": 1,
 "PatientPosition": "HFS",
 "PercentPhaseFOV": 100,
 "PhaseEncodingDirection": "j-",
 "PhaseEncodingSteps": 100,
 "PhaseResolution": 1,
 "PixelBandwidth": 2380,
 "ProcedureStepDescription": "BNU_P2018_64CH_Zhen.ZongLei",
 "ProtocolName": "bold_100x100_s3_2x2x2_static_256",
 "PulseSequenceDetails": "%SiemensSeq%_ep2d_bold",
 "ReceiveCoilActiveElements": "HC1-7;NC1",
 "ReceiveCoilName": "HeadNeck_64",
 "ReconMatrixPE": 100,
 "RepetitionTime": 2,
 "SAR": 0.064357,
 "ScanOptions": "FS",
 "ScanningSequence": "EP",
 "SequenceName": "_epfid2d1_100",
 "SequenceVariant": "SK",
 "SeriesDescription": "bold_100x100_s3_2x2x2_static_256",
 "SeriesNumber": 18,
 "ShimSetting": [
  -5459,
  -11476,
  -1279,
  418,
  -9,
  -332,
  -271,
  50
 ],
 "SliceThickness": 2,
 "SliceTiming": [
  1.485,
  0,
  0.99,
  0.0825,
  1.0725,
  0.165,
  1.155,
  0.2475,
  1.2375,
  0.33,
  1.32,
  0.4125,
  1.4025,
  0.5775,
  1.5675,
  0.66,
  1.65,
  0.7425,
  1.7325,
  0.825,
  1.815,
  0.9075,
  1.8975,
  0.495,
  1.485,
  0,
  0.99,
  0.0825,
  1.0725,
  0.165,
  1.155,
  0.2475,
  1.2375,
  0.33,
  1.32,
  0.4125,
  1.4025,
  0.5775,
  1.5675,
  0.66,
  1.65,
  0.7425,
  1.7325,
  0.825,
  1.815,
  0.9075,
  1.8975,
  0.495,
  1.485,
  0,
  0.99,
  0.0825,
  1.0725,
  0.165,
  1.155,
  0.2475,
  1.2375,
  0.33,
  1.32,
  0.4125,
  1.4025,
  0.5775,
  1.5675,
  0.66,
  1.65,
  0.7425,
  1.7325,
  0.825,
  1.815,
  0.9075,
  1.8975,
  0.495
 ],
 "SoftwareVersions": "syngo_MR_E11",
 "SpacingBetweenSlices": 2,
 "StationName": "AWP166078",
 "TaskName": "imagenet",
 "TotalReadoutTime": 0.0534586,
 "TxRefAmp": 209.31,
 "dcmmeta_affine": [
  [
   -2.0,
   0.0,
   0.0,
   102.02409362792969
  ],
  [
   0.0,
   1.92819082736969,
   -0.5311122536659241,
   -76.749755859375
  ],
  [
   0.0,
   0.5311122536659241,
   1.92819082736969,
   -98.02226257324219
  ],
  [
   0.0,
   0.0,
   0.0,
   1.0
  ]
 ],
 "dcmmeta_reorient_transform": [
  [
   0.0,
   -1.0,
   0.0,
   99.0
  ],
  [
   1.0,
   0.0,
   0.0,
   0.0
  ],
  [
   0.0,
   0.0,
   1.0,
   0.0
  ],
  [
   0.0,
   0.0,
   0.0,
   1.0
  ]
 ],
 "dcmmeta_shape": [
  100,
  100,
  72,
  256
 ],
 "dcmmeta_slice_dim": 2,
 "dcmmeta_version": 0.6,
 "global": {
  "const": {
   "AcquisitionMatrix": [
    100,
    0,
    0,
    100
   ],
   "AngioFlag": "N",
   "BitsAllocated": 16,
   "BitsStored": 12,
   "BodyPartExamined": "BRAIN",
   "Columns": 900,
   "EchoNumbers": 1,
   "EchoTime": 34.0,
   "EchoTrainLength": 100,
   "FlipAngle": 90.0,
   "HighBit": 11,
   "ImageOrientationPatient": [
    1.0,
    0.0,
    0.0,
    0.0,
    0.96409539939404,
    -0.2655561350586
   ],
   "ImagePositionPatient": [
    -902.02409648895,
    -885.41745163298,
    167.00275696533
   ],
   "ImageType": [
    "ORIGINAL",
    "PRIMARY",
    "M",
    "ND",
    "MOSAIC"
   ],
   "ImagedNucleus": "1H",
   "ImagingFrequency": 123.25779,
   "InPlanePhaseEncodingDirection": "COL",
   "MRAcquisitionType": "2D",
   "MagneticFieldStrength": 3.0,
   "Manufacturer": "SIEMENS",
   "ManufacturerModelName": "Prisma",
   "Modality": "MR",
   "NumberOfAverages": 1.0,
   "NumberOfPhaseEncodingSteps": 100,
   "PercentPhaseFieldOfView": 100.0,
   "PercentSampling": 100.0,
   "PerformedProcedureStepStartTime": "152922.304000",
   "PhotometricInterpretation": "MONOCHROME2",
   "PixelBandwidth": 2380.0,
   "PixelRepresentation": 0,
   "PixelSpacing": [
    2.0,
    2.0
   ],
   "ProtocolName": "bold_100x100_s3_2x2x2_static_256",
   "RepetitionTime": 2000.0,
   "Rows": 900,
   "SAR": 0.06435700602932,
   "SamplesPerPixel": 1,
   "ScanOptions": "FS",
   "ScanningSequence": "EP",
   "SequenceName": "*epfid2d1_100",
   "SequenceVariant": "SK",
   "SeriesDescription": "bold_100x100_s3_2x2x2_static_256",
   "SeriesNumber": 18,
   "SeriesTime": "164645.492000",
   "SliceLocation": -74.121446692686,
   "SliceThickness": 2.0,
   "SmallestImagePixelValue": 0,
   "SoftwareVersions": "syngo MR E11",
   "SpacingBetweenSlices": 2.0000000337521,
   "SpecificCharacterSet": "ISO_IR 100",
   "StudyID": "1",
   "StudyTime": "152922.223000",
   "TransmitCoilName": "Body",
   "VariableFlipAngleFlag": "N",
   "WindowCenterWidthExplanation": "Algo1",
   "dBdt": 0.0
  },
  "slices": {}
 },
 "time": {
  "samples": {
   "AcquisitionNumber": [
    1,
    2,
    3,
    4,
    5,
    6,
    7,
    8,
    9,
    10,
    11,
    12,
    13,
    14,
    15,
    16,
    17,
    18,
    19,
    20,
    21,
    22,
    23,
    24,
    25,
    26,
    27,
    28,
    29,
    30,
    31,
    32,
    33,
    34,
    35,
    36,
    37,
    38,
    39,
    40,
    41,
    42,
    43,
    44,
    45,
    46,
    47,
    48,
    49,
    50,
    51,
    52,
    53,
    54,
    55,
    56,
    57,
    58,
    59,
    60,
    61,
    62,
    63,
    64,
    65,
    66,
    67,
    68,
    69,
    70,
    71,
    72,
    73,
    74,
    75,
    76,
    77,
    78,
    79,
    80,
    81,
    82,
    83,
    84,
    85,
    86,
    87,
    88,
    89,
    90,
    91,
    92,
    93,
    94,
    95,
    96,
    97,
    98,
    99,
    100,
    101,
    102,
    103,
    104,
    105,
    106,
    107,
    108,
    109,
    110,
    111,
    112,
    113,
    114,
    115,
    116,
    117,
    118,
    119,
    120,
    121,
    122,
    123,
    124,
    125,
    126,
    127,
    128,
    129,
    130,
    131,
    132,
    133,
    134,
    135,
    136,
    137,
    138,
    139,
    140,
    141,
    142,
    143,
    144,
    145,
    146,
    147,
    148,
    149,
    150,
    151,
    152,
    153,
    154,
    155,
    156,
    157,
    158,
    159,
    160,
    161,
    162,
    163,
    164,
    165,
    166,
    167,
    168,
    169,
    170,
    171,
    172,
    173,
    174,
    175,
    176,
    177,
    178,
    179,
    180,
    181,
    182,
    183,
    184,
    185,
    186,
    187,
    188,
    189,
    190,
    191,
    192,
    193,
    194,
    195,
    196,
    197,
    198,
    199,
    200,
    201,
    202,
    203,
    204,
    205,
    206,
    207,
    208,
    209,
    210,
    211,
    212,
    213,
    214,
    215,
    216,
    217,
    218,
    219,
    220,
    221,
    222,
    223,
    224,
    225,
    226,
    227,
    228,
    229,
    230,
    231,
    232,
    233,
    234,
    235,
    236,
    237,
    238,
    239,
    240,
    241,
    242,
    243,
    244,
    245,
    246,
    247,
    248,
    249,
    250,
    251,
    252,
    253,
    254,
    255,
    256
   ],
   "AcquisitionTime": [
    "164643.207500",
    "164645.207500",
    "164647.207500",
    "164649.207500",
    "164651.207500",
    "164653.207500",
    "164655.207500",
    "164657.207500",
    "164659.207500",
    "164701.207500",
    "164703.207500",
    "164705.207500",
    "164707.207500",
    "164709.207500",
    "164711.207500",
    "164713.207500",
    "164715.207500",
    "164717.207500",
    "164719.207500",
    "164721.207500",
    "164723.207500",
    "164725.207500",
    "164727.207500",
    "164729.207500",
    "164731.207500",
    "164733.207500",
    "164735.207500",
    "164737.207500",
    "164739.207500",
    "164741.207500",
    "164743.207500",
    "164745.207500",
    "164747.207500",
    "164749.207500",
    "164751.207500",
    "164753.207500",
    "164755.207500",
    "164757.207500",
    "164759.207500",
    "164801.207500",
    "164803.207500",
    "164805.207500",
    "164807.207500",
    "164809.207500",
    "164811.207500",
    "164813.207500",
    "164815.207500",
    "164817.207500",
    "164819.207500",
    "164821.207500",
    "164823.207500",
    "164825.207500",
    "164827.207500",
    "164829.207500",
    "164831.207500",
    "164833.207500",
    "164835.207500",
    "164837.207500",
    "164839.207500",
    "164841.207500",
    "164843.207500",
    "164845.207500",
    "164847.207500",
    "164849.207500",
    "164851.207500",
    "164853.207500",
    "164855.207500",
    "164857.207500",
    "164859.207500",
    "164901.207500",
    "164903.207500",
    "164905.207500",
    "164907.207500",
    "164909.207500",
    "164911.207500",
    "164913.207500",
    "164915.207500",
    "164917.207500",
    "164919.207500",
    "164921.207500",
    "164923.207500",
    "164925.207500",
    "164927.207500",
    "164929.207500",
    "164931.207500",
    "164933.207500",
    "164935.207500",
    "164937.207500",
    "164939.207500",
    "164941.207500",
    "164943.207500",
    "164945.207500",
    "164947.207500",
    "164949.207500",
    "164951.207500",
    "164953.207500",
    "164955.207500",
    "164957.207500",
    "164959.207500",
    "165001.207500",
    "165003.207500",
    "165005.207500",
    "165007.207500",
    "165009.207500",
    "165011.207500",
    "165013.207500",
    "165015.207500",
    "165017.207500",
    "165019.207500",
    "165021.207500",
    "165023.207500",
    "165025.207500",
    "165027.207500",
    "165029.207500",
    "165031.207500",
    "165033.207500",
    "165035.207500",
    "165037.207500",
    "165039.207500",
    "165041.207500",
    "165043.207500",
    "165045.207500",
    "165047.207500",
    "165049.207500",
    "165051.207500",
    "165053.207500",
    "165055.207500",
    "165057.207500",
    "165059.207500",
    "165101.207500",
    "165103.207500",
    "165105.207500",
    "165107.207500",
    "165109.207500",
    "165111.207500",
    "165113.207500",
    "165115.207500",
    "165117.207500",
    "165119.207500",
    "165121.207500",
    "165123.207500",
    "165125.207500",
    "165127.207500",
    "165129.207500",
    "165131.207500",
    "165133.207500",
    "165135.207500",
    "165137.207500",
    "165139.207500",
    "165141.207500",
    "165143.207500",
    "165145.207500",
    "165147.207500",
    "165149.207500",
    "165151.207500",
    "165153.207500",
    "165155.207500",
    "165157.207500",
    "165159.207500",
    "165201.207500",
    "165203.207500",
    "165205.207500",
    "165207.207500",
    "165209.207500",
    "165211.207500",
    "165213.207500",
    "165215.207500",
    "165217.207500",
    "165219.207500",
    "165221.207500",
    "165223.207500",
    "165225.207500",
    "165227.207500",
    "165229.207500",
    "165231.207500",
    "165233.207500",
    "165235.207500",
    "165237.207500",
    "165239.207500",
    "165241.207500",
    "165243.207500",
    "165245.207500",
    "165247.207500",
    "165249.207500",
    "165251.207500",
    "165253.207500",
    "165255.207500",
    "165257.207500",
    "165259.207500",
    "165301.207500",
    "165303.207500",
    "165305.207500",
    "165307.207500",
    "165309.207500",
    "165311.207500",
    "165313.207500",
    "165315.207500",
    "165317.207500",
    "165319.207500",
    "165321.207500",
    "165323.207500",
    "165325.207500",
    "165327.207500",
    "165329.207500",
    "165331.207500",
    "165333.207500",
    "165335.207500",
    "165337.207500",
    "165339.207500",
    "165341.207500",
    "165343.207500",
    "165345.207500",
    "165347.207500",
    "165349.207500",
    "165351.207500",
    "165353.207500",
    "165355.207500",
    "165357.207500",
    "165359.207500",
    "165401.207500",
    "165403.207500",
    "165405.207500",
    "165407.207500",
    "165409.207500",
    "165411.207500",
    "165413.207500",
    "165415.207500",
    "165417.207500",
    "165419.207500",
    "165421.207500",
    "165423.207500",
    "165425.207500",
    "165427.207500",
    "165429.207500",
    "165431.207500",
    "165433.207500",
    "165435.207500",
    "165437.207500",
    "165439.207500",
    "165441.207500",
    "165443.207500",
    "165445.207500",
    "165447.207500",
    "165449.207500",
    "165451.207500",
    "165453.207500",
    "165455.207500",
    "165457.207500",
    "165459.207500",
    "165501.207500",
    "165503.207500",
    "165505.207500",
    "165507.207500",
    "165509.207500",
    "165511.207500",
    "165513.207500"
   ],
   "ContentTime": [
    "164645.496000",
    "164646.991000",
    "164648.992000",
    "164650.992000",
    "164652.992000",
    "164654.992000",
    "164656.992000",
    "164658.992000",
    "164700.993000",
    "164702.991000",
    "164704.991000",
    "164706.992000",
    "164708.993000",
    "164710.992000",
    "164712.992000",
    "164714.993000",
    "164716.992000",
    "164718.992000",
    "164720.992000",
    "164722.991000",
    "164724.992000",
    "164726.993000",
    "164728.992000",
    "164730.993000",
    "164732.993000",
    "164734.992000",
    "164736.992000",
    "164738.991000",
    "164740.992000",
    "164742.992000",
    "164744.993000",
    "164746.993000",
    "164748.993000",
    "164750.993000",
    "164752.993000",
    "164754.993000",
    "164756.991000",
    "164758.992000",
    "164800.992000",
    "164802.993000",
    "164804.993000",
    "164806.992000",
    "164808.992000",
    "164810.992000",
    "164812.992000",
    "164814.991000",
    "164816.991000",
    "164818.992000",
    "164820.992000",
    "164822.993000",
    "164824.993000",
    "164826.993000",
    "164828.992000",
    "164830.992000",
    "164832.992000",
    "164834.991000",
    "164836.992000",
    "164838.992000",
    "164840.993000",
    "164842.993000",
    "164844.993000",
    "164846.992000",
    "164848.991000",
    "164850.992000",
    "164852.992000",
    "164854.993000",
    "164856.992000",
    "164858.992000",
    "164900.992000",
    "164902.993000",
    "164904.992000",
    "164906.992000",
    "164908.992000",
    "164910.991000",
    "164912.992000",
    "164914.992000",
    "164916.992000",
    "164918.992000",
    "164920.992000",
    "164922.992000",
    "164924.992000",
    "164926.992000",
    "164928.993000",
    "164930.993000",
    "164932.993000",
    "164934.993000",
    "164936.993000",
    "164938.993000",
    "164940.991000",
    "164942.991000",
    "164944.991000",
    "164946.992000",
    "164948.993000",
    "164950.993000",
    "164952.993000",
    "164954.993000",
    "164956.993000",
    "164958.992000",
    "165000.991000",
    "165002.992000",
    "165004.992000",
    "165006.993000",
    "165008.993000",
    "165010.993000",
    "165012.993000",
    "165014.992000",
    "165016.991000",
    "165018.992000",
    "165020.992000",
    "165022.993000",
    "165024.992000",
    "165026.992000",
    "165028.992000",
    "165030.992000",
    "165032.991000",
    "165034.991000",
    "165036.992000",
    "165038.993000",
    "165040.993000",
    "165042.993000",
    "165044.993000",
    "165046.993000",
    "165048.993000",
    "165050.991000",
    "165052.992000",
    "165054.992000",
    "165056.993000",
    "165058.992000",
    "165100.993000",
    "165102.993000",
    "165104.992000",
    "165106.993000",
    "165108.992000",
    "165110.992000",
    "165112.992000",
    "165114.993000",
    "165116.993000",
    "165118.992000",
    "165120.992000",
    "165122.992000",
    "165124.992000",
    "165126.992000",
    "165128.991000",
    "165130.993000",
    "165132.993000",
    "165134.992000",
    "165136.993000",
    "165138.993000",
    "165140.993000",
    "165142.991000",
    "165144.991000",
    "165146.992000",
    "165148.992000",
    "165150.993000",
    "165152.993000",
    "165154.992000",
    "165156.993000",
    "165158.992000",
    "165200.991000",
    "165202.992000",
    "165204.991000",
    "165206.993000",
    "165208.992000",
    "165210.993000",
    "165212.992000",
    "165214.993000",
    "165216.993000",
    "165218.991000",
    "165220.992000",
    "165222.992000",
    "165224.992000",
    "165226.993000",
    "165228.993000",
    "165230.993000",
    "165232.993000",
    "165234.993000",
    "165236.992000",
    "165238.991000",
    "165240.993000",
    "165242.993000",
    "165244.993000",
    "165246.993000",
    "165248.992000",
    "165250.992000",
    "165252.992000",
    "165254.992000",
    "165256.992000",
    "165258.993000",
    "165300.993000",
    "165302.993000",
    "165304.993000",
    "165306.993000",
    "165308.993000",
    "165310.992000",
    "165312.991000",
    "165314.992000",
    "165316.993000",
    "165318.992000",
    "165320.993000",
    "165322.993000",
    "165324.992000",
    "165326.993000",
    "165328.992000",
    "165330.991000",
    "165332.992000",
    "165334.992000",
    "165336.993000",
    "165338.993000",
    "165340.993000",
    "165342.993000",
    "165344.992000",
    "165346.991000",
    "165348.992000",
    "165350.992000",
    "165352.992000",
    "165354.992000",
    "165356.993000",
    "165358.992000",
    "165400.992000",
    "165402.992000",
    "165404.992000",
    "165406.991000",
    "165408.993000",
    "165410.993000",
    "165412.993000",
    "165414.992000",
    "165416.993000",
    "165418.993000",
    "165420.991000",
    "165422.992000",
    "165424.992000",
    "165426.993000",
    "165428.992000",
    "165430.992000",
    "165432.993000",
    "165434.993000",
    "165436.993000",
    "165438.991000",
    "165440.992000",
    "165442.992000",
    "165444.993000",
    "165446.993000",
    "165448.993000",
    "165450.992000",
    "165452.993000",
    "165454.992000",
    "165456.991000",
    "165458.991000",
    "165500.992000",
    "165502.992000",
    "165504.993000",
    "165506.993000",
    "165508.993000",
    "165510.992000",
    "165512.992000",
    "165514.691000"
   ],
   "InstanceCreationTime": [
    "164645.496000",
    "164646.991000",
    "164648.992000",
    "164650.992000",
    "164652.992000",
    "164654.992000",
    "164656.992000",
    "164658.992000",
    "164700.993000",
    "164702.991000",
    "164704.991000",
    "164706.992000",
    "164708.993000",
    "164710.992000",
    "164712.992000",
    "164714.993000",
    "164716.992000",
    "164718.992000",
    "164720.992000",
    "164722.991000",
    "164724.992000",
    "164726.993000",
    "164728.992000",
    "164730.993000",
    "164732.993000",
    "164734.992000",
    "164736.992000",
    "164738.991000",
    "164740.992000",
    "164742.992000",
    "164744.993000",
    "164746.993000",
    "164748.993000",
    "164750.993000",
    "164752.993000",
    "164754.993000",
    "164756.991000",
    "164758.992000",
    "164800.992000",
    "164802.993000",
    "164804.993000",
    "164806.992000",
    "164808.992000",
    "164810.992000",
    "164812.992000",
    "164814.991000",
    "164816.991000",
    "164818.992000",
    "164820.992000",
    "164822.993000",
    "164824.993000",
    "164826.993000",
    "164828.992000",
    "164830.992000",
    "164832.992000",
    "164834.991000",
    "164836.992000",
    "164838.992000",
    "164840.993000",
    "164842.993000",
    "164844.993000",
    "164846.992000",
    "164848.991000",
    "164850.992000",
    "164852.992000",
    "164854.993000",
    "164856.992000",
    "164858.992000",
    "164900.992000",
    "164902.993000",
    "164904.992000",
    "164906.992000",
    "164908.992000",
    "164910.991000",
    "164912.992000",
    "164914.992000",
    "164916.992000",
    "164918.992000",
    "164920.992000",
    "164922.992000",
    "164924.992000",
    "164926.992000",
    "164928.993000",
    "164930.993000",
    "164932.993000",
    "164934.993000",
    "164936.993000",
    "164938.993000",
    "164940.991000",
    "164942.991000",
    "164944.991000",
    "164946.992000",
    "164948.993000",
    "164950.993000",
    "164952.993000",
    "164954.993000",
    "164956.993000",
    "164958.992000",
    "165000.991000",
    "165002.992000",
    "165004.992000",
    "165006.993000",
    "165008.993000",
    "165010.993000",
    "165012.993000",
    "165014.992000",
    "165016.991000",
    "165018.992000",
    "165020.992000",
    "165022.993000",
    "165024.992000",
    "165026.992000",
    "165028.992000",
    "165030.992000",
    "165032.991000",
    "165034.991000",
    "165036.992000",
    "165038.993000",
    "165040.993000",
    "165042.993000",
    "165044.993000",
    "165046.993000",
    "165048.993000",
    "165050.991000",
    "165052.992000",
    "165054.992000",
    "165056.993000",
    "165058.992000",
    "165100.993000",
    "165102.993000",
    "165104.992000",
    "165106.993000",
    "165108.992000",
    "165110.992000",
    "165112.992000",
    "165114.993000",
    "165116.993000",
    "165118.992000",
    "165120.992000",
    "165122.992000",
    "165124.992000",
    "165126.992000",
    "165128.991000",
    "165130.993000",
    "165132.993000",
    "165134.992000",
    "165136.993000",
    "165138.993000",
    "165140.993000",
    "165142.991000",
    "165144.991000",
    "165146.992000",
    "165148.992000",
    "165150.993000",
    "165152.993000",
    "165154.992000",
    "165156.993000",
    "165158.992000",
    "165200.991000",
    "165202.992000",
    "165204.991000",
    "165206.993000",
    "165208.992000",
    "165210.993000",
    "165212.992000",
    "165214.993000",
    "165216.993000",
    "165218.991000",
    "165220.992000",
    "165222.992000",
    "165224.992000",
    "165226.993000",
    "165228.993000",
    "165230.993000",
    "165232.993000",
    "165234.993000",
    "165236.992000",
    "165238.991000",
    "165240.993000",
    "165242.993000",
    "165244.993000",
    "165246.993000",
    "165248.992000",
    "165250.992000",
    "165252.992000",
    "165254.992000",
    "165256.992000",
    "165258.993000",
    "165300.993000",
    "165302.993000",
    "165304.993000",
    "165306.993000",
    "165308.993000",
    "165310.992000",
    "165312.991000",
    "165314.992000",
    "165316.993000",
    "165318.992000",
    "165320.993000",
    "165322.993000",
    "165324.992000",
    "165326.993000",
    "165328.992000",
    "165330.991000",
    "165332.992000",
    "165334.992000",
    "165336.993000",
    "165338.993000",
    "165340.993000",
    "165342.993000",
    "165344.992000",
    "165346.991000",
    "165348.992000",
    "165350.992000",
    "165352.992000",
    "165354.992000",
    "165356.993000",
    "165358.992000",
    "165400.992000",
    "165402.992000",
    "165404.992000",
    "165406.991000",
    "165408.993000",
    "165410.993000",
    "165412.993000",
    "165414.992000",
    "165416.993000",
    "165418.993000",
    "165420.991000",
    "165422.992000",
    "165424.992000",
    "165426.993000",
    "165428.992000",
    "165430.992000",
    "165432.993000",
    "165434.993000",
    "165436.993000",
    "165438.991000",
    "165440.992000",
    "165442.992000",
    "165444.993000",
    "165446.993000",
    "165448.993000",
    "165450.992000",
    "165452.993000",
    "165454.992000",
    "165456.991000",
    "165458.991000",
    "165500.992000",
    "165502.992000",
    "165504.993000",
    "165506.993000",
    "165508.993000",
    "165510.992000",
    "165512.992000",
    "165514.691000"
   ],
   "InstanceNumber": [
    1,
    2,
    3,
    4,
    5,
    6,
    7,
    8,
    9,
    10,
    11,
    12,
    13,
    14,
    15,
    16,
    17,
    18,
    19,
    20,
    21,
    22,
    23,
    24,
    25,
    26,
    27,
    28,
    29,
    30,
    31,
    32,
    33,
    34,
    35,
    36,
    37,
    38,
    39,
    40,
    41,
    42,
    43,
    44,
    45,
    46,
    47,
    48,
    49,
    50,
    51,
    52,
    53,
    54,
    55,
    56,
    57,
    58,
    59,
    60,
    61,
    62,
    63,
    64,
    65,
    66,
    67,
    68,
    69,
    70,
    71,
    72,
    73,
    74,
    75,
    76,
    77,
    78,
    79,
    80,
    81,
    82,
    83,
    84,
    85,
    86,
    87,
    88,
    89,
    90,
    91,
    92,
    93,
    94,
    95,
    96,
    97,
    98,
    99,
    100,
    101,
    102,
    103,
    104,
    105,
    106,
    107,
    108,
    109,
    110,
    111,
    112,
    113,
    114,
    115,
    116,
    117,
    118,
    119,
    120,
    121,
    122,
    123,
    124,
    125,
    126,
    127,
    128,
    129,
    130,
    131,
    132,
    133,
    134,
    135,
    136,
    137,
    138,
    139,
    140,
    141,
    142,
    143,
    144,
    145,
    146,
    147,
    148,
    149,
    150,
    151,
    152,
    153,
    154,
    155,
    156,
    157,
    158,
    159,
    160,
    161,
    162,
    163,
    164,
    165,
    166,
    167,
    168,
    169,
    170,
    171,
    172,
    173,
    174,
    175,
    176,
    177,
    178,
    179,
    180,
    181,
    182,
    183,
    184,
    185,
    186,
    187,
    188,
    189,
    190,
    191,
    192,
    193,
    194,
    195,
    196,
    197,
    198,
    199,
    200,
    201,
    202,
    203,
    204,
    205,
    206,
    207,
    208,
    209,
    210,
    211,
    212,
    213,
    214,
    215,
    216,
    217,
    218,
    219,
    220,
    221,
    222,
    223,
    224,
    225,
    226,
    227,
    228,
    229,
    230,
    231,
    232,
    233,
    234,
    235,
    236,
    237,
    238,
    239,
    240,
    241,
    242,
    243,
    244,
    245,
    246,
    247,
    248,
    249,
    250,
    251,
    252,
    253,
    254,
    255,
    256
   ],
   "LargestImagePixelValue": [
    3372,
    3310,
    3301,
    3300,
    3261,
    3352,
    3316,
    3317,
    3302,
    3287,
    3297,
    3304,
    3293,
    3328,
    3328,
    3275,
    3284,
    3276,
    3318,
    3310,
    3294,
    3291,
    3271,
    3289,
    3291,
    3304,
    3269,
    3272,
    3272,
    3276,
    3314,
    3288,
    3260,
    3294,
    3284,
    3284,
    3299,
    3291,
    3259,
    3257,
    3295,
    3269,
    3281,
    3267,
    3325,
    3301,
    3316,
    3304,
    3314,
    3315,
    3313,
    3286,
    3305,
    3316,
    3310,
    3326,
    3295,
    3322,
    3316,
    3323,
    3339,
    3311,
    3365,
    3331,
    3337,
    3326,
    3332,
    3312,
    3362,
    3349,
    3327,
    3372,
    3373,
    3348,
    3343,
    3322,
    3312,
    3312,
    3314,
    3331,
    3333,
    3290,
    3307,
    3357,
    3317,
    3295,
    3305,
    3317,
    3286,
    3285,
    3313,
    3270,
    3291,
    3304,
    3330,
    3312,
    3292,
    3294,
    3322,
    3289,
    3316,
    3303,
    3313,
    3289,
    3254,
    3310,
    3293,
    3313,
    3297,
    3274,
    3263,
    3315,
    3314,
    3318,
    3317,
    3292,
    3289,
    3301,
    3318,
    3307,
    3293,
    3260,
    3255,
    3259,
    3247,
    3255,
    3253,
    3256,
    3255,
    3292,
    3264,
    3286,
    3280,
    3312,
    3295,
    3242,
    3252,
    3266,
    3232,
    3212,
    3230,
    3230,
    3259,
    3197,
    3228,
    3233,
    3258,
    3234,
    3248,
    3227,
    3223,
    3198,
    3201,
    3207,
    3251,
    3241,
    3255,
    3232,
    3207,
    3205,
    3228,
    3213,
    3212,
    3247,
    3210,
    3198,
    3213,
    3226,
    3225,
    3228,
    3218,
    3206,
    3213,
    3215,
    3207,
    3183,
    3180,
    3217,
    3204,
    3204,
    3182,
    3182,
    3170,
    3172,
    3181,
    3187,
    3181,
    3161,
    3165,
    3198,
    3200,
    3237,
    3191,
    3184,
    3158,
    3185,
    3212,
    3206,
    3183,
    3203,
    3142,
    3175,
    3198,
    3184,
    3227,
    3203,
    3210,
    3208,
    3225,
    3151,
    3173,
    3212,
    3194,
    3169,
    3191,
    3213,
    3221,
    3219,
    3219,
    3206,
    3188,
    3194,
    3203,
    3190,
    3174,
    3233,
    3355,
    3237,
    3210,
    3210,
    3253,
    3256,
    3219,
    3220,
    3177,
    3210,
    3282,
    3287,
    3228,
    3250,
    3251,
    3278,
    3249,
    3219,
    3186,
    3204,
    3209,
    3228,
    3160,
    3259,
    3256,
    3217,
    3252,
    3282,
    3290,
    3267
   ],
   "WindowCenter": [
    782.0,
    782.0,
    782.0,
    781.0,
    779.0,
    779.0,
    780.0,
    780.0,
    779.0,
    777.0,
    778.0,
    778.0,
    780.0,
    781.0,
    781.0,
    779.0,
    779.0,
    779.0,
    779.0,
    781.0,
    781.0,
    780.0,
    779.0,
    779.0,
    780.0,
    780.0,
    780.0,
    779.0,
    779.0,
    780.0,
    781.0,
    780.0,
    778.0,
    779.0,
    780.0,
    782.0,
    782.0,
    780.0,
    779.0,
    779.0,
    780.0,
    780.0,
    781.0,
    782.0,
    781.0,
    781.0,
    782.0,
    782.0,
    782.0,
    781.0,
    780.0,
    780.0,
    781.0,
    782.0,
    782.0,
    781.0,
    781.0,
    781.0,
    782.0,
    782.0,
    782.0,
    782.0,
    781.0,
    780.0,
    781.0,
    782.0,
    782.0,
    780.0,
    780.0,
    780.0,
    782.0,
    785.0,
    784.0,
    782.0,
    781.0,
    781.0,
    780.0,
    780.0,
    780.0,
    780.0,
    780.0,
    778.0,
    779.0,
    780.0,
    781.0,
    779.0,
    779.0,
    779.0,
    780.0,
    781.0,
    781.0,
    779.0,
    779.0,
    779.0,
    781.0,
    781.0,
    781.0,
    780.0,
    779.0,
    778.0,
    779.0,
    780.0,
    781.0,
    781.0,
    780.0,
    780.0,
    781.0,
    782.0,
    781.0,
    780.0,
    780.0,
    781.0,
    782.0,
    783.0,
    782.0,
    781.0,
    780.0,
    782.0,
    783.0,
    782.0,
    780.0,
    778.0,
    779.0,
    780.0,
    781.0,
