{
  "AcquisitionMatrixPE": 100,
  "AcquisitionNumber": 1,
  "AcquisitionTime": "16:01:9.057500",
  "BandwidthPerPixelPhaseEncode": 18.519,
  "BaseResolution": 100,
  "BodyPartExamined": "BRAIN",
  "ConsistencyInfo": "N4_VE11C_LATEST_20160120",
  "ConversionSoftware": "dcm2niix",
  "ConversionSoftwareVersion": "v1.0.20180622 GCC4.9.2",
  "DerivedVendorReportedEchoSpacing": 0.000539986,
  "DeviceSerialNumber": "166078",
  "DwellTime": 2.1e-06,
  "EchoTime": 0.034,
  "EchoTrainLength": 100,
  "EffectiveEchoSpacing": 0.000539986,
  "FlipAngle": 90,
  "ImageOrientationPatientDICOM": [1, 0, 0, 0, 0.969016, -0.246999],
  "ImageType": [
    "ORIGINAL",
    "PRIMARY",
    "M",
    "ND",
    "MOSAIC"
],
  "InPlanePhaseEncodingDirectionDICOM": "COL",
  "InstitutionAddress": "Street_StreetNo_Bei_Jing_District_CN_ZIP",
  "InstitutionName": "BeiJing_Normal_University",
  "InstitutionalDepartmentName": "Department",
  "MRAcquisitionType": "2D",
  "MagneticFieldStrength": 3,
  "Manufacturer": "Siemens",
  "ManufacturersModelName": "Prisma",
  "Modality": "MR",
  "MultibandAccelerationFactor": 3,
  "PartialFourier": 1,
  "PatientPosition": "HFS",
  "PercentPhaseFOV": 100,
  "PhaseEncodingDirection": "j-",
  "PhaseEncodingSteps": 100,
  "PhaseResolution": 1,
  "PixelBandwidth": 2380,
  "ProcedureStepDescription": "BNU_P2018_64CH_Zhen.ZongLei",
  "ProtocolName": "bold_100x100_s3_2x2x2_static_256",
  "PulseSequenceDetails": "%SiemensSeq%_ep2d_bold",
  "ReceiveCoilActiveElements": "HC1-7;NC1",
  "ReceiveCoilName": "HeadNeck_64",
  "ReconMatrixPE": 100,
  "RepetitionTime": 2,
  "SAR": 0.0844646,
  "ScanOptions": "FS",
  "ScanningSequence": "EP",
  "SequenceName": "_epfid2d1_100",
  "SequenceVariant": "SK",
  "SeriesDescription": "bold_100x100_s3_2x2x2_static_256",
  "SeriesNumber": 11,
  "ShimSetting": [-5456, -11470, -1256, 424, -8, -113, -192, 57],
  "SliceThickness": 2,
  "SliceTiming": [1.4825, 0, 0.9875, 0.0825, 1.07, 0.165, 1.1525, 0.2475, 1.235, 0.33, 1.3175, 0.4125, 1.4, 0.5775, 1.565, 0.66, 1.6475, 0.7425, 1.73, 0.825, 1.8125, 0.905, 1.895, 0.495, 1.4825, 0, 0.9875, 0.0825, 1.07, 0.165, 1.1525, 0.2475, 1.235, 0.33, 1.3175, 0.4125, 1.4, 0.5775, 1.565, 0.66, 1.6475, 0.7425, 1.73, 0.825, 1.8125, 0.905, 1.895, 0.495, 1.4825, 0, 0.9875, 0.0825, 1.07, 0.165, 1.1525, 0.2475, 1.235, 0.33, 1.3175, 0.4125, 1.4, 0.5775, 1.565, 0.66, 1.6475, 0.7425, 1.73, 0.825, 1.8125, 0.905, 1.895, 0.495],
  "SoftwareVersions": "syngo_MR_E11",
  "SpacingBetweenSlices": 2,
  "StationName": "AWP166078",
  "TaskName": "naturalvision",
  "TotalReadoutTime": 0.0534586,
  "TxRefAmp": 230.828,
  "dcmmeta_affine": [
    [-2.0, 0.0, 0.0, 100.67469787597656],
    [0.0, 1.9380314350128174, -0.4939979910850525, -78.31817626953125],
    [0.0, 0.4939979910850525, 1.9380314350128174, -92.38915252685547],
    [0.0, 0.0, 0.0, 1.0]
],
  "dcmmeta_reorient_transform": [
    [0.0, -1.0, 0.0, 99.0],
    [1.0, 0.0, 0.0, 0.0],
    [0.0, 0.0, 1.0, 0.0],
    [0.0, 0.0, 0.0, 1.0]
],
  "dcmmeta_shape": [100, 100, 72, 256],
  "dcmmeta_slice_dim": 2,
  "dcmmeta_version": 0.6,
  "global": {
    "const": {
      "AcquisitionMatrix": [100, 0, 0, 100],
      "AngioFlag": "N",
      "BitsAllocated": 16,
      "BitsStored": 12,
      "BodyPartExamined": "BRAIN",
      "Columns": 900,
      "EchoNumbers": 1,
      "EchoTime": 34.0,
      "EchoTrainLength": 100,
      "FlipAngle": 90.0,
      "HighBit": 11,
      "ImageOrientationPatient": [1.0, 0.0, 0.0, 0.0, 0.96901573474032, -0.2469989996451],
      "ImagePositionPatient": [-900.67469877005, -888.75952412029, 154.11584925336],
      "ImageType": [
        "ORIGINAL",
        "PRIMARY",
        "M",
        "ND",
        "MOSAIC"
],
      "ImagedNucleus": "1H",
      "ImagingFrequency": 123.257777,
      "InPlanePhaseEncodingDirection": "COL",
      "MRAcquisitionType": "2D",
      "MagneticFieldStrength": 3.0,
      "Manufacturer": "SIEMENS",
      "ManufacturerModelName": "Prisma",
      "Modality": "MR",
      "NumberOfAverages": 1.0,
      "NumberOfPhaseEncodingSteps": 100,
      "PercentPhaseFieldOfView": 100.0,
      "PercentSampling": 100.0,
      "PerformedProcedureStepStartTime": "145824.153000",
      "PhotometricInterpretation": "MONOCHROME2",
      "PixelBandwidth": 2380.0,
      "PixelRepresentation": 0,
      "PixelSpacing": [2.0, 2.0],
      "ProtocolName": "bold_100x100_s3_2x2x2_static_256",
      "RepetitionTime": 2000.0,
      "Rows": 900,
      "SAR": 0.08446462633804,
      "SamplesPerPixel": 1,
      "ScanOptions": "FS",
      "ScanningSequence": "EP",
      "SequenceName": "*epfid2d1_100",
      "SequenceVariant": "SK",
      "SeriesDescription": "bold_100x100_s3_2x2x2_static_256",
      "SeriesNumber": 11,
      "SeriesTime": "160112.187000",
      "SliceLocation": -70.18203048341,
      "SliceThickness": 2.0,
      "SmallestImagePixelValue": 0,
      "SoftwareVersions": "syngo MR E11",
      "SpacingBetweenSlices": 2.0000000099853,
      "SpecificCharacterSet": "ISO_IR 100",
      "StudyID": "1",
      "StudyTime": "145824.063000",
      "TransmitCoilName": "Body",
      "VariableFlipAngleFlag": "N",
      "WindowCenterWidthExplanation": "Algo1",
      "dBdt": 0.0},
    "slices": {}
  },
  "time": {
    "samples": {
      "AcquisitionNumber": [1, 2, 3, 4, 5, 6, 7, 8, 9, 10, 11, 12, 13, 14, 15, 16, 17, 18, 19, 20, 21, 22, 23, 24, 25, 26, 27, 28, 29, 30, 31, 32, 33, 34, 35, 36, 37, 38, 39, 40, 41, 42, 43, 44, 45, 46, 47, 48, 49, 50, 51, 52, 53, 54, 55, 56, 57, 58, 59, 60, 61, 62, 63, 64, 65, 66, 67, 68, 69, 70, 71, 72, 73, 74, 75, 76, 77, 78, 79, 80, 81, 82, 83, 84, 85, 86, 87, 88, 89, 90, 91, 92, 93, 94, 95, 96, 97, 98, 99, 100, 101, 102, 103, 104, 105, 106, 107, 108, 109, 110, 111, 112, 113, 114, 115, 116, 117, 118, 119, 120, 121, 122, 123, 124, 125, 126, 127, 128, 129, 130, 131, 132, 133, 134, 135, 136, 137, 138, 139, 140, 141, 142, 143, 144, 145, 146, 147, 148, 149, 150, 151, 152, 153, 154, 155, 156, 157, 158, 159, 160, 161, 162, 163, 164, 165, 166, 167, 168, 169, 170, 171, 172, 173, 174, 175, 176, 177, 178, 179, 180, 181, 182, 183, 184, 185, 186, 187, 188, 189, 190, 191, 192, 193, 194, 195, 196, 197, 198, 199, 200, 201, 202, 203, 204, 205, 206, 207, 208, 209, 210, 211, 212, 213, 214, 215, 216, 217, 218, 219, 220, 221, 222, 223, 224, 225, 226, 227, 228, 229, 230, 231, 232, 233, 234, 235, 236, 237, 238, 239, 240, 241, 242, 243, 244, 245, 246, 247, 248, 249, 250, 251, 252, 253, 254, 255, 256],
      "AcquisitionTime": ["160109.057500", "160111.057500", "160113.057500", "160115.057500", "160117.057500", "160119.057500", "160121.057500", "160123.057500", "160125.057500", "160127.057500", "160129.057500", "160131.057500", "160133.057500", "160135.057500", "160137.057500", "160139.057500", "160141.057500", "160143.057500", "160145.057500", "160147.057500", "160149.057500", "160151.057500", "160153.057500", "160155.057500", "160157.057500", "160159.057500", "160201.057500", "160203.057500", "160205.057500", "160207.057500", "160209.057500", "160211.057500", "160213.057500", "160215.057500", "160217.057500", "160219.057500", "160221.057500", "160223.057500", "160225.057500", "160227.057500", "160229.057500", "160231.057500", "160233.057500", "160235.057500", "160237.057500", "160239.057500", "160241.057500", "160243.057500", "160245.057500", "160247.057500", "160249.057500", "160251.057500", "160253.057500", "160255.057500", "160257.057500", "160259.057500", "160301.057500", "160303.057500", "160305.057500", "160307.057500", "160309.057500", "160311.057500", "160313.057500", "160315.057500", "160317.057500", "160319.057500", "160321.057500", "160323.057500", "160325.057500", "160327.057500", "160329.057500", "160331.057500", "160333.057500", "160335.057500", "160337.057500", "160339.057500", "160341.057500", "160343.057500", "160345.057500", "160347.057500", "160349.057500", "160351.057500", "160353.057500", "160355.057500", "160357.057500", "160359.057500", "160401.057500", "160403.057500", "160405.057500", "160407.057500", "160409.057500", "160411.057500", "160413.057500", "160415.057500", "160417.057500", "160419.057500", "160421.057500", "160423.057500", "160425.057500", "160427.057500", "160429.057500", "160431.057500", "160433.057500", "160435.057500", "160437.057500", "160439.057500", "160441.057500", "160443.057500", "160445.057500", "160447.057500", "160449.057500", "160451.057500", "160453.057500", "160455.057500", "160457.057500", "160459.057500", "160501.057500", "160503.057500", "160505.057500", "160507.057500", "160509.057500", "160511.057500", "160513.057500", "160515.057500", "160517.057500", "160519.057500", "160521.057500", "160523.057500", "160525.057500", "160527.057500", "160529.057500", "160531.057500", "160533.057500", "160535.057500", "160537.057500", "160539.057500", "160541.057500", "160543.057500", "160545.057500", "160547.057500", "160549.057500", "160551.057500", "160553.057500", "160555.057500", "160557.057500", "160559.057500", "160601.057500", "160603.057500", "160605.057500", "160607.057500", "160609.057500", "160611.057500", "160613.057500", "160615.057500", "160617.057500", "160619.057500", "160621.057500", "160623.057500", "160625.057500", "160627.057500", "160629.057500", "160631.057500", "160633.057500", "160635.057500", "160637.057500", "160639.057500", "160641.057500", "160643.057500", "160645.057500", "160647.057500", "160649.057500", "160651.057500", "160653.057500", "160655.057500", "160657.057500", "160659.057500", "160701.057500", "160703.057500", "160705.057500", "160707.057500", "160709.057500", "160711.057500", "160713.057500", "160715.057500", "160717.057500", "160719.057500", "160721.057500", "160723.057500", "160725.057500", "160727.057500", "160729.057500", "160731.057500", "160733.057500", "160735.057500", "160737.057500", "160739.057500", "160741.057500", "160743.057500", "160745.057500", "160747.057500", "160749.057500", "160751.057500", "160753.057500", "160755.057500", "160757.057500", "160759.057500", "160801.057500", "160803.057500", "160805.057500", "160807.057500", "160809.057500", "160811.057500", "160813.057500", "160815.057500", "160817.057500", "160819.057500", "160821.057500", "160823.057500", "160825.057500", "160827.057500", "160829.057500", "160831.057500", "160833.057500", "160835.057500", "160837.057500", "160839.057500", "160841.057500", "160843.057500", "160845.057500", "160847.057500", "160849.057500", "160851.057500", "160853.057500", "160855.057500", "160857.057500", "160859.057500", "160901.057500", "160903.057500", "160905.057500", "160907.057500", "160909.057500", "160911.057500", "160913.057500", "160915.057500", "160917.057500", "160919.057500", "160921.057500", "160923.057500", "160925.057500", "160927.057500", "160929.057500", "160931.057500", "160933.057500", "160935.057500", "160937.057500", "160939.057500"],
      "ContentTime": ["160112.190000", "160113.686000", "160115.185000", "160117.187000", "160119.685000", "160121.685000", "160123.686000", "160125.685000", "160127.185000", "160129.185000", "160131.685000", "160133.687000", "160135.685000", "160137.685000", "160139.685000", "160141.685000", "160143.185000", "160145.685000", "160147.686000", "160149.686000", "160151.187000", "160153.685000", "160155.685000", "160157.685000", "160159.685000", "160201.686000", "160203.685000", "160205.686000", "160207.185000", "160209.186000", "160211.685000", "160213.685000", "160215.186000", "160217.186000", "160219.686000", "160221.686000", "160223.185000", "160225.185000", "160227.187000", "160229.685000", "160231.186000", "160233.686000", "160235.685000", "160237.685000", "160239.685000", "160241.185000", "160243.186000", "160245.686000", "160247.686000", "160249.686000", "160251.185000", "160253.185000", "160255.686000", "160257.185000", "160259.686000", "160301.687000", "160303.685000", "160305.186000", "160307.685000", "160309.685000", "160311.686000", "160313.686000", "160315.186000", "160317.686000", "160319.686000", "160321.685000", "160323.186000", "160325.686000", "160327.686000", "160329.686000", "160331.686000", "160333.686000", "160335.686000", "160337.685000", "160339.185000", "160341.686000", "160343.685000", "160345.686000", "160347.685000", "160349.685000", "160351.685000", "160353.186000", "160355.685000", "160357.685000", "160359.685000", "160401.685000", "160403.685000", "160405.186000", "160407.686000", "160409.686000", "160411.687000", "160413.686000", "160415.685000", "160417.686000", "160419.686000", "160421.686000", "160423.685000", "160425.185000", "160427.686000", "160429.187000", "160431.685000", "160433.685000", "160435.685000", "160437.686000", "160439.685000", "160441.185000", "160443.686000", "160445.686000", "160447.686000", "160449.685000", "160451.686000", "160453.686000", "160455.685000", "160457.685000", "160459.686000", "160501.186000", "160503.187000", "160505.685000", "160507.685000", "160509.186000", "160511.685000", "160513.696000", "160515.686000", "160517.686000", "160519.685000", "160521.687000", "160523.686000", "160525.686000", "160527.686000", "160529.686000", "160531.186000", "160533.686000", "160535.686000", "160537.686000", "160539.687000", "160541.685000", "160543.686000", "160545.686000", "160547.686000", "160549.686000", "160551.686000", "160553.686000", "160555.687000", "160557.686000", "160559.686000", "160601.686000", "160603.685000", "160605.685000", "160607.685000", "160609.686000", "160611.685000", "160613.687000", "160615.186000", "160617.685000", "160619.185000", "160621.685000", "160623.686000", "160625.685000", "160627.186000", "160629.185000", "160631.187000", "160633.686000", "160635.686000", "160637.686000", "160639.685000", "160641.686000", "160643.686000", "160645.686000", "160647.186000", "160649.186000", "160651.686000", "160653.686000", "160655.686000", "160657.686000", "160659.185000", "160701.685000", "160703.185000", "160705.686000", "160707.686000", "160709.686000", "160711.685000", "160713.686000", "160715.686000", "160717.186000", "160719.185000", "160721.686000", "160723.687000", "160725.686000", "160727.686000", "160729.686000", "160731.685000", "160733.686000", "160735.186000", "160737.686000", "160739.685000", "160741.687000", "160743.185000", "160745.686000", "160747.685000", "160749.686000", "160751.686000", "160753.686000", "160755.186000", "160757.686000", "160759.686000", "160801.686000", "160803.685000", "160805.685000", "160807.186000", "160809.186000", "160811.685000", "160813.686000", "160815.185000", "160817.685000", "160819.686000", "160821.685000", "160823.686000", "160825.685000", "160827.686000", "160829.685000", "160831.685000", "160833.686000", "160835.686000", "160837.186000", "160839.686000", "160841.685000", "160843.186000", "160845.186000", "160847.186000", "160849.685000", "160851.687000", "160853.686000", "160855.186000", "160857.685000", "160859.685000", "160901.185000", "160903.185000", "160905.685000", "160907.687000", "160909.687000", "160911.686000", "160913.186000", "160915.686000", "160917.686000", "160919.185000", "160921.686000", "160923.186000", "160925.687000", "160927.185000", "160929.185000", "160931.686000", "160933.686000", "160935.686000", "160937.686000", "160939.686000", "160941.287000"],
      "InstanceCreationTime": ["160112.190000", "160113.686000", "160115.185000", "160117.187000", "160119.685000", "160121.685000", "160123.686000", "160125.685000", "160127.185000", "160129.185000", "160131.685000", "160133.687000", "160135.685000", "160137.685000", "160139.685000", "160141.685000", "160143.185000", "160145.685000", "160147.686000", "160149.686000", "160151.187000", "160153.685000", "160155.685000", "160157.685000", "160159.685000", "160201.686000", "160203.685000", "160205.686000", "160207.185000", "160209.186000", "160211.685000", "160213.685000", "160215.186000", "160217.186000", "160219.686000", "160221.686000", "160223.185000", "160225.185000", "160227.187000", "160229.685000", "160231.186000", "160233.686000", "160235.685000", "160237.685000", "160239.685000", "160241.185000", "160243.186000", "160245.686000", "160247.686000", "160249.686000", "160251.185000", "160253.185000", "160255.686000", "160257.185000", "160259.686000", "160301.687000", "160303.685000", "160305.186000", "160307.685000", "160309.685000", "160311.686000", "160313.686000", "160315.186000", "160317.686000", "160319.686000", "160321.685000", "160323.186000", "160325.686000", "160327.686000", "160329.686000", "160331.686000", "160333.686000", "160335.686000", "160337.685000", "160339.185000", "160341.686000", "160343.685000", "160345.686000", "160347.685000", "160349.685000", "160351.685000", "160353.186000", "160355.685000", "160357.685000", "160359.685000", "160401.685000", "160403.685000", "160405.186000", "160407.686000", "160409.686000", "160411.687000", "160413.686000", "160415.685000", "160417.686000", "160419.686000", "160421.686000", "160423.685000", "160425.185000", "160427.686000", "160429.187000", "160431.685000", "160433.685000", "160435.685000", "160437.686000", "160439.685000", "160441.185000", "160443.686000", "160445.686000", "160447.686000", "160449.685000", "160451.686000", "160453.686000", "160455.685000", "160457.685000", "160459.686000", "160501.186000", "160503.187000", "160505.685000", "160507.685000", "160509.186000", "160511.685000", "160513.696000", "160515.686000", "160517.686000", "160519.685000", "160521.687000", "160523.686000", "160525.686000", "160527.686000", "160529.686000", "160531.186000", "160533.686000", "160535.686000", "160537.686000", "160539.687000", "160541.685000", "160543.686000", "160545.686000", "160547.686000", "160549.686000", "160551.686000", "160553.686000", "160555.687000", "160557.686000", "160559.686000", "160601.686000", "160603.685000", "160605.685000", "160607.685000", "160609.686000", "160611.685000", "160613.687000", "160615.186000", "160617.685000", "160619.185000", "160621.685000", "160623.686000", "160625.685000", "160627.186000", "160629.185000", "160631.187000", "160633.686000", "160635.686000", "160637.686000", "160639.685000", "160641.686000", "160643.686000", "160645.686000", "160647.186000", "160649.186000", "160651.686000", "160653.686000", "160655.686000", "160657.686000", "160659.185000", "160701.685000", "160703.185000", "160705.686000", "160707.686000", "160709.686000", "160711.685000", "160713.686000", "160715.686000", "160717.186000", "160719.185000", "160721.686000", "160723.687000", "160725.686000", "160727.686000", "160729.686000", "160731.685000", "160733.686000", "160735.186000", "160737.686000", "160739.685000", "160741.687000", "160743.185000", "160745.686000", "160747.685000", "160749.686000", "160751.686000", "160753.686000", "160755.186000", "160757.686000", "160759.686000", "160801.686000", "160803.685000", "160805.685000", "160807.186000", "160809.186000", "160811.685000", "160813.686000", "160815.185000", "160817.685000", "160819.686000", "160821.685000", "160823.686000", "160825.685000", "160827.686000", "160829.685000", "160831.685000", "160833.686000", "160835.686000", "160837.186000", "160839.686000", "160841.685000", "160843.186000", "160845.186000", "160847.186000", "160849.685000", "160851.687000", "160853.686000", "160855.186000", "160857.685000", "160859.685000", "160901.185000", "160903.185000", "160905.685000", "160907.687000", "160909.687000", "160911.686000", "160913.186000", "160915.686000", "160917.686000", "160919.185000", "160921.686000", "160923.186000", "160925.687000", "160927.185000", "160929.185000", "160931.686000", "160933.686000", "160935.686000", "160937.686000", "160939.686000", "160941.287000"],
      "InstanceNumber": [1, 2, 3, 4, 5, 6, 7, 8, 9, 10, 11, 12, 13, 14, 15, 16, 17, 18, 19, 20, 21, 22, 23, 24, 25, 26, 27, 28, 29, 30, 31, 32, 33, 34, 35, 36, 37, 38, 39, 40, 41, 42, 43, 44, 45, 46, 47, 48, 49, 50, 51, 52, 53, 54, 55, 56, 57, 58, 59, 60, 61, 62, 63, 64, 65, 66, 67, 68, 69, 70, 71, 72, 73, 74, 75, 76, 77, 78, 79, 80, 81, 82, 83, 84, 85, 86, 87, 88, 89, 90, 91, 92, 93, 94, 95, 96, 97, 98, 99, 100, 101, 102, 103, 104, 105, 106, 107, 108, 109, 110, 111, 112, 113, 114, 115, 116, 117, 118, 119, 120, 121, 122, 123, 124, 125, 126, 127, 128, 129, 130, 131, 132, 133, 134, 135, 136, 137, 138, 139, 140, 141, 142, 143, 144, 145, 146, 147, 148, 149, 150, 151, 152, 153, 154, 155, 156, 157, 158, 159, 160, 161, 162, 163, 164, 165, 166, 167, 168, 169, 170, 171, 172, 173, 174, 175, 176, 177, 178, 179, 180, 181, 182, 183, 184, 185, 186, 187, 188, 189, 190, 191, 192, 193, 194, 195, 196, 197, 198, 199, 200, 201, 202, 203, 204, 205, 206, 207, 208, 209, 210, 211, 212, 213, 214, 215, 216, 217, 218, 219, 220, 221, 222, 223, 224, 225, 226, 227, 228, 229, 230, 231, 232, 233, 234, 235, 236, 237, 238, 239, 240, 241, 242, 243, 244, 245, 246, 247, 248, 249, 250, 251, 252, 253, 254, 255, 256],
      "LargestImagePixelValue": [3718, 3651, 3618, 3601, 3627, 3599, 3592, 3584, 3605, 3614, 3643, 3625, 3603, 3626, 3621, 3628, 3604, 3632, 3633, 3635, 3593, 3634, 3623, 3628, 3605, 3629, 3648, 3631, 3624, 3633, 3614, 3581, 3601, 3593, 3558, 3578, 3605, 3607, 3611, 3614, 3625, 3568, 3624, 3605, 3613, 3580, 3593, 3610, 3628, 3605, 3577, 3593, 3642, 3605, 3598, 3588, 3601, 3628, 3619, 3615, 3615, 3625, 3617, 3591, 3601, 3619, 3568, 3636, 3642, 3612, 3608, 3643, 3668, 3631, 3648, 3624, 3590, 3609, 3624, 3626, 3613, 3611, 3643, 3618, 3621, 3647, 3632, 3618, 3625, 3646, 3664, 3635, 3625, 3616, 3610, 3656, 3630, 3649, 3685, 3665, 3672, 3680, 3659, 3649, 3629, 3661, 3628, 3632, 3642, 3658, 3649, 3655, 3633, 3634, 3630, 3634, 3608, 3625, 3652, 3611, 3633, 3668, 3658, 3659, 3624, 3641, 3633, 3646, 3627, 3642, 3642, 3646, 3607, 3609, 3621, 3619, 3639, 3659, 3640, 3647, 3633, 3624, 3655, 3644, 3639, 3611, 3652, 3622, 3630, 3623, 3626, 3633, 3600, 3619, 3638, 3635, 3644, 3641, 3637, 3649, 3645, 3660, 3635, 3648, 3658, 3639, 3635, 3606, 3636, 3621, 3624, 3641, 3604, 3607, 3660, 3611, 3598, 3610, 3613, 3607, 3602, 3617, 3625, 3619, 3623, 3612, 3631, 3601, 3634, 3616, 3617, 3613, 3628, 3613, 3621, 3633, 3631, 3626, 3609, 3580, 3644, 3650, 3597, 3614, 3607, 3614, 3630, 3651, 3645, 3620, 3635, 3605, 3647, 3671, 3626, 3636, 3620, 3614, 3645, 3640, 3597, 3639, 3622, 3632, 3647, 3635, 3646, 3638, 3616, 3594, 3626, 3622, 3638, 3636, 3645, 3583, 3578, 3602, 3603, 3594, 3617, 3622, 3616, 3594, 3609, 3608, 3589, 3601, 3625, 3629, 3621, 3599, 3551, 3556, 3574, 3606],
      "WindowCenter": [846.0, 844.0, 844.0, 844.0, 844.0, 844.0, 846.0, 846.0, 844.0, 843.0, 844.0, 844.0, 845.0, 844.0, 844.0, 843.0, 842.0, 842.0, 842.0, 844.0, 844.0, 844.0, 844.0, 843.0, 842.0, 842.0, 843.0, 843.0, 843.0, 843.0, 842.0, 841.0, 842.0, 843.0, 845.0, 845.0, 844.0, 844.0, 844.0, 844.0, 844.0, 845.0, 846.0, 844.0, 843.0, 843.0, 844.0, 845.0, 845.0, 845.0, 846.0, 847.0, 846.0, 845.0, 845.0, 845.0, 845.0, 845.0, 844.0, 844.0, 844.0, 844.0, 845.0, 845.0, 846.0, 846.0, 845.0, 844.0, 844.0, 846.0, 846.0, 844.0, 842.0, 843.0, 845.0, 846.0, 845.0, 843.0, 843.0, 844.0, 845.0, 845.0, 844.0, 843.0, 843.0, 843.0, 843.0, 843.0, 843.0, 843.0, 843.0, 843.0, 844.0, 844.0, 844.0, 845.0, 845.0, 843.0, 842.0, 841.0, 841.0, 841.0, 842.0, 843.0, 843.0, 842.0, 842.0, 842.0, 842.0, 842.0, 842.0, 842.0, 842.0, 842.0, 843.0, 843.0, 843.0, 843.0, 844.0, 844.0, 844.0, 843.0, 843.0, 843.0, 843.0, 843.0, 843.0, 842.0, 843.0, 844.0, 844.0, 844.0, 844.0, 844.0, 844.0, 844.0, 844.0, 843.0, 843.0, 843.0, 844.0, 844.0, 844.0, 844.0, 845.0, 844.0, 844.0, 843.0, 843.0, 843.0, 844.0, 844.0, 842.0, 842.0, 841.0, 841.0, 843.0, 844.0, 844.0, 843.0, 842.0, 843.0, 843.0, 843.0, 842.0, 844.0, 845.0, 845.0, 844.0, 843.0, 844.0, 844.0, 844.0, 844.0, 845.0, 845.0, 846.0, 846.0, 846.0, 846.0, 845.0, 845.0, 845.0, 845.0, 845.0, 846.0, 846.0, 845.0, 844.0, 844.0, 844.0, 845.0, 845.0, 844.0, 844.0, 844.0, 845.0, 844.0, 843.0, 843.0, 845.0, 845.0, 845.0, 844.0, 843.0, 843.0, 843.0, 845.0, 846.0, 846.0, 845.0, 845.0, 844.0, 843.0, 843.0, 843.0, 843.0, 843.0, 843.0, 843.0, 843.0, 843.0, 844.0, 844.0, 843.0, 844.0, 845.0, 844.0, 844.0, 843.0, 844.0, 844.0, 844.0, 844.0, 844.0, 844.0, 843.0, 842.0, 842.0, 843.0, 844.0, 845.0, 844.0, 843.0, 842.0, 842.0, 842.0, 843.0, 843.0, 842.0, 842.0, 843.0, 844.0, 845.0, 844.0, 843.0],
      "WindowWidth": [1820.0, 1815.0, 1816.0, 1815.0, 1814.0, 1815.0, 1819.0, 1819.0, 1815.0, 1812.0, 1815.0, 1816.0, 1816.0, 1814.0, 1813.0, 1812.0, 1810.0, 1809.0, 1810.0, 1814.0, 1814.0, 1814.0, 1813.0, 1811.0, 1810.0, 1810.0, 1812.0, 1813.0, 1812.0, 1812.0, 1810.0, 1807.0, 1810.0, 1811.0, 1817.0, 1816.0, 1815.0, 1814.0, 1814.0, 1814.0, 1816.0, 1817.0, 1818.0, 1813.0, 1810.0, 1812.0, 1815.0, 1817.0, 1816.0, 1817.0, 1819.0, 1822.0, 1820.0, 1816.0, 1817.0, 1818.0, 1817.0, 1817.0, 1815.0, 1816.0, 1816.0, 1816.0, 1817.0, 1818.0, 1819.0, 1819.0, 1817.0, 1815.0, 1816.0, 1820.0, 1819.0, 1814.0, 1810.0, 1812.0, 1817.0, 1819.0, 1817.0, 1812.0, 1812.0, 1814.0, 1817.0, 1816.0, 1814.0, 1812.0, 1813.0, 1813.0, 1812.0, 1812.0, 1812.0, 1813.0, 1813.0, 1813.0, 1814.0, 1814.0, 1815.0, 1817.0, 1816.0, 1812.0, 1808.0, 1806.0, 1806.0, 1808.0, 1810.0, 1812.0, 1811.0, 1809.0, 1809.0, 1809.0, 1810.0, 1810.0, 1810.0, 1810.0, 1809.0, 1809.0, 1811.0, 1813.0, 1811.0, 1813.0, 1814.0, 1814.0, 1815.0, 1813.0, 1813.0, 1812.0, 1812.0, 1813.0, 1811.0, 1810.0, 1811.0, 1814.0, 1814.0, 1815.0, 1814.0, 1813.0, 1814.0, 1814.0, 1813.0, 1812.0, 1812.0, 1813.0, 1813.0, 1815.0, 1815.0, 1815.0, 1816.0, 1815.0, 1813.0, 1812.0, 1812.0, 1813.0, 1815.0, 1814.0, 1809.0, 1808.0, 1805.0, 1807.0, 1811.0, 1813.0, 1814.0, 1811.0, 1810.0, 1811.0, 1813.0, 1811.0, 1810.0, 1814.0, 1817.0, 1816.0, 1813.0, 1813.0, 1814.0, 1814.0, 1814.0, 1813.0, 1816.0, 1818.0, 1819.0, 1819.0, 1818.0, 1818.0, 1816.0, 1816.0, 1817.0, 1817.0, 1818.0, 1818.0, 1818.0, 1817.0, 1816.0, 1815.0, 1815.0, 1816.0, 1816.0, 1813.0, 1814.0, 1815.0, 1816.0, 1813.0, 1810.0, 1811.0, 1816.0, 1816.0, 1815.0, 1813.0, 1810.0, 1811.0, 1812.0, 1816.0, 1818.0, 1819.0, 1817.0, 1816.0, 1814.0, 1812.0, 1812.0, 1811.0, 1811.0, 1812.0, 1811.0, 1812.0, 1811.0, 1812.0, 1813.0, 1814.0, 1812.0, 1814.0, 1816.0, 1814.0, 1813.0, 1813.0, 1814.0, 1814.0, 1813.0, 1813.0, 1814.0, 1813.0, 1812.0, 1810.0, 1809.0, 1811.0, 1814.0, 1815.0, 1814.0, 1811.0, 1809.0, 1808.0, 1808.0, 1812.0, 1811.0, 1809.0, 1809.0, 1811.0, 1813.0, 1816.0, 1814.0, 1811.0]
    },
    "slices": {}
  }
}