{
  "AcquisitionMatrixPE": 100,
  "AcquisitionNumber": 1,
  "AcquisitionTime": "15:21:14.442500",
  "BandwidthPerPixelPhaseEncode": 18.519,
  "BaseResolution": 100,
  "BodyPartExamined": "BRAIN",
  "ConsistencyInfo": "N4_VE11C_LATEST_20160120",
  "ConversionSoftware": "dcm2niix",
  "ConversionSoftwareVersion": "v1.0.20180622 GCC4.9.2",
  "DerivedVendorReportedEchoSpacing": 0.000539986,
  "DeviceSerialNumber": "166078",
  "DwellTime": 2.1e-06,
  "EchoTime": 0.034,
  "EchoTrainLength": 100,
  "EffectiveEchoSpacing": 0.000539986,
  "FlipAngle": 90,
  "ImageOrientationPatientDICOM": [1, 0, 0, 0, 0.969016, -0.246999],
  "ImageType": [
    "ORIGINAL",
    "PRIMARY",
    "M",
    "ND",
    "MOSAIC"
],
  "InPlanePhaseEncodingDirectionDICOM": "COL",
  "InstitutionAddress": "Street_StreetNo_Bei_Jing_District_CN_ZIP",
  "InstitutionName": "BeiJing_Normal_University",
  "InstitutionalDepartmentName": "Department",
  "MRAcquisitionType": "2D",
  "MagneticFieldStrength": 3,
  "Manufacturer": "Siemens",
  "ManufacturersModelName": "Prisma",
  "Modality": "MR",
  "MultibandAccelerationFactor": 3,
  "PartialFourier": 1,
  "PatientPosition": "HFS",
  "PercentPhaseFOV": 100,
  "PhaseEncodingDirection": "j-",
  "PhaseEncodingSteps": 100,
  "PhaseResolution": 1,
  "PixelBandwidth": 2380,
  "ProcedureStepDescription": "BNU_P2018_64CH_Zhen.ZongLei",
  "ProtocolName": "bold_100x100_s3_2x2x2_static_256",
  "PulseSequenceDetails": "%SiemensSeq%_ep2d_bold",
  "ReceiveCoilActiveElements": "HC1-7;NC1",
  "ReceiveCoilName": "HeadNeck_64",
  "ReconMatrixPE": 100,
  "RepetitionTime": 2,
  "SAR": 0.0844646,
  "ScanOptions": "FS",
  "ScanningSequence": "EP",
  "SequenceName": "_epfid2d1_100",
  "SequenceVariant": "SK",
  "SeriesDescription": "bold_100x100_s3_2x2x2_static_256",
  "SeriesNumber": 5,
  "ShimSetting": [-5456, -11470, -1256, 424, -8, -113, -192, 57],
  "SliceThickness": 2,
  "SliceTiming": [1.485, 0, 0.99, 0.0825, 1.0725, 0.165, 1.155, 0.2475, 1.2375, 0.33, 1.32, 0.4125, 1.4025, 0.5775, 1.5675, 0.66, 1.65, 0.7425, 1.7325, 0.825, 1.815, 0.9075, 1.8975, 0.495, 1.485, 0, 0.99, 0.0825, 1.0725, 0.165, 1.155, 0.2475, 1.2375, 0.33, 1.32, 0.4125, 1.4025, 0.5775, 1.5675, 0.66, 1.65, 0.7425, 1.7325, 0.825, 1.815, 0.9075, 1.8975, 0.495, 1.485, 0, 0.99, 0.0825, 1.0725, 0.165, 1.155, 0.2475, 1.2375, 0.33, 1.32, 0.4125, 1.4025, 0.5775, 1.5675, 0.66, 1.65, 0.7425, 1.7325, 0.825, 1.815, 0.9075, 1.8975, 0.495],
  "SoftwareVersions": "syngo_MR_E11",
  "SpacingBetweenSlices": 2,
  "StationName": "AWP166078",
  "TaskName": "naturalvision",
  "TotalReadoutTime": 0.0534586,
  "TxRefAmp": 230.828,
  "dcmmeta_affine": [
    [-2.0, 0.0, 0.0, 100.67469787597656],
    [0.0, 1.9380314350128174, -0.4939979910850525, -78.31817626953125],
    [0.0, 0.4939979910850525, 1.9380314350128174, -92.38915252685547],
    [0.0, 0.0, 0.0, 1.0]
],
  "dcmmeta_reorient_transform": [
    [0.0, -1.0, 0.0, 99.0],
    [1.0, 0.0, 0.0, 0.0],
    [0.0, 0.0, 1.0, 0.0],
    [0.0, 0.0, 0.0, 1.0]
],
  "dcmmeta_shape": [100, 100, 72, 256],
  "dcmmeta_slice_dim": 2,
  "dcmmeta_version": 0.6,
  "global": {
    "const": {
      "AcquisitionMatrix": [100, 0, 0, 100],
      "AngioFlag": "N",
      "BitsAllocated": 16,
      "BitsStored": 12,
      "BodyPartExamined": "BRAIN",
      "Columns": 900,
      "EchoNumbers": 1,
      "EchoTime": 34.0,
      "EchoTrainLength": 100,
      "FlipAngle": 90.0,
      "HighBit": 11,
      "ImageOrientationPatient": [1.0, 0.0, 0.0, 0.0, 0.96901573474032, -0.2469989996451],
      "ImagePositionPatient": [-900.67469877005, -888.75952412029, 154.11584925336],
      "ImageType": [
        "ORIGINAL",
        "PRIMARY",
        "M",
        "ND",
        "MOSAIC"
],
      "ImagedNucleus": "1H",
      "ImagingFrequency": 123.257776,
      "InPlanePhaseEncodingDirection": "COL",
      "MRAcquisitionType": "2D",
      "MagneticFieldStrength": 3.0,
      "Manufacturer": "SIEMENS",
      "ManufacturerModelName": "Prisma",
      "Modality": "MR",
      "NumberOfAverages": 1.0,
      "NumberOfPhaseEncodingSteps": 100,
      "PercentPhaseFieldOfView": 100.0,
      "PercentSampling": 100.0,
      "PerformedProcedureStepStartTime": "145824.153000",
      "PhotometricInterpretation": "MONOCHROME2",
      "PixelBandwidth": 2380.0,
      "PixelRepresentation": 0,
      "PixelSpacing": [2.0, 2.0],
      "ProtocolName": "bold_100x100_s3_2x2x2_static_256",
      "RepetitionTime": 2000.0,
      "Rows": 900,
      "SAR": 0.08446462633804,
      "SamplesPerPixel": 1,
      "ScanOptions": "FS",
      "ScanningSequence": "EP",
      "SequenceName": "*epfid2d1_100",
      "SequenceVariant": "SK",
      "SeriesDescription": "bold_100x100_s3_2x2x2_static_256",
      "SeriesNumber": 5,
      "SeriesTime": "152116.523000",
      "SliceLocation": -70.18203048341,
      "SliceThickness": 2.0,
      "SmallestImagePixelValue": 0,
      "SoftwareVersions": "syngo MR E11",
      "SpacingBetweenSlices": 2.0000000099853,
      "SpecificCharacterSet": "ISO_IR 100",
      "StudyID": "1",
      "StudyTime": "145824.063000",
      "TransmitCoilName": "Body",
      "VariableFlipAngleFlag": "N",
      "WindowCenterWidthExplanation": "Algo1",
      "dBdt": 0.0},
    "slices": {}
  },
  "time": {
    "samples": {
      "AcquisitionNumber": [1, 2, 3, 4, 5, 6, 7, 8, 9, 10, 11, 12, 13, 14, 15, 16, 17, 18, 19, 20, 21, 22, 23, 24, 25, 26, 27, 28, 29, 30, 31, 32, 33, 34, 35, 36, 37, 38, 39, 40, 41, 42, 43, 44, 45, 46, 47, 48, 49, 50, 51, 52, 53, 54, 55, 56, 57, 58, 59, 60, 61, 62, 63, 64, 65, 66, 67, 68, 69, 70, 71, 72, 73, 74, 75, 76, 77, 78, 79, 80, 81, 82, 83, 84, 85, 86, 87, 88, 89, 90, 91, 92, 93, 94, 95, 96, 97, 98, 99, 100, 101, 102, 103, 104, 105, 106, 107, 108, 109, 110, 111, 112, 113, 114, 115, 116, 117, 118, 119, 120, 121, 122, 123, 124, 125, 126, 127, 128, 129, 130, 131, 132, 133, 134, 135, 136, 137, 138, 139, 140, 141, 142, 143, 144, 145, 146, 147, 148, 149, 150, 151, 152, 153, 154, 155, 156, 157, 158, 159, 160, 161, 162, 163, 164, 165, 166, 167, 168, 169, 170, 171, 172, 173, 174, 175, 176, 177, 178, 179, 180, 181, 182, 183, 184, 185, 186, 187, 188, 189, 190, 191, 192, 193, 194, 195, 196, 197, 198, 199, 200, 201, 202, 203, 204, 205, 206, 207, 208, 209, 210, 211, 212, 213, 214, 215, 216, 217, 218, 219, 220, 221, 222, 223, 224, 225, 226, 227, 228, 229, 230, 231, 232, 233, 234, 235, 236, 237, 238, 239, 240, 241, 242, 243, 244, 245, 246, 247, 248, 249, 250, 251, 252, 253, 254, 255, 256],
      "AcquisitionTime": ["152114.442500", "152116.442500", "152118.442500", "152120.442500", "152122.442500", "152124.442500", "152126.442500", "152128.442500", "152130.442500", "152132.442500", "152134.442500", "152136.442500", "152138.442500", "152140.442500", "152142.442500", "152144.442500", "152146.442500", "152148.442500", "152150.442500", "152152.442500", "152154.442500", "152156.442500", "152158.442500", "152200.442500", "152202.442500", "152204.442500", "152206.442500", "152208.442500", "152210.442500", "152212.442500", "152214.442500", "152216.442500", "152218.442500", "152220.442500", "152222.442500", "152224.442500", "152226.442500", "152228.442500", "152230.442500", "152232.442500", "152234.442500", "152236.442500", "152238.442500", "152240.442500", "152242.442500", "152244.442500", "152246.442500", "152248.442500", "152250.442500", "152252.442500", "152254.442500", "152256.442500", "152258.442500", "152300.442500", "152302.442500", "152304.442500", "152306.442500", "152308.442500", "152310.442500", "152312.442500", "152314.442500", "152316.442500", "152318.442500", "152320.442500", "152322.442500", "152324.442500", "152326.442500", "152328.442500", "152330.442500", "152332.442500", "152334.442500", "152336.442500", "152338.442500", "152340.442500", "152342.442500", "152344.442500", "152346.442500", "152348.442500", "152350.442500", "152352.442500", "152354.442500", "152356.442500", "152358.442500", "152400.442500", "152402.442500", "152404.442500", "152406.442500", "152408.442500", "152410.442500", "152412.442500", "152414.442500", "152416.442500", "152418.442500", "152420.442500", "152422.442500", "152424.442500", "152426.442500", "152428.442500", "152430.442500", "152432.442500", "152434.442500", "152436.442500", "152438.442500", "152440.442500", "152442.442500", "152444.442500", "152446.442500", "152448.442500", "152450.442500", "152452.442500", "152454.442500", "152456.442500", "152458.442500", "152500.442500", "152502.442500", "152504.442500", "152506.442500", "152508.442500", "152510.442500", "152512.442500", "152514.442500", "152516.442500", "152518.442500", "152520.442500", "152522.442500", "152524.442500", "152526.442500", "152528.442500", "152530.442500", "152532.442500", "152534.442500", "152536.442500", "152538.442500", "152540.442500", "152542.442500", "152544.442500", "152546.442500", "152548.442500", "152550.442500", "152552.442500", "152554.442500", "152556.442500", "152558.442500", "152600.442500", "152602.442500", "152604.442500", "152606.442500", "152608.442500", "152610.442500", "152612.442500", "152614.442500", "152616.442500", "152618.442500", "152620.442500", "152622.442500", "152624.442500", "152626.442500", "152628.442500", "152630.442500", "152632.442500", "152634.442500", "152636.442500", "152638.442500", "152640.442500", "152642.442500", "152644.442500", "152646.442500", "152648.442500", "152650.442500", "152652.442500", "152654.442500", "152656.442500", "152658.442500", "152700.442500", "152702.442500", "152704.442500", "152706.442500", "152708.442500", "152710.442500", "152712.442500", "152714.442500", "152716.442500", "152718.442500", "152720.442500", "152722.442500", "152724.442500", "152726.442500", "152728.442500", "152730.442500", "152732.442500", "152734.442500", "152736.442500", "152738.442500", "152740.442500", "152742.442500", "152744.442500", "152746.442500", "152748.442500", "152750.442500", "152752.442500", "152754.442500", "152756.442500", "152758.442500", "152800.442500", "152802.442500", "152804.442500", "152806.442500", "152808.442500", "152810.442500", "152812.442500", "152814.442500", "152816.442500", "152818.442500", "152820.442500", "152822.442500", "152824.442500", "152826.442500", "152828.442500", "152830.442500", "152832.442500", "152834.442500", "152836.442500", "152838.442500", "152840.442500", "152842.442500", "152844.442500", "152846.442500", "152848.442500", "152850.442500", "152852.442500", "152854.442500", "152856.442500", "152858.442500", "152900.442500", "152902.442500", "152904.442500", "152906.442500", "152908.442500", "152910.442500", "152912.442500", "152914.442500", "152916.442500", "152918.442500", "152920.442500", "152922.442500", "152924.442500", "152926.442500", "152928.442500", "152930.442500", "152932.442500", "152934.442500", "152936.442500", "152938.442500", "152940.442500", "152942.442500", "152944.442500"],
      "ContentTime": ["152116.527000", "152118.022000", "152120.022000", "152122.023000", "152124.023000", "152126.024000", "152128.023000", "152130.022000", "152132.022000", "152134.023000", "152136.023000", "152138.023000", "152140.023000", "152142.023000", "152144.024000", "152146.023000", "152148.023000", "152150.022000", "152152.022000", "152154.523000", "152156.023000", "152158.023000", "152200.023000", "152202.023000", "152204.023000", "152206.022000", "152208.023000", "152210.022000", "152212.022000", "152214.023000", "152216.024000", "152218.023000", "152220.523000", "152222.023000", "152224.022000", "152226.022000", "152228.023000", "152230.523000", "152232.024000", "152234.023000", "152236.023000", "152238.023000", "152240.022000", "152242.022000", "152244.022000", "152246.022000", "152248.023000", "152250.024000", "152252.024000", "152254.024000", "152256.023000", "152258.022000", "152300.022000", "152302.022000", "152304.022000", "152306.024000", "152308.023000", "152310.023000", "152312.024000", "152314.023000", "152316.022000", "152318.022000", "152320.022000", "152322.023000", "152324.023000", "152326.023000", "152328.024000", "152330.023000", "152332.022000", "152334.022000", "152336.022000", "152338.023000", "152340.023000", "152342.024000", "152344.023000", "152346.023000", "152348.023000", "152350.022000", "152352.023000", "152354.523000", "152356.022000", "152358.023000", "152400.023000", "152402.023000", "152404.024000", "152406.024000", "152408.022000", "152410.023000", "152412.023000", "152414.023000", "152416.024000", "152418.024000", "152420.024000", "152422.024000", "152424.024000", "152426.022000", "152428.023000", "152430.022000", "152432.022000", "152434.524000", "152436.023000", "152438.023000", "152440.023000", "152442.023000", "152444.023000", "152446.023000", "152448.522000", "152450.022000", "152452.024000", "152454.024000", "152456.024000", "152458.023000", "152500.022000", "152502.023000", "152504.022000", "152506.022000", "152508.024000", "152510.024000", "152512.024000", "152514.023000", "152516.024000", "152518.022000", "152520.023000", "152522.523000", "152524.023000", "152526.024000", "152528.024000", "152530.023000", "152532.023000", "152534.024000", "152536.022000", "152538.022000", "152540.022000", "152542.023000", "152544.023000", "152546.023000", "152548.023000", "152550.023000", "152552.022000", "152554.523000", "152556.022000", "152558.023000", "152600.022000", "152602.023000", "152604.024000", "152606.023000", "152608.023000", "152610.022000", "152612.022000", "152614.023000", "152616.022000", "152618.024000", "152620.024000", "152622.024000", "152624.038000", "152626.023000", "152628.022000", "152630.023000", "152632.022000", "152634.023000", "152636.024000", "152638.524000", "152640.023000", "152642.524000", "152644.023000", "152646.022000", "152648.023000", "152650.022000", "152652.023000", "152654.023000", "152656.023000", "152658.023000", "152700.023000", "152702.023000", "152704.023000", "152706.023000", "152708.523000", "152710.024000", "152712.024000", "152714.023000", "152716.024000", "152718.023000", "152720.022000", "152722.022000", "152724.022000", "152726.022000", "152728.024000", "152730.524000", "152732.023000", "152734.023000", "152736.024000", "152738.022000", "152740.023000", "152742.023000", "152744.022000", "152746.024000", "152748.024000", "152750.024000", "152752.024000", "152754.023000", "152756.023000", "152758.023000", "152800.023000", "152802.023000", "152804.024000", "152806.023000", "152808.024000", "152810.024000", "152812.022000", "152814.023000", "152816.023000", "152818.022000", "152820.024000", "152822.024000", "152824.023000", "152826.024000", "152828.523000", "152830.022000", "152832.023000", "152834.523000", "152836.023000", "152838.024000", "152840.024000", "152842.024000", "152844.024000", "152846.524000", "152848.022000", "152850.023000", "152852.023000", "152854.523000", "152856.024000", "152858.024000", "152900.023000", "152902.023000", "152904.523000", "152906.022000", "152908.523000", "152910.023000", "152912.022000", "152914.024000", "152916.024000", "152918.024000", "152920.024000", "152922.022000", "152924.022000", "152926.523000", "152928.023000", "152930.024000", "152932.024000", "152934.023000", "152936.024000", "152938.023000", "152940.023000", "152942.022000", "152944.022000", "152945.981000"],
      "InstanceCreationTime": ["152116.527000", "152118.022000", "152120.022000", "152122.023000", "152124.023000", "152126.024000", "152128.023000", "152130.022000", "152132.022000", "152134.023000", "152136.023000", "152138.023000", "152140.023000", "152142.023000", "152144.024000", "152146.023000", "152148.023000", "152150.022000", "152152.022000", "152154.523000", "152156.023000", "152158.023000", "152200.023000", "152202.023000", "152204.023000", "152206.022000", "152208.023000", "152210.022000", "152212.022000", "152214.023000", "152216.024000", "152218.023000", "152220.523000", "152222.023000", "152224.022000", "152226.022000", "152228.023000", "152230.523000", "152232.024000", "152234.023000", "152236.023000", "152238.023000", "152240.022000", "152242.022000", "152244.022000", "152246.022000", "152248.023000", "152250.024000", "152252.024000", "152254.024000", "152256.023000", "152258.022000", "152300.022000", "152302.022000", "152304.022000", "152306.024000", "152308.023000", "152310.023000", "152312.024000", "152314.023000", "152316.022000", "152318.022000", "152320.022000", "152322.023000", "152324.023000", "152326.023000", "152328.024000", "152330.023000", "152332.022000", "152334.022000", "152336.022000", "152338.023000", "152340.023000", "152342.024000", "152344.023000", "152346.023000", "152348.023000", "152350.022000", "152352.023000", "152354.523000", "152356.022000", "152358.023000", "152400.023000", "152402.023000", "152404.024000", "152406.024000", "152408.022000", "152410.023000", "152412.023000", "152414.023000", "152416.024000", "152418.024000", "152420.024000", "152422.024000", "152424.024000", "152426.022000", "152428.023000", "152430.022000", "152432.022000", "152434.524000", "152436.023000", "152438.023000", "152440.023000", "152442.023000", "152444.023000", "152446.023000", "152448.522000", "152450.022000", "152452.024000", "152454.024000", "152456.024000", "152458.023000", "152500.022000", "152502.023000", "152504.022000", "152506.022000", "152508.024000", "152510.024000", "152512.024000", "152514.023000", "152516.024000", "152518.022000", "152520.023000", "152522.523000", "152524.023000", "152526.024000", "152528.024000", "152530.023000", "152532.023000", "152534.024000", "152536.022000", "152538.022000", "152540.022000", "152542.023000", "152544.023000", "152546.023000", "152548.023000", "152550.023000", "152552.022000", "152554.523000", "152556.022000", "152558.023000", "152600.022000", "152602.023000", "152604.024000", "152606.023000", "152608.023000", "152610.022000", "152612.022000", "152614.023000", "152616.022000", "152618.024000", "152620.024000", "152622.024000", "152624.038000", "152626.023000", "152628.022000", "152630.023000", "152632.022000", "152634.023000", "152636.024000", "152638.524000", "152640.023000", "152642.524000", "152644.023000", "152646.022000", "152648.023000", "152650.022000", "152652.023000", "152654.023000", "152656.023000", "152658.023000", "152700.023000", "152702.023000", "152704.023000", "152706.023000", "152708.523000", "152710.024000", "152712.024000", "152714.023000", "152716.024000", "152718.023000", "152720.022000", "152722.022000", "152724.022000", "152726.022000", "152728.024000", "152730.524000", "152732.023000", "152734.023000", "152736.024000", "152738.022000", "152740.023000", "152742.023000", "152744.022000", "152746.024000", "152748.024000", "152750.024000", "152752.024000", "152754.023000", "152756.023000", "152758.023000", "152800.023000", "152802.023000", "152804.024000", "152806.023000", "152808.024000", "152810.024000", "152812.022000", "152814.023000", "152816.023000", "152818.022000", "152820.024000", "152822.024000", "152824.023000", "152826.024000", "152828.523000", "152830.022000", "152832.023000", "152834.523000", "152836.023000", "152838.024000", "152840.024000", "152842.024000", "152844.024000", "152846.524000", "152848.022000", "152850.023000", "152852.023000", "152854.523000", "152856.024000", "152858.024000", "152900.023000", "152902.023000", "152904.523000", "152906.022000", "152908.523000", "152910.023000", "152912.022000", "152914.024000", "152916.024000", "152918.024000", "152920.024000", "152922.022000", "152924.022000", "152926.523000", "152928.023000", "152930.024000", "152932.024000", "152934.023000", "152936.024000", "152938.023000", "152940.023000", "152942.022000", "152944.022000", "152945.981000"],
      "InstanceNumber": [1, 2, 3, 4, 5, 6, 7, 8, 9, 10, 11, 12, 13, 14, 15, 16, 17, 18, 19, 20, 21, 22, 23, 24, 25, 26, 27, 28, 29, 30, 31, 32, 33, 34, 35, 36, 37, 38, 39, 40, 41, 42, 43, 44, 45, 46, 47, 48, 49, 50, 51, 52, 53, 54, 55, 56, 57, 58, 59, 60, 61, 62, 63, 64, 65, 66, 67, 68, 69, 70, 71, 72, 73, 74, 75, 76, 77, 78, 79, 80, 81, 82, 83, 84, 85, 86, 87, 88, 89, 90, 91, 92, 93, 94, 95, 96, 97, 98, 99, 100, 101, 102, 103, 104, 105, 106, 107, 108, 109, 110, 111, 112, 113, 114, 115, 116, 117, 118, 119, 120, 121, 122, 123, 124, 125, 126, 127, 128, 129, 130, 131, 132, 133, 134, 135, 136, 137, 138, 139, 140, 141, 142, 143, 144, 145, 146, 147, 148, 149, 150, 151, 152, 153, 154, 155, 156, 157, 158, 159, 160, 161, 162, 163, 164, 165, 166, 167, 168, 169, 170, 171, 172, 173, 174, 175, 176, 177, 178, 179, 180, 181, 182, 183, 184, 185, 186, 187, 188, 189, 190, 191, 192, 193, 194, 195, 196, 197, 198, 199, 200, 201, 202, 203, 204, 205, 206, 207, 208, 209, 210, 211, 212, 213, 214, 215, 216, 217, 218, 219, 220, 221, 222, 223, 224, 225, 226, 227, 228, 229, 230, 231, 232, 233, 234, 235, 236, 237, 238, 239, 240, 241, 242, 243, 244, 245, 246, 247, 248, 249, 250, 251, 252, 253, 254, 255, 256],
      "LargestImagePixelValue": [3714, 3640, 3644, 3608, 3615, 3634, 3649, 3653, 3637, 3633, 3659, 3651, 3634, 3612, 3645, 3652, 3645, 3627, 3632, 3641, 3646, 3625, 3680, 3666, 3628, 3653, 3655, 3638, 3650, 3637, 3656, 3625, 3612, 3617, 3652, 3625, 3642, 3663, 3646, 3643, 3618, 3655, 3651, 3641, 3630, 3632, 3633, 3619, 3629, 3614, 3645, 3667, 3648, 3651, 3650, 3642, 3656, 3641, 3658, 3652, 3647, 3630, 3651, 3639, 3622, 3610, 3617, 3627, 3636, 3608, 3595, 3608, 3617, 3621, 3615, 3595, 3631, 3608, 3641, 3608, 3606, 3623, 3632, 3619, 3620, 3642, 3666, 3666, 3613, 3594, 3612, 3595, 3609, 3635, 3625, 3579, 3612, 3636, 3613, 3625, 3597, 3617, 3628, 3632, 3650, 3647, 3660, 3625, 3635, 3627, 3635, 3645, 3614, 3622, 3622, 3624, 3618, 3598, 3606, 3619, 3633, 3613, 3623, 3614, 3611, 3617, 3618, 3648, 3645, 3644, 3624, 3623, 3658, 3635, 3636, 3647, 3651, 3625, 3626, 3612, 3654, 3634, 3639, 3632, 3622, 3628, 3648, 3617, 3633, 3644, 3667, 3666, 3633, 3640, 3642, 3608, 3631, 3628, 3633, 3616, 3624, 3601, 3638, 3661, 3628, 3613, 3632, 3598, 3608, 3630, 3646, 3588, 3592, 3617, 3591, 3614, 3619, 3605, 3641, 3594, 3606, 3613, 3606, 3616, 3613, 3597, 3604, 3586, 3603, 3607, 3629, 3604, 3613, 3631, 3607, 3614, 3610, 3578, 3587, 3604, 3633, 3621, 3626, 3614, 3635, 3580, 3604, 3574, 3630, 3637, 3606, 3604, 3603, 3587, 3591, 3619, 3621, 3626, 3566, 3584, 3599, 3602, 3604, 3631, 3602, 3578, 3580, 3592, 3581, 3609, 3588, 3618, 3631, 3630, 3628, 3599, 3623, 3606, 3624, 3598, 3578, 3600, 3597, 3571, 3600, 3627, 3603, 3613, 3626, 3583, 3596, 3609, 3576, 3610, 3603, 3605],
      "WindowCenter": [842.0, 840.0, 840.0, 840.0, 839.0, 839.0, 839.0, 839.0, 838.0, 840.0, 841.0, 843.0, 841.0, 840.0, 839.0, 840.0, 841.0, 840.0, 840.0, 839.0, 839.0, 838.0, 840.0, 840.0, 840.0, 841.0, 842.0, 842.0, 841.0, 841.0, 842.0, 842.0, 840.0, 840.0, 841.0, 841.0, 840.0, 840.0, 840.0, 841.0, 841.0, 842.0, 842.0, 841.0, 841.0, 842.0, 843.0, 843.0, 842.0, 841.0, 842.0, 841.0, 840.0, 840.0, 840.0, 841.0, 842.0, 842.0, 842.0, 841.0, 841.0, 842.0, 841.0, 840.0, 840.0, 840.0, 842.0, 842.0, 842.0, 844.0, 843.0, 843.0, 843.0, 843.0, 842.0, 842.0, 842.0, 841.0, 842.0, 842.0, 840.0, 840.0, 840.0, 841.0, 842.0, 843.0, 843.0, 844.0, 844.0, 844.0, 846.0, 845.0, 843.0, 842.0, 843.0, 843.0, 843.0, 842.0, 841.0, 843.0, 844.0, 844.0, 843.0, 842.0, 842.0, 842.0, 843.0, 843.0, 843.0, 842.0, 841.0, 842.0, 843.0, 843.0, 842.0, 841.0, 840.0, 840.0, 843.0, 844.0, 844.0, 844.0, 845.0, 844.0, 843.0, 842.0, 842.0, 842.0, 841.0, 841.0, 841.0, 842.0, 842.0, 841.0, 841.0, 842.0, 842.0, 842.0, 842.0, 841.0, 840.0, 839.0, 839.0, 841.0, 841.0, 840.0, 839.0, 839.0, 840.0, 840.0, 840.0, 841.0, 841.0, 842.0, 842.0, 841.0, 841.0, 840.0, 841.0, 841.0, 841.0, 842.0, 842.0, 842.0, 842.0, 841.0, 842.0, 841.0, 841.0, 842.0, 844.0, 844.0, 844.0, 844.0, 844.0, 843.0, 841.0, 841.0, 841.0, 842.0, 842.0, 842.0, 841.0, 841.0, 842.0, 842.0, 842.0, 841.0, 840.0, 840.0, 841.0, 841.0, 842.0, 842.0, 843.0, 843.0, 844.0, 844.0, 845.0, 844.0, 843.0, 842.0, 843.0, 845.0, 844.0, 843.0, 844.0, 843.0, 842.0, 841.0, 842.0, 843.0, 843.0, 842.0, 843.0, 845.0, 845.0, 844.0, 844.0, 845.0, 845.0, 845.0, 844.0, 843.0, 842.0, 842.0, 842.0, 842.0, 842.0, 842.0, 842.0, 842.0, 842.0, 842.0, 843.0, 843.0, 843.0, 843.0, 844.0, 843.0, 842.0, 841.0, 842.0, 843.0, 843.0, 842.0, 841.0, 842.0, 843.0, 843.0, 844.0, 845.0, 844.0, 842.0, 841.0, 842.0],
      "WindowWidth": [1814.0, 1809.0, 1809.0, 1808.0, 1807.0, 1806.0, 1805.0, 1805.0, 1805.0, 1808.0, 1813.0, 1816.0, 1812.0, 1808.0, 1807.0, 1809.0, 1812.0, 1810.0, 1809.0, 1807.0, 1805.0, 1804.0, 1808.0, 1810.0, 1810.0, 1811.0, 1813.0, 1813.0, 1811.0, 1811.0, 1813.0, 1814.0, 1810.0, 1810.0, 1812.0, 1811.0, 1809.0, 1810.0, 1809.0, 1811.0, 1811.0, 1813.0, 1814.0, 1812.0, 1812.0, 1813.0, 1817.0, 1816.0, 1813.0, 1811.0, 1813.0, 1812.0, 1809.0, 1808.0, 1809.0, 1811.0, 1814.0, 1814.0, 1813.0, 1812.0, 1812.0, 1812.0, 1812.0, 1810.0, 1808.0, 1810.0, 1812.0, 1813.0, 1814.0, 1818.0, 1817.0, 1816.0, 1816.0, 1815.0, 1814.0, 1813.0, 1813.0, 1812.0, 1814.0, 1812.0, 1809.0, 1808.0, 1809.0, 1811.0, 1814.0, 1816.0, 1817.0, 1818.0, 1819.0, 1820.0, 1823.0, 1821.0, 1815.0, 1813.0, 1817.0, 1816.0, 1815.0, 1813.0, 1811.0, 1815.0, 1818.0, 1817.0, 1814.0, 1811.0, 1812.0, 1813.0, 1815.0, 1816.0, 1816.0, 1812.0, 1810.0, 1812.0, 1815.0, 1816.0, 1813.0, 1809.0, 1807.0, 1809.0, 1814.0, 1817.0, 1818.0, 1819.0, 1820.0, 1818.0, 1815.0, 1813.0, 1812.0, 1812.0, 1810.0, 1809.0, 1811.0, 1812.0, 1812.0, 1812.0, 1811.0, 1812.0, 1812.0, 1812.0, 1812.0, 1811.0, 1808.0, 1805.0, 1806.0, 1811.0, 1810.0, 1807.0, 1805.0, 1806.0, 1808.0, 1808.0, 1807.0, 1810.0, 1811.0, 1812.0, 1813.0, 1810.0, 1809.0, 1808.0, 1809.0, 1809.0, 1811.0, 1811.0, 1812.0, 1813.0, 1811.0, 1811.0, 1811.0, 1811.0, 1810.0, 1814.0, 1818.0, 1818.0, 1817.0, 1817.0, 1818.0, 1815.0, 1810.0, 1809.0, 1811.0, 1813.0, 1813.0, 1813.0, 1810.0, 1811.0, 1813.0, 1813.0, 1812.0, 1809.0, 1808.0, 1808.0, 1809.0, 1810.0, 1813.0, 1812.0, 1814.0, 1816.0, 1817.0, 1819.0, 1820.0, 1818.0, 1814.0, 1813.0, 1816.0, 1819.0, 1818.0, 1815.0, 1816.0, 1813.0, 1811.0, 1810.0, 1811.0, 1813.0, 1814.0, 1813.0, 1816.0, 1819.0, 1820.0, 1818.0, 1817.0, 1820.0, 1821.0, 1819.0, 1817.0, 1814.0, 1811.0, 1812.0, 1812.0, 1812.0, 1811.0, 1812.0, 1811.0, 1811.0, 1811.0, 1813.0, 1816.0, 1816.0, 1814.0, 1814.0, 1816.0, 1814.0, 1811.0, 1811.0, 1813.0, 1815.0, 1814.0, 1813.0, 1810.0, 1811.0, 1814.0, 1815.0, 1818.0, 1819.0, 1815.0, 1812.0, 1809.0, 1811.0]
    },
    "slices": {}
  }
}