{
  "AcquisitionMatrixPE": 100,
  "AcquisitionNumber": 1,
  "AcquisitionTime": "15:30:34.062500",
  "BandwidthPerPixelPhaseEncode": 18.519,
  "BaseResolution": 100,
  "BodyPartExamined": "BRAIN",
  "ConsistencyInfo": "N4_VE11C_LATEST_20160120",
  "ConversionSoftware": "dcm2niix",
  "ConversionSoftwareVersion": "v1.0.20180622 GCC4.9.2",
  "DerivedVendorReportedEchoSpacing": 0.000539986,
  "DeviceSerialNumber": "166078",
  "DwellTime": 2.1e-06,
  "EchoTime": 0.034,
  "EchoTrainLength": 100,
  "EffectiveEchoSpacing": 0.000539986,
  "FlipAngle": 90,
  "ImageOrientationPatientDICOM": [1, 0, 0, 0, 0.969016, -0.246999],
  "ImageType": [
    "ORIGINAL",
    "PRIMARY",
    "M",
    "ND",
    "MOSAIC"
],
  "InPlanePhaseEncodingDirectionDICOM": "COL",
  "InstitutionAddress": "Street_StreetNo_Bei_Jing_District_CN_ZIP",
  "InstitutionName": "BeiJing_Normal_University",
  "InstitutionalDepartmentName": "Department",
  "MRAcquisitionType": "2D",
  "MagneticFieldStrength": 3,
  "Manufacturer": "Siemens",
  "ManufacturersModelName": "Prisma",
  "Modality": "MR",
  "MultibandAccelerationFactor": 3,
  "PartialFourier": 1,
  "PatientPosition": "HFS",
  "PercentPhaseFOV": 100,
  "PhaseEncodingDirection": "j-",
  "PhaseEncodingSteps": 100,
  "PhaseResolution": 1,
  "PixelBandwidth": 2380,
  "ProcedureStepDescription": "BNU_P2018_64CH_Zhen.ZongLei",
  "ProtocolName": "bold_100x100_s3_2x2x2_static_256",
  "PulseSequenceDetails": "%SiemensSeq%_ep2d_bold",
  "ReceiveCoilActiveElements": "HC1-7;NC1",
  "ReceiveCoilName": "HeadNeck_64",
  "ReconMatrixPE": 100,
  "RepetitionTime": 2,
  "SAR": 0.0844646,
  "ScanOptions": "FS",
  "ScanningSequence": "EP",
  "SequenceName": "_epfid2d1_100",
  "SequenceVariant": "SK",
  "SeriesDescription": "bold_100x100_s3_2x2x2_static_256",
  "SeriesNumber": 6,
  "ShimSetting": [-5456, -11470, -1256, 424, -8, -113, -192, 57],
  "SliceThickness": 2,
  "SliceTiming": [1.485, 0, 0.99, 0.0825, 1.0725, 0.165, 1.155, 0.2475, 1.2375, 0.33, 1.32, 0.4125, 1.4025, 0.5775, 1.5675, 0.66, 1.65, 0.7425, 1.7325, 0.825, 1.815, 0.9075, 1.8975, 0.495, 1.485, 0, 0.99, 0.0825, 1.0725, 0.165, 1.155, 0.2475, 1.2375, 0.33, 1.32, 0.4125, 1.4025, 0.5775, 1.5675, 0.66, 1.65, 0.7425, 1.7325, 0.825, 1.815, 0.9075, 1.8975, 0.495, 1.485, 0, 0.99, 0.0825, 1.0725, 0.165, 1.155, 0.2475, 1.2375, 0.33, 1.32, 0.4125, 1.4025, 0.5775, 1.5675, 0.66, 1.65, 0.7425, 1.7325, 0.825, 1.815, 0.9075, 1.8975, 0.495],
  "SoftwareVersions": "syngo_MR_E11",
  "SpacingBetweenSlices": 2,
  "StationName": "AWP166078",
  "TaskName": "naturalvision",
  "TotalReadoutTime": 0.0534586,
  "TxRefAmp": 230.828,
  "dcmmeta_affine": [
    [-2.0, 0.0, 0.0, 100.67469787597656],
    [0.0, 1.9380314350128174, -0.4939979910850525, -78.31817626953125],
    [0.0, 0.4939979910850525, 1.9380314350128174, -92.38915252685547],
    [0.0, 0.0, 0.0, 1.0]
],
  "dcmmeta_reorient_transform": [
    [0.0, -1.0, 0.0, 99.0],
    [1.0, 0.0, 0.0, 0.0],
    [0.0, 0.0, 1.0, 0.0],
    [0.0, 0.0, 0.0, 1.0]
],
  "dcmmeta_shape": [100, 100, 72, 256],
  "dcmmeta_slice_dim": 2,
  "dcmmeta_version": 0.6,
  "global": {
    "const": {
      "AcquisitionMatrix": [100, 0, 0, 100],
      "AngioFlag": "N",
      "BitsAllocated": 16,
      "BitsStored": 12,
      "BodyPartExamined": "BRAIN",
      "Columns": 900,
      "EchoNumbers": 1,
      "EchoTime": 34.0,
      "EchoTrainLength": 100,
      "FlipAngle": 90.0,
      "HighBit": 11,
      "ImageOrientationPatient": [1.0, 0.0, 0.0, 0.0, 0.96901573474032, -0.2469989996451],
      "ImagePositionPatient": [-900.67469877005, -888.75952412029, 154.11584925336],
      "ImageType": [
        "ORIGINAL",
        "PRIMARY",
        "M",
        "ND",
        "MOSAIC"
],
      "ImagedNucleus": "1H",
      "ImagingFrequency": 123.257778,
      "InPlanePhaseEncodingDirection": "COL",
      "MRAcquisitionType": "2D",
      "MagneticFieldStrength": 3.0,
      "Manufacturer": "SIEMENS",
      "ManufacturerModelName": "Prisma",
      "Modality": "MR",
      "NumberOfAverages": 1.0,
      "NumberOfPhaseEncodingSteps": 100,
      "PercentPhaseFieldOfView": 100.0,
      "PercentSampling": 100.0,
      "PerformedProcedureStepStartTime": "145824.153000",
      "PhotometricInterpretation": "MONOCHROME2",
      "PixelBandwidth": 2380.0,
      "PixelRepresentation": 0,
      "PixelSpacing": [2.0, 2.0],
      "ProtocolName": "bold_100x100_s3_2x2x2_static_256",
      "RepetitionTime": 2000.0,
      "Rows": 900,
      "SAR": 0.08446462633804,
      "SamplesPerPixel": 1,
      "ScanOptions": "FS",
      "ScanningSequence": "EP",
      "SequenceName": "*epfid2d1_100",
      "SequenceVariant": "SK",
      "SeriesDescription": "bold_100x100_s3_2x2x2_static_256",
      "SeriesNumber": 6,
      "SeriesTime": "153037.303000",
      "SliceLocation": -70.18203048341,
      "SliceThickness": 2.0,
      "SmallestImagePixelValue": 0,
      "SoftwareVersions": "syngo MR E11",
      "SpacingBetweenSlices": 2.0000000099853,
      "SpecificCharacterSet": "ISO_IR 100",
      "StudyID": "1",
      "StudyTime": "145824.063000",
      "TransmitCoilName": "Body",
      "VariableFlipAngleFlag": "N",
      "WindowCenterWidthExplanation": "Algo1",
      "dBdt": 0.0},
    "slices": {}
  },
  "time": {
    "samples": {
      "AcquisitionNumber": [1, 2, 3, 4, 5, 6, 7, 8, 9, 10, 11, 12, 13, 14, 15, 16, 17, 18, 19, 20, 21, 22, 23, 24, 25, 26, 27, 28, 29, 30, 31, 32, 33, 34, 35, 36, 37, 38, 39, 40, 41, 42, 43, 44, 45, 46, 47, 48, 49, 50, 51, 52, 53, 54, 55, 56, 57, 58, 59, 60, 61, 62, 63, 64, 65, 66, 67, 68, 69, 70, 71, 72, 73, 74, 75, 76, 77, 78, 79, 80, 81, 82, 83, 84, 85, 86, 87, 88, 89, 90, 91, 92, 93, 94, 95, 96, 97, 98, 99, 100, 101, 102, 103, 104, 105, 106, 107, 108, 109, 110, 111, 112, 113, 114, 115, 116, 117, 118, 119, 120, 121, 122, 123, 124, 125, 126, 127, 128, 129, 130, 131, 132, 133, 134, 135, 136, 137, 138, 139, 140, 141, 142, 143, 144, 145, 146, 147, 148, 149, 150, 151, 152, 153, 154, 155, 156, 157, 158, 159, 160, 161, 162, 163, 164, 165, 166, 167, 168, 169, 170, 171, 172, 173, 174, 175, 176, 177, 178, 179, 180, 181, 182, 183, 184, 185, 186, 187, 188, 189, 190, 191, 192, 193, 194, 195, 196, 197, 198, 199, 200, 201, 202, 203, 204, 205, 206, 207, 208, 209, 210, 211, 212, 213, 214, 215, 216, 217, 218, 219, 220, 221, 222, 223, 224, 225, 226, 227, 228, 229, 230, 231, 232, 233, 234, 235, 236, 237, 238, 239, 240, 241, 242, 243, 244, 245, 246, 247, 248, 249, 250, 251, 252, 253, 254, 255, 256],
      "AcquisitionTime": ["153034.062500", "153036.062500", "153038.062500", "153040.062500", "153042.062500", "153044.062500", "153046.062500", "153048.062500", "153050.062500", "153052.062500", "153054.062500", "153056.062500", "153058.062500", "153100.062500", "153102.062500", "153104.062500", "153106.062500", "153108.062500", "153110.062500", "153112.062500", "153114.062500", "153116.062500", "153118.062500", "153120.062500", "153122.062500", "153124.062500", "153126.062500", "153128.062500", "153130.062500", "153132.062500", "153134.062500", "153136.062500", "153138.062500", "153140.062500", "153142.062500", "153144.062500", "153146.062500", "153148.062500", "153150.062500", "153152.062500", "153154.062500", "153156.062500", "153158.062500", "153200.062500", "153202.062500", "153204.062500", "153206.062500", "153208.062500", "153210.062500", "153212.062500", "153214.062500", "153216.062500", "153218.062500", "153220.062500", "153222.062500", "153224.062500", "153226.062500", "153228.062500", "153230.062500", "153232.062500", "153234.062500", "153236.062500", "153238.062500", "153240.062500", "153242.062500", "153244.062500", "153246.062500", "153248.062500", "153250.062500", "153252.062500", "153254.062500", "153256.062500", "153258.062500", "153300.062500", "153302.062500", "153304.062500", "153306.062500", "153308.062500", "153310.062500", "153312.062500", "153314.062500", "153316.062500", "153318.062500", "153320.062500", "153322.062500", "153324.062500", "153326.062500", "153328.062500", "153330.062500", "153332.062500", "153334.062500", "153336.062500", "153338.062500", "153340.062500", "153342.062500", "153344.062500", "153346.062500", "153348.062500", "153350.062500", "153352.062500", "153354.062500", "153356.062500", "153358.062500", "153400.062500", "153402.062500", "153404.062500", "153406.062500", "153408.062500", "153410.062500", "153412.062500", "153414.062500", "153416.062500", "153418.062500", "153420.062500", "153422.062500", "153424.062500", "153426.062500", "153428.062500", "153430.062500", "153432.062500", "153434.062500", "153436.062500", "153438.062500", "153440.062500", "153442.062500", "153444.062500", "153446.062500", "153448.062500", "153450.062500", "153452.062500", "153454.062500", "153456.062500", "153458.062500", "153500.062500", "153502.062500", "153504.062500", "153506.062500", "153508.062500", "153510.062500", "153512.062500", "153514.062500", "153516.062500", "153518.062500", "153520.062500", "153522.062500", "153524.062500", "153526.062500", "153528.062500", "153530.062500", "153532.062500", "153534.062500", "153536.062500", "153538.062500", "153540.062500", "153542.062500", "153544.062500", "153546.062500", "153548.062500", "153550.062500", "153552.062500", "153554.062500", "153556.062500", "153558.062500", "153600.062500", "153602.062500", "153604.062500", "153606.062500", "153608.062500", "153610.062500", "153612.062500", "153614.062500", "153616.062500", "153618.062500", "153620.062500", "153622.062500", "153624.062500", "153626.062500", "153628.062500", "153630.062500", "153632.062500", "153634.062500", "153636.062500", "153638.062500", "153640.062500", "153642.062500", "153644.062500", "153646.062500", "153648.062500", "153650.062500", "153652.062500", "153654.062500", "153656.062500", "153658.062500", "153700.062500", "153702.062500", "153704.062500", "153706.062500", "153708.062500", "153710.062500", "153712.062500", "153714.062500", "153716.062500", "153718.062500", "153720.062500", "153722.062500", "153724.062500", "153726.062500", "153728.062500", "153730.062500", "153732.062500", "153734.062500", "153736.062500", "153738.062500", "153740.062500", "153742.062500", "153744.062500", "153746.062500", "153748.062500", "153750.062500", "153752.062500", "153754.062500", "153756.062500", "153758.062500", "153800.062500", "153802.062500", "153804.062500", "153806.062500", "153808.062500", "153810.062500", "153812.062500", "153814.062500", "153816.062500", "153818.062500", "153820.062500", "153822.062500", "153824.062500", "153826.062500", "153828.062500", "153830.062500", "153832.062500", "153834.062500", "153836.062500", "153838.062500", "153840.062500", "153842.062500", "153844.062500", "153846.062500", "153848.062500", "153850.062500", "153852.062500", "153854.062500", "153856.062500", "153858.062500", "153900.062500", "153902.062500", "153904.062500"],
      "ContentTime": ["153037.306000", "153038.793000", "153040.794000", "153042.794000", "153044.793000", "153046.793000", "153048.794000", "153050.794000", "153052.793000", "153054.793000", "153056.793000", "153058.793000", "153100.794000", "153102.793000", "153104.793000", "153106.793000", "153108.794000", "153110.793000", "153112.794000", "153114.794000", "153116.793000", "153118.793000", "153120.794000", "153122.794000", "153124.794000", "153126.794000", "153128.293000", "153130.793000", "153132.793000", "153134.794000", "153136.294000", "153138.794000", "153140.793000", "153142.794000", "153144.793000", "153146.793000", "153148.794000", "153150.794000", "153152.794000", "153154.794000", "153156.793000", "153158.793000", "153200.794000", "153202.793000", "153204.793000", "153206.794000", "153208.793000", "153210.794000", "153212.794000", "153214.793000", "153216.793000", "153218.794000", "153220.794000", "153222.794000", "153224.794000", "153226.794000", "153228.793000", "153230.793000", "153232.793000", "153234.793000", "153236.794000", "153238.793000", "153240.793000", "153242.793000", "153244.793000", "153246.793000", "153248.794000", "153250.794000", "153252.793000", "153254.794000", "153256.794000", "153258.293000", "153300.793000", "153302.793000", "153304.794000", "153306.794000", "153308.794000", "153310.793000", "153312.793000", "153314.794000", "153316.794000", "153318.794000", "153320.793000", "153322.794000", "153324.794000", "153326.794000", "153328.793000", "153330.794000", "153332.794000", "153334.793000", "153336.793000", "153338.794000", "153340.794000", "153342.794000", "153344.794000", "153346.794000", "153348.793000", "153350.794000", "153352.794000", "153354.794000", "153356.794000", "153358.794000", "153400.793000", "153402.794000", "153404.794000", "153406.793000", "153408.794000", "153410.793000", "153412.794000", "153414.794000", "153416.794000", "153418.794000", "153420.794000", "153422.793000", "153424.794000", "153426.794000", "153428.794000", "153430.794000", "153432.794000", "153434.794000", "153436.794000", "153438.794000", "153440.794000", "153442.793000", "153444.794000", "153446.794000", "153448.794000", "153450.793000", "153452.794000", "153454.793000", "153456.794000", "153458.793000", "153500.794000", "153502.794000", "153504.794000", "153506.794000", "153508.794000", "153510.794000", "153512.794000", "153514.793000", "153516.793000", "153518.794000", "153520.793000", "153522.794000", "153524.793000", "153526.793000", "153528.794000", "153530.793000", "153532.793000", "153534.793000", "153536.793000", "153538.793000", "153540.293000", "153542.794000", "153544.794000", "153546.794000", "153548.794000", "153550.794000", "153552.794000", "153554.794000", "153556.794000", "153558.794000", "153600.794000", "153602.794000", "153604.794000", "153606.794000", "153608.794000", "153610.793000", "153612.793000", "153614.794000", "153616.794000", "153618.794000", "153620.793000", "153622.794000", "153624.794000", "153626.794000", "153628.805000", "153630.793000", "153632.793000", "153634.794000", "153636.794000", "153638.794000", "153640.794000", "153642.794000", "153644.794000", "153646.794000", "153648.793000", "153650.794000", "153652.793000", "153654.794000", "153656.794000", "153658.794000", "153700.794000", "153702.794000", "153704.794000", "153706.793000", "153708.794000", "153710.794000", "153712.794000", "153714.793000", "153716.794000", "153718.794000", "153720.794000", "153722.794000", "153724.794000", "153726.793000", "153728.794000", "153730.794000", "153732.794000", "153734.793000", "153736.794000", "153738.794000", "153740.794000", "153742.794000", "153744.793000", "153746.794000", "153748.794000", "153750.794000", "153752.794000", "153754.794000", "153756.794000", "153758.794000", "153800.794000", "153802.794000", "153804.794000", "153806.794000", "153808.793000", "153810.794000", "153812.793000", "153814.793000", "153816.793000", "153818.794000", "153820.794000", "153822.793000", "153824.794000", "153826.793000", "153828.794000", "153830.794000", "153832.794000", "153834.793000", "153836.794000", "153838.794000", "153840.794000", "153842.794000", "153844.794000", "153846.793000", "153848.794000", "153850.794000", "153852.794000", "153854.794000", "153856.793000", "153858.794000", "153900.794000", "153902.794000", "153904.794000", "153906.318000"],
      "InstanceCreationTime": ["153037.306000", "153038.793000", "153040.794000", "153042.794000", "153044.793000", "153046.793000", "153048.794000", "153050.794000", "153052.793000", "153054.793000", "153056.793000", "153058.793000", "153100.794000", "153102.793000", "153104.793000", "153106.793000", "153108.794000", "153110.793000", "153112.794000", "153114.794000", "153116.793000", "153118.793000", "153120.794000", "153122.794000", "153124.794000", "153126.794000", "153128.293000", "153130.793000", "153132.793000", "153134.794000", "153136.294000", "153138.794000", "153140.793000", "153142.794000", "153144.793000", "153146.793000", "153148.794000", "153150.794000", "153152.794000", "153154.794000", "153156.793000", "153158.793000", "153200.794000", "153202.793000", "153204.793000", "153206.794000", "153208.793000", "153210.794000", "153212.794000", "153214.793000", "153216.793000", "153218.794000", "153220.794000", "153222.794000", "153224.794000", "153226.794000", "153228.793000", "153230.793000", "153232.793000", "153234.793000", "153236.794000", "153238.793000", "153240.793000", "153242.793000", "153244.793000", "153246.793000", "153248.794000", "153250.794000", "153252.793000", "153254.794000", "153256.794000", "153258.293000", "153300.793000", "153302.793000", "153304.794000", "153306.794000", "153308.794000", "153310.793000", "153312.793000", "153314.794000", "153316.794000", "153318.794000", "153320.793000", "153322.794000", "153324.794000", "153326.794000", "153328.793000", "153330.794000", "153332.794000", "153334.793000", "153336.793000", "153338.794000", "153340.794000", "153342.794000", "153344.794000", "153346.794000", "153348.793000", "153350.794000", "153352.794000", "153354.794000", "153356.794000", "153358.794000", "153400.793000", "153402.794000", "153404.794000", "153406.793000", "153408.794000", "153410.793000", "153412.794000", "153414.794000", "153416.794000", "153418.794000", "153420.794000", "153422.793000", "153424.794000", "153426.794000", "153428.794000", "153430.794000", "153432.794000", "153434.794000", "153436.794000", "153438.794000", "153440.794000", "153442.793000", "153444.794000", "153446.794000", "153448.794000", "153450.793000", "153452.794000", "153454.793000", "153456.794000", "153458.793000", "153500.794000", "153502.794000", "153504.794000", "153506.794000", "153508.794000", "153510.794000", "153512.794000", "153514.793000", "153516.793000", "153518.794000", "153520.793000", "153522.794000", "153524.793000", "153526.793000", "153528.794000", "153530.793000", "153532.793000", "153534.793000", "153536.793000", "153538.793000", "153540.293000", "153542.794000", "153544.794000", "153546.794000", "153548.794000", "153550.794000", "153552.794000", "153554.794000", "153556.794000", "153558.794000", "153600.794000", "153602.794000", "153604.794000", "153606.794000", "153608.794000", "153610.793000", "153612.793000", "153614.794000", "153616.794000", "153618.794000", "153620.793000", "153622.794000", "153624.794000", "153626.794000", "153628.805000", "153630.793000", "153632.793000", "153634.794000", "153636.794000", "153638.794000", "153640.794000", "153642.794000", "153644.794000", "153646.794000", "153648.793000", "153650.794000", "153652.793000", "153654.794000", "153656.794000", "153658.794000", "153700.794000", "153702.794000", "153704.794000", "153706.793000", "153708.794000", "153710.794000", "153712.794000", "153714.793000", "153716.794000", "153718.794000", "153720.794000", "153722.794000", "153724.794000", "153726.793000", "153728.794000", "153730.794000", "153732.794000", "153734.793000", "153736.794000", "153738.794000", "153740.794000", "153742.794000", "153744.793000", "153746.794000", "153748.794000", "153750.794000", "153752.794000", "153754.794000", "153756.794000", "153758.794000", "153800.794000", "153802.794000", "153804.794000", "153806.794000", "153808.793000", "153810.794000", "153812.793000", "153814.793000", "153816.793000", "153818.794000", "153820.794000", "153822.793000", "153824.794000", "153826.793000", "153828.794000", "153830.794000", "153832.794000", "153834.793000", "153836.794000", "153838.794000", "153840.794000", "153842.794000", "153844.794000", "153846.793000", "153848.794000", "153850.794000", "153852.794000", "153854.794000", "153856.793000", "153858.794000", "153900.794000", "153902.794000", "153904.794000", "153906.318000"],
      "InstanceNumber": [1, 2, 3, 4, 5, 6, 7, 8, 9, 10, 11, 12, 13, 14, 15, 16, 17, 18, 19, 20, 21, 22, 23, 24, 25, 26, 27, 28, 29, 30, 31, 32, 33, 34, 35, 36, 37, 38, 39, 40, 41, 42, 43, 44, 45, 46, 47, 48, 49, 50, 51, 52, 53, 54, 55, 56, 57, 58, 59, 60, 61, 62, 63, 64, 65, 66, 67, 68, 69, 70, 71, 72, 73, 74, 75, 76, 77, 78, 79, 80, 81, 82, 83, 84, 85, 86, 87, 88, 89, 90, 91, 92, 93, 94, 95, 96, 97, 98, 99, 100, 101, 102, 103, 104, 105, 106, 107, 108, 109, 110, 111, 112, 113, 114, 115, 116, 117, 118, 119, 120, 121, 122, 123, 124, 125, 126, 127, 128, 129, 130, 131, 132, 133, 134, 135, 136, 137, 138, 139, 140, 141, 142, 143, 144, 145, 146, 147, 148, 149, 150, 151, 152, 153, 154, 155, 156, 157, 158, 159, 160, 161, 162, 163, 164, 165, 166, 167, 168, 169, 170, 171, 172, 173, 174, 175, 176, 177, 178, 179, 180, 181, 182, 183, 184, 185, 186, 187, 188, 189, 190, 191, 192, 193, 194, 195, 196, 197, 198, 199, 200, 201, 202, 203, 204, 205, 206, 207, 208, 209, 210, 211, 212, 213, 214, 215, 216, 217, 218, 219, 220, 221, 222, 223, 224, 225, 226, 227, 228, 229, 230, 231, 232, 233, 234, 235, 236, 237, 238, 239, 240, 241, 242, 243, 244, 245, 246, 247, 248, 249, 250, 251, 252, 253, 254, 255, 256],
      "LargestImagePixelValue": [3732, 3642, 3627, 3635, 3589, 3631, 3640, 3624, 3617, 3654, 3664, 3663, 3668, 3619, 3625, 3622, 3638, 3618, 3657, 3631, 3636, 3631, 3611, 3622, 3636, 3639, 3588, 3624, 3620, 3624, 3599, 3607, 3635, 3628, 3630, 3642, 3625, 3618, 3616, 3600, 3638, 3635, 3623, 3649, 3628, 3631, 3670, 3630, 3641, 3633, 3620, 3639, 3645, 3617, 3645, 3631, 3617, 3641, 3619, 3616, 3653, 3606, 3591, 3611, 3587, 3625, 3604, 3555, 3614, 3642, 3636, 3624, 3634, 3625, 3626, 3652, 3634, 3659, 3639, 3624, 3624, 3659, 3643, 3613, 3632, 3605, 3639, 3609, 3639, 3622, 3645, 3637, 3646, 3632, 3607, 3618, 3636, 3643, 3651, 3637, 3636, 3624, 3651, 3644, 3625, 3646, 3642, 3641, 3657, 3637, 3649, 3650, 3630, 3629, 3603, 3618, 3649, 3641, 3652, 3633, 3612, 3630, 3629, 3649, 3628, 3592, 3600, 3627, 3600, 3624, 3609, 3628, 3625, 3621, 3623, 3639, 3607, 3600, 3615, 3626, 3625, 3621, 3624, 3646, 3646, 3617, 3611, 3584, 3594, 3592, 3596, 3604, 3599, 3588, 3602, 3605, 3621, 3639, 3606, 3615, 3644, 3598, 3599, 3594, 3620, 3615, 3585, 3593, 3587, 3589, 3594, 3589, 3585, 3614, 3622, 3622, 3622, 3625, 3640, 3628, 3621, 3614, 3614, 3611, 3638, 3666, 3632, 3626, 3641, 3623, 3633, 3648, 3656, 3651, 3652, 3658, 3609, 3629, 3625, 3617, 3647, 3615, 3643, 3628, 3657, 3630, 3616, 3591, 3601, 3610, 3640, 3644, 3622, 3611, 3609, 3632, 3598, 3623, 3640, 3628, 3664, 3629, 3665, 3634, 3644, 3594, 3591, 3589, 3589, 3630, 3617, 3625, 3622, 3632, 3618, 3631, 3657, 3632, 3666, 3625, 3619, 3619, 3614, 3607, 3627, 3637, 3623, 3603, 3610, 3625, 3599, 3630, 3661, 3609, 3596, 3558],
      "WindowCenter": [848.0, 844.0, 843.0, 844.0, 844.0, 844.0, 845.0, 844.0, 842.0, 842.0, 843.0, 844.0, 844.0, 843.0, 843.0, 842.0, 843.0, 843.0, 844.0, 843.0, 842.0, 843.0, 843.0, 843.0, 842.0, 842.0, 842.0, 842.0, 842.0, 841.0, 842.0, 842.0, 842.0, 841.0, 840.0, 840.0, 842.0, 842.0, 842.0, 842.0, 842.0, 842.0, 842.0, 842.0, 841.0, 841.0, 842.0, 842.0, 844.0, 844.0, 842.0, 841.0, 841.0, 841.0, 842.0, 841.0, 841.0, 842.0, 844.0, 844.0, 844.0, 843.0, 843.0, 844.0, 844.0, 844.0, 845.0, 844.0, 843.0, 843.0, 843.0, 844.0, 844.0, 844.0, 842.0, 842.0, 843.0, 844.0, 843.0, 842.0, 841.0, 840.0, 842.0, 843.0, 843.0, 842.0, 843.0, 842.0, 844.0, 844.0, 844.0, 843.0, 843.0, 844.0, 844.0, 844.0, 843.0, 842.0, 843.0, 844.0, 844.0, 843.0, 843.0, 844.0, 843.0, 843.0, 842.0, 842.0, 841.0, 841.0, 843.0, 843.0, 843.0, 842.0, 842.0, 843.0, 843.0, 843.0, 844.0, 844.0, 845.0, 845.0, 844.0, 843.0, 842.0, 843.0, 844.0, 843.0, 842.0, 842.0, 843.0, 844.0, 844.0, 844.0, 843.0, 843.0, 844.0, 845.0, 845.0, 844.0, 844.0, 845.0, 845.0, 845.0, 845.0, 845.0, 847.0, 847.0, 847.0, 846.0, 846.0, 847.0, 846.0, 845.0, 845.0, 845.0, 845.0, 845.0, 844.0, 845.0, 846.0, 845.0, 843.0, 842.0, 843.0, 844.0, 846.0, 846.0, 845.0, 845.0, 844.0, 844.0, 844.0, 843.0, 843.0, 843.0, 843.0, 843.0, 843.0, 844.0, 845.0, 845.0, 845.0, 845.0, 844.0, 843.0, 844.0, 843.0, 843.0, 843.0, 843.0, 843.0, 843.0, 843.0, 843.0, 844.0, 844.0, 843.0, 843.0, 843.0, 843.0, 843.0, 844.0, 844.0, 844.0, 844.0, 845.0, 846.0, 846.0, 845.0, 845.0, 845.0, 844.0, 844.0, 844.0, 845.0, 845.0, 845.0, 844.0, 843.0, 843.0, 844.0, 845.0, 844.0, 844.0, 845.0, 847.0, 846.0, 845.0, 843.0, 843.0, 844.0, 846.0, 847.0, 846.0, 844.0, 843.0, 844.0, 845.0, 845.0, 845.0, 846.0, 846.0, 846.0, 846.0, 846.0, 847.0, 848.0, 847.0, 846.0, 845.0, 845.0, 845.0, 847.0, 848.0, 846.0],
      "WindowWidth": [1828.0, 1817.0, 1816.0, 1817.0, 1818.0, 1818.0, 1818.0, 1817.0, 1812.0, 1813.0, 1814.0, 1816.0, 1816.0, 1815.0, 1814.0, 1812.0, 1815.0, 1815.0, 1817.0, 1815.0, 1813.0, 1815.0, 1814.0, 1815.0, 1812.0, 1812.0, 1812.0, 1813.0, 1812.0, 1811.0, 1811.0, 1813.0, 1812.0, 1810.0, 1807.0, 1808.0, 1812.0, 1813.0, 1812.0, 1811.0, 1813.0, 1812.0, 1811.0, 1811.0, 1809.0, 1809.0, 1812.0, 1813.0, 1817.0, 1817.0, 1813.0, 1810.0, 1810.0, 1811.0, 1811.0, 1810.0, 1810.0, 1812.0, 1817.0, 1818.0, 1816.0, 1815.0, 1816.0, 1817.0, 1817.0, 1818.0, 1820.0, 1818.0, 1815.0, 1813.0, 1814.0, 1817.0, 1817.0, 1816.0, 1812.0, 1813.0, 1815.0, 1816.0, 1815.0, 1812.0, 1809.0, 1808.0, 1812.0, 1815.0, 1816.0, 1813.0, 1814.0, 1813.0, 1816.0, 1817.0, 1817.0, 1815.0, 1816.0, 1817.0, 1817.0, 1818.0, 1813.0, 1811.0, 1816.0, 1818.0, 1817.0, 1814.0, 1815.0, 1817.0, 1814.0, 1814.0, 1813.0, 1811.0, 1810.0, 1810.0, 1814.0, 1815.0, 1814.0, 1813.0, 1813.0, 1815.0, 1814.0, 1814.0, 1816.0, 1818.0, 1820.0, 1819.0, 1816.0, 1815.0, 1812.0, 1815.0, 1816.0, 1814.0, 1811.0, 1813.0, 1815.0, 1816.0, 1816.0, 1816.0, 1813.0, 1813.0, 1816.0, 1819.0, 1819.0, 1817.0, 1817.0, 1819.0, 1820.0, 1820.0, 1819.0, 1819.0, 1823.0, 1823.0, 1824.0, 1822.0, 1823.0, 1825.0, 1821.0, 1819.0, 1818.0, 1819.0, 1819.0, 1818.0, 1817.0, 1820.0, 1823.0, 1818.0, 1814.0, 1811.0, 1813.0, 1817.0, 1820.0, 1821.0, 1820.0, 1818.0, 1817.0, 1815.0, 1815.0, 1814.0, 1814.0, 1813.0, 1812.0, 1813.0, 1814.0, 1818.0, 1820.0, 1819.0, 1819.0, 1819.0, 1817.0, 1815.0, 1815.0, 1814.0, 1813.0, 1813.0, 1814.0, 1814.0, 1813.0, 1813.0, 1815.0, 1817.0, 1817.0, 1814.0, 1812.0, 1812.0, 1813.0, 1815.0, 1816.0, 1818.0, 1817.0, 1817.0, 1819.0, 1821.0, 1821.0, 1819.0, 1819.0, 1819.0, 1817.0, 1817.0, 1818.0, 1818.0, 1818.0, 1817.0, 1816.0, 1814.0, 1814.0, 1816.0, 1819.0, 1817.0, 1817.0, 1818.0, 1824.0, 1821.0, 1817.0, 1813.0, 1813.0, 1816.0, 1821.0, 1823.0, 1821.0, 1817.0, 1814.0, 1817.0, 1818.0, 1818.0, 1820.0, 1820.0, 1821.0, 1822.0, 1822.0, 1822.0, 1825.0, 1827.0, 1825.0, 1821.0, 1817.0, 1819.0, 1819.0, 1825.0, 1827.0, 1821.0]
    },
    "slices": {}
  }
}