{
  "AcquisitionMatrixPE": 100,
  "AcquisitionNumber": 1,
  "AcquisitionTime": "16:21:32.047500",
  "BandwidthPerPixelPhaseEncode": 18.519,
  "BaseResolution": 100,
  "BodyPartExamined": "BRAIN",
  "ConsistencyInfo": "N4_VE11C_LATEST_20160120",
  "ConversionSoftware": "dcm2niix",
  "ConversionSoftwareVersion": "v1.0.20180622 GCC4.9.2",
  "DerivedVendorReportedEchoSpacing": 0.000539986,
  "DeviceSerialNumber": "166078",
  "DwellTime": 2.1e-06,
  "EchoTime": 0.034,
  "EchoTrainLength": 100,
  "EffectiveEchoSpacing": 0.000539986,
  "FlipAngle": 90,
  "ImageOrientationPatientDICOM": [1, 0, 0, 0, 0.969016, -0.246999],
  "ImageType": [
    "ORIGINAL",
    "PRIMARY",
    "M",
    "ND",
    "MOSAIC"
],
  "InPlanePhaseEncodingDirectionDICOM": "COL",
  "InstitutionAddress": "Street_StreetNo_Bei_Jing_District_CN_ZIP",
  "InstitutionName": "BeiJing_Normal_University",
  "InstitutionalDepartmentName": "Department",
  "MRAcquisitionType": "2D",
  "MagneticFieldStrength": 3,
  "Manufacturer": "Siemens",
  "ManufacturersModelName": "Prisma",
  "Modality": "MR",
  "MultibandAccelerationFactor": 3,
  "PartialFourier": 1,
  "PatientPosition": "HFS",
  "PercentPhaseFOV": 100,
  "PhaseEncodingDirection": "j-",
  "PhaseEncodingSteps": 100,
  "PhaseResolution": 1,
  "PixelBandwidth": 2380,
  "ProcedureStepDescription": "BNU_P2018_64CH_Zhen.ZongLei",
  "ProtocolName": "bold_100x100_s3_2x2x2_static_256",
  "PulseSequenceDetails": "%SiemensSeq%_ep2d_bold",
  "ReceiveCoilActiveElements": "HC1-7;NC1",
  "ReceiveCoilName": "HeadNeck_64",
  "ReconMatrixPE": 100,
  "RepetitionTime": 2,
  "SAR": 0.0844646,
  "ScanOptions": "FS",
  "ScanningSequence": "EP",
  "SequenceName": "_epfid2d1_100",
  "SequenceVariant": "SK",
  "SeriesDescription": "bold_100x100_s3_2x2x2_static_256",
  "SeriesNumber": 14,
  "ShimSetting": [-5456, -11470, -1256, 424, -8, -113, -192, 57],
  "SliceThickness": 2,
  "SliceTiming": [1.485, 0, 0.99, 0.0825, 1.0725, 0.165, 1.155, 0.2475, 1.2375, 0.33, 1.32, 0.4125, 1.4025, 0.5775, 1.5675, 0.66, 1.65, 0.7425, 1.7325, 0.825, 1.815, 0.9075, 1.8975, 0.495, 1.485, 0, 0.99, 0.0825, 1.0725, 0.165, 1.155, 0.2475, 1.2375, 0.33, 1.32, 0.4125, 1.4025, 0.5775, 1.5675, 0.66, 1.65, 0.7425, 1.7325, 0.825, 1.815, 0.9075, 1.8975, 0.495, 1.485, 0, 0.99, 0.0825, 1.0725, 0.165, 1.155, 0.2475, 1.2375, 0.33, 1.32, 0.4125, 1.4025, 0.5775, 1.5675, 0.66, 1.65, 0.7425, 1.7325, 0.825, 1.815, 0.9075, 1.8975, 0.495],
  "SoftwareVersions": "syngo_MR_E11",
  "SpacingBetweenSlices": 2,
  "StationName": "AWP166078",
  "TaskName": "naturalvision",
  "TotalReadoutTime": 0.0534586,
  "TxRefAmp": 230.828,
  "dcmmeta_affine": [
    [-2.0, 0.0, 0.0, 100.67469787597656],
    [0.0, 1.9380314350128174, -0.4939979910850525, -78.31817626953125],
    [0.0, 0.4939979910850525, 1.9380314350128174, -92.38915252685547],
    [0.0, 0.0, 0.0, 1.0]
],
  "dcmmeta_reorient_transform": [
    [0.0, -1.0, 0.0, 99.0],
    [1.0, 0.0, 0.0, 0.0],
    [0.0, 0.0, 1.0, 0.0],
    [0.0, 0.0, 0.0, 1.0]
],
  "dcmmeta_shape": [100, 100, 72, 256],
  "dcmmeta_slice_dim": 2,
  "dcmmeta_version": 0.6,
  "global": {
    "const": {
      "AcquisitionMatrix": [100, 0, 0, 100],
      "AngioFlag": "N",
      "BitsAllocated": 16,
      "BitsStored": 12,
      "BodyPartExamined": "BRAIN",
      "Columns": 900,
      "EchoNumbers": 1,
      "EchoTime": 34.0,
      "EchoTrainLength": 100,
      "FlipAngle": 90.0,
      "HighBit": 11,
      "ImageOrientationPatient": [1.0, 0.0, 0.0, 0.0, 0.96901573474032, -0.2469989996451],
      "ImagePositionPatient": [-900.67469877005, -888.75952412029, 154.11584925336],
      "ImageType": [
        "ORIGINAL",
        "PRIMARY",
        "M",
        "ND",
        "MOSAIC"
],
      "ImagedNucleus": "1H",
      "ImagingFrequency": 123.25778,
      "InPlanePhaseEncodingDirection": "COL",
      "MRAcquisitionType": "2D",
      "MagneticFieldStrength": 3.0,
      "Manufacturer": "SIEMENS",
      "ManufacturerModelName": "Prisma",
      "Modality": "MR",
      "NumberOfAverages": 1.0,
      "NumberOfPhaseEncodingSteps": 100,
      "PercentPhaseFieldOfView": 100.0,
      "PercentSampling": 100.0,
      "PerformedProcedureStepStartTime": "145824.153000",
      "PhotometricInterpretation": "MONOCHROME2",
      "PixelBandwidth": 2380.0,
      "PixelRepresentation": 0,
      "PixelSpacing": [2.0, 2.0],
      "ProtocolName": "bold_100x100_s3_2x2x2_static_256",
      "RepetitionTime": 2000.0,
      "Rows": 900,
      "SAR": 0.08446462633804,
      "SamplesPerPixel": 1,
      "ScanOptions": "FS",
      "ScanningSequence": "EP",
      "SequenceName": "*epfid2d1_100",
      "SequenceVariant": "SK",
      "SeriesDescription": "bold_100x100_s3_2x2x2_static_256",
      "SeriesNumber": 14,
      "SeriesTime": "162134.622000",
      "SliceLocation": -70.18203048341,
      "SliceThickness": 2.0,
      "SmallestImagePixelValue": 0,
      "SoftwareVersions": "syngo MR E11",
      "SpacingBetweenSlices": 2.0000000099853,
      "SpecificCharacterSet": "ISO_IR 100",
      "StudyID": "1",
      "StudyTime": "145824.063000",
      "TransmitCoilName": "Body",
      "VariableFlipAngleFlag": "N",
      "WindowCenterWidthExplanation": "Algo1",
      "dBdt": 0.0},
    "slices": {}
  },
  "time": {
    "samples": {
      "AcquisitionNumber": [1, 2, 3, 4, 5, 6, 7, 8, 9, 10, 11, 12, 13, 14, 15, 16, 17, 18, 19, 20, 21, 22, 23, 24, 25, 26, 27, 28, 29, 30, 31, 32, 33, 34, 35, 36, 37, 38, 39, 40, 41, 42, 43, 44, 45, 46, 47, 48, 49, 50, 51, 52, 53, 54, 55, 56, 57, 58, 59, 60, 61, 62, 63, 64, 65, 66, 67, 68, 69, 70, 71, 72, 73, 74, 75, 76, 77, 78, 79, 80, 81, 82, 83, 84, 85, 86, 87, 88, 89, 90, 91, 92, 93, 94, 95, 96, 97, 98, 99, 100, 101, 102, 103, 104, 105, 106, 107, 108, 109, 110, 111, 112, 113, 114, 115, 116, 117, 118, 119, 120, 121, 122, 123, 124, 125, 126, 127, 128, 129, 130, 131, 132, 133, 134, 135, 136, 137, 138, 139, 140, 141, 142, 143, 144, 145, 146, 147, 148, 149, 150, 151, 152, 153, 154, 155, 156, 157, 158, 159, 160, 161, 162, 163, 164, 165, 166, 167, 168, 169, 170, 171, 172, 173, 174, 175, 176, 177, 178, 179, 180, 181, 182, 183, 184, 185, 186, 187, 188, 189, 190, 191, 192, 193, 194, 195, 196, 197, 198, 199, 200, 201, 202, 203, 204, 205, 206, 207, 208, 209, 210, 211, 212, 213, 214, 215, 216, 217, 218, 219, 220, 221, 222, 223, 224, 225, 226, 227, 228, 229, 230, 231, 232, 233, 234, 235, 236, 237, 238, 239, 240, 241, 242, 243, 244, 245, 246, 247, 248, 249, 250, 251, 252, 253, 254, 255, 256],
      "AcquisitionTime": ["162132.047500", "162134.047500", "162136.047500", "162138.047500", "162140.047500", "162142.047500", "162144.047500", "162146.047500", "162148.047500", "162150.047500", "162152.047500", "162154.047500", "162156.047500", "162158.047500", "162200.047500", "162202.047500", "162204.047500", "162206.047500", "162208.047500", "162210.047500", "162212.047500", "162214.047500", "162216.047500", "162218.047500", "162220.047500", "162222.047500", "162224.047500", "162226.047500", "162228.047500", "162230.047500", "162232.047500", "162234.047500", "162236.047500", "162238.047500", "162240.047500", "162242.047500", "162244.047500", "162246.047500", "162248.047500", "162250.047500", "162252.047500", "162254.047500", "162256.047500", "162258.047500", "162300.047500", "162302.047500", "162304.047500", "162306.047500", "162308.047500", "162310.047500", "162312.047500", "162314.047500", "162316.047500", "162318.047500", "162320.047500", "162322.047500", "162324.047500", "162326.047500", "162328.047500", "162330.047500", "162332.047500", "162334.047500", "162336.047500", "162338.047500", "162340.047500", "162342.047500", "162344.047500", "162346.047500", "162348.047500", "162350.047500", "162352.047500", "162354.047500", "162356.047500", "162358.047500", "162400.047500", "162402.047500", "162404.047500", "162406.047500", "162408.047500", "162410.047500", "162412.047500", "162414.047500", "162416.047500", "162418.047500", "162420.047500", "162422.047500", "162424.047500", "162426.047500", "162428.047500", "162430.047500", "162432.047500", "162434.047500", "162436.047500", "162438.047500", "162440.047500", "162442.047500", "162444.047500", "162446.047500", "162448.047500", "162450.047500", "162452.047500", "162454.047500", "162456.047500", "162458.047500", "162500.047500", "162502.047500", "162504.047500", "162506.047500", "162508.047500", "162510.047500", "162512.047500", "162514.047500", "162516.047500", "162518.047500", "162520.047500", "162522.047500", "162524.047500", "162526.047500", "162528.047500", "162530.047500", "162532.047500", "162534.047500", "162536.047500", "162538.047500", "162540.047500", "162542.047500", "162544.047500", "162546.047500", "162548.047500", "162550.047500", "162552.047500", "162554.047500", "162556.047500", "162558.047500", "162600.047500", "162602.047500", "162604.047500", "162606.047500", "162608.047500", "162610.047500", "162612.047500", "162614.047500", "162616.047500", "162618.047500", "162620.047500", "162622.047500", "162624.047500", "162626.047500", "162628.047500", "162630.047500", "162632.047500", "162634.047500", "162636.047500", "162638.047500", "162640.047500", "162642.047500", "162644.047500", "162646.047500", "162648.047500", "162650.047500", "162652.047500", "162654.047500", "162656.047500", "162658.047500", "162700.047500", "162702.047500", "162704.047500", "162706.047500", "162708.047500", "162710.047500", "162712.047500", "162714.047500", "162716.047500", "162718.047500", "162720.047500", "162722.047500", "162724.047500", "162726.047500", "162728.047500", "162730.047500", "162732.047500", "162734.047500", "162736.047500", "162738.047500", "162740.047500", "162742.047500", "162744.047500", "162746.047500", "162748.047500", "162750.047500", "162752.047500", "162754.047500", "162756.047500", "162758.047500", "162800.047500", "162802.047500", "162804.047500", "162806.047500", "162808.047500", "162810.047500", "162812.047500", "162814.047500", "162816.047500", "162818.047500", "162820.047500", "162822.047500", "162824.047500", "162826.047500", "162828.047500", "162830.047500", "162832.047500", "162834.047500", "162836.047500", "162838.047500", "162840.047500", "162842.047500", "162844.047500", "162846.047500", "162848.047500", "162850.047500", "162852.047500", "162854.047500", "162856.047500", "162858.047500", "162900.047500", "162902.047500", "162904.047500", "162906.047500", "162908.047500", "162910.047500", "162912.047500", "162914.047500", "162916.047500", "162918.047500", "162920.047500", "162922.047500", "162924.047500", "162926.047500", "162928.047500", "162930.047500", "162932.047500", "162934.047500", "162936.047500", "162938.047500", "162940.047500", "162942.047500", "162944.047500", "162946.047500", "162948.047500", "162950.047500", "162952.047500", "162954.047500", "162956.047500", "162958.047500", "163000.047500", "163002.047500"],
      "ContentTime": ["162134.626000", "162136.122000", "162138.122000", "162140.122000", "162142.123000", "162144.122000", "162146.122000", "162148.122000", "162150.122000", "162152.121000", "162154.121000", "162156.122000", "162158.122000", "162200.123000", "162202.122000", "162204.122000", "162206.121000", "162208.122000", "162210.122000", "162212.121000", "162214.121000", "162216.122000", "162218.122000", "162220.122000", "162221.621000", "162224.122000", "162225.621000", "162227.621000", "162230.122000", "162232.123000", "162234.122000", "162236.123000", "162238.121000", "162240.121000", "162242.122000", "162244.122000", "162246.122000", "162247.621000", "162250.123000", "162252.123000", "162254.122000", "162256.121000", "162258.122000", "162300.122000", "162302.122000", "162304.121000", "162306.121000", "162308.122000", "162310.123000", "162312.123000", "162314.121000", "162316.122000", "162318.122000", "162320.121000", "162322.121000", "162324.122000", "162326.123000", "162328.122000", "162330.121000", "162332.122000", "162334.121000", "162336.122000", "162337.621000", "162340.122000", "162342.123000", "162344.122000", "162346.122000", "162348.121000", "162350.122000", "162351.621000", "162354.122000", "162356.122000", "162358.122000", "162400.122000", "162402.123000", "162404.122000", "162406.122000", "162408.122000", "162410.122000", "162412.121000", "162414.122000", "162416.121000", "162418.123000", "162420.123000", "162422.123000", "162424.121000", "162425.621000", "162428.121000", "162430.122000", "162432.122000", "162434.122000", "162436.122000", "162438.123000", "162440.122000", "162442.122000", "162444.122000", "162446.121000", "162448.122000", "162450.122000", "162452.122000", "162454.122000", "162456.122000", "162458.122000", "162500.121000", "162502.122000", "162504.122000", "162506.122000", "162508.122000", "162510.122000", "162512.123000", "162514.123000", "162516.121000", "162518.121000", "162520.122000", "162522.121000", "162524.121000", "162526.121000", "162528.122000", "162530.123000", "162532.122000", "162534.121000", "162536.122000", "162538.121000", "162540.121000", "162542.122000", "162543.622000", "162545.622000", "162548.123000", "162550.122000", "162552.122000", "162554.121000", "162556.122000", "162558.122000", "162600.122000", "162602.123000", "162604.123000", "162606.123000", "162608.122000", "162610.121000", "162612.122000", "162614.122000", "162616.122000", "162618.122000", "162620.122000", "162622.123000", "162624.122000", "162626.121000", "162628.122000", "162630.122000", "162632.122000", "162634.122000", "162636.122000", "162638.123000", "162640.122000", "162642.123000", "162644.122000", "162646.122000", "162648.122000", "162650.122000", "162652.122000", "162654.122000", "162656.123000", "162658.123000", "162700.122000", "162702.122000", "162704.122000", "162706.121000", "162708.122000", "162710.123000", "162712.123000", "162714.122000", "162716.123000", "162718.121000", "162720.122000", "162722.121000", "162724.122000", "162726.122000", "162728.121000", "162730.122000", "162732.123000", "162734.123000", "162736.122000", "162738.122000", "162740.122000", "162742.122000", "162744.122000", "162746.122000", "162748.123000", "162749.622000", "162752.123000", "162754.122000", "162756.122000", "162758.121000", "162800.121000", "162802.122000", "162804.122000", "162806.122000", "162808.123000", "162810.122000", "162812.121000", "162814.121000", "162816.122000", "162818.122000", "162820.121000", "162822.123000", "162823.622000", "162826.123000", "162828.122000", "162830.121000", "162832.122000", "162834.122000", "162836.121000", "162838.122000", "162840.123000", "162842.122000", "162844.123000", "162846.122000", "162848.121000", "162849.621000", "162852.121000", "162854.121000", "162856.122000", "162858.123000", "162900.122000", "162902.123000", "162904.122000", "162906.122000", "162908.122000", "162910.121000", "162912.122000", "162914.123000", "162916.122000", "162918.123000", "162920.121000", "162922.121000", "162924.122000", "162926.121000", "162928.122000", "162930.122000", "162932.122000", "162934.122000", "162935.623000", "162938.131000", "162940.122000", "162942.121000", "162944.122000", "162946.122000", "162948.121000", "162950.123000", "162952.122000", "162954.123000", "162956.122000", "162958.122000", "163000.122000", "163002.122000", "163003.618000"],
      "InstanceCreationTime": ["162134.626000", "162136.122000", "162138.122000", "162140.122000", "162142.123000", "162144.122000", "162146.122000", "162148.122000", "162150.122000", "162152.121000", "162154.121000", "162156.122000", "162158.122000", "162200.123000", "162202.122000", "162204.122000", "162206.121000", "162208.122000", "162210.122000", "162212.121000", "162214.121000", "162216.122000", "162218.122000", "162220.122000", "162221.621000", "162224.122000", "162225.621000", "162227.621000", "162230.122000", "162232.123000", "162234.122000", "162236.123000", "162238.121000", "162240.121000", "162242.122000", "162244.122000", "162246.122000", "162247.621000", "162250.123000", "162252.123000", "162254.122000", "162256.121000", "162258.122000", "162300.122000", "162302.122000", "162304.121000", "162306.121000", "162308.122000", "162310.123000", "162312.123000", "162314.121000", "162316.122000", "162318.122000", "162320.121000", "162322.121000", "162324.122000", "162326.123000", "162328.122000", "162330.121000", "162332.122000", "162334.121000", "162336.122000", "162337.621000", "162340.122000", "162342.123000", "162344.122000", "162346.122000", "162348.121000", "162350.122000", "162351.621000", "162354.122000", "162356.122000", "162358.122000", "162400.122000", "162402.123000", "162404.122000", "162406.122000", "162408.122000", "162410.122000", "162412.121000", "162414.122000", "162416.121000", "162418.123000", "162420.123000", "162422.123000", "162424.121000", "162425.621000", "162428.121000", "162430.122000", "162432.122000", "162434.122000", "162436.122000", "162438.123000", "162440.122000", "162442.122000", "162444.122000", "162446.121000", "162448.122000", "162450.122000", "162452.122000", "162454.122000", "162456.122000", "162458.122000", "162500.121000", "162502.122000", "162504.122000", "162506.122000", "162508.122000", "162510.122000", "162512.123000", "162514.123000", "162516.121000", "162518.121000", "162520.122000", "162522.121000", "162524.121000", "162526.121000", "162528.122000", "162530.123000", "162532.122000", "162534.121000", "162536.122000", "162538.121000", "162540.121000", "162542.122000", "162543.622000", "162545.622000", "162548.123000", "162550.122000", "162552.122000", "162554.121000", "162556.122000", "162558.122000", "162600.122000", "162602.123000", "162604.123000", "162606.123000", "162608.122000", "162610.121000", "162612.122000", "162614.122000", "162616.122000", "162618.122000", "162620.122000", "162622.123000", "162624.122000", "162626.121000", "162628.122000", "162630.122000", "162632.122000", "162634.122000", "162636.122000", "162638.123000", "162640.122000", "162642.123000", "162644.122000", "162646.122000", "162648.122000", "162650.122000", "162652.122000", "162654.122000", "162656.123000", "162658.123000", "162700.122000", "162702.122000", "162704.122000", "162706.121000", "162708.122000", "162710.123000", "162712.123000", "162714.122000", "162716.123000", "162718.121000", "162720.122000", "162722.121000", "162724.122000", "162726.122000", "162728.121000", "162730.122000", "162732.123000", "162734.123000", "162736.122000", "162738.122000", "162740.122000", "162742.122000", "162744.122000", "162746.122000", "162748.123000", "162749.622000", "162752.123000", "162754.122000", "162756.122000", "162758.121000", "162800.121000", "162802.122000", "162804.122000", "162806.122000", "162808.123000", "162810.122000", "162812.121000", "162814.121000", "162816.122000", "162818.122000", "162820.121000", "162822.123000", "162823.622000", "162826.123000", "162828.122000", "162830.121000", "162832.122000", "162834.122000", "162836.121000", "162838.122000", "162840.123000", "162842.122000", "162844.123000", "162846.122000", "162848.121000", "162849.621000", "162852.121000", "162854.121000", "162856.122000", "162858.123000", "162900.122000", "162902.123000", "162904.122000", "162906.122000", "162908.122000", "162910.121000", "162912.122000", "162914.123000", "162916.122000", "162918.123000", "162920.121000", "162922.121000", "162924.122000", "162926.121000", "162928.122000", "162930.122000", "162932.122000", "162934.122000", "162935.623000", "162938.131000", "162940.122000", "162942.121000", "162944.122000", "162946.122000", "162948.121000", "162950.123000", "162952.122000", "162954.123000", "162956.122000", "162958.122000", "163000.122000", "163002.122000", "163003.618000"],
      "InstanceNumber": [1, 2, 3, 4, 5, 6, 7, 8, 9, 10, 11, 12, 13, 14, 15, 16, 17, 18, 19, 20, 21, 22, 23, 24, 25, 26, 27, 28, 29, 30, 31, 32, 33, 34, 35, 36, 37, 38, 39, 40, 41, 42, 43, 44, 45, 46, 47, 48, 49, 50, 51, 52, 53, 54, 55, 56, 57, 58, 59, 60, 61, 62, 63, 64, 65, 66, 67, 68, 69, 70, 71, 72, 73, 74, 75, 76, 77, 78, 79, 80, 81, 82, 83, 84, 85, 86, 87, 88, 89, 90, 91, 92, 93, 94, 95, 96, 97, 98, 99, 100, 101, 102, 103, 104, 105, 106, 107, 108, 109, 110, 111, 112, 113, 114, 115, 116, 117, 118, 119, 120, 121, 122, 123, 124, 125, 126, 127, 128, 129, 130, 131, 132, 133, 134, 135, 136, 137, 138, 139, 140, 141, 142, 143, 144, 145, 146, 147, 148, 149, 150, 151, 152, 153, 154, 155, 156, 157, 158, 159, 160, 161, 162, 163, 164, 165, 166, 167, 168, 169, 170, 171, 172, 173, 174, 175, 176, 177, 178, 179, 180, 181, 182, 183, 184, 185, 186, 187, 188, 189, 190, 191, 192, 193, 194, 195, 196, 197, 198, 199, 200, 201, 202, 203, 204, 205, 206, 207, 208, 209, 210, 211, 212, 213, 214, 215, 216, 217, 218, 219, 220, 221, 222, 223, 224, 225, 226, 227, 228, 229, 230, 231, 232, 233, 234, 235, 236, 237, 238, 239, 240, 241, 242, 243, 244, 245, 246, 247, 248, 249, 250, 251, 252, 253, 254, 255, 256],
      "LargestImagePixelValue": [3703, 3615, 3548, 3581, 3572, 3561, 3606, 3582, 3571, 3565, 3529, 3557, 3578, 3564, 3631, 3608, 3616, 3622, 3637, 3578, 3611, 3600, 3576, 3587, 3608, 3593, 3620, 3636, 3614, 3629, 3612, 3606, 3609, 3582, 3614, 3586, 3610, 3615, 3601, 3595, 3586, 3549, 3614, 3615, 3646, 3603, 3572, 3613, 3565, 3586, 3612, 3616, 3597, 3624, 3613, 3601, 3609, 3631, 3624, 3597, 3611, 3593, 3624, 3641, 3638, 3655, 3588, 3638, 3605, 3594, 3587, 3549, 3555, 3599, 3611, 3610, 3599, 3606, 3569, 3510, 3256, 3224, 3281, 3349, 3362, 3439, 3482, 3445, 3369, 3321, 3407, 3445, 3445, 3461, 3455, 3504, 3476, 3494, 3500, 3532, 3532, 3538, 3496, 3535, 3558, 3529, 3528, 3519, 3545, 3530, 3515, 3526, 3533, 3536, 3521, 3528, 3558, 3504, 3555, 3548, 3557, 3561, 3565, 3547, 3571, 3556, 3580, 3519, 3539, 3559, 3551, 3568, 3564, 3559, 3581, 3563, 3559, 3548, 3564, 3556, 3506, 3507, 3548, 3549, 3532, 3574, 3545, 3528, 3519, 3552, 3543, 3528, 3548, 3567, 3563, 3536, 3544, 3551, 3588, 3549, 3551, 3583, 3575, 3570, 3570, 3572, 3548, 3556, 3543, 3575, 3564, 3573, 3565, 3568, 3554, 3575, 3595, 3538, 3567, 3546, 3557, 3569, 3602, 3602, 3561, 3568, 3571, 3570, 3612, 3593, 3570, 3590, 3579, 3601, 3561, 3583, 3572, 3574, 3573, 3592, 3570, 3570, 3531, 3522, 3570, 3559, 3566, 3569, 3557, 3581, 3571, 3542, 3490, 3564, 3549, 3561, 3550, 3536, 3548, 3541, 3542, 3556, 3547, 3558, 3533, 3528, 3536, 3527, 3525, 3529, 3551, 3559, 3564, 3561, 3602, 3584, 3558, 3544, 3567, 3542, 3528, 3531, 3524, 3525, 3546, 3555, 3561, 3570, 3559, 3582, 3581, 3584, 3585, 3565, 3547, 3541],
      "WindowCenter": [846.0, 845.0, 845.0, 846.0, 846.0, 846.0, 846.0, 846.0, 847.0, 847.0, 847.0, 847.0, 846.0, 845.0, 845.0, 844.0, 845.0, 844.0, 843.0, 843.0, 842.0, 842.0, 843.0, 844.0, 845.0, 844.0, 844.0, 844.0, 843.0, 843.0, 844.0, 844.0, 843.0, 842.0, 844.0, 843.0, 843.0, 843.0, 843.0, 843.0, 844.0, 843.0, 843.0, 842.0, 842.0, 842.0, 843.0, 845.0, 844.0, 843.0, 843.0, 843.0, 844.0, 844.0, 844.0, 843.0, 843.0, 844.0, 843.0, 844.0, 844.0, 843.0, 844.0, 844.0, 845.0, 845.0, 844.0, 843.0, 843.0, 843.0, 844.0, 844.0, 844.0, 843.0, 843.0, 844.0, 843.0, 843.0, 843.0, 841.0, 841.0, 841.0, 842.0, 844.0, 844.0, 844.0, 844.0, 843.0, 845.0, 844.0, 845.0, 845.0, 845.0, 845.0, 845.0, 845.0, 845.0, 845.0, 844.0, 843.0, 844.0, 845.0, 846.0, 845.0, 844.0, 843.0, 844.0, 844.0, 845.0, 844.0, 844.0, 843.0, 844.0, 844.0, 843.0, 843.0, 843.0, 843.0, 844.0, 845.0, 845.0, 845.0, 845.0, 846.0, 846.0, 845.0, 845.0, 845.0, 844.0, 844.0, 844.0, 844.0, 844.0, 844.0, 844.0, 844.0, 844.0, 845.0, 846.0, 845.0, 845.0, 845.0, 845.0, 845.0, 845.0, 845.0, 845.0, 846.0, 845.0, 844.0, 844.0, 844.0, 844.0, 844.0, 844.0, 844.0, 844.0, 844.0, 843.0, 843.0, 843.0, 844.0, 844.0, 843.0, 843.0, 842.0, 843.0, 844.0, 845.0, 845.0, 843.0, 843.0, 844.0, 845.0, 845.0, 844.0, 843.0, 843.0, 843.0, 843.0, 843.0, 843.0, 844.0, 844.0, 844.0, 845.0, 846.0, 844.0, 843.0, 844.0, 844.0, 844.0, 844.0, 844.0, 845.0, 845.0, 845.0, 846.0, 846.0, 844.0, 842.0, 843.0, 844.0, 845.0, 845.0, 843.0, 843.0, 845.0, 845.0, 846.0, 845.0, 845.0, 843.0, 844.0, 845.0, 845.0, 845.0, 843.0, 843.0, 843.0, 844.0, 844.0, 843.0, 843.0, 845.0, 845.0, 844.0, 844.0, 844.0, 845.0, 845.0, 845.0, 844.0, 844.0, 843.0, 844.0, 845.0, 845.0, 844.0, 843.0, 843.0, 844.0, 846.0, 845.0, 844.0, 844.0, 844.0, 844.0, 844.0, 843.0, 844.0, 844.0, 845.0, 845.0, 845.0, 845.0],
      "WindowWidth": [1819.0, 1815.0, 1815.0, 1816.0, 1817.0, 1817.0, 1818.0, 1818.0, 1820.0, 1820.0, 1819.0, 1822.0, 1819.0, 1815.0, 1816.0, 1813.0, 1814.0, 1813.0, 1812.0, 1809.0, 1807.0, 1809.0, 1812.0, 1813.0, 1815.0, 1813.0, 1814.0, 1812.0, 1811.0, 1811.0, 1813.0, 1814.0, 1811.0, 1809.0, 1812.0, 1811.0, 1811.0, 1812.0, 1811.0, 1812.0, 1812.0, 1812.0, 1812.0, 1808.0, 1807.0, 1808.0, 1812.0, 1818.0, 1812.0, 1811.0, 1810.0, 1813.0, 1813.0, 1814.0, 1812.0, 1811.0, 1811.0, 1813.0, 1812.0, 1813.0, 1813.0, 1813.0, 1813.0, 1815.0, 1816.0, 1815.0, 1813.0, 1813.0, 1810.0, 1811.0, 1814.0, 1814.0, 1813.0, 1811.0, 1812.0, 1813.0, 1812.0, 1812.0, 1812.0, 1805.0, 1806.0, 1804.0, 1809.0, 1814.0, 1814.0, 1813.0, 1813.0, 1810.0, 1815.0, 1813.0, 1815.0, 1816.0, 1815.0, 1816.0, 1815.0, 1816.0, 1815.0, 1815.0, 1814.0, 1812.0, 1814.0, 1817.0, 1817.0, 1815.0, 1812.0, 1811.0, 1813.0, 1814.0, 1815.0, 1813.0, 1813.0, 1812.0, 1813.0, 1813.0, 1811.0, 1810.0, 1810.0, 1811.0, 1814.0, 1816.0, 1816.0, 1815.0, 1816.0, 1818.0, 1818.0, 1816.0, 1816.0, 1815.0, 1814.0, 1813.0, 1813.0, 1813.0, 1813.0, 1814.0, 1815.0, 1813.0, 1814.0, 1817.0, 1818.0, 1816.0, 1815.0, 1816.0, 1816.0, 1816.0, 1815.0, 1815.0, 1817.0, 1819.0, 1817.0, 1814.0, 1814.0, 1814.0, 1813.0, 1813.0, 1814.0, 1814.0, 1815.0, 1814.0, 1812.0, 1811.0, 1812.0, 1813.0, 1813.0, 1812.0, 1810.0, 1810.0, 1812.0, 1815.0, 1815.0, 1815.0, 1812.0, 1811.0, 1813.0, 1815.0, 1815.0, 1813.0, 1811.0, 1810.0, 1811.0, 1811.0, 1810.0, 1812.0, 1814.0, 1813.0, 1815.0, 1816.0, 1818.0, 1813.0, 1810.0, 1813.0, 1814.0, 1815.0, 1813.0, 1814.0, 1815.0, 1816.0, 1816.0, 1818.0, 1818.0, 1813.0, 1808.0, 1809.0, 1813.0, 1815.0, 1814.0, 1811.0, 1811.0, 1815.0, 1817.0, 1818.0, 1817.0, 1816.0, 1811.0, 1813.0, 1815.0, 1817.0, 1815.0, 1812.0, 1811.0, 1812.0, 1814.0, 1813.0, 1811.0, 1812.0, 1816.0, 1817.0, 1814.0, 1813.0, 1814.0, 1816.0, 1816.0, 1815.0, 1814.0, 1812.0, 1811.0, 1814.0, 1816.0, 1816.0, 1813.0, 1811.0, 1810.0, 1813.0, 1818.0, 1816.0, 1814.0, 1813.0, 1813.0, 1813.0, 1812.0, 1811.0, 1811.0, 1812.0, 1814.0, 1815.0, 1814.0, 1815.0]
    },
    "slices": {}
  }
}