{
 "AcquisitionMatrixPE": 100,
 "AcquisitionNumber": 1,
 "AcquisitionTime": "15:25:56.712500",
 "BandwidthPerPixelPhaseEncode": 18.519,
 "BaseResolution": 100,
 "BodyPartExamined": "BRAIN",
 "ConsistencyInfo": "N4_VE11C_LATEST_20160120",
 "ConversionSoftware": "dcm2niix",
 "ConversionSoftwareVersion": "v1.0.20180622 GCC4.9.2",
 "DerivedVendorReportedEchoSpacing": 0.000539986,
 "DeviceSerialNumber": "166078",
 "DwellTime": 2.1e-06,
 "EchoTime": 0.034,
 "EchoTrainLength": 100,
 "EffectiveEchoSpacing": 0.000539986,
 "FlipAngle": 90,
 "ImageOrientationPatientDICOM": [
  1,
  -2.20537e-05,
  -9.6027e-05,
  5.89682e-08,
  0.974761,
  -0.223251
 ],
 "ImageType": [
  "ORIGINAL",
  "PRIMARY",
  "M",
  "ND",
  "MOSAIC"
 ],
 "InPlanePhaseEncodingDirectionDICOM": "COL",
 "InstitutionAddress": "Street_StreetNo_Bei_Jing_District_CN_ZIP",
 "InstitutionName": "BeiJing_Normal_University",
 "InstitutionalDepartmentName": "Department",
 "MRAcquisitionType": "2D",
 "MagneticFieldStrength": 3,
 "Manufacturer": "Siemens",
 "ManufacturersModelName": "Prisma",
 "Modality": "MR",
 "MultibandAccelerationFactor": 3,
 "PartialFourier": 1,
 "PatientPosition": "HFS",
 "PercentPhaseFOV": 100,
 "PhaseEncodingDirection": "j-",
 "PhaseEncodingSteps": 100,
 "PhaseResolution": 1,
 "PixelBandwidth": 2380,
 "ProcedureStepDescription": "BNU_P2018_64CH_Zhen.ZongLei",
 "ProtocolName": "bold_100x100_s3_2x2x2_static_256",
 "PulseSequenceDetails": "%SiemensSeq%_ep2d_bold",
 "ReceiveCoilActiveElements": "HC1-7;NC1",
 "ReceiveCoilName": "HeadNeck_64",
 "ReconMatrixPE": 100,
 "RepetitionTime": 2,
 "SAR": 0.0692818,
 "ScanOptions": "FS",
 "ScanningSequence": "EP",
 "SequenceName": "_epfid2d1_100",
 "SequenceVariant": "SK",
 "SeriesDescription": "bold_100x100_s3_2x2x2_static_256",
 "SeriesNumber": 5,
 "ShimSetting": [
  -5452,
  -11499,
  -1275,
  438,
  -63,
  -222,
  -167,
  16
 ],
 "SliceThickness": 2,
 "SliceTiming": [
  1.485,
  0,
  0.99,
  0.0825,
  1.0725,
  0.165,
  1.155,
  0.2475,
  1.2375,
  0.33,
  1.32,
  0.4125,
  1.4025,
  0.5775,
  1.5675,
  0.66,
  1.65,
  0.7425,
  1.7325,
  0.825,
  1.815,
  0.9075,
  1.8975,
  0.495,
  1.485,
  0,
  0.99,
  0.0825,
  1.0725,
  0.165,
  1.155,
  0.2475,
  1.2375,
  0.33,
  1.32,
  0.4125,
  1.4025,
  0.5775,
  1.5675,
  0.66,
  1.65,
  0.7425,
  1.7325,
  0.825,
  1.815,
  0.9075,
  1.8975,
  0.495,
  1.485,
  0,
  0.99,
  0.0825,
  1.0725,
  0.165,
  1.155,
  0.2475,
  1.2375,
  0.33,
  1.32,
  0.4125,
  1.4025,
  0.5775,
  1.5675,
  0.66,
  1.65,
  0.7425,
  1.7325,
  0.825,
  1.815,
  0.9075,
  1.8975,
  0.495
 ],
 "SoftwareVersions": "syngo_MR_E11",
 "SpacingBetweenSlices": 2,
 "StationName": "AWP166078",
 "TaskName": "imagenet",
 "TotalReadoutTime": 0.0534586,
 "TxRefAmp": 214.03,
 "dcmmeta_affine": [
  [
   -2.0,
   1.1793635934509439e-07,
   -0.00019705374143086374,
   98.65758514404297
  ],
  [
   4.410741530591622e-05,
   1.9495218992233276,
   -0.44650211930274963,
   -77.9476089477539
  ],
  [
   -0.000192053965292871,
   0.44650211930274963,
   1.9495220184326172,
   -104.4168701171875
  ],
  [
   0.0,
   0.0,
   0.0,
   1.0
  ]
 ],
 "dcmmeta_reorient_transform": [
  [
   0.0,
   -1.0,
   0.0,
   99.0
  ],
  [
   1.0,
   0.0,
   0.0,
   0.0
  ],
  [
   0.0,
   0.0,
   1.0,
   0.0
  ],
  [
   0.0,
   0.0,
   0.0,
   1.0
  ]
 ],
 "dcmmeta_shape": [
  100,
  100,
  72,
  256
 ],
 "dcmmeta_slice_dim": 2,
 "dcmmeta_version": 0.6,
 "global": {
  "const": {
   "AcquisitionMatrix": [
    100,
    0,
    0,
    100
   ],
   "AngioFlag": "N",
   "BitsAllocated": 16,
   "BitsStored": 12,
   "BodyPartExamined": "BRAIN",
   "Columns": 900,
   "EchoNumbers": 1,
   "EchoTime": 34.0,
   "EchoTrainLength": 100,
   "FlipAngle": 90.0,
   "HighBit": 11,
   "ImageOrientationPatient": [
    0.99999999514623,
    -2.20537079e-05,
    -9.60269853e-05,
    5.896818e-08,
    0.97476097934362,
    -0.2232510540828
   ],
   "ImagePositionPatient": [
    -898.65764350296,
    -894.8462060153,
    118.46450613998
   ],
   "ImageType": [
    "ORIGINAL",
    "PRIMARY",
    "M",
    "ND",
    "MOSAIC"
   ],
   "ImagedNucleus": "1H",
   "ImagingFrequency": 123.257792,
   "InPlanePhaseEncodingDirection": "COL",
   "MRAcquisitionType": "2D",
   "MagneticFieldStrength": 3.0,
   "Manufacturer": "SIEMENS",
   "ManufacturerModelName": "Prisma",
   "Modality": "MR",
   "NumberOfAverages": 1.0,
   "NumberOfPhaseEncodingSteps": 100,
   "PercentPhaseFieldOfView": 100.0,
   "PercentSampling": 100.0,
   "PerformedProcedureStepStartTime": "150249.728000",
   "PhotometricInterpretation": "MONOCHROME2",
   "PixelBandwidth": 2380.0,
   "PixelRepresentation": 0,
   "PixelSpacing": [
    2.0,
    2.0
   ],
   "ProtocolName": "bold_100x100_s3_2x2x2_static_256",
   "RepetitionTime": 2000.0,
   "Rows": 900,
   "SAR": 0.06928182660357,
   "SamplesPerPixel": 1,
   "ScanOptions": "FS",
   "ScanningSequence": "EP",
   "SequenceName": "*epfid2d1_100",
   "SequenceVariant": "SK",
   "SeriesDescription": "bold_100x100_s3_2x2x2_static_256",
   "SeriesNumber": 5,
   "SeriesTime": "152558.862000",
   "SliceLocation": -84.389322224424,
   "SliceThickness": 2.0,
   "SmallestImagePixelValue": 0,
   "SoftwareVersions": "syngo MR E11",
   "SpacingBetweenSlices": 2.0000000387146,
   "SpecificCharacterSet": "ISO_IR 100",
   "StudyID": "1",
   "StudyTime": "150249.679000",
   "TransmitCoilName": "Body",
   "VariableFlipAngleFlag": "N",
   "WindowCenterWidthExplanation": "Algo1",
   "dBdt": 0.0
  },
  "slices": {}
 },
 "time": {
  "samples": {
   "AcquisitionNumber": [
    1,
    2,
    3,
    4,
    5,
    6,
    7,
    8,
    9,
    10,
    11,
    12,
    13,
    14,
    15,
    16,
    17,
    18,
    19,
    20,
    21,
    22,
    23,
    24,
    25,
    26,
    27,
    28,
    29,
    30,
    31,
    32,
    33,
    34,
    35,
    36,
    37,
    38,
    39,
    40,
    41,
    42,
    43,
    44,
    45,
    46,
    47,
    48,
    49,
    50,
    51,
    52,
    53,
    54,
    55,
    56,
    57,
    58,
    59,
    60,
    61,
    62,
    63,
    64,
    65,
    66,
    67,
    68,
    69,
    70,
    71,
    72,
    73,
    74,
    75,
    76,
    77,
    78,
    79,
    80,
    81,
    82,
    83,
    84,
    85,
    86,
    87,
    88,
    89,
    90,
    91,
    92,
    93,
    94,
    95,
    96,
    97,
    98,
    99,
    100,
    101,
    102,
    103,
    104,
    105,
    106,
    107,
    108,
    109,
    110,
    111,
    112,
    113,
    114,
    115,
    116,
    117,
    118,
    119,
    120,
    121,
    122,
    123,
    124,
    125,
    126,
    127,
    128,
    129,
    130,
    131,
    132,
    133,
    134,
    135,
    136,
    137,
    138,
    139,
    140,
    141,
    142,
    143,
    144,
    145,
    146,
    147,
    148,
    149,
    150,
    151,
    152,
    153,
    154,
    155,
    156,
    157,
    158,
    159,
    160,
    161,
    162,
    163,
    164,
    165,
    166,
    167,
    168,
    169,
    170,
    171,
    172,
    173,
    174,
    175,
    176,
    177,
    178,
    179,
    180,
    181,
    182,
    183,
    184,
    185,
    186,
    187,
    188,
    189,
    190,
    191,
    192,
    193,
    194,
    195,
    196,
    197,
    198,
    199,
    200,
    201,
    202,
    203,
    204,
    205,
    206,
    207,
    208,
    209,
    210,
    211,
    212,
    213,
    214,
    215,
    216,
    217,
    218,
    219,
    220,
    221,
    222,
    223,
    224,
    225,
    226,
    227,
    228,
    229,
    230,
    231,
    232,
    233,
    234,
    235,
    236,
    237,
    238,
    239,
    240,
    241,
    242,
    243,
    244,
    245,
    246,
    247,
    248,
    249,
    250,
    251,
    252,
    253,
    254,
    255,
    256
   ],
   "AcquisitionTime": [
    "152556.712500",
    "152558.712500",
    "152600.712500",
    "152602.712500",
    "152604.712500",
    "152606.712500",
    "152608.712500",
    "152610.712500",
    "152612.712500",
    "152614.712500",
    "152616.712500",
    "152618.712500",
    "152620.712500",
    "152622.712500",
    "152624.712500",
    "152626.712500",
    "152628.712500",
    "152630.712500",
    "152632.712500",
    "152634.712500",
    "152636.712500",
    "152638.712500",
    "152640.712500",
    "152642.712500",
    "152644.712500",
    "152646.712500",
    "152648.712500",
    "152650.712500",
    "152652.712500",
    "152654.712500",
    "152656.712500",
    "152658.712500",
    "152700.712500",
    "152702.712500",
    "152704.712500",
    "152706.712500",
    "152708.712500",
    "152710.712500",
    "152712.712500",
    "152714.712500",
    "152716.712500",
    "152718.712500",
    "152720.712500",
    "152722.712500",
    "152724.712500",
    "152726.712500",
    "152728.712500",
    "152730.712500",
    "152732.712500",
    "152734.712500",
    "152736.712500",
    "152738.712500",
    "152740.712500",
    "152742.712500",
    "152744.712500",
    "152746.712500",
    "152748.712500",
    "152750.712500",
    "152752.712500",
    "152754.712500",
    "152756.712500",
    "152758.712500",
    "152800.712500",
    "152802.712500",
    "152804.712500",
    "152806.712500",
    "152808.712500",
    "152810.712500",
    "152812.712500",
    "152814.712500",
    "152816.712500",
    "152818.712500",
    "152820.712500",
    "152822.712500",
    "152824.712500",
    "152826.712500",
    "152828.712500",
    "152830.712500",
    "152832.712500",
    "152834.712500",
    "152836.712500",
    "152838.712500",
    "152840.712500",
    "152842.712500",
    "152844.712500",
    "152846.712500",
    "152848.712500",
    "152850.712500",
    "152852.712500",
    "152854.712500",
    "152856.712500",
    "152858.712500",
    "152900.712500",
    "152902.712500",
    "152904.712500",
    "152906.712500",
    "152908.712500",
    "152910.712500",
    "152912.712500",
    "152914.712500",
    "152916.712500",
    "152918.712500",
    "152920.712500",
    "152922.712500",
    "152924.712500",
    "152926.712500",
    "152928.712500",
    "152930.712500",
    "152932.712500",
    "152934.712500",
    "152936.712500",
    "152938.712500",
    "152940.712500",
    "152942.712500",
    "152944.712500",
    "152946.712500",
    "152948.712500",
    "152950.712500",
    "152952.712500",
    "152954.712500",
    "152956.712500",
    "152958.712500",
    "153000.712500",
    "153002.712500",
    "153004.712500",
    "153006.712500",
    "153008.712500",
    "153010.712500",
    "153012.712500",
    "153014.712500",
    "153016.712500",
    "153018.712500",
    "153020.712500",
    "153022.712500",
    "153024.712500",
    "153026.712500",
    "153028.712500",
    "153030.712500",
    "153032.712500",
    "153034.712500",
    "153036.712500",
    "153038.712500",
    "153040.712500",
    "153042.712500",
    "153044.712500",
    "153046.712500",
    "153048.712500",
    "153050.712500",
    "153052.712500",
    "153054.712500",
    "153056.712500",
    "153058.712500",
    "153100.712500",
    "153102.712500",
    "153104.712500",
    "153106.712500",
    "153108.712500",
    "153110.712500",
    "153112.712500",
    "153114.712500",
    "153116.712500",
    "153118.712500",
    "153120.712500",
    "153122.712500",
    "153124.712500",
    "153126.712500",
    "153128.712500",
    "153130.712500",
    "153132.712500",
    "153134.712500",
    "153136.712500",
    "153138.712500",
    "153140.712500",
    "153142.712500",
    "153144.712500",
    "153146.712500",
    "153148.712500",
    "153150.712500",
    "153152.712500",
    "153154.712500",
    "153156.712500",
    "153158.712500",
    "153200.712500",
    "153202.712500",
    "153204.712500",
    "153206.712500",
    "153208.712500",
    "153210.712500",
    "153212.712500",
    "153214.712500",
    "153216.712500",
    "153218.712500",
    "153220.712500",
    "153222.712500",
    "153224.712500",
    "153226.712500",
    "153228.712500",
    "153230.712500",
    "153232.712500",
    "153234.712500",
    "153236.712500",
    "153238.712500",
    "153240.712500",
    "153242.712500",
    "153244.712500",
    "153246.712500",
    "153248.712500",
    "153250.712500",
    "153252.712500",
    "153254.712500",
    "153256.712500",
    "153258.712500",
    "153300.712500",
    "153302.712500",
    "153304.712500",
    "153306.712500",
    "153308.712500",
    "153310.712500",
    "153312.712500",
    "153314.712500",
    "153316.712500",
    "153318.712500",
    "153320.712500",
    "153322.712500",
    "153324.712500",
    "153326.712500",
    "153328.712500",
    "153330.712500",
    "153332.712500",
    "153334.712500",
    "153336.712500",
    "153338.712500",
    "153340.712500",
    "153342.712500",
    "153344.712500",
    "153346.712500",
    "153348.712500",
    "153350.712500",
    "153352.712500",
    "153354.712500",
    "153356.712500",
    "153358.712500",
    "153400.712500",
    "153402.712500",
    "153404.712500",
    "153406.712500",
    "153408.712500",
    "153410.712500",
    "153412.712500",
    "153414.712500",
    "153416.712500",
    "153418.712500",
    "153420.712500",
    "153422.712500",
    "153424.712500",
    "153426.712500"
   ],
   "ContentTime": [
    "152558.865000",
    "152600.360000",
    "152602.360000",
    "152604.359000",
    "152606.359000",
    "152608.359000",
    "152610.360000",
    "152612.360000",
    "152614.360000",
    "152616.361000",
    "152618.360000",
    "152620.360000",
    "152622.359000",
    "152624.359000",
    "152626.360000",
    "152628.360000",
    "152630.359000",
    "152632.361000",
    "152634.361000",
    "152636.360000",
    "152638.360000",
    "152640.359000",
    "152642.360000",
    "152644.359000",
    "152646.360000",
    "152648.361000",
    "152650.360000",
    "152652.360000",
    "152654.360000",
    "152656.360000",
    "152658.359000",
    "152700.359000",
    "152702.359000",
    "152704.359000",
    "152706.361000",
    "152708.360000",
    "152710.361000",
    "152712.360000",
    "152714.360000",
    "152716.360000",
    "152718.360000",
    "152720.360000",
    "152722.359000",
    "152724.360000",
    "152726.360000",
    "152728.360000",
    "152730.361000",
    "152732.360000",
    "152734.359000",
    "152736.359000",
    "152738.359000",
    "152740.360000",
    "152742.361000",
    "152744.360000",
    "152746.360000",
    "152748.359000",
    "152750.359000",
    "152752.359000",
    "152754.359000",
    "152756.359000",
    "152758.360000",
    "152800.361000",
    "152802.360000",
    "152804.360000",
    "152806.360000",
    "152808.360000",
    "152810.360000",
    "152812.359000",
    "152814.359000",
    "152816.360000",
    "152818.360000",
    "152820.360000",
    "152822.361000",
    "152824.359000",
    "152826.360000",
    "152828.360000",
    "152830.359000",
    "152832.360000",
    "152834.361000",
    "152836.361000",
    "152838.361000",
    "152840.361000",
    "152842.359000",
    "152844.360000",
    "152846.360000",
    "152848.359000",
    "152850.360000",
    "152852.361000",
    "152854.361000",
    "152856.361000",
    "152858.360000",
    "152900.360000",
    "152902.359000",
    "152904.359000",
    "152906.359000",
    "152908.361000",
    "152910.360000",
    "152912.360000",
    "152914.360000",
    "152916.360000",
    "152918.359000",
    "152920.360000",
    "152922.360000",
    "152924.360000",
    "152926.360000",
    "152928.360000",
    "152930.360000",
    "152932.360000",
    "152934.360000",
    "152936.359000",
    "152938.359000",
    "152940.360000",
    "152942.359000",
    "152944.361000",
    "152946.361000",
    "152948.361000",
    "152950.360000",
    "152952.360000",
    "152954.360000",
    "152956.360000",
    "152958.360000",
    "153000.360000",
    "153002.361000",
    "153004.361000",
    "153006.361000",
    "153008.359000",
    "153010.359000",
    "153012.360000",
    "153014.359000",
    "153016.360000",
    "153018.361000",
    "153020.360000",
    "153022.361000",
    "153024.361000",
    "153026.359000",
    "153028.359000",
    "153030.359000",
    "153032.359000",
    "153034.359000",
    "153036.361000",
    "153038.360000",
    "153040.361000",
    "153042.361000",
    "153044.359000",
    "153046.359000",
    "153048.359000",
    "153050.359000",
    "153052.360000",
    "153054.361000",
    "153056.360000",
    "153058.360000",
    "153100.361000",
    "153102.360000",
    "153104.360000",
    "153106.359000",
    "153108.359000",
    "153110.359000",
    "153112.361000",
    "153114.361000",
    "153116.361000",
    "153118.359000",
    "153120.360000",
    "153122.359000",
    "153124.360000",
    "153126.360000",
    "153128.361000",
    "153130.360000",
    "153132.361000",
    "153134.361000",
    "153136.360000",
    "153138.360000",
    "153140.360000",
    "153142.359000",
    "153144.360000",
    "153146.360000",
    "153148.361000",
    "153150.361000",
    "153152.360000",
    "153154.360000",
    "153156.359000",
    "153158.359000",
    "153200.360000",
    "153202.359000",
    "153204.361000",
    "153206.361000",
    "153208.361000",
    "153210.360000",
    "153212.360000",
    "153214.360000",
    "153216.360000",
    "153218.359000",
    "153220.360000",
    "153222.361000",
    "153224.361000",
    "153226.361000",
    "153228.360000",
    "153230.360000",
    "153232.359000",
    "153234.359000",
    "153236.359000",
    "153238.360000",
    "153240.361000",
    "153242.361000",
    "153244.361000",
    "153246.360000",
    "153248.359000",
    "153250.360000",
    "153252.360000",
    "153254.360000",
    "153256.370000",
    "153258.360000",
    "153300.361000",
    "153302.361000",
    "153304.360000",
    "153306.360000",
    "153308.360000",
    "153310.360000",
    "153312.360000",
    "153314.361000",
    "153316.361000",
    "153318.360000",
    "153320.361000",
    "153322.360000",
    "153324.359000",
    "153326.360000",
    "153328.360000",
    "153330.359000",
    "153332.360000",
    "153334.361000",
    "153336.361000",
    "153338.360000",
    "153340.360000",
    "153342.360000",
    "153344.360000",
    "153346.360000",
    "153348.361000",
    "153350.361000",
    "153352.361000",
    "153354.361000",
    "153356.360000",
    "153358.360000",
    "153400.360000",
    "153402.360000",
    "153404.359000",
    "153406.360000",
    "153408.360000",
    "153410.361000",
    "153412.360000",
    "153414.359000",
    "153416.359000",
    "153418.359000",
    "153420.360000",
    "153422.359000",
    "153424.360000",
    "153426.361000",
    "153428.024000"
   ],
   "InstanceCreationTime": [
    "152558.865000",
    "152600.360000",
    "152602.360000",
    "152604.359000",
    "152606.359000",
    "152608.359000",
    "152610.360000",
    "152612.360000",
    "152614.360000",
    "152616.361000",
    "152618.360000",
    "152620.360000",
    "152622.359000",
    "152624.359000",
    "152626.360000",
    "152628.360000",
    "152630.359000",
    "152632.361000",
    "152634.361000",
    "152636.360000",
    "152638.360000",
    "152640.359000",
    "152642.360000",
    "152644.359000",
    "152646.360000",
    "152648.361000",
    "152650.360000",
    "152652.360000",
    "152654.360000",
    "152656.360000",
    "152658.359000",
    "152700.359000",
    "152702.359000",
    "152704.359000",
    "152706.361000",
    "152708.360000",
    "152710.361000",
    "152712.360000",
    "152714.360000",
    "152716.360000",
    "152718.360000",
    "152720.360000",
    "152722.359000",
    "152724.360000",
    "152726.360000",
    "152728.360000",
    "152730.361000",
    "152732.360000",
    "152734.359000",
    "152736.359000",
    "152738.359000",
    "152740.360000",
    "152742.361000",
    "152744.360000",
    "152746.360000",
    "152748.359000",
    "152750.359000",
    "152752.359000",
    "152754.359000",
    "152756.359000",
    "152758.360000",
    "152800.361000",
    "152802.360000",
    "152804.360000",
    "152806.360000",
    "152808.360000",
    "152810.360000",
    "152812.359000",
    "152814.359000",
    "152816.360000",
    "152818.360000",
    "152820.360000",
    "152822.361000",
    "152824.359000",
    "152826.360000",
    "152828.360000",
    "152830.359000",
    "152832.360000",
    "152834.361000",
    "152836.361000",
    "152838.361000",
    "152840.361000",
    "152842.359000",
    "152844.360000",
    "152846.360000",
    "152848.359000",
    "152850.360000",
    "152852.361000",
    "152854.361000",
    "152856.361000",
    "152858.360000",
    "152900.360000",
    "152902.359000",
    "152904.359000",
    "152906.359000",
    "152908.361000",
    "152910.360000",
    "152912.360000",
    "152914.360000",
    "152916.360000",
    "152918.359000",
    "152920.360000",
    "152922.360000",
    "152924.360000",
    "152926.360000",
    "152928.360000",
    "152930.360000",
    "152932.360000",
    "152934.360000",
    "152936.359000",
    "152938.359000",
    "152940.360000",
    "152942.359000",
    "152944.361000",
    "152946.361000",
    "152948.361000",
    "152950.360000",
    "152952.360000",
    "152954.360000",
    "152956.360000",
    "152958.360000",
    "153000.360000",
    "153002.361000",
    "153004.361000",
    "153006.361000",
    "153008.359000",
    "153010.359000",
    "153012.360000",
    "153014.359000",
    "153016.360000",
    "153018.361000",
    "153020.360000",
    "153022.361000",
    "153024.361000",
    "153026.359000",
    "153028.359000",
    "153030.359000",
    "153032.359000",
    "153034.359000",
    "153036.361000",
    "153038.360000",
    "153040.361000",
    "153042.361000",
    "153044.359000",
    "153046.359000",
    "153048.359000",
    "153050.359000",
    "153052.360000",
    "153054.361000",
    "153056.360000",
    "153058.360000",
    "153100.361000",
    "153102.360000",
    "153104.360000",
    "153106.359000",
    "153108.359000",
    "153110.359000",
    "153112.361000",
    "153114.361000",
    "153116.361000",
    "153118.359000",
    "153120.360000",
    "153122.359000",
    "153124.360000",
    "153126.360000",
    "153128.361000",
    "153130.360000",
    "153132.361000",
    "153134.361000",
    "153136.360000",
    "153138.360000",
    "153140.360000",
    "153142.359000",
    "153144.360000",
    "153146.360000",
    "153148.361000",
    "153150.361000",
    "153152.360000",
    "153154.360000",
    "153156.359000",
    "153158.359000",
    "153200.360000",
    "153202.359000",
    "153204.361000",
    "153206.361000",
    "153208.361000",
    "153210.360000",
    "153212.360000",
    "153214.360000",
    "153216.360000",
    "153218.359000",
    "153220.360000",
    "153222.361000",
    "153224.361000",
    "153226.361000",
    "153228.360000",
    "153230.360000",
    "153232.359000",
    "153234.359000",
    "153236.359000",
    "153238.360000",
    "153240.361000",
    "153242.361000",
    "153244.361000",
    "153246.360000",
    "153248.359000",
    "153250.360000",
    "153252.360000",
    "153254.360000",
    "153256.370000",
    "153258.360000",
    "153300.361000",
    "153302.361000",
    "153304.360000",
    "153306.360000",
    "153308.360000",
    "153310.360000",
    "153312.360000",
    "153314.361000",
    "153316.361000",
    "153318.360000",
    "153320.361000",
    "153322.360000",
    "153324.359000",
    "153326.360000",
    "153328.360000",
    "153330.359000",
    "153332.360000",
    "153334.361000",
    "153336.361000",
    "153338.360000",
    "153340.360000",
    "153342.360000",
    "153344.360000",
    "153346.360000",
    "153348.361000",
    "153350.361000",
    "153352.361000",
    "153354.361000",
    "153356.360000",
    "153358.360000",
    "153400.360000",
    "153402.360000",
    "153404.359000",
    "153406.360000",
    "153408.360000",
    "153410.361000",
    "153412.360000",
    "153414.359000",
    "153416.359000",
    "153418.359000",
    "153420.360000",
    "153422.359000",
    "153424.360000",
    "153426.361000",
    "153428.024000"
   ],
   "InstanceNumber": [
    1,
    2,
    3,
    4,
    5,
    6,
    7,
    8,
    9,
    10,
    11,
    12,
    13,
    14,
    15,
    16,
    17,
    18,
    19,
    20,
    21,
    22,
    23,
    24,
    25,
    26,
    27,
    28,
    29,
    30,
    31,
    32,
    33,
    34,
    35,
    36,
    37,
    38,
    39,
    40,
    41,
    42,
    43,
    44,
    45,
    46,
    47,
    48,
    49,
    50,
    51,
    52,
    53,
    54,
    55,
    56,
    57,
    58,
    59,
    60,
    61,
    62,
    63,
    64,
    65,
    66,
    67,
    68,
    69,
    70,
    71,
    72,
    73,
    74,
    75,
    76,
    77,
    78,
    79,
    80,
    81,
    82,
    83,
    84,
    85,
    86,
    87,
    88,
    89,
    90,
    91,
    92,
    93,
    94,
    95,
    96,
    97,
    98,
    99,
    100,
    101,
    102,
    103,
    104,
    105,
    106,
    107,
    108,
    109,
    110,
    111,
    112,
    113,
    114,
    115,
    116,
    117,
    118,
    119,
    120,
    121,
    122,
    123,
    124,
    125,
    126,
    127,
    128,
    129,
    130,
    131,
    132,
    133,
    134,
    135,
    136,
    137,
    138,
    139,
    140,
    141,
    142,
    143,
    144,
    145,
    146,
    147,
    148,
    149,
    150,
    151,
    152,
    153,
    154,
    155,
    156,
    157,
    158,
    159,
    160,
    161,
    162,
    163,
    164,
    165,
    166,
    167,
    168,
    169,
    170,
    171,
    172,
    173,
    174,
    175,
    176,
    177,
    178,
    179,
    180,
    181,
    182,
    183,
    184,
    185,
    186,
    187,
    188,
    189,
    190,
    191,
    192,
    193,
    194,
    195,
    196,
    197,
    198,
    199,
    200,
    201,
    202,
    203,
    204,
    205,
    206,
    207,
    208,
    209,
    210,
    211,
    212,
    213,
    214,
    215,
    216,
    217,
    218,
    219,
    220,
    221,
    222,
    223,
    224,
    225,
    226,
    227,
    228,
    229,
    230,
    231,
    232,
    233,
    234,
    235,
    236,
    237,
    238,
    239,
    240,
    241,
    242,
    243,
    244,
    245,
    246,
    247,
    248,
    249,
    250,
    251,
    252,
    253,
    254,
    255,
    256
   ],
   "LargestImagePixelValue": [
    2803,
    2698,
    2675,
    2689,
    2713,
    2765,
    2697,
    2702,
    2733,
    2724,
    2662,
    2665,
    2692,
    2679,
    2702,
    2710,
    2683,
    2671,
    2665,
    2664,
    2652,
    2679,
    2683,
    2722,
    2740,
    2725,
    2729,
    2680,
    2684,
    2694,
    2697,
    2696,
    2682,
    2727,
    2731,
    2719,
    2696,
    2687,
    2706,
    2714,
    2701,
    2705,
    2731,
    2705,
    2699,
    2724,
    2742,
    2760,
    2727,
    2729,
    2717,
    2679,
    2704,
    2722,
    2695,
    2717,
    2810,
    2704,
    2698,
    2686,
    2733,
    2745,
    2695,
    2723,
    2727,
    2727,
    2755,
    2700,
    2678,
    2705,
    2746,
    2755,
    2748,
    2706,
    2679,
    2722,
    2688,
    2692,
    2705,
    2686,
    2724,
    2726,
    2714,
    2700,
    2710,
    2710,
    2716,
    2735,
    2778,
    2714,
    2723,
    2711,
    2720,
    2864,
    2753,
    2952,
    2747,
    2747,
    2737,
    2750,
    2735,
    2701,
    2682,
    2700,
    2678,
    2668,
    2696,
    2679,
    2666,
    2918,
    2704,
    3236,
    2723,
    2836,
    2732,
    2712,
    2722,
    3012,
    2725,
    2742,
    2724,
    3252,
    2690,
    3241,
    2723,
    2720,
    2736,
    2720,
    2676,
    2692,
    2726,
    2795,
    2762,
    2750,
    2742,
    2743,
    2755,
    2745,
    2755,
    2762,
    2739,
    2746,
    2742,
    2775,
    2763,
    2741,
    2772,
    2735,
    2735,
    2710,
    2735,
    2765,
    2753,
    2714,
    2752,
    2771,
    2756,
    2758,
    2752,
    2751,
    2772,
    2780,
    2728,
    2747,
    2720,
    2732,
    2757,
    2725,
    2698,
    2712,
    2721,
    2692,
    2697,
    2662,
    2670,
    2706,
    2700,
    2686,
    2683,
    2688,
    2665,
    2746,
    2715,
    2678,
    2701,
    2698,
    2679,
    2669,
    2686,
    2679,
    2677,
    2692,
    2682,
    2690,
    2694,
    2686,
    2692,
    2705,
    2685,
    2671,
    2668,
    2713,
    2714,
    2673,
    2707,
    2717,
    2689,
    2667,
    2659,
    2653,
    2821,
    2684,
    2685,
    2711,
    2777,
    2676,
    2686,
    2735,
    2721,
    2683,
    2716,
    3091,
    2630,
    2659,
    2722,
    2672,
    2676,
    2672,
    2715,
    2718,
    2711,
    2689,
    2687,
    2671,
    2666,
    2719,
    2728,
    2720,
    2730,
    2737,
    2721,
    2742,
    2772,
    2708,
    2658,
    2689,
    2716,
    2685,
    2684,
    2682,
    2671,
    2700,
    2687,
    2692,
    2676,
    2710
   ],
   "WindowCenter": [
    753.0,
    751.0,
    751.0,
    750.0,
    750.0,
    750.0,
    750.0,
    749.0,
    750.0,
    750.0,
    750.0,
    750.0,
    750.0,
    749.0,
    749.0,
    749.0,
    750.0,
    751.0,
    751.0,
    750.0,
    749.0,
    750.0,
    750.0,
    754.0,
    755.0,
    753.0,
    751.0,
    750.0,
    751.0,
    752.0,
    752.0,
    752.0,
    751.0,
    752.0,
    752.0,
    751.0,
    751.0,
    751.0,
    751.0,
    751.0,
    751.0,
    753.0,
    753.0,
    752.0,
    751.0,
    752.0,
    753.0,
    753.0,
    753.0,
    753.0,
    753.0,
    752.0,
    754.0,
    754.0,
    753.0,
    751.0,
    751.0,
    749.0,
    750.0,
    750.0,
    751.0,
    750.0,
    750.0,
    751.0,
    751.0,
    751.0,
    753.0,
    753.0,
    753.0,
    752.0,
    754.0,
    754.0,
    754.0,
    753.0,
    752.0,
    752.0,
    750.0,
    751.0,
    751.0,
    751.0,
    752.0,
    753.0,
    753.0,
    753.0,
    753.0,
    753.0,
    754.0,
    754.0,
    754.0,
    753.0,
    753.0,
    753.0,
    752.0,
    754.0,
    753.0,
    756.0,
    754.0,
    753.0,
    755.0,
    756.0,
    755.0,
    754.0,
    753.0,
    752.0,
    751.0,
    751.0,
    751.0,
    751.0,
    750.0,
    753.0,
    751.0,
