{
 "AcquisitionMatrixPE": 100,
 "AcquisitionNumber": 1,
 "AcquisitionTime": "13:25:52.350000",
 "BandwidthPerPixelPhaseEncode": 18.519,
 "BaseResolution": 100,
 "BodyPartExamined": "BRAIN",
 "ConsistencyInfo": "N4_VE11C_LATEST_20160120",
 "ConversionSoftware": "dcm2niix",
 "ConversionSoftwareVersion": "v1.0.20180622 GCC4.9.2",
 "DerivedVendorReportedEchoSpacing": 0.000539986,
 "DeviceSerialNumber": "166078",
 "DwellTime": 2.1e-06,
 "EchoTime": 0.034,
 "EchoTrainLength": 100,
 "EffectiveEchoSpacing": 0.000539986,
 "FlipAngle": 90,
 "ImageOrientationPatientDICOM": [
  1,
  -0.000158747,
  -0.000795365,
  -3.68357e-08,
  0.980649,
  -0.195774
 ],
 "ImageType": [
  "ORIGINAL",
  "PRIMARY",
  "M",
  "ND",
  "MOSAIC"
 ],
 "InPlanePhaseEncodingDirectionDICOM": "COL",
 "InstitutionAddress": "Street_StreetNo_Bei_Jing_District_CN_ZIP",
 "InstitutionName": "BeiJing_Normal_University",
 "InstitutionalDepartmentName": "Department",
 "MRAcquisitionType": "2D",
 "MagneticFieldStrength": 3,
 "Manufacturer": "Siemens",
 "ManufacturersModelName": "Prisma",
 "Modality": "MR",
 "MultibandAccelerationFactor": 3,
 "PartialFourier": 1,
 "PatientPosition": "HFS",
 "PercentPhaseFOV": 100,
 "PhaseEncodingDirection": "j-",
 "PhaseEncodingSteps": 100,
 "PhaseResolution": 1,
 "PixelBandwidth": 2380,
 "ProcedureStepDescription": "BNU_P2018_64CH_Zhen.ZongLei",
 "ProtocolName": "bold_100x100_s3_2x2x2_static_test_241",
 "PulseSequenceDetails": "%SiemensSeq%_ep2d_bold",
 "ReceiveCoilActiveElements": "HC1-7;NC1",
 "ReceiveCoilName": "HeadNeck_64",
 "ReconMatrixPE": 100,
 "RepetitionTime": 2,
 "SAR": 0.0772336,
 "ScanOptions": "FS",
 "ScanningSequence": "EP",
 "SequenceName": "_epfid2d1_100",
 "SequenceVariant": "SK",
 "SeriesDescription": "bold_100x100_s3_2x2x2_static_test_241",
 "SeriesNumber": 6,
 "ShimSetting": [
  -5456,
  -11488,
  -1248,
  388,
  -33,
  -219,
  -155,
  57
 ],
 "SliceThickness": 2,
 "SliceTiming": [
  1.485,
  0,
  0.99,
  0.0825,
  1.0725,
  0.165,
  1.155,
  0.2475,
  1.2375,
  0.33,
  1.32,
  0.4125,
  1.4025,
  0.5775,
  1.5675,
  0.66,
  1.65,
  0.7425,
  1.7325,
  0.825,
  1.815,
  0.9075,
  1.8975,
  0.495,
  1.485,
  0,
  0.99,
  0.0825,
  1.0725,
  0.165,
  1.155,
  0.2475,
  1.2375,
  0.33,
  1.32,
  0.4125,
  1.4025,
  0.5775,
  1.5675,
  0.66,
  1.65,
  0.7425,
  1.7325,
  0.825,
  1.815,
  0.9075,
  1.8975,
  0.495,
  1.485,
  0,
  0.99,
  0.0825,
  1.0725,
  0.165,
  1.155,
  0.2475,
  1.2375,
  0.33,
  1.32,
  0.4125,
  1.4025,
  0.5775,
  1.5675,
  0.66,
  1.65,
  0.7425,
  1.7325,
  0.825,
  1.815,
  0.9075,
  1.8975,
  0.495
 ],
 "SoftwareVersions": "syngo_MR_E11",
 "SpacingBetweenSlices": 2,
 "StationName": "AWP166078",
 "TaskName": "coco",
 "TotalReadoutTime": 0.0534586,
 "TxRefAmp": 222.948,
 "dcmmeta_affine": [
  [
   -1.9999992847442627,
   -7.367145116177198e-08,
   -0.0016221044352278113,
   100.8614501953125
  ],
  [
   0.0003174941521137953,
   1.9612979888916016,
   -0.3915485441684723,
   -84.0661392211914
  ],
  [
   -0.001590729458257556,
   0.39154866337776184,
   1.9612972736358643,
   -78.90291595458984
  ],
  [
   0.0,
   0.0,
   0.0,
   1.0
  ]
 ],
 "dcmmeta_reorient_transform": [
  [
   0.0,
   -1.0,
   0.0,
   99.0
  ],
  [
   1.0,
   0.0,
   0.0,
   0.0
  ],
  [
   0.0,
   0.0,
   1.0,
   0.0
  ],
  [
   0.0,
   0.0,
   0.0,
   1.0
  ]
 ],
 "dcmmeta_shape": [
  100,
  100,
  72,
  241
 ],
 "dcmmeta_slice_dim": 2,
 "dcmmeta_version": 0.6,
 "global": {
  "const": {
   "AcquisitionMatrix": [
    100,
    0,
    0,
    100
   ],
   "AngioFlag": "N",
   "BitsAllocated": 16,
   "BitsStored": 12,
   "BodyPartExamined": "BRAIN",
   "Columns": 900,
   "EchoNumbers": 1,
   "EchoTime": 34.0,
   "EchoTrainLength": 100,
   "FlipAngle": 90.0,
   "HighBit": 11,
   "ImageOrientationPatient": [
    0.9999996710971,
    -0.0001587470798,
    -0.0007953647299,
    -3.6835727e-08,
    0.98064897486101,
    -0.1957743295329
   ],
   "ImagePositionPatient": [
    -900.86115005801,
    -894.49454114663,
    117.11615882699
   ],
   "ImageType": [
    "ORIGINAL",
    "PRIMARY",
    "M",
    "ND",
    "MOSAIC"
   ],
   "ImagedNucleus": "1H",
   "ImagingFrequency": 123.257731,
   "InPlanePhaseEncodingDirection": "COL",
   "MRAcquisitionType": "2D",
   "MagneticFieldStrength": 3.0,
   "Manufacturer": "SIEMENS",
   "ManufacturerModelName": "Prisma",
   "Modality": "MR",
   "NumberOfAverages": 1.0,
   "NumberOfPhaseEncodingSteps": 100,
   "PercentPhaseFieldOfView": 100.0,
   "PercentSampling": 100.0,
   "PerformedProcedureStepStartTime": "125038.673000",
   "PhotometricInterpretation": "MONOCHROME2",
   "PixelBandwidth": 2380.0,
   "PixelRepresentation": 0,
   "PixelSpacing": [
    2.0,
    2.0
   ],
   "ProtocolName": "bold_100x100_s3_2x2x2_static_test_241",
   "RepetitionTime": 2000.0,
   "Rows": 900,
   "SAR": 0.077233633302,
   "SamplesPerPixel": 1,
   "ScanOptions": "FS",
   "ScanningSequence": "EP",
   "SequenceName": "*epfid2d1_100",
   "SequenceVariant": "SK",
   "SeriesDescription": "bold_100x100_s3_2x2x2_static_test_241",
   "SeriesNumber": 6,
   "SeriesTime": "132554.797000",
   "SliceLocation": -60.999853601399,
   "SliceThickness": 2.0,
   "SmallestImagePixelValue": 0,
   "SoftwareVersions": "syngo MR E11",
   "SpacingBetweenSlices": 2.0000000129148,
   "SpecificCharacterSet": "ISO_IR 100",
   "StudyID": "1",
   "StudyTime": "125038.603000",
   "TransmitCoilName": "Body",
   "VariableFlipAngleFlag": "N",
   "WindowCenterWidthExplanation": "Algo1",
   "dBdt": 0.0
  },
  "slices": {}
 },
 "time": {
  "samples": {
   "AcquisitionNumber": [
    1,
    2,
    3,
    4,
    5,
    6,
    7,
    8,
    9,
    10,
    11,
    12,
    13,
    14,
    15,
    16,
    17,
    18,
    19,
    20,
    21,
    22,
    23,
    24,
    25,
    26,
    27,
    28,
    29,
    30,
    31,
    32,
    33,
    34,
    35,
    36,
    37,
    38,
    39,
    40,
    41,
    42,
    43,
    44,
    45,
    46,
    47,
    48,
    49,
    50,
    51,
    52,
    53,
    54,
    55,
    56,
    57,
    58,
    59,
    60,
    61,
    62,
    63,
    64,
    65,
    66,
    67,
    68,
    69,
    70,
    71,
    72,
    73,
    74,
    75,
    76,
    77,
    78,
    79,
    80,
    81,
    82,
    83,
    84,
    85,
    86,
    87,
    88,
    89,
    90,
    91,
    92,
    93,
    94,
    95,
    96,
    97,
    98,
    99,
    100,
    101,
    102,
    103,
    104,
    105,
    106,
    107,
    108,
    109,
    110,
    111,
    112,
    113,
    114,
    115,
    116,
    117,
    118,
    119,
    120,
    121,
    122,
    123,
    124,
    125,
    126,
    127,
    128,
    129,
    130,
    131,
    132,
    133,
    134,
    135,
    136,
    137,
    138,
    139,
    140,
    141,
    142,
    143,
    144,
    145,
    146,
    147,
    148,
    149,
    150,
    151,
    152,
    153,
    154,
    155,
    156,
    157,
    158,
    159,
    160,
    161,
    162,
    163,
    164,
    165,
    166,
    167,
    168,
    169,
    170,
    171,
    172,
    173,
    174,
    175,
    176,
    177,
    178,
    179,
    180,
    181,
    182,
    183,
    184,
    185,
    186,
    187,
    188,
    189,
    190,
    191,
    192,
    193,
    194,
    195,
    196,
    197,
    198,
    199,
    200,
    201,
    202,
    203,
    204,
    205,
    206,
    207,
    208,
    209,
    210,
    211,
    212,
    213,
    214,
    215,
    216,
    217,
    218,
    219,
    220,
    221,
    222,
    223,
    224,
    225,
    226,
    227,
    228,
    229,
    230,
    231,
    232,
    233,
    234,
    235,
    236,
    237,
    238,
    239,
    240,
    241
   ],
   "AcquisitionTime": [
    "132552.350000",
    "132554.350000",
    "132556.350000",
    "132558.350000",
    "132600.350000",
    "132602.350000",
    "132604.350000",
    "132606.350000",
    "132608.350000",
    "132610.350000",
    "132612.350000",
    "132614.350000",
    "132616.350000",
    "132618.350000",
    "132620.350000",
    "132622.350000",
    "132624.350000",
    "132626.350000",
    "132628.350000",
    "132630.350000",
    "132632.350000",
    "132634.350000",
    "132636.350000",
    "132638.350000",
    "132640.350000",
    "132642.350000",
    "132644.350000",
    "132646.350000",
    "132648.350000",
    "132650.350000",
    "132652.350000",
    "132654.350000",
    "132656.350000",
    "132658.350000",
    "132700.350000",
    "132702.350000",
    "132704.350000",
    "132706.350000",
    "132708.350000",
    "132710.350000",
    "132712.350000",
    "132714.350000",
    "132716.350000",
    "132718.350000",
    "132720.350000",
    "132722.350000",
    "132724.350000",
    "132726.350000",
    "132728.350000",
    "132730.350000",
    "132732.350000",
    "132734.350000",
    "132736.350000",
    "132738.350000",
    "132740.350000",
    "132742.350000",
    "132744.350000",
    "132746.350000",
    "132748.350000",
    "132750.350000",
    "132752.350000",
    "132754.350000",
    "132756.350000",
    "132758.350000",
    "132800.350000",
    "132802.350000",
    "132804.350000",
    "132806.350000",
    "132808.350000",
    "132810.350000",
    "132812.350000",
    "132814.350000",
    "132816.350000",
    "132818.350000",
    "132820.350000",
    "132822.350000",
    "132824.350000",
    "132826.350000",
    "132828.350000",
    "132830.350000",
    "132832.350000",
    "132834.350000",
    "132836.350000",
    "132838.350000",
    "132840.350000",
    "132842.350000",
    "132844.350000",
    "132846.350000",
    "132848.350000",
    "132850.350000",
    "132852.350000",
    "132854.350000",
    "132856.350000",
    "132858.350000",
    "132900.350000",
    "132902.350000",
    "132904.350000",
    "132906.350000",
    "132908.350000",
    "132910.350000",
    "132912.350000",
    "132914.350000",
    "132916.350000",
    "132918.350000",
    "132920.350000",
    "132922.350000",
    "132924.350000",
    "132926.350000",
    "132928.350000",
    "132930.350000",
    "132932.350000",
    "132934.350000",
    "132936.350000",
    "132938.350000",
    "132940.350000",
    "132942.350000",
    "132944.350000",
    "132946.350000",
    "132948.350000",
    "132950.350000",
    "132952.350000",
    "132954.350000",
    "132956.350000",
    "132958.350000",
    "133000.350000",
    "133002.350000",
    "133004.350000",
    "133006.350000",
    "133008.350000",
    "133010.350000",
    "133012.350000",
    "133014.350000",
    "133016.350000",
    "133018.350000",
    "133020.350000",
    "133022.350000",
    "133024.350000",
    "133026.350000",
    "133028.350000",
    "133030.350000",
    "133032.350000",
    "133034.350000",
    "133036.350000",
    "133038.350000",
    "133040.350000",
    "133042.350000",
    "133044.350000",
    "133046.350000",
    "133048.350000",
    "133050.350000",
    "133052.350000",
    "133054.350000",
    "133056.350000",
    "133058.350000",
    "133100.350000",
    "133102.350000",
    "133104.350000",
    "133106.350000",
    "133108.350000",
    "133110.350000",
    "133112.350000",
    "133114.350000",
    "133116.350000",
    "133118.350000",
    "133120.350000",
    "133122.350000",
    "133124.350000",
    "133126.350000",
    "133128.350000",
    "133130.350000",
    "133132.350000",
    "133134.350000",
    "133136.350000",
    "133138.350000",
    "133140.350000",
    "133142.350000",
    "133144.350000",
    "133146.350000",
    "133148.350000",
    "133150.350000",
    "133152.350000",
    "133154.350000",
    "133156.350000",
    "133158.350000",
    "133200.350000",
    "133202.350000",
    "133204.350000",
    "133206.350000",
    "133208.350000",
    "133210.350000",
    "133212.350000",
    "133214.350000",
    "133216.350000",
    "133218.350000",
    "133220.350000",
    "133222.350000",
    "133224.350000",
    "133226.350000",
    "133228.350000",
    "133230.350000",
    "133232.350000",
    "133234.350000",
    "133236.350000",
    "133238.350000",
    "133240.350000",
    "133242.350000",
    "133244.350000",
    "133246.350000",
    "133248.350000",
    "133250.350000",
    "133252.350000",
    "133254.350000",
    "133256.350000",
    "133258.350000",
    "133300.350000",
    "133302.350000",
    "133304.350000",
    "133306.350000",
    "133308.350000",
    "133310.350000",
    "133312.350000",
    "133314.350000",
    "133316.350000",
    "133318.350000",
    "133320.350000",
    "133322.350000",
    "133324.350000",
    "133326.350000",
    "133328.350000",
    "133330.350000",
    "133332.350000",
    "133334.350000",
    "133336.350000",
    "133338.350000",
    "133340.350000",
    "133342.350000",
    "133344.350000",
    "133346.350000",
    "133348.350000",
    "133350.350000",
    "133352.350000"
   ],
   "ContentTime": [
    "132554.800000",
    "132556.296000",
    "132558.296000",
    "132600.294000",
    "132602.295000",
    "132604.294000",
    "132606.296000",
    "132608.296000",
    "132610.295000",
    "132612.296000",
    "132614.295000",
    "132616.294000",
    "132618.294000",
    "132620.295000",
    "132622.294000",
    "132624.295000",
    "132626.295000",
    "132628.295000",
    "132630.295000",
    "132632.296000",
    "132634.295000",
    "132636.294000",
    "132638.295000",
    "132640.295000",
    "132642.295000",
    "132644.296000",
    "132646.296000",
    "132648.295000",
    "132650.295000",
    "132652.294000",
    "132654.294000",
    "132656.295000",
    "132658.296000",
    "132700.296000",
    "132702.296000",
    "132704.295000",
    "132706.295000",
    "132708.295000",
    "132710.294000",
    "132712.295000",
    "132714.294000",
    "132716.296000",
    "132718.296000",
    "132720.296000",
    "132722.295000",
    "132724.296000",
    "132726.294000",
    "132728.295000",
    "132730.295000",
    "132732.295000",
    "132734.296000",
    "132736.295000",
    "132738.296000",
    "132740.295000",
    "132742.295000",
    "132744.295000",
    "132746.295000",
    "132748.295000",
    "132750.295000",
    "132752.295000",
    "132754.296000",
    "132756.295000",
    "132758.295000",
    "132800.296000",
    "132802.295000",
    "132804.295000",
    "132806.295000",
    "132808.295000",
    "132810.295000",
    "132812.295000",
    "132814.296000",
    "132816.295000",
    "132818.295000",
    "132820.295000",
    "132822.295000",
    "132824.295000",
    "132826.296000",
    "132828.296000",
    "132830.295000",
    "132832.295000",
    "132834.295000",
    "132836.294000",
    "132838.295000",
    "132840.294000",
    "132842.294000",
    "132844.295000",
    "132846.296000",
    "132848.296000",
    "132850.296000",
    "132852.296000",
    "132854.295000",
    "132856.294000",
    "132858.294000",
    "132900.295000",
    "132902.296000",
    "132904.295000",
    "132906.296000",
    "132908.296000",
    "132910.296000",
    "132912.294000",
    "132914.294000",
    "132916.294000",
    "132918.296000",
    "132920.295000",
    "132922.295000",
    "132924.295000",
    "132926.296000",
    "132928.295000",
    "132930.294000",
    "132932.295000",
    "132934.295000",
    "132936.296000",
    "132938.295000",
    "132940.295000",
    "132942.296000",
    "132944.295000",
    "132946.295000",
    "132948.294000",
    "132950.295000",
    "132952.295000",
    "132954.295000",
    "132956.296000",
    "132958.295000",
    "133000.295000",
    "133002.295000",
    "133004.294000",
    "133006.294000",
    "133008.295000",
    "133010.296000",
    "133012.296000",
    "133014.295000",
    "133016.296000",
    "133018.296000",
    "133020.296000",
    "133022.294000",
    "133024.295000",
    "133026.295000",
    "133028.295000",
    "133030.296000",
    "133032.296000",
    "133034.296000",
    "133036.296000",
    "133038.295000",
    "133040.295000",
    "133042.294000",
    "133044.294000",
    "133046.295000",
    "133048.296000",
    "133050.296000",
    "133052.295000",
    "133054.295000",
    "133056.294000",
    "133058.295000",
    "133100.294000",
    "133102.308000",
    "133104.296000",
    "133106.296000",
    "133108.296000",
    "133110.295000",
    "133112.296000",
    "133114.295000",
    "133116.295000",
    "133118.294000",
    "133120.296000",
    "133122.295000",
    "133124.295000",
    "133126.295000",
    "133128.296000",
    "133130.296000",
    "133132.294000",
    "133134.294000",
    "133136.294000",
    "133138.296000",
    "133140.295000",
    "133142.295000",
    "133144.296000",
    "133146.295000",
    "133148.296000",
    "133150.295000",
    "133152.294000",
    "133154.294000",
    "133156.296000",
    "133158.295000",
    "133200.295000",
    "133202.295000",
    "133204.295000",
    "133206.294000",
    "133208.295000",
    "133210.294000",
    "133212.295000",
    "133214.295000",
    "133216.295000",
    "133218.295000",
    "133220.295000",
    "133222.296000",
    "133224.294000",
    "133226.294000",
    "133228.295000",
    "133230.296000",
    "133232.295000",
    "133234.295000",
    "133236.295000",
    "133238.296000",
    "133240.295000",
    "133242.294000",
    "133244.294000",
    "133246.295000",
    "133248.295000",
    "133250.295000",
    "133252.295000",
    "133254.295000",
    "133256.295000",
    "133258.295000",
    "133300.294000",
    "133302.295000",
    "133304.295000",
    "133306.295000",
    "133308.296000",
    "133310.296000",
    "133312.295000",
    "133314.296000",
    "133316.295000",
    "133318.295000",
    "133320.294000",
    "133322.295000",
    "133324.296000",
    "133326.295000",
    "133328.295000",
    "133330.296000",
    "133332.296000",
    "133334.294000",
    "133336.295000",
    "133338.295000",
    "133340.295000",
    "133342.295000",
    "133344.295000",
    "133346.296000",
    "133348.296000",
    "133350.295000",
    "133352.295000",
    "133354.112000"
   ],
   "InstanceCreationTime": [
    "132554.800000",
    "132556.296000",
    "132558.296000",
    "132600.294000",
    "132602.295000",
    "132604.294000",
    "132606.296000",
    "132608.296000",
    "132610.295000",
    "132612.296000",
    "132614.295000",
    "132616.294000",
    "132618.294000",
    "132620.295000",
    "132622.294000",
    "132624.295000",
    "132626.295000",
    "132628.295000",
    "132630.295000",
    "132632.296000",
    "132634.295000",
    "132636.294000",
    "132638.295000",
    "132640.295000",
    "132642.295000",
    "132644.296000",
    "132646.296000",
    "132648.295000",
    "132650.295000",
    "132652.294000",
    "132654.294000",
    "132656.295000",
    "132658.296000",
    "132700.296000",
    "132702.296000",
    "132704.295000",
    "132706.295000",
    "132708.295000",
    "132710.294000",
    "132712.295000",
    "132714.294000",
    "132716.296000",
    "132718.296000",
    "132720.296000",
    "132722.295000",
    "132724.296000",
    "132726.294000",
    "132728.295000",
    "132730.295000",
    "132732.295000",
    "132734.296000",
    "132736.295000",
    "132738.296000",
    "132740.295000",
    "132742.295000",
    "132744.295000",
    "132746.295000",
    "132748.295000",
    "132750.295000",
    "132752.295000",
    "132754.296000",
    "132756.295000",
    "132758.295000",
    "132800.296000",
    "132802.295000",
    "132804.295000",
    "132806.295000",
    "132808.295000",
    "132810.295000",
    "132812.295000",
    "132814.296000",
    "132816.295000",
    "132818.295000",
    "132820.295000",
    "132822.295000",
    "132824.295000",
    "132826.296000",
    "132828.296000",
    "132830.295000",
    "132832.295000",
    "132834.295000",
    "132836.294000",
    "132838.295000",
    "132840.294000",
    "132842.294000",
    "132844.295000",
    "132846.296000",
    "132848.296000",
    "132850.296000",
    "132852.296000",
    "132854.295000",
    "132856.294000",
    "132858.294000",
    "132900.295000",
    "132902.296000",
    "132904.295000",
    "132906.296000",
    "132908.296000",
    "132910.296000",
    "132912.294000",
    "132914.294000",
    "132916.294000",
    "132918.296000",
    "132920.295000",
    "132922.295000",
    "132924.295000",
    "132926.296000",
    "132928.295000",
    "132930.294000",
    "132932.295000",
    "132934.295000",
    "132936.296000",
    "132938.295000",
    "132940.295000",
    "132942.296000",
    "132944.295000",
    "132946.295000",
    "132948.294000",
    "132950.295000",
    "132952.295000",
    "132954.295000",
    "132956.296000",
    "132958.295000",
    "133000.295000",
    "133002.295000",
    "133004.294000",
    "133006.294000",
    "133008.295000",
    "133010.296000",
    "133012.296000",
    "133014.295000",
    "133016.296000",
    "133018.296000",
    "133020.296000",
    "133022.294000",
    "133024.295000",
    "133026.295000",
    "133028.295000",
    "133030.296000",
    "133032.296000",
    "133034.296000",
    "133036.296000",
    "133038.295000",
    "133040.295000",
    "133042.294000",
    "133044.294000",
    "133046.295000",
    "133048.296000",
    "133050.296000",
    "133052.295000",
    "133054.295000",
    "133056.294000",
    "133058.295000",
    "133100.294000",
    "133102.308000",
    "133104.296000",
    "133106.296000",
    "133108.296000",
    "133110.295000",
    "133112.296000",
    "133114.295000",
    "133116.295000",
    "133118.294000",
    "133120.296000",
    "133122.295000",
    "133124.295000",
    "133126.295000",
    "133128.296000",
    "133130.296000",
    "133132.294000",
    "133134.294000",
    "133136.294000",
    "133138.296000",
    "133140.295000",
    "133142.295000",
    "133144.296000",
    "133146.295000",
    "133148.296000",
    "133150.295000",
    "133152.294000",
    "133154.294000",
    "133156.296000",
    "133158.295000",
    "133200.295000",
    "133202.295000",
    "133204.295000",
    "133206.294000",
    "133208.295000",
    "133210.294000",
    "133212.295000",
    "133214.295000",
    "133216.295000",
    "133218.295000",
    "133220.295000",
    "133222.296000",
    "133224.294000",
    "133226.294000",
    "133228.295000",
    "133230.296000",
    "133232.295000",
    "133234.295000",
    "133236.295000",
    "133238.296000",
    "133240.295000",
    "133242.294000",
    "133244.294000",
    "133246.295000",
    "133248.295000",
    "133250.295000",
    "133252.295000",
    "133254.295000",
    "133256.295000",
    "133258.295000",
    "133300.294000",
    "133302.295000",
    "133304.295000",
    "133306.295000",
    "133308.296000",
    "133310.296000",
    "133312.295000",
    "133314.296000",
    "133316.295000",
    "133318.295000",
    "133320.294000",
    "133322.295000",
    "133324.296000",
    "133326.295000",
    "133328.295000",
    "133330.296000",
    "133332.296000",
    "133334.294000",
    "133336.295000",
    "133338.295000",
    "133340.295000",
    "133342.295000",
    "133344.295000",
    "133346.296000",
    "133348.296000",
    "133350.295000",
    "133352.295000",
    "133354.112000"
   ],
   "InstanceNumber": [
    1,
    2,
    3,
    4,
    5,
    6,
    7,
    8,
    9,
    10,
    11,
    12,
    13,
    14,
    15,
    16,
    17,
    18,
    19,
    20,
    21,
    22,
    23,
    24,
    25,
    26,
    27,
    28,
    29,
    30,
    31,
    32,
    33,
    34,
    35,
    36,
    37,
    38,
    39,
    40,
    41,
    42,
    43,
    44,
    45,
    46,
    47,
    48,
    49,
    50,
    51,
    52,
    53,
    54,
    55,
    56,
    57,
    58,
    59,
    60,
    61,
    62,
    63,
    64,
    65,
    66,
    67,
    68,
    69,
    70,
    71,
    72,
    73,
    74,
    75,
    76,
    77,
    78,
    79,
    80,
    81,
    82,
    83,
    84,
    85,
    86,
    87,
    88,
    89,
    90,
    91,
    92,
    93,
    94,
    95,
    96,
    97,
    98,
    99,
    100,
    101,
    102,
    103,
    104,
    105,
    106,
    107,
    108,
    109,
    110,
    111,
    112,
    113,
    114,
    115,
    116,
    117,
    118,
    119,
    120,
    121,
    122,
    123,
    124,
    125,
    126,
    127,
    128,
    129,
    130,
    131,
    132,
    133,
    134,
    135,
    136,
    137,
    138,
    139,
    140,
    141,
    142,
    143,
    144,
    145,
    146,
    147,
    148,
    149,
    150,
    151,
    152,
    153,
    154,
    155,
    156,
    157,
    158,
    159,
    160,
    161,
    162,
    163,
    164,
    165,
    166,
    167,
    168,
    169,
    170,
    171,
    172,
    173,
    174,
    175,
    176,
    177,
    178,
    179,
    180,
    181,
    182,
    183,
    184,
    185,
    186,
    187,
    188,
    189,
    190,
    191,
    192,
    193,
    194,
    195,
    196,
    197,
    198,
    199,
    200,
    201,
    202,
    203,
    204,
    205,
    206,
    207,
    208,
    209,
    210,
    211,
    212,
    213,
    214,
    215,
    216,
    217,
    218,
    219,
    220,
    221,
    222,
    223,
    224,
    225,
    226,
    227,
    228,
    229,
    230,
    231,
    232,
    233,
    234,
    235,
    236,
    237,
    238,
    239,
    240,
    241
   ],
   "LargestImagePixelValue": [
    3639,
    3609,
    3604,
    3571,
    3547,
    3623,
    3603,
    3628,
    3659,
    3619,
    3643,
    3569,
    3610,
    3552,
    3598,
    3582,
    3530,
    3564,
    3523,
    3541,
    3560,
    3513,
    3537,
    3567,
    3546,
    3613,
    3585,
    3579,
    3532,
    3531,
    3536,
    3510,
    3514,
    3535,
    3526,
    3579,
    3497,
    3558,
    3572,
    3593,
    3563,
    3507,
    3528,
    3583,
    3551,
    3550,
    3541,
    3487,
    3522,
    3519,
    3489,
    3545,
    3499,
    3524,
    3573,
    3559,
    3594,
    3609,
    3566,
    3600,
    3540,
    3588,
    3597,
    3544,
    3639,
    3550,
    3535,
    3544,
    3526,
    3522,
    3591,
    3567,
    3532,
    3579,
    3522,
    3539,
    3556,
    3535,
    3594,
    3539,
    3571,
    3623,
    3582,
    3600,
    3580,
    3623,
    3625,
    3564,
    3596,
    3629,
    3566,
    3614,
    3573,
    3620,
    3659,
    3576,
    3621,
    3574,
    3557,
    3587,
    3587,
    3614,
    3628,
    3624,
    3647,
    3597,
    3621,
    3593,
    3563,
    3556,
    3559,
    3594,
    3598,
    3565,
    3600,
    3581,
    3574,
    3604,
    3590,
    3597,
    3587,
    3592,
    3576,
    3538,
    3573,
    3585,
    3542,
    3529,
    3544,
    3553,
    3510,
    3523,
    3488,
    3531,
    3549,
    3546,
    3563,
    3542,
    3495,
    3527,
    3543,
    3490,
    3561,
    3536,
    3522,
    3547,
    3509,
    3518,
    3540,
    3540,
    3550,
    3583,
    3537,
    3551,
    3534,
    3457,
    3468,
    3447,
    3479,
    3452,
    3435,
    3445,
    3421,
    3448,
    3440,
    3470,
    3521,
    3499,
    3475,
    3512,
    3526,
    3520,
    3577,
    3488,
    3514,
    3538,
    3485,
    3486,
    3472,
    3478,
    3485,
    3503,
    3552,
    3541,
    3516,
    3476,
    3463,
    3479,
    3524,
    3513,
    3481,
    3498,
    3518,
    3493,
    3524,
    3536,
    3530,
    3545,
    3535,
    3524,
    3524,
    3552,
    3530,
    3532,
    3518,
    3500,
    3556,
    3492,
    3540,
    3505,
    3544,
    3471,
    3488,
    3486,
    3458,
    3438,
    3467,
    3475,
    3489,
    3525,
    3480,
    3514,
    3442,
    3441,
    3458,
    3429,
    3511,
    3504,
    3497,
    3485,
    3494,
    3520,
    3508,
    3500,
    3488,
    3499,
    3534,
    3513,
    3507,
    3504,
    3488
   ],
   "WindowCenter": [
    829.0,
    826.0,
    826.0,
    825.0,
    824.0,
    823.0,
    823.0,
    823.0,
    823.0,
    823.0,
    823.0,
    823.0,
    823.0,
    822.0,
    822.0,
    823.0,
    823.0,
    822.0,
    821.0,
    821.0,
    822.0,
    823.0,
    823.0,
    822.0,
    821.0,
    822.0,
    822.0,
    822.0,
    820.0,
    820.0,
    820.0,
    821.0,
    821.0,
    822.0,
    822.0,
    823.0,
    823.0,
    823.0,
    822.0,
    821.0,
    820.0,
    820.0,
    820.0,
    821.0,
    821.0,
    821.0,
    821.0,
    820.0,
    821.0,
    822.0,
    823.0,
    823.0,
    822.0,
    822.0,
    822.0,
    822.0,
    822.0,
    822.0,
    821.0,
    821.0,
    822.0,
    822.0,
    822.0,
    821.0,
    821.0,
    821.0,
    821.0,
    822.0,
    822.0,
    823.0,
    823.0,
    823.0,
    822.0,
    822.0,
    822.0,
    822.0,
    822.0,
    821.0,
    821.0,
    821.0,
    821.0,
    822.0,
    822.0,
    821.0,
    820.0,
    820.0,
    822.0,
    822.0,
    821.0,
    821.0,
    821.0,
    821.0,
    820.0,
    821.0,
    822.0,
    821.0,
    820.0,
    820.0,
    822.0,
    824.0,
    823.0,
    822.0,
    822.0,
    824.0,
    824.0,
    822.0,
    822.0,
    823.0,
    823.0,
    822.0,
    821.0,
    821.0,
    821.0,
    821.0,
    821.0,
    821.0,
    821.0,
    821.0,
    822.0,
    822.0,
    823.0,
    823.0,
    822.0,
    822.0,
    824.0,
    824.0,
    823.0,
    822.0,
    822.0,
    822.0,
    822.0,
    822.0,
    822.0,
    822.0,
    821.0,
    822.0,
    823.0,
    822.0,
    820.0,
    820.0,
    821.0,
    821.0,
    822.0,
    821.0,
    821.0,
    822.0,
    822.0,
    821.0,
    819.0,
    821.0,
    822.0,
    822.0,
    822.0,
    822.0,
    821.0,
    821.0,
    821.0,
    821.0,
    821.0,
    821.0,
    821.0,
    820.0,
    821.0,
    822.0,
    822.0,
    822.0,
    822.0,
    822.0,
    821.0,
    822.0,
    823.0,
    824.0,
    823.0,
    821.0,
    821.0,
    820.0,
    820.0,
    820.0,
    821.0,
    820.0,
    820.0,
    820.0,
    822.0,
    822.0,
    821.0,
    821.0,
    820.0,
    820.0,
    822.0,
    823.0,
    822.0,
    822.0,
    822.0,
    822.0,
    823.0,
    823.0,
    823.0,
    822.0,
    822.0,
    823.0,
    823.0,
    824.0,
    823.0,
    823.0,
    822.0,
    822.0,
    822.0,
    822.0,
    822.0,
    822.0,
    823.0,
    823.0,
    823.0,
    823.0,
    822.0,
    821.0,
    821.0,
    822.0,
    822.0,
    822.0,
    821.0,
    820.0,
    819.0,
    820.0,
    820.0,
    820.0,
    821.0,
    821.0,
    821.0,
    821.0,
    821.0,
    821.0,
