{
 "AcquisitionMatrixPE": 100,
 "AcquisitionNumber": 1,
 "AcquisitionTime": "13:10:55.207500",
 "BandwidthPerPixelPhaseEncode": 18.519,
 "BaseResolution": 100,
 "BodyPartExamined": "BRAIN",
 "ConsistencyInfo": "N4_VE11C_LATEST_20160120",
 "ConversionSoftware": "dcm2niix",
 "ConversionSoftwareVersion": "v1.0.20180622 GCC4.9.2",
 "DerivedVendorReportedEchoSpacing": 0.000539986,
 "DeviceSerialNumber": "166078",
 "DwellTime": 2.1e-06,
 "EchoTime": 0.034,
 "EchoTrainLength": 100,
 "EffectiveEchoSpacing": 0.000539986,
 "FlipAngle": 90,
 "ImageOrientationPatientDICOM": [
  1,
  -7.15896e-05,
  -0.000323094,
  -3.05258e-08,
  0.976301,
  -0.216419
 ],
 "ImageType": [
  "ORIGINAL",
  "PRIMARY",
  "M",
  "ND",
  "MOSAIC"
 ],
 "InPlanePhaseEncodingDirectionDICOM": "COL",
 "InstitutionAddress": "Street_StreetNo_Bei_Jing_District_CN_ZIP",
 "InstitutionName": "BeiJing_Normal_University",
 "InstitutionalDepartmentName": "Department",
 "MRAcquisitionType": "2D",
 "MagneticFieldStrength": 3,
 "Manufacturer": "Siemens",
 "ManufacturersModelName": "Prisma",
 "Modality": "MR",
 "MultibandAccelerationFactor": 3,
 "PartialFourier": 1,
 "PatientPosition": "HFS",
 "PercentPhaseFOV": 100,
 "PhaseEncodingDirection": "j-",
 "PhaseEncodingSteps": 100,
 "PhaseResolution": 1,
 "PixelBandwidth": 2380,
 "ProcedureStepDescription": "BNU_P2018_64CH_Zhen.ZongLei",
 "ProtocolName": "bold_100x100_s3_2x2x2_static_256",
 "PulseSequenceDetails": "%SiemensSeq%_ep2d_bold",
 "ReceiveCoilActiveElements": "HC1-7;NC1",
 "ReceiveCoilName": "HeadNeck_64",
 "ReconMatrixPE": 100,
 "RepetitionTime": 2,
 "SAR": 0.0726713,
 "ScanOptions": "FS",
 "ScanningSequence": "EP",
 "SequenceName": "_epfid2d1_100",
 "SequenceVariant": "SK",
 "SeriesDescription": "bold_100x100_s3_2x2x2_static_256",
 "SeriesNumber": 3,
 "ShimSetting": [
  -5474,
  -11480,
  -1249,
  273,
  -75,
  -134,
  -196,
  41
 ],
 "SliceThickness": 2,
 "SliceTiming": [
  1.485,
  0,
  0.99,
  0.0825,
  1.0725,
  0.165,
  1.155,
  0.2475,
  1.2375,
  0.33,
  1.32,
  0.4125,
  1.4025,
  0.5775,
  1.5675,
  0.66,
  1.65,
  0.7425,
  1.7325,
  0.825,
  1.815,
  0.9075,
  1.8975,
  0.495,
  1.485,
  0,
  0.99,
  0.0825,
  1.0725,
  0.165,
  1.155,
  0.2475,
  1.2375,
  0.33,
  1.32,
  0.4125,
  1.4025,
  0.5775,
  1.5675,
  0.66,
  1.65,
  0.7425,
  1.7325,
  0.825,
  1.815,
  0.9075,
  1.8975,
  0.495,
  1.485,
  0,
  0.99,
  0.0825,
  1.0725,
  0.165,
  1.155,
  0.2475,
  1.2375,
  0.33,
  1.32,
  0.4125,
  1.4025,
  0.5775,
  1.5675,
  0.66,
  1.65,
  0.7425,
  1.7325,
  0.825,
  1.815,
  0.9075,
  1.8975,
  0.495
 ],
 "SoftwareVersions": "syngo_MR_E11",
 "SpacingBetweenSlices": 2,
 "StationName": "AWP166078",
 "TaskName": "imagenet",
 "TotalReadoutTime": 0.0534586,
 "TxRefAmp": 221.303,
 "dcmmeta_affine": [
  [
   -1.9999998807907104,
   -6.105160110791985e-08,
   -0.0006618598126806319,
   99.94599151611328
  ],
  [
   0.000143179131555371,
   1.9526013135910034,
   -0.43283703923225403,
   -75.8633804321289
  ],
  [
   -0.0006461873999796808,
   0.4328370690345764,
   1.9526013135910034,
   -96.04450988769531
  ],
  [
   0.0,
   0.0,
   0.0,
   1.0
  ]
 ],
 "dcmmeta_reorient_transform": [
  [
   0.0,
   -1.0,
   0.0,
   99.0
  ],
  [
   1.0,
   0.0,
   0.0,
   0.0
  ],
  [
   0.0,
   0.0,
   1.0,
   0.0
  ],
  [
   0.0,
   0.0,
   0.0,
   1.0
  ]
 ],
 "dcmmeta_shape": [
  100,
  100,
  72,
  256
 ],
 "dcmmeta_slice_dim": 2,
 "dcmmeta_version": 0.6,
 "global": {
  "const": {
   "AcquisitionMatrix": [
    100,
    0,
    0,
    100
   ],
   "AngioFlag": "N",
   "BitsAllocated": 16,
   "BitsStored": 12,
   "BodyPartExamined": "BRAIN",
   "Columns": 900,
   "EchoNumbers": 1,
   "EchoTime": 34.0,
   "EchoTrainLength": 100,
   "FlipAngle": 90.0,
   "HighBit": 11,
   "ImageOrientationPatient": [
    0.9999999452427,
    -7.15895623e-05,
    -0.0003230937053,
    -3.0525802e-08,
    0.97630068142963,
    -0.2164185284121
   ],
   "ImagePositionPatient": [
    -899.9459147874,
    -898.42743168879,
    120.19965442468
   ],
   "ImageType": [
    "ORIGINAL",
    "PRIMARY",
    "M",
    "ND",
    "MOSAIC"
   ],
   "ImagedNucleus": "1H",
   "ImagingFrequency": 123.257788,
   "InPlanePhaseEncodingDirection": "COL",
   "MRAcquisitionType": "2D",
   "MagneticFieldStrength": 3.0,
   "Manufacturer": "SIEMENS",
   "ManufacturerModelName": "Prisma",
   "Modality": "MR",
   "NumberOfAverages": 1.0,
   "NumberOfPhaseEncodingSteps": 100,
   "PercentPhaseFieldOfView": 100.0,
   "PercentSampling": 100.0,
   "PerformedProcedureStepStartTime": "130757.984000",
   "PhotometricInterpretation": "MONOCHROME2",
   "PixelBandwidth": 2380.0,
   "PixelRepresentation": 0,
   "PixelSpacing": [
    2.0,
    2.0
   ],
   "ProtocolName": "bold_100x100_s3_2x2x2_static_256",
   "RepetitionTime": 2000.0,
   "Rows": 900,
   "SAR": 0.07267128103089,
   "SamplesPerPixel": 1,
   "ScanOptions": "FS",
   "ScanningSequence": "EP",
   "SequenceName": "*epfid2d1_100",
   "SequenceVariant": "SK",
   "SeriesDescription": "bold_100x100_s3_2x2x2_static_256",
   "SeriesNumber": 3,
   "SeriesTime": "131057.927000",
   "SliceLocation": -77.383152939562,
   "SliceThickness": 2.0,
   "SmallestImagePixelValue": 0,
   "SoftwareVersions": "syngo MR E11",
   "SpacingBetweenSlices": 2.0000000043292,
   "SpecificCharacterSet": "ISO_IR 100",
   "StudyID": "1",
   "StudyTime": "130757.863000",
   "TransmitCoilName": "Body",
   "VariableFlipAngleFlag": "N",
   "WindowCenterWidthExplanation": "Algo1",
   "dBdt": 0.0
  },
  "slices": {}
 },
 "time": {
  "samples": {
   "AcquisitionNumber": [
    1,
    2,
    3,
    4,
    5,
    6,
    7,
    8,
    9,
    10,
    11,
    12,
    13,
    14,
    15,
    16,
    17,
    18,
    19,
    20,
    21,
    22,
    23,
    24,
    25,
    26,
    27,
    28,
    29,
    30,
    31,
    32,
    33,
    34,
    35,
    36,
    37,
    38,
    39,
    40,
    41,
    42,
    43,
    44,
    45,
    46,
    47,
    48,
    49,
    50,
    51,
    52,
    53,
    54,
    55,
    56,
    57,
    58,
    59,
    60,
    61,
    62,
    63,
    64,
    65,
    66,
    67,
    68,
    69,
    70,
    71,
    72,
    73,
    74,
    75,
    76,
    77,
    78,
    79,
    80,
    81,
    82,
    83,
    84,
    85,
    86,
    87,
    88,
    89,
    90,
    91,
    92,
    93,
    94,
    95,
    96,
    97,
    98,
    99,
    100,
    101,
    102,
    103,
    104,
    105,
    106,
    107,
    108,
    109,
    110,
    111,
    112,
    113,
    114,
    115,
    116,
    117,
    118,
    119,
    120,
    121,
    122,
    123,
    124,
    125,
    126,
    127,
    128,
    129,
    130,
    131,
    132,
    133,
    134,
    135,
    136,
    137,
    138,
    139,
    140,
    141,
    142,
    143,
    144,
    145,
    146,
    147,
    148,
    149,
    150,
    151,
    152,
    153,
    154,
    155,
    156,
    157,
    158,
    159,
    160,
    161,
    162,
    163,
    164,
    165,
    166,
    167,
    168,
    169,
    170,
    171,
    172,
    173,
    174,
    175,
    176,
    177,
    178,
    179,
    180,
    181,
    182,
    183,
    184,
    185,
    186,
    187,
    188,
    189,
    190,
    191,
    192,
    193,
    194,
    195,
    196,
    197,
    198,
    199,
    200,
    201,
    202,
    203,
    204,
    205,
    206,
    207,
    208,
    209,
    210,
    211,
    212,
    213,
    214,
    215,
    216,
    217,
    218,
    219,
    220,
    221,
    222,
    223,
    224,
    225,
    226,
    227,
    228,
    229,
    230,
    231,
    232,
    233,
    234,
    235,
    236,
    237,
    238,
    239,
    240,
    241,
    242,
    243,
    244,
    245,
    246,
    247,
    248,
    249,
    250,
    251,
    252,
    253,
    254,
    255,
    256
   ],
   "AcquisitionTime": [
    "131055.207500",
    "131057.207500",
    "131059.207500",
    "131101.207500",
    "131103.207500",
    "131105.207500",
    "131107.207500",
    "131109.207500",
    "131111.207500",
    "131113.207500",
    "131115.207500",
    "131117.207500",
    "131119.207500",
    "131121.207500",
    "131123.207500",
    "131125.207500",
    "131127.207500",
    "131129.207500",
    "131131.207500",
    "131133.207500",
    "131135.207500",
    "131137.207500",
    "131139.207500",
    "131141.207500",
    "131143.207500",
    "131145.207500",
    "131147.207500",
    "131149.207500",
    "131151.207500",
    "131153.207500",
    "131155.207500",
    "131157.207500",
    "131159.207500",
    "131201.207500",
    "131203.207500",
    "131205.207500",
    "131207.207500",
    "131209.207500",
    "131211.207500",
    "131213.207500",
    "131215.207500",
    "131217.207500",
    "131219.207500",
    "131221.207500",
    "131223.207500",
    "131225.207500",
    "131227.207500",
    "131229.207500",
    "131231.207500",
    "131233.207500",
    "131235.207500",
    "131237.207500",
    "131239.207500",
    "131241.207500",
    "131243.207500",
    "131245.207500",
    "131247.207500",
    "131249.207500",
    "131251.207500",
    "131253.207500",
    "131255.207500",
    "131257.207500",
    "131259.207500",
    "131301.207500",
    "131303.207500",
    "131305.207500",
    "131307.207500",
    "131309.207500",
    "131311.207500",
    "131313.207500",
    "131315.207500",
    "131317.207500",
    "131319.207500",
    "131321.207500",
    "131323.207500",
    "131325.207500",
    "131327.207500",
    "131329.207500",
    "131331.207500",
    "131333.207500",
    "131335.207500",
    "131337.207500",
    "131339.207500",
    "131341.207500",
    "131343.207500",
    "131345.207500",
    "131347.207500",
    "131349.207500",
    "131351.207500",
    "131353.207500",
    "131355.207500",
    "131357.207500",
    "131359.207500",
    "131401.207500",
    "131403.207500",
    "131405.207500",
    "131407.207500",
    "131409.207500",
    "131411.207500",
    "131413.207500",
    "131415.207500",
    "131417.207500",
    "131419.207500",
    "131421.207500",
    "131423.207500",
    "131425.207500",
    "131427.207500",
    "131429.207500",
    "131431.207500",
    "131433.207500",
    "131435.207500",
    "131437.207500",
    "131439.207500",
    "131441.207500",
    "131443.207500",
    "131445.207500",
    "131447.207500",
    "131449.207500",
    "131451.207500",
    "131453.207500",
    "131455.207500",
    "131457.207500",
    "131459.207500",
    "131501.207500",
    "131503.207500",
    "131505.207500",
    "131507.207500",
    "131509.207500",
    "131511.207500",
    "131513.207500",
    "131515.207500",
    "131517.207500",
    "131519.207500",
    "131521.207500",
    "131523.207500",
    "131525.207500",
    "131527.207500",
    "131529.207500",
    "131531.207500",
    "131533.207500",
    "131535.207500",
    "131537.207500",
    "131539.207500",
    "131541.207500",
    "131543.207500",
    "131545.207500",
    "131547.207500",
    "131549.207500",
    "131551.207500",
    "131553.207500",
    "131555.207500",
    "131557.207500",
    "131559.207500",
    "131601.207500",
    "131603.207500",
    "131605.207500",
    "131607.207500",
    "131609.207500",
    "131611.207500",
    "131613.207500",
    "131615.207500",
    "131617.207500",
    "131619.207500",
    "131621.207500",
    "131623.207500",
    "131625.207500",
    "131627.207500",
    "131629.207500",
    "131631.207500",
    "131633.207500",
    "131635.207500",
    "131637.207500",
    "131639.207500",
    "131641.207500",
    "131643.207500",
    "131645.207500",
    "131647.207500",
    "131649.207500",
    "131651.207500",
    "131653.207500",
    "131655.207500",
    "131657.207500",
    "131659.207500",
    "131701.207500",
    "131703.207500",
    "131705.207500",
    "131707.207500",
    "131709.207500",
    "131711.207500",
    "131713.207500",
    "131715.207500",
    "131717.207500",
    "131719.207500",
    "131721.207500",
    "131723.207500",
    "131725.207500",
    "131727.207500",
    "131729.207500",
    "131731.207500",
    "131733.207500",
    "131735.207500",
    "131737.207500",
    "131739.207500",
    "131741.207500",
    "131743.207500",
    "131745.207500",
    "131747.207500",
    "131749.207500",
    "131751.207500",
    "131753.207500",
    "131755.207500",
    "131757.207500",
    "131759.207500",
    "131801.207500",
    "131803.207500",
    "131805.207500",
    "131807.207500",
    "131809.207500",
    "131811.207500",
    "131813.207500",
    "131815.207500",
    "131817.207500",
    "131819.207500",
    "131821.207500",
    "131823.207500",
    "131825.207500",
    "131827.207500",
    "131829.207500",
    "131831.207500",
    "131833.207500",
    "131835.207500",
    "131837.207500",
    "131839.207500",
    "131841.207500",
    "131843.207500",
    "131845.207500",
    "131847.207500",
    "131849.207500",
    "131851.207500",
    "131853.207500",
    "131855.207500",
    "131857.207500",
    "131859.207500",
    "131901.207500",
    "131903.207500",
    "131905.207500",
    "131907.207500",
    "131909.207500",
    "131911.207500",
    "131913.207500",
    "131915.207500",
    "131917.207500",
    "131919.207500",
    "131921.207500",
    "131923.207500",
    "131925.207500"
   ],
   "ContentTime": [
    "131057.931000",
    "131059.426000",
    "131101.426000",
    "131103.426000",
    "131105.427000",
    "131107.427000",
    "131109.427000",
    "131111.427000",
    "131113.426000",
    "131115.426000",
    "131117.426000",
    "131119.426000",
    "131121.426000",
    "131123.427000",
    "131125.440000",
    "131127.427000",
    "131129.426000",
    "131131.426000",
    "131133.426000",
    "131135.426000",
    "131137.426000",
    "131139.428000",
    "131141.428000",
    "131143.428000",
    "131145.427000",
    "131147.426000",
    "131149.427000",
    "131151.426000",
    "131153.426000",
    "131155.427000",
    "131157.428000",
    "131159.427000",
    "131201.428000",
    "131203.427000",
    "131205.426000",
    "131207.426000",
    "131209.427000",
    "131211.427000",
    "131213.426000",
    "131215.428000",
    "131217.427000",
    "131219.427000",
    "131221.426000",
    "131223.426000",
    "131225.426000",
    "131227.426000",
    "131229.427000",
    "131231.426000",
    "131233.427000",
    "131235.427000",
    "131237.427000",
    "131239.426000",
    "131241.426000",
    "131243.426000",
    "131245.427000",
    "131247.426000",
    "131249.427000",
    "131251.427000",
    "131253.427000",
    "131255.427000",
    "131257.427000",
    "131259.427000",
    "131301.426000",
    "131303.426000",
    "131305.427000",
    "131307.428000",
    "131309.427000",
    "131311.428000",
    "131313.427000",
    "131315.427000",
    "131317.427000",
    "131319.426000",
    "131321.426000",
    "131323.426000",
    "131325.427000",
    "131327.427000",
    "131329.428000",
    "131331.427000",
    "131333.426000",
    "131335.427000",
    "131337.427000",
    "131339.428000",
    "131341.428000",
    "131343.428000",
    "131345.429000",
    "131347.427000",
    "131349.426000",
    "131351.426000",
    "131353.426000",
    "131355.427000",
    "131357.427000",
    "131359.427000",
    "131401.428000",
    "131403.428000",
    "131405.427000",
    "131407.427000",
    "131409.427000",
    "131411.426000",
    "131413.427000",
    "131415.427000",
    "131417.427000",
    "131419.427000",
    "131421.428000",
    "131423.428000",
    "131425.427000",
    "131427.426000",
    "131429.426000",
    "131431.426000",
    "131433.426000",
    "131435.427000",
    "131437.428000",
    "131439.428000",
    "131441.426000",
    "131443.426000",
    "131445.427000",
    "131447.426000",
    "131449.427000",
    "131451.426000",
    "131453.428000",
    "131455.427000",
    "131457.428000",
    "131459.427000",
    "131501.427000",
    "131503.427000",
    "131505.427000",
    "131507.426000",
    "131509.427000",
    "131511.427000",
    "131513.428000",
    "131515.427000",
    "131517.426000",
    "131519.427000",
    "131521.427000",
    "131523.427000",
    "131525.426000",
    "131527.427000",
    "131529.427000",
    "131531.428000",
    "131533.428000",
    "131535.427000",
    "131537.426000",
    "131539.427000",
    "131541.427000",
    "131543.427000",
    "131545.428000",
    "131547.428000",
    "131549.427000",
    "131551.426000",
    "131553.427000",
    "131555.426000",
    "131557.426000",
    "131559.426000",
    "131601.426000",
    "131603.428000",
    "131605.428000",
    "131607.427000",
    "131609.427000",
    "131611.427000",
    "131613.427000",
    "131615.427000",
    "131617.427000",
    "131619.428000",
    "131621.427000",
    "131623.427000",
    "131625.427000",
    "131627.427000",
    "131629.427000",
    "131631.427000",
    "131633.427000",
    "131635.427000",
    "131637.428000",
    "131639.427000",
    "131641.428000",
    "131643.427000",
    "131645.426000",
    "131647.426000",
    "131649.427000",
    "131651.426000",
    "131653.427000",
    "131655.428000",
    "131657.427000",
    "131659.427000",
    "131701.426000",
    "131703.426000",
    "131705.427000",
    "131707.427000",
    "131709.427000",
    "131711.428000",
    "131713.428000",
    "131715.427000",
    "131717.428000",
    "131719.427000",
    "131721.427000",
    "131723.427000",
    "131725.426000",
    "131727.426000",
    "131729.428000",
    "131731.427000",
    "131733.428000",
    "131735.428000",
    "131737.427000",
    "131739.426000",
    "131741.427000",
    "131743.427000",
    "131745.426000",
    "131747.427000",
    "131749.428000",
    "131751.428000",
    "131753.427000",
    "131755.426000",
    "131757.427000",
    "131759.426000",
    "131801.427000",
    "131803.427000",
    "131805.428000",
    "131807.427000",
    "131809.428000",
    "131811.427000",
    "131813.427000",
    "131815.427000",
    "131817.426000",
    "131819.426000",
    "131821.428000",
    "131823.427000",
    "131825.428000",
    "131827.428000",
    "131829.427000",
    "131831.427000",
    "131833.426000",
    "131835.426000",
    "131837.426000",
    "131839.437000",
    "131841.427000",
    "131843.428000",
    "131845.428000",
    "131847.426000",
    "131849.426000",
    "131851.426000",
    "131853.427000",
    "131855.426000",
    "131857.428000",
    "131859.428000",
    "131901.428000",
    "131903.426000",
    "131905.427000",
    "131907.426000",
    "131909.426000",
    "131911.427000",
    "131913.427000",
    "131915.428000",
    "131917.427000",
    "131919.427000",
    "131921.426000",
    "131923.426000",
    "131925.426000",
    "131927.100000"
   ],
   "InstanceCreationTime": [
    "131057.931000",
    "131059.426000",
    "131101.426000",
    "131103.426000",
    "131105.427000",
    "131107.427000",
    "131109.427000",
    "131111.427000",
    "131113.426000",
    "131115.426000",
    "131117.426000",
    "131119.426000",
    "131121.426000",
    "131123.427000",
    "131125.440000",
    "131127.427000",
    "131129.426000",
    "131131.426000",
    "131133.426000",
    "131135.426000",
    "131137.426000",
    "131139.428000",
    "131141.428000",
    "131143.428000",
    "131145.427000",
    "131147.426000",
    "131149.427000",
    "131151.426000",
    "131153.426000",
    "131155.427000",
    "131157.428000",
    "131159.427000",
    "131201.428000",
    "131203.427000",
    "131205.426000",
    "131207.426000",
    "131209.427000",
    "131211.427000",
    "131213.426000",
    "131215.428000",
    "131217.427000",
    "131219.427000",
    "131221.426000",
    "131223.426000",
    "131225.426000",
    "131227.426000",
    "131229.427000",
    "131231.426000",
    "131233.427000",
    "131235.427000",
    "131237.427000",
    "131239.426000",
    "131241.426000",
    "131243.426000",
    "131245.427000",
    "131247.426000",
    "131249.427000",
    "131251.427000",
    "131253.427000",
    "131255.427000",
    "131257.427000",
    "131259.427000",
    "131301.426000",
    "131303.426000",
    "131305.427000",
    "131307.428000",
    "131309.427000",
    "131311.428000",
    "131313.427000",
    "131315.427000",
    "131317.427000",
    "131319.426000",
    "131321.426000",
    "131323.426000",
    "131325.427000",
    "131327.427000",
    "131329.428000",
    "131331.427000",
    "131333.426000",
    "131335.427000",
    "131337.427000",
    "131339.428000",
    "131341.428000",
    "131343.428000",
    "131345.429000",
    "131347.427000",
    "131349.426000",
    "131351.426000",
    "131353.426000",
    "131355.427000",
    "131357.427000",
    "131359.427000",
    "131401.428000",
    "131403.428000",
    "131405.427000",
    "131407.427000",
    "131409.427000",
    "131411.426000",
    "131413.427000",
    "131415.427000",
    "131417.427000",
    "131419.427000",
    "131421.428000",
    "131423.428000",
    "131425.427000",
    "131427.426000",
    "131429.426000",
    "131431.426000",
    "131433.426000",
    "131435.427000",
    "131437.428000",
    "131439.428000",
    "131441.426000",
    "131443.426000",
    "131445.427000",
    "131447.426000",
    "131449.427000",
    "131451.426000",
    "131453.428000",
    "131455.427000",
    "131457.428000",
    "131459.427000",
    "131501.427000",
    "131503.427000",
    "131505.427000",
    "131507.426000",
    "131509.427000",
    "131511.427000",
    "131513.428000",
    "131515.427000",
    "131517.426000",
    "131519.427000",
    "131521.427000",
    "131523.427000",
    "131525.426000",
    "131527.427000",
    "131529.427000",
    "131531.428000",
    "131533.428000",
    "131535.427000",
    "131537.426000",
    "131539.427000",
    "131541.427000",
    "131543.427000",
    "131545.428000",
    "131547.428000",
    "131549.427000",
    "131551.426000",
    "131553.427000",
    "131555.426000",
    "131557.426000",
    "131559.426000",
    "131601.426000",
    "131603.428000",
    "131605.428000",
    "131607.427000",
    "131609.427000",
    "131611.427000",
    "131613.427000",
    "131615.427000",
    "131617.427000",
    "131619.428000",
    "131621.427000",
    "131623.427000",
    "131625.427000",
    "131627.427000",
    "131629.427000",
    "131631.427000",
    "131633.427000",
    "131635.427000",
    "131637.428000",
    "131639.427000",
    "131641.428000",
    "131643.427000",
    "131645.426000",
    "131647.426000",
    "131649.427000",
    "131651.426000",
    "131653.427000",
    "131655.428000",
    "131657.427000",
    "131659.427000",
    "131701.426000",
    "131703.426000",
    "131705.427000",
    "131707.427000",
    "131709.427000",
    "131711.428000",
    "131713.428000",
    "131715.427000",
    "131717.428000",
    "131719.427000",
    "131721.427000",
    "131723.427000",
    "131725.426000",
    "131727.426000",
    "131729.428000",
    "131731.427000",
    "131733.428000",
    "131735.428000",
    "131737.427000",
    "131739.426000",
    "131741.427000",
    "131743.427000",
    "131745.426000",
    "131747.427000",
    "131749.428000",
    "131751.428000",
    "131753.427000",
    "131755.426000",
    "131757.427000",
    "131759.426000",
    "131801.427000",
    "131803.427000",
    "131805.428000",
    "131807.427000",
    "131809.428000",
    "131811.427000",
    "131813.427000",
    "131815.427000",
    "131817.426000",
    "131819.426000",
    "131821.428000",
    "131823.427000",
    "131825.428000",
    "131827.428000",
    "131829.427000",
    "131831.427000",
    "131833.426000",
    "131835.426000",
    "131837.426000",
    "131839.437000",
    "131841.427000",
    "131843.428000",
    "131845.428000",
    "131847.426000",
    "131849.426000",
    "131851.426000",
    "131853.427000",
    "131855.426000",
    "131857.428000",
    "131859.428000",
    "131901.428000",
    "131903.426000",
    "131905.427000",
    "131907.426000",
    "131909.426000",
    "131911.427000",
    "131913.427000",
    "131915.428000",
    "131917.427000",
    "131919.427000",
    "131921.426000",
    "131923.426000",
    "131925.426000",
    "131927.100000"
   ],
   "InstanceNumber": [
    1,
    2,
    3,
    4,
    5,
    6,
    7,
    8,
    9,
    10,
    11,
    12,
    13,
    14,
    15,
    16,
    17,
    18,
    19,
    20,
    21,
    22,
    23,
    24,
    25,
    26,
    27,
    28,
    29,
    30,
    31,
    32,
    33,
    34,
    35,
    36,
    37,
    38,
    39,
    40,
    41,
    42,
    43,
    44,
    45,
    46,
    47,
    48,
    49,
    50,
    51,
    52,
    53,
    54,
    55,
    56,
    57,
    58,
    59,
    60,
    61,
    62,
    63,
    64,
    65,
    66,
    67,
    68,
    69,
    70,
    71,
    72,
    73,
    74,
    75,
    76,
    77,
    78,
    79,
    80,
    81,
    82,
    83,
    84,
    85,
    86,
    87,
    88,
    89,
    90,
    91,
    92,
    93,
    94,
    95,
    96,
    97,
    98,
    99,
    100,
    101,
    102,
    103,
    104,
    105,
    106,
    107,
    108,
    109,
    110,
    111,
    112,
    113,
    114,
    115,
    116,
    117,
    118,
    119,
    120,
    121,
    122,
    123,
    124,
    125,
    126,
    127,
    128,
    129,
    130,
    131,
    132,
    133,
    134,
    135,
    136,
    137,
    138,
    139,
    140,
    141,
    142,
    143,
    144,
    145,
    146,
    147,
    148,
    149,
    150,
    151,
    152,
    153,
    154,
    155,
    156,
    157,
    158,
    159,
    160,
    161,
    162,
    163,
    164,
    165,
    166,
    167,
    168,
    169,
    170,
    171,
    172,
    173,
    174,
    175,
    176,
    177,
    178,
    179,
    180,
    181,
    182,
    183,
    184,
    185,
    186,
    187,
    188,
    189,
    190,
    191,
    192,
    193,
    194,
    195,
    196,
    197,
    198,
    199,
    200,
    201,
    202,
    203,
    204,
    205,
    206,
    207,
    208,
    209,
    210,
    211,
    212,
    213,
    214,
    215,
    216,
    217,
    218,
    219,
    220,
    221,
    222,
    223,
    224,
    225,
    226,
    227,
    228,
    229,
    230,
    231,
    232,
    233,
    234,
    235,
    236,
    237,
    238,
    239,
    240,
    241,
    242,
    243,
    244,
    245,
    246,
    247,
    248,
    249,
    250,
    251,
    252,
    253,
    254,
    255,
    256
   ],
   "LargestImagePixelValue": [
    3621,
    3631,
    3569,
    3562,
    3573,
    3615,
    3571,
    3553,
    3546,
    3556,
    3539,
    3559,
    3517,
    3532,
    3533,
    3505,
    3513,
    3516,
    3485,
    3497,
    3485,
    3523,
    3488,
    3530,
    3529,
    3504,
    3497,
    3531,
    3521,
    3556,
    3494,
    3551,
    3487,
    3494,
    3493,
    3496,
    3512,
    3488,
    3511,
    3490,
    3501,
    3512,
    3534,
    3517,
    3528,
    3506,
    3467,
    3496,
    3497,
    3483,
    3485,
    3499,
    3486,
    3505,
    3477,
    3505,
    3489,
    3506,
    3503,
    3486,
    3497,
    3495,
    3487,
    3498,
    3511,
    3521,
    3513,
    3520,
    3512,
    3483,
    3505,
    3504,
    3514,
    3511,
    3538,
    3502,
    3521,
    3507,
    3532,
    3531,
    3509,
    3548,
    3527,
    3526,
    3525,
    3514,
    3508,
    3523,
    3520,
    3531,
    3562,
    3545,
    3552,
    3569,
    3555,
    3581,
    3569,
    3571,
    3548,
    3580,
    3547,
    3556,
    3521,
    3529,
    3514,
    3511,
    3520,
    3554,
    3541,
    3547,
    3566,
    3546,
    3582,
    3550,
    3553,
    3524,
    3532,
    3523,
    3549,
    3538,
    3540,
    3549,
    3571,
    3567,
    3531,
    3521,
    3569,
    3570,
    3601,
    3575,
    3585,
    3564,
    3562,
    3553,
    3572,
    3571,
    3556,
    3565,
    3543,
    3557,
    3585,
    3581,
    3607,
    3569,
    3579,
    3573,
    3566,
    3576,
    3582,
    3583,
    3587,
    3597,
    3590,
    3573,
    3603,
    3597,
    3564,
    3599,
    3583,
    3595,
    3598,
    3626,
    3610,
    3600,
    3606,
    3592,
    3594,
    3576,
    3609,
    3599,
    3591,
    3612,
    3597,
    3576,
    3602,
    3601,
    3596,
    3597,
    3599,
    3615,
    3573,
    3566,
    3589,
    3575,
    3612,
    3586,
    3583,
    3585,
    3609,
    3583,
    3592,
    3567,
    3597,
    3567,
    3591,
    3582,
    3605,
    3573,
    3603,
    3591,
    3581,
    3602,
    3601,
    3612,
    3632,
    3603,
    3623,
    3603,
    3615,
    3575,
    3587,
    3581,
    3585,
    3605,
    3620,
    3628,
    3597,
    3660,
    3631,
    3653,
    3614,
    3626,
    3614,
    3637,
    3616,
    3633,
    3633,
    3611,
    3645,
    3605,
    3623,
    3600,
    3629,
    3634,
    3617,
    3642,
    3601,
    3637,
    3645,
    3650,
    3655,
    3668,
    3664,
    3658,
    3675,
    3639,
    3651,
    3634,
    3644,
    3657,
    3663,
    3673,
    3684,
    3664,
    3676,
    3643
   ],
   "WindowCenter": [
    794.0,
    793.0,
    793.0,
    795.0,
    795.0,
    794.0,
    794.0,
    793.0,
    794.0,
    793.0,
    794.0,
    794.0,
    794.0,
    795.0,
    796.0,
    795.0,
    794.0,
    792.0,
    793.0,
    794.0,
    792.0,
    792.0,
    793.0,
    794.0,
    793.0,
    793.0,
    794.0,
    794.0,
    793.0,
    791.0,
    791.0,
    791.0,
    789.0,
    789.0,
    788.0,
    788.0,
    788.0,
    789.0,
    791.0,
    791.0,
    791.0,
    792.0,
    792.0,
    792.0,
    790.0,
    790.0,
    790.0,
    791.0,
    791.0,
    792.0,
    791.0,
    791.0,
    791.0,
    792.0,
    792.0,
    791.0,
    790.0,
    790.0,
    791.0,
    792.0,
    791.0,
    791.0,
    791.0,
    791.0,
    790.0,
    791.0,
    791.0,
    790.0,
    789.0,
    788.0,
    790.0,
    791.0,
    791.0,
    791.0,
    791.0,
    792.0,
    793.0,
    792.0,
    792.0,
    792.0,
    792.0,
    792.0,
    793.0,
    793.0,
    794.0,
    794.0,
    795.0,
    793.0,
    792.0,
    792.0,
    793.0,
    794.0,
    793.0,
    792.0,
    791.0,
    790.0,
    791.0,
    791.0,
    791.0,
    790.0,
    791.0,
    791.0,
    791.0,
    791.0,
    792.0,
    791.0,
    792.0,
    792.0,
    792.0,
