{
  "AcquisitionMatrixPE": 100,
  "AcquisitionNumber": 1,
  "AcquisitionTime": "10:10:33.325000",
  "BandwidthPerPixelPhaseEncode": 18.519,
  "BaseResolution": 100,
  "BodyPartExamined": "BRAIN",
  "ConsistencyInfo": "N4_VE11C_LATEST_20160120",
  "ConversionSoftware": "dcm2niix",
  "ConversionSoftwareVersion": "v1.0.20180622 GCC4.9.2",
  "DerivedVendorReportedEchoSpacing": 0.000539986,
  "DeviceSerialNumber": "166078",
  "DwellTime": 2.1e-06,
  "EchoTime": 0.034,
  "EchoTrainLength": 100,
  "EffectiveEchoSpacing": 0.000539986,
  "FlipAngle": 90,
  "ImageOrientationPatientDICOM": [1, 0, 0, 0, 0.994881, -0.101056],
  "ImageType": [
    "ORIGINAL",
    "PRIMARY",
    "M",
    "ND",
    "MOSAIC"
],
  "InPlanePhaseEncodingDirectionDICOM": "COL",
  "InstitutionAddress": "Street_StreetNo_Bei_Jing_District_CN_ZIP",
  "InstitutionName": "BeiJing_Normal_University",
  "InstitutionalDepartmentName": "Department",
  "MRAcquisitionType": "2D",
  "MagneticFieldStrength": 3,
  "Manufacturer": "Siemens",
  "ManufacturersModelName": "Prisma",
  "Modality": "MR",
  "MultibandAccelerationFactor": 3,
  "PartialFourier": 1,
  "PatientPosition": "HFS",
  "PercentPhaseFOV": 100,
  "PhaseEncodingDirection": "j-",
  "PhaseEncodingSteps": 100,
  "PhaseResolution": 1,
  "PixelBandwidth": 2380,
  "ProcedureStepDescription": "BNU_P2018_64CH_Zhen.ZongLei",
  "ProtocolName": "bold_100x100_s3_2x2x2_static_test_241",
  "PulseSequenceDetails": "%SiemensSeq%_ep2d_bold",
  "ReceiveCoilActiveElements": "HC1-7;NC1",
  "ReceiveCoilName": "HeadNeck_64",
  "ReconMatrixPE": 100,
  "RepetitionTime": 2,
  "SAR": 0.065392,
  "ScanOptions": "FS",
  "ScanningSequence": "EP",
  "SequenceName": "_epfid2d1_100",
  "SequenceVariant": "SK",
  "SeriesDescription": "bold_100x100_s3_2x2x2_static_test_241",
  "SeriesNumber": 12,
  "ShimSetting": [-5447, -11475, -1302, 268, 37, -87, -192, 94],
  "SliceThickness": 2,
  "SliceTiming": [1.485, 0, 0.99, 0.0825, 1.0725, 0.165, 1.155, 0.2475, 1.2375, 0.33, 1.32, 0.4125, 1.4025, 0.5775, 1.5675, 0.66, 1.65, 0.7425, 1.7325, 0.825, 1.815, 0.9075, 1.8975, 0.495, 1.485, 0, 0.99, 0.0825, 1.0725, 0.165, 1.155, 0.2475, 1.2375, 0.33, 1.32, 0.4125, 1.4025, 0.5775, 1.5675, 0.66, 1.65, 0.7425, 1.7325, 0.825, 1.815, 0.9075, 1.8975, 0.495, 1.485, 0, 0.99, 0.0825, 1.0725, 0.165, 1.155, 0.2475, 1.2375, 0.33, 1.32, 0.4125, 1.4025, 0.5775, 1.5675, 0.66, 1.65, 0.7425, 1.7325, 0.825, 1.815, 0.9075, 1.8975, 0.495],
  "SoftwareVersions": "syngo_MR_E11",
  "SpacingBetweenSlices": 2,
  "StationName": "AWP166078",
  "TaskName": "naturalvision2",
  "TotalReadoutTime": 0.0534586,
  "TxRefAmp": 222.721,
  "dcmmeta_affine": [
    [-2.0, 0.0, 0.0, 102.69879150390625],
    [0.0, 1.989761471748352, -0.2021125853061676, -85.5859603881836],
    [0.0, 0.2021125853061676, 1.989761471748352, -80.63643646240234],
    [0.0, 0.0, 0.0, 1.0]
],
  "dcmmeta_reorient_transform": [
    [0.0, -1.0, 0.0, 99.0],
    [1.0, 0.0, 0.0, 0.0],
    [0.0, 0.0, 1.0, 0.0],
    [0.0, 0.0, 0.0, 1.0]
],
  "dcmmeta_shape": [100, 100, 72, 241],
  "dcmmeta_slice_dim": 2,
  "dcmmeta_version": 0.6,
  "global": {
    "const": {
      "AcquisitionMatrix": [100, 0, 0, 100],
      "AngioFlag": "N",
      "BitsAllocated": 16,
      "BitsStored": 12,
      "BodyPartExamined": "BRAIN",
      "Columns": 900,
      "EchoNumbers": 1,
      "EchoTime": 34.0,
      "EchoTrainLength": 100,
      "FlipAngle": 90.0,
      "HighBit": 11,
      "ImageOrientationPatient": [1.0, 0.0, 0.0, 0.0, 0.99488070921592, -0.1010562933717],
      "ImagePositionPatient": [-902.69879508018, -907.30498513423, 20.217746248858],
      "ImageType": [
        "ORIGINAL",
        "PRIMARY",
        "M",
        "ND",
        "MOSAIC"
],
      "ImagedNucleus": "1H",
      "ImagingFrequency": 123.25777,
      "InPlanePhaseEncodingDirection": "COL",
      "MRAcquisitionType": "2D",
      "MagneticFieldStrength": 3.0,
      "Manufacturer": "SIEMENS",
      "ManufacturerModelName": "Prisma",
      "Modality": "MR",
      "NumberOfAverages": 1.0,
      "NumberOfPhaseEncodingSteps": 100,
      "PercentPhaseFieldOfView": 100.0,
      "PercentSampling": 100.0,
      "PerformedProcedureStepStartTime": "085951.111000",
      "PhotometricInterpretation": "MONOCHROME2",
      "PixelBandwidth": 2380.0,
      "PixelRepresentation": 0,
      "PixelSpacing": [2.0, 2.0],
      "ProtocolName": "bold_100x100_s3_2x2x2_static_test_241",
      "RepetitionTime": 2000.0,
      "Rows": 900,
      "SAR": 0.06539198227493,
      "SamplesPerPixel": 1,
      "ScanOptions": "FS",
      "ScanningSequence": "EP",
      "SequenceName": "*epfid2d1_100",
      "SequenceVariant": "SK",
      "SeriesDescription": "bold_100x100_s3_2x2x2_static_test_241",
      "SeriesNumber": 12,
      "SeriesTime": "101035.595000",
      "SliceLocation": -71.574633028492,
      "SliceThickness": 2.0,
      "SmallestImagePixelValue": 0,
      "SoftwareVersions": "syngo MR E11",
      "SpacingBetweenSlices": 2.0000000427749,
      "SpecificCharacterSet": "ISO_IR 100",
      "StudyID": "1",
      "StudyTime": "085950.984000",
      "TransmitCoilName": "Body",
      "VariableFlipAngleFlag": "N",
      "WindowCenterWidthExplanation": "Algo1",
      "dBdt": 0.0},
    "slices": {}
  },
  "time": {
    "samples": {
      "AcquisitionNumber": [1, 2, 3, 4, 5, 6, 7, 8, 9, 10, 11, 12, 13, 14, 15, 16, 17, 18, 19, 20, 21, 22, 23, 24, 25, 26, 27, 28, 29, 30, 31, 32, 33, 34, 35, 36, 37, 38, 39, 40, 41, 42, 43, 44, 45, 46, 47, 48, 49, 50, 51, 52, 53, 54, 55, 56, 57, 58, 59, 60, 61, 62, 63, 64, 65, 66, 67, 68, 69, 70, 71, 72, 73, 74, 75, 76, 77, 78, 79, 80, 81, 82, 83, 84, 85, 86, 87, 88, 89, 90, 91, 92, 93, 94, 95, 96, 97, 98, 99, 100, 101, 102, 103, 104, 105, 106, 107, 108, 109, 110, 111, 112, 113, 114, 115, 116, 117, 118, 119, 120, 121, 122, 123, 124, 125, 126, 127, 128, 129, 130, 131, 132, 133, 134, 135, 136, 137, 138, 139, 140, 141, 142, 143, 144, 145, 146, 147, 148, 149, 150, 151, 152, 153, 154, 155, 156, 157, 158, 159, 160, 161, 162, 163, 164, 165, 166, 167, 168, 169, 170, 171, 172, 173, 174, 175, 176, 177, 178, 179, 180, 181, 182, 183, 184, 185, 186, 187, 188, 189, 190, 191, 192, 193, 194, 195, 196, 197, 198, 199, 200, 201, 202, 203, 204, 205, 206, 207, 208, 209, 210, 211, 212, 213, 214, 215, 216, 217, 218, 219, 220, 221, 222, 223, 224, 225, 226, 227, 228, 229, 230, 231, 232, 233, 234, 235, 236, 237, 238, 239, 240, 241],
      "AcquisitionTime": ["101033.325000", "101035.325000", "101037.325000", "101039.325000", "101041.325000", "101043.325000", "101045.325000", "101047.325000", "101049.325000", "101051.325000", "101053.325000", "101055.325000", "101057.325000", "101059.325000", "101101.325000", "101103.325000", "101105.325000", "101107.325000", "101109.325000", "101111.325000", "101113.325000", "101115.325000", "101117.325000", "101119.325000", "101121.325000", "101123.325000", "101125.325000", "101127.325000", "101129.325000", "101131.325000", "101133.325000", "101135.325000", "101137.325000", "101139.325000", "101141.325000", "101143.325000", "101145.325000", "101147.325000", "101149.325000", "101151.325000", "101153.325000", "101155.325000", "101157.325000", "101159.325000", "101201.325000", "101203.325000", "101205.325000", "101207.325000", "101209.325000", "101211.325000", "101213.325000", "101215.325000", "101217.325000", "101219.325000", "101221.325000", "101223.325000", "101225.325000", "101227.325000", "101229.325000", "101231.325000", "101233.325000", "101235.325000", "101237.325000", "101239.325000", "101241.325000", "101243.325000", "101245.325000", "101247.325000", "101249.325000", "101251.325000", "101253.325000", "101255.325000", "101257.325000", "101259.325000", "101301.325000", "101303.325000", "101305.325000", "101307.325000", "101309.325000", "101311.325000", "101313.325000", "101315.325000", "101317.325000", "101319.325000", "101321.325000", "101323.325000", "101325.325000", "101327.325000", "101329.325000", "101331.325000", "101333.325000", "101335.325000", "101337.325000", "101339.325000", "101341.325000", "101343.325000", "101345.325000", "101347.325000", "101349.325000", "101351.325000", "101353.325000", "101355.325000", "101357.325000", "101359.325000", "101401.325000", "101403.325000", "101405.325000", "101407.325000", "101409.325000", "101411.325000", "101413.325000", "101415.325000", "101417.325000", "101419.325000", "101421.325000", "101423.325000", "101425.325000", "101427.325000", "101429.325000", "101431.325000", "101433.325000", "101435.325000", "101437.325000", "101439.325000", "101441.325000", "101443.325000", "101445.325000", "101447.325000", "101449.325000", "101451.325000", "101453.325000", "101455.325000", "101457.325000", "101459.325000", "101501.325000", "101503.325000", "101505.325000", "101507.325000", "101509.325000", "101511.325000", "101513.325000", "101515.325000", "101517.325000", "101519.325000", "101521.325000", "101523.325000", "101525.325000", "101527.325000", "101529.325000", "101531.325000", "101533.325000", "101535.325000", "101537.325000", "101539.325000", "101541.325000", "101543.325000", "101545.325000", "101547.325000", "101549.325000", "101551.325000", "101553.325000", "101555.325000", "101557.325000", "101559.325000", "101601.325000", "101603.325000", "101605.325000", "101607.325000", "101609.325000", "101611.325000", "101613.325000", "101615.325000", "101617.325000", "101619.325000", "101621.325000", "101623.325000", "101625.325000", "101627.325000", "101629.325000", "101631.325000", "101633.325000", "101635.325000", "101637.325000", "101639.325000", "101641.325000", "101643.325000", "101645.325000", "101647.325000", "101649.325000", "101651.325000", "101653.325000", "101655.325000", "101657.325000", "101659.325000", "101701.325000", "101703.325000", "101705.325000", "101707.325000", "101709.325000", "101711.325000", "101713.325000", "101715.325000", "101717.325000", "101719.325000", "101721.325000", "101723.325000", "101725.325000", "101727.325000", "101729.325000", "101731.325000", "101733.325000", "101735.325000", "101737.325000", "101739.325000", "101741.325000", "101743.325000", "101745.325000", "101747.325000", "101749.325000", "101751.325000", "101753.325000", "101755.325000", "101757.325000", "101759.325000", "101801.325000", "101803.325000", "101805.325000", "101807.325000", "101809.325000", "101811.325000", "101813.325000", "101815.325000", "101817.325000", "101819.325000", "101821.325000", "101823.325000", "101825.325000", "101827.325000", "101829.325000", "101831.325000", "101833.325000"],
      "ContentTime": ["101035.599000", "101037.095000", "101039.095000", "101041.094000", "101043.095000", "101045.096000", "101047.095000", "101049.095000", "101051.095000", "101053.094000", "101055.094000", "101057.094000", "101059.095000", "101101.096000", "101103.095000", "101105.096000", "101107.095000", "101109.094000", "101111.095000", "101113.095000", "101115.094000", "101117.095000", "101119.095000", "101121.095000", "101123.095000", "101125.094000", "101127.094000", "101129.094000", "101131.095000", "101133.095000", "101135.095000", "101137.095000", "101139.096000", "101141.096000", "101143.095000", "101145.094000", "101147.095000", "101149.094000", "101151.094000", "101153.095000", "101155.095000", "101157.096000", "101159.095000", "101201.094000", "101203.094000", "101205.095000", "101207.095000", "101209.094000", "101211.096000", "101213.095000", "101215.096000", "101217.096000", "101219.094000", "101221.095000", "101223.595000", "101225.095000", "101227.095000", "101229.096000", "101231.095000", "101233.095000", "101235.095000", "101237.095000", "101239.094000", "101241.095000", "101243.095000", "101245.095000", "101247.096000", "101249.096000", "101251.095000", "101253.095000", "101255.094000", "101257.095000", "101259.095000", "101301.094000", "101303.095000", "101305.096000", "101307.095000", "101309.096000", "101311.095000", "101313.095000", "101315.094000", "101317.095000", "101319.094000", "101321.095000", "101323.095000", "101325.096000", "101327.096000", "101329.094000", "101331.094000", "101333.094000", "101335.095000", "101337.096000", "101339.095000", "101341.096000", "101343.096000", "101345.094000", "101347.094000", "101349.094000", "101351.094000", "101353.095000", "101355.095000", "101357.095000", "101359.096000", "101401.095000", "101403.095000", "101405.094000", "101407.094000", "101409.095000", "101411.095000", "101413.096000", "101415.096000", "101417.095000", "101419.095000", "101421.094000", "101423.095000", "101425.095000", "101427.094000", "101429.095000", "101431.096000", "101433.095000", "101435.095000", "101437.095000", "101439.094000", "101441.095000", "101443.095000", "101445.094000", "101447.096000", "101449.096000", "101451.096000", "101453.095000", "101455.094000", "101457.095000", "101459.095000", "101501.094000", "101503.095000", "101505.096000", "101507.096000", "101509.096000", "101511.095000", "101513.095000", "101515.095000", "101517.095000", "101519.095000", "101521.095000", "101523.096000", "101525.096000", "101527.096000", "101529.095000", "101531.095000", "101533.094000", "101535.095000", "101537.094000", "101539.095000", "101541.096000", "101543.096000", "101545.096000", "101547.096000", "101549.094000", "101551.094000", "101553.095000", "101555.094000", "101557.096000", "101559.095000", "101601.096000", "101603.095000", "101605.094000", "101607.095000", "101609.094000", "101611.095000", "101613.095000", "101615.095000", "101617.096000", "101619.095000", "101621.095000", "101623.094000", "101625.095000", "101627.094000", "101629.095000", "101631.095000", "101633.096000", "101635.096000", "101637.096000", "101639.096000", "101641.095000", "101643.095000", "101645.094000", "101647.095000", "101649.133000", "101651.095000", "101653.096000", "101655.096000", "101657.095000", "101659.095000", "101701.094000", "101703.095000", "101705.094000", "101707.096000", "101709.095000", "101711.096000", "101713.096000", "101715.095000", "101717.094000", "101719.094000", "101721.094000", "101723.094000", "101725.096000", "101727.096000", "101729.096000", "101731.096000", "101733.095000", "101735.095000", "101737.094000", "101739.095000", "101741.095000", "101743.096000", "101745.096000", "101747.095000", "101749.095000", "101751.094000", "101753.095000", "101755.095000", "101757.095000", "101759.096000", "101801.095000", "101803.096000", "101805.095000", "101807.595000", "101809.094000", "101811.095000", "101813.094000", "101815.095000", "101817.096000", "101819.096000", "101821.096000", "101823.095000", "101825.094000", "101827.095000", "101829.094000", "101831.095000", "101833.094000", "101834.891000"],
      "InstanceCreationTime": ["101035.599000", "101037.095000", "101039.095000", "101041.094000", "101043.095000", "101045.096000", "101047.095000", "101049.095000", "101051.095000", "101053.094000", "101055.094000", "101057.094000", "101059.095000", "101101.096000", "101103.095000", "101105.096000", "101107.095000", "101109.094000", "101111.095000", "101113.095000", "101115.094000", "101117.095000", "101119.095000", "101121.095000", "101123.095000", "101125.094000", "101127.094000", "101129.094000", "101131.095000", "101133.095000", "101135.095000", "101137.095000", "101139.096000", "101141.096000", "101143.095000", "101145.094000", "101147.095000", "101149.094000", "101151.094000", "101153.095000", "101155.095000", "101157.096000", "101159.095000", "101201.094000", "101203.094000", "101205.095000", "101207.095000", "101209.094000", "101211.096000", "101213.095000", "101215.096000", "101217.096000", "101219.094000", "101221.095000", "101223.595000", "101225.095000", "101227.095000", "101229.096000", "101231.095000", "101233.095000", "101235.095000", "101237.095000", "101239.094000", "101241.095000", "101243.095000", "101245.095000", "101247.096000", "101249.096000", "101251.095000", "101253.095000", "101255.094000", "101257.095000", "101259.095000", "101301.094000", "101303.095000", "101305.096000", "101307.095000", "101309.096000", "101311.095000", "101313.095000", "101315.094000", "101317.095000", "101319.094000", "101321.095000", "101323.095000", "101325.096000", "101327.096000", "101329.094000", "101331.094000", "101333.094000", "101335.095000", "101337.096000", "101339.095000", "101341.096000", "101343.096000", "101345.094000", "101347.094000", "101349.094000", "101351.094000", "101353.095000", "101355.095000", "101357.095000", "101359.096000", "101401.095000", "101403.095000", "101405.094000", "101407.094000", "101409.095000", "101411.095000", "101413.096000", "101415.096000", "101417.095000", "101419.095000", "101421.094000", "101423.095000", "101425.095000", "101427.094000", "101429.095000", "101431.096000", "101433.095000", "101435.095000", "101437.095000", "101439.094000", "101441.095000", "101443.095000", "101445.094000", "101447.096000", "101449.096000", "101451.096000", "101453.095000", "101455.094000", "101457.095000", "101459.095000", "101501.094000", "101503.095000", "101505.096000", "101507.096000", "101509.096000", "101511.095000", "101513.095000", "101515.095000", "101517.095000", "101519.095000", "101521.095000", "101523.096000", "101525.096000", "101527.096000", "101529.095000", "101531.095000", "101533.094000", "101535.095000", "101537.094000", "101539.095000", "101541.096000", "101543.096000", "101545.096000", "101547.096000", "101549.094000", "101551.094000", "101553.095000", "101555.094000", "101557.096000", "101559.095000", "101601.096000", "101603.095000", "101605.094000", "101607.095000", "101609.094000", "101611.095000", "101613.095000", "101615.095000", "101617.096000", "101619.095000", "101621.095000", "101623.094000", "101625.095000", "101627.094000", "101629.095000", "101631.095000", "101633.096000", "101635.096000", "101637.096000", "101639.096000", "101641.095000", "101643.095000", "101645.094000", "101647.095000", "101649.133000", "101651.095000", "101653.096000", "101655.096000", "101657.095000", "101659.095000", "101701.094000", "101703.095000", "101705.094000", "101707.096000", "101709.095000", "101711.096000", "101713.096000", "101715.095000", "101717.094000", "101719.094000", "101721.094000", "101723.094000", "101725.096000", "101727.096000", "101729.096000", "101731.096000", "101733.095000", "101735.095000", "101737.094000", "101739.095000", "101741.095000", "101743.096000", "101745.096000", "101747.095000", "101749.095000", "101751.094000", "101753.095000", "101755.095000", "101757.095000", "101759.096000", "101801.095000", "101803.096000", "101805.095000", "101807.595000", "101809.094000", "101811.095000", "101813.094000", "101815.095000", "101817.096000", "101819.096000", "101821.096000", "101823.095000", "101825.094000", "101827.095000", "101829.094000", "101831.095000", "101833.094000", "101834.891000"],
      "InstanceNumber": [1, 2, 3, 4, 5, 6, 7, 8, 9, 10, 11, 12, 13, 14, 15, 16, 17, 18, 19, 20, 21, 22, 23, 24, 25, 26, 27, 28, 29, 30, 31, 32, 33, 34, 35, 36, 37, 38, 39, 40, 41, 42, 43, 44, 45, 46, 47, 48, 49, 50, 51, 52, 53, 54, 55, 56, 57, 58, 59, 60, 61, 62, 63, 64, 65, 66, 67, 68, 69, 70, 71, 72, 73, 74, 75, 76, 77, 78, 79, 80, 81, 82, 83, 84, 85, 86, 87, 88, 89, 90, 91, 92, 93, 94, 95, 96, 97, 98, 99, 100, 101, 102, 103, 104, 105, 106, 107, 108, 109, 110, 111, 112, 113, 114, 115, 116, 117, 118, 119, 120, 121, 122, 123, 124, 125, 126, 127, 128, 129, 130, 131, 132, 133, 134, 135, 136, 137, 138, 139, 140, 141, 142, 143, 144, 145, 146, 147, 148, 149, 150, 151, 152, 153, 154, 155, 156, 157, 158, 159, 160, 161, 162, 163, 164, 165, 166, 167, 168, 169, 170, 171, 172, 173, 174, 175, 176, 177, 178, 179, 180, 181, 182, 183, 184, 185, 186, 187, 188, 189, 190, 191, 192, 193, 194, 195, 196, 197, 198, 199, 200, 201, 202, 203, 204, 205, 206, 207, 208, 209, 210, 211, 212, 213, 214, 215, 216, 217, 218, 219, 220, 221, 222, 223, 224, 225, 226, 227, 228, 229, 230, 231, 232, 233, 234, 235, 236, 237, 238, 239, 240, 241],
      "LargestImagePixelValue": [3341, 3332, 3320, 3337, 3311, 3283, 3365, 3304, 3357, 3372, 3400, 3375, 3394, 3388, 3384, 3409, 3425, 3410, 3415, 3404, 3401, 3374, 3379, 3357, 3419, 3388, 3387, 3388, 3349, 3355, 3360, 3324, 3372, 3349, 3339, 3353, 3339, 3370, 3326, 3337, 3322, 3346, 3313, 3360, 3306, 3312, 3328, 3314, 3282, 3331, 3334, 3363, 3332, 3308, 3336, 3301, 3292, 3326, 3264, 3274, 3239, 3238, 3223, 3202, 3187, 3212, 3185, 3157, 3131, 3103, 3138, 3102, 3126, 3096, 3122, 3092, 3156, 3126, 3139, 3222, 3156, 3218, 3166, 3168, 3138, 3149, 3195, 3164, 3192, 3158, 3179, 3207, 3181, 3199, 3156, 3173, 3158, 3185, 3157, 3132, 3147, 3196, 3181, 3201, 3166, 3206, 3172, 3238, 3186, 3259, 3183, 3199, 3180, 3210, 3207, 3198, 3235, 3179, 3213, 3194, 3259, 3238, 3280, 3222, 3221, 3225, 3258, 3258, 3283, 3258, 3262, 3228, 3266, 3250, 3270, 3264, 3291, 3301, 3323, 3297, 3338, 3298, 3302, 3293, 3294, 3214, 3246, 3275, 3282, 3275, 3246, 3239, 3264, 3264, 3279, 3302, 3260, 3254, 3261, 3296, 3285, 3316, 3301, 3281, 3262, 3316, 3251, 3272, 3255, 3244, 3259, 3256, 3258, 3274, 3269, 3285, 3279, 3280, 3283, 3239, 3259, 3223, 3251, 3258, 3264, 3261, 3278, 3252, 3270, 3227, 3265, 3244, 3262, 3216, 3234, 3213, 3231, 3202, 3229, 3199, 3188, 3194, 3196, 3136, 3144, 3187, 3144, 3152, 3186, 3113, 3155, 3128, 3177, 3091, 3096, 3087, 3124, 3142, 3135, 3147, 3097, 3071, 3047, 3051, 3014, 3018, 2998, 3030, 3002, 3016, 3011, 2952, 3013, 3004, 3054, 3027, 3055, 3054, 3127, 3068, 3109],
      "WindowCenter": [812.0, 809.0, 809.0, 809.0, 811.0, 810.0, 809.0, 809.0, 809.0, 809.0, 809.0, 809.0, 809.0, 808.0, 808.0, 808.0, 807.0, 808.0, 808.0, 808.0, 809.0, 809.0, 809.0, 809.0, 809.0, 809.0, 809.0, 809.0, 809.0, 808.0, 807.0, 808.0, 809.0, 810.0, 809.0, 808.0, 807.0, 808.0, 808.0, 808.0, 807.0, 807.0, 808.0, 808.0, 808.0, 808.0, 807.0, 808.0, 808.0, 808.0, 807.0, 806.0, 806.0, 806.0, 807.0, 807.0, 806.0, 806.0, 806.0, 806.0, 805.0, 805.0, 805.0, 805.0, 805.0, 806.0, 805.0, 804.0, 803.0, 803.0, 804.0, 804.0, 804.0, 803.0, 804.0, 803.0, 804.0, 803.0, 804.0, 804.0, 805.0, 805.0, 804.0, 804.0, 805.0, 805.0, 804.0, 804.0, 804.0, 804.0, 804.0, 804.0, 803.0, 802.0, 802.0, 802.0, 801.0, 801.0, 803.0, 803.0, 803.0, 803.0, 804.0, 804.0, 804.0, 804.0, 804.0, 804.0, 804.0, 805.0, 806.0, 805.0, 804.0, 804.0, 804.0, 805.0, 805.0, 805.0, 805.0, 804.0, 804.0, 804.0, 804.0, 803.0, 802.0, 803.0, 804.0, 804.0, 804.0, 805.0, 805.0, 805.0, 805.0, 805.0, 804.0, 804.0, 805.0, 805.0, 806.0, 806.0, 805.0, 804.0, 805.0, 805.0, 805.0, 804.0, 804.0, 805.0, 804.0, 804.0, 803.0, 803.0, 802.0, 802.0, 802.0, 803.0, 803.0, 803.0, 803.0, 804.0, 804.0, 805.0, 804.0, 805.0, 805.0, 806.0, 805.0, 805.0, 805.0, 806.0, 806.0, 805.0, 804.0, 806.0, 806.0, 805.0, 804.0, 804.0, 805.0, 806.0, 807.0, 805.0, 804.0, 805.0, 805.0, 804.0, 804.0, 803.0, 802.0, 801.0, 801.0, 802.0, 802.0, 802.0, 804.0, 804.0, 803.0, 803.0, 803.0, 803.0, 804.0, 806.0, 806.0, 805.0, 806.0, 808.0, 807.0, 805.0, 803.0, 801.0, 801.0, 800.0, 801.0, 800.0, 800.0, 800.0, 800.0, 801.0, 801.0, 802.0, 801.0, 800.0, 800.0, 801.0, 801.0, 801.0, 801.0, 802.0, 801.0, 801.0, 801.0, 800.0, 800.0, 800.0, 800.0, 801.0, 802.0, 804.0, 804.0, 803.0, 802.0],
      "WindowWidth": [1739.0, 1733.0, 1732.0, 1733.0, 1736.0, 1735.0, 1733.0, 1731.0, 1731.0, 1732.0, 1733.0, 1732.0, 1731.0, 1731.0, 1730.0, 1729.0, 1729.0, 1729.0, 1730.0, 1730.0, 1732.0, 1733.0, 1732.0, 1731.0, 1731.0, 1732.0, 1733.0, 1733.0, 1731.0, 1729.0, 1728.0, 1729.0, 1732.0, 1734.0, 1732.0, 1729.0, 1728.0, 1728.0, 1729.0, 1729.0, 1727.0, 1728.0, 1729.0, 1731.0, 1730.0, 1729.0, 1728.0, 1729.0, 1729.0, 1728.0, 1727.0, 1725.0, 1723.0, 1725.0, 1728.0, 1727.0, 1725.0, 1724.0, 1724.0, 1724.0, 1722.0, 1722.0, 1722.0, 1721.0, 1722.0, 1725.0, 1722.0, 1718.0, 1716.0, 1716.0, 1718.0, 1717.0, 1718.0, 1717.0, 1718.0, 1717.0, 1719.0, 1717.0, 1718.0, 1720.0, 1720.0, 1721.0, 1719.0, 1720.0, 1720.0, 1721.0, 1720.0, 1717.0, 1718.0, 1718.0, 1719.0, 1718.0, 1716.0, 1715.0, 1713.0, 1713.0, 1712.0, 1712.0, 1715.0, 1716.0, 1716.0, 1717.0, 1718.0, 1719.0, 1718.0, 1718.0, 1719.0, 1719.0, 1718.0, 1722.0, 1723.0, 1722.0, 1719.0, 1719.0, 1719.0, 1722.0, 1722.0, 1722.0, 1721.0, 1718.0, 1720.0, 1720.0, 1719.0, 1716.0, 1715.0, 1717.0, 1719.0, 1719.0, 1719.0, 1722.0, 1722.0, 1722.0, 1722.0, 1722.0, 1720.0, 1720.0, 1722.0, 1723.0, 1724.0, 1724.0, 1723.0, 1720.0, 1721.0, 1721.0, 1723.0, 1720.0, 1720.0, 1720.0, 1720.0, 1718.0, 1716.0, 1715.0, 1714.0, 1713.0, 1713.0, 1716.0, 1715.0, 1716.0, 1715.0, 1718.0, 1719.0, 1721.0, 1720.0, 1721.0, 1722.0, 1724.0, 1722.0, 1721.0, 1722.0, 1726.0, 1725.0, 1722.0, 1720.0, 1724.0, 1724.0, 1723.0, 1720.0, 1719.0, 1721.0, 1724.0, 1726.0, 1721.0, 1720.0, 1721.0, 1722.0, 1719.0, 1718.0, 1716.0, 1713.0, 1711.0, 1712.0, 1713.0, 1714.0, 1715.0, 1717.0, 1718.0, 1717.0, 1715.0, 1716.0, 1717.0, 1719.0, 1722.0, 1723.0, 1722.0, 1725.0, 1729.0, 1726.0, 1720.0, 1715.0, 1711.0, 1711.0, 1709.0, 1712.0, 1709.0, 1709.0, 1707.0, 1708.0, 1711.0, 1712.0, 1713.0, 1710.0, 1708.0, 1708.0, 1709.0, 1710.0, 1711.0, 1710.0, 1713.0, 1711.0, 1711.0, 1710.0, 1708.0, 1709.0, 1708.0, 1709.0, 1709.0, 1713.0, 1719.0, 1719.0, 1715.0, 1713.0]
    },
    "slices": {}
  }
}