{
  "AcquisitionMatrixPE": 100,
  "AcquisitionNumber": 1,
  "AcquisitionTime": "10:28:32.867500",
  "BandwidthPerPixelPhaseEncode": 18.519,
  "BaseResolution": 100,
  "BodyPartExamined": "BRAIN",
  "ConsistencyInfo": "N4_VE11C_LATEST_20160120",
  "ConversionSoftware": "dcm2niix",
  "ConversionSoftwareVersion": "v1.0.20180622 GCC4.9.2",
  "DerivedVendorReportedEchoSpacing": 0.000539986,
  "DeviceSerialNumber": "166078",
  "DwellTime": 2.1e-06,
  "EchoTime": 0.034,
  "EchoTrainLength": 100,
  "EffectiveEchoSpacing": 0.000539986,
  "FlipAngle": 90,
  "ImageOrientationPatientDICOM": [1, 0, 0, 0, 0.994881, -0.101056],
  "ImageType": [
    "ORIGINAL",
    "PRIMARY",
    "M",
    "ND",
    "MOSAIC"
],
  "InPlanePhaseEncodingDirectionDICOM": "COL",
  "InstitutionAddress": "Street_StreetNo_Bei_Jing_District_CN_ZIP",
  "InstitutionName": "BeiJing_Normal_University",
  "InstitutionalDepartmentName": "Department",
  "MRAcquisitionType": "2D",
  "MagneticFieldStrength": 3,
  "Manufacturer": "Siemens",
  "ManufacturersModelName": "Prisma",
  "Modality": "MR",
  "MultibandAccelerationFactor": 3,
  "PartialFourier": 1,
  "PatientPosition": "HFS",
  "PercentPhaseFOV": 100,
  "PhaseEncodingDirection": "j-",
  "PhaseEncodingSteps": 100,
  "PhaseResolution": 1,
  "PixelBandwidth": 2380,
  "ProcedureStepDescription": "BNU_P2018_64CH_Zhen.ZongLei",
  "ProtocolName": "bold_100x100_s3_2x2x2_static_test_241",
  "PulseSequenceDetails": "%SiemensSeq%_ep2d_bold",
  "ReceiveCoilActiveElements": "HC1-7;NC1",
  "ReceiveCoilName": "HeadNeck_64",
  "ReconMatrixPE": 100,
  "RepetitionTime": 2,
  "SAR": 0.065392,
  "ScanOptions": "FS",
  "ScanningSequence": "EP",
  "SequenceName": "_epfid2d1_100",
  "SequenceVariant": "SK",
  "SeriesDescription": "bold_100x100_s3_2x2x2_static_test_241",
  "SeriesNumber": 14,
  "ShimSetting": [-5447, -11475, -1302, 268, 37, -87, -192, 94],
  "SliceThickness": 2,
  "SliceTiming": [1.485, 0, 0.99, 0.0825, 1.0725, 0.165, 1.155, 0.2475, 1.2375, 0.33, 1.32, 0.4125, 1.4025, 0.5775, 1.5675, 0.66, 1.65, 0.7425, 1.7325, 0.825, 1.815, 0.9075, 1.8975, 0.495, 1.485, 0, 0.99, 0.0825, 1.0725, 0.165, 1.155, 0.2475, 1.2375, 0.33, 1.32, 0.4125, 1.4025, 0.5775, 1.5675, 0.66, 1.65, 0.7425, 1.7325, 0.825, 1.815, 0.9075, 1.8975, 0.495, 1.485, 0, 0.99, 0.0825, 1.0725, 0.165, 1.155, 0.2475, 1.2375, 0.33, 1.32, 0.4125, 1.4025, 0.5775, 1.5675, 0.66, 1.65, 0.7425, 1.7325, 0.825, 1.815, 0.9075, 1.8975, 0.495],
  "SoftwareVersions": "syngo_MR_E11",
  "SpacingBetweenSlices": 2,
  "StationName": "AWP166078",
  "TaskName": "naturalvision2",
  "TotalReadoutTime": 0.0534586,
  "TxRefAmp": 222.721,
  "dcmmeta_affine": [
    [-2.0, 0.0, 0.0, 102.69879150390625],
    [0.0, 1.989761471748352, -0.2021125853061676, -85.5859603881836],
    [0.0, 0.2021125853061676, 1.989761471748352, -80.63643646240234],
    [0.0, 0.0, 0.0, 1.0]
],
  "dcmmeta_reorient_transform": [
    [0.0, -1.0, 0.0, 99.0],
    [1.0, 0.0, 0.0, 0.0],
    [0.0, 0.0, 1.0, 0.0],
    [0.0, 0.0, 0.0, 1.0]
],
  "dcmmeta_shape": [100, 100, 72, 241],
  "dcmmeta_slice_dim": 2,
  "dcmmeta_version": 0.6,
  "global": {
    "const": {
      "AcquisitionMatrix": [100, 0, 0, 100],
      "AngioFlag": "N",
      "BitsAllocated": 16,
      "BitsStored": 12,
      "BodyPartExamined": "BRAIN",
      "Columns": 900,
      "EchoNumbers": 1,
      "EchoTime": 34.0,
      "EchoTrainLength": 100,
      "FlipAngle": 90.0,
      "HighBit": 11,
      "ImageOrientationPatient": [1.0, 0.0, 0.0, 0.0, 0.99488070921592, -0.1010562933717],
      "ImagePositionPatient": [-902.69879508018, -907.30498513423, 20.217746248858],
      "ImageType": [
        "ORIGINAL",
        "PRIMARY",
        "M",
        "ND",
        "MOSAIC"
],
      "ImagedNucleus": "1H",
      "ImagingFrequency": 123.257775,
      "InPlanePhaseEncodingDirection": "COL",
      "MRAcquisitionType": "2D",
      "MagneticFieldStrength": 3.0,
      "Manufacturer": "SIEMENS",
      "ManufacturerModelName": "Prisma",
      "Modality": "MR",
      "NumberOfAverages": 1.0,
      "NumberOfPhaseEncodingSteps": 100,
      "PercentPhaseFieldOfView": 100.0,
      "PercentSampling": 100.0,
      "PerformedProcedureStepStartTime": "085951.111000",
      "PhotometricInterpretation": "MONOCHROME2",
      "PixelBandwidth": 2380.0,
      "PixelRepresentation": 0,
      "PixelSpacing": [2.0, 2.0],
      "ProtocolName": "bold_100x100_s3_2x2x2_static_test_241",
      "RepetitionTime": 2000.0,
      "Rows": 900,
      "SAR": 0.06539198227493,
      "SamplesPerPixel": 1,
      "ScanOptions": "FS",
      "ScanningSequence": "EP",
      "SequenceName": "*epfid2d1_100",
      "SequenceVariant": "SK",
      "SeriesDescription": "bold_100x100_s3_2x2x2_static_test_241",
      "SeriesNumber": 14,
      "SeriesTime": "102836.069000",
      "SliceLocation": -71.574633028492,
      "SliceThickness": 2.0,
      "SmallestImagePixelValue": 0,
      "SoftwareVersions": "syngo MR E11",
      "SpacingBetweenSlices": 2.0000000427749,
      "SpecificCharacterSet": "ISO_IR 100",
      "StudyID": "1",
      "StudyTime": "085950.984000",
      "TransmitCoilName": "Body",
      "VariableFlipAngleFlag": "N",
      "WindowCenterWidthExplanation": "Algo1",
      "dBdt": 0.0},
    "slices": {}
  },
  "time": {
    "samples": {
      "AcquisitionNumber": [1, 2, 3, 4, 5, 6, 7, 8, 9, 10, 11, 12, 13, 14, 15, 16, 17, 18, 19, 20, 21, 22, 23, 24, 25, 26, 27, 28, 29, 30, 31, 32, 33, 34, 35, 36, 37, 38, 39, 40, 41, 42, 43, 44, 45, 46, 47, 48, 49, 50, 51, 52, 53, 54, 55, 56, 57, 58, 59, 60, 61, 62, 63, 64, 65, 66, 67, 68, 69, 70, 71, 72, 73, 74, 75, 76, 77, 78, 79, 80, 81, 82, 83, 84, 85, 86, 87, 88, 89, 90, 91, 92, 93, 94, 95, 96, 97, 98, 99, 100, 101, 102, 103, 104, 105, 106, 107, 108, 109, 110, 111, 112, 113, 114, 115, 116, 117, 118, 119, 120, 121, 122, 123, 124, 125, 126, 127, 128, 129, 130, 131, 132, 133, 134, 135, 136, 137, 138, 139, 140, 141, 142, 143, 144, 145, 146, 147, 148, 149, 150, 151, 152, 153, 154, 155, 156, 157, 158, 159, 160, 161, 162, 163, 164, 165, 166, 167, 168, 169, 170, 171, 172, 173, 174, 175, 176, 177, 178, 179, 180, 181, 182, 183, 184, 185, 186, 187, 188, 189, 190, 191, 192, 193, 194, 195, 196, 197, 198, 199, 200, 201, 202, 203, 204, 205, 206, 207, 208, 209, 210, 211, 212, 213, 214, 215, 216, 217, 218, 219, 220, 221, 222, 223, 224, 225, 226, 227, 228, 229, 230, 231, 232, 233, 234, 235, 236, 237, 238, 239, 240, 241],
      "AcquisitionTime": ["102832.867500", "102834.867500", "102836.867500", "102838.867500", "102840.867500", "102842.867500", "102844.867500", "102846.867500", "102848.867500", "102850.867500", "102852.867500", "102854.867500", "102856.867500", "102858.867500", "102900.867500", "102902.867500", "102904.867500", "102906.867500", "102908.867500", "102910.867500", "102912.867500", "102914.867500", "102916.867500", "102918.867500", "102920.867500", "102922.867500", "102924.867500", "102926.867500", "102928.867500", "102930.867500", "102932.867500", "102934.867500", "102936.867500", "102938.867500", "102940.867500", "102942.867500", "102944.867500", "102946.867500", "102948.867500", "102950.867500", "102952.867500", "102954.867500", "102956.867500", "102958.867500", "103000.867500", "103002.867500", "103004.867500", "103006.867500", "103008.867500", "103010.867500", "103012.867500", "103014.867500", "103016.867500", "103018.867500", "103020.867500", "103022.867500", "103024.867500", "103026.867500", "103028.867500", "103030.867500", "103032.867500", "103034.867500", "103036.867500", "103038.867500", "103040.867500", "103042.867500", "103044.867500", "103046.867500", "103048.867500", "103050.867500", "103052.867500", "103054.867500", "103056.867500", "103058.867500", "103100.867500", "103102.867500", "103104.867500", "103106.867500", "103108.867500", "103110.867500", "103112.867500", "103114.867500", "103116.867500", "103118.867500", "103120.867500", "103122.867500", "103124.867500", "103126.867500", "103128.867500", "103130.867500", "103132.867500", "103134.867500", "103136.867500", "103138.867500", "103140.867500", "103142.867500", "103144.867500", "103146.867500", "103148.867500", "103150.867500", "103152.867500", "103154.867500", "103156.867500", "103158.867500", "103200.867500", "103202.867500", "103204.867500", "103206.867500", "103208.867500", "103210.867500", "103212.867500", "103214.867500", "103216.867500", "103218.867500", "103220.867500", "103222.867500", "103224.867500", "103226.867500", "103228.867500", "103230.867500", "103232.867500", "103234.867500", "103236.867500", "103238.867500", "103240.867500", "103242.867500", "103244.867500", "103246.867500", "103248.867500", "103250.867500", "103252.867500", "103254.867500", "103256.867500", "103258.867500", "103300.867500", "103302.867500", "103304.867500", "103306.867500", "103308.867500", "103310.867500", "103312.867500", "103314.867500", "103316.867500", "103318.867500", "103320.867500", "103322.867500", "103324.867500", "103326.867500", "103328.867500", "103330.867500", "103332.867500", "103334.867500", "103336.867500", "103338.867500", "103340.867500", "103342.867500", "103344.867500", "103346.867500", "103348.867500", "103350.867500", "103352.867500", "103354.867500", "103356.867500", "103358.867500", "103400.867500", "103402.867500", "103404.867500", "103406.867500", "103408.867500", "103410.867500", "103412.867500", "103414.867500", "103416.867500", "103418.867500", "103420.867500", "103422.867500", "103424.867500", "103426.867500", "103428.867500", "103430.867500", "103432.867500", "103434.867500", "103436.867500", "103438.867500", "103440.867500", "103442.867500", "103444.867500", "103446.867500", "103448.867500", "103450.867500", "103452.867500", "103454.867500", "103456.867500", "103458.867500", "103500.867500", "103502.867500", "103504.867500", "103506.867500", "103508.867500", "103510.867500", "103512.867500", "103514.867500", "103516.867500", "103518.867500", "103520.867500", "103522.867500", "103524.867500", "103526.867500", "103528.867500", "103530.867500", "103532.867500", "103534.867500", "103536.867500", "103538.867500", "103540.867500", "103542.867500", "103544.867500", "103546.867500", "103548.867500", "103550.867500", "103552.867500", "103554.867500", "103556.867500", "103558.867500", "103600.867500", "103602.867500", "103604.867500", "103606.867500", "103608.867500", "103610.867500", "103612.867500", "103614.867500", "103616.867500", "103618.867500", "103620.867500", "103622.867500", "103624.867500", "103626.867500", "103628.867500", "103630.867500", "103632.867500"],
      "ContentTime": ["102836.073000", "102837.069000", "102839.068000", "102841.068000", "102843.568000", "102845.067000", "102847.068000", "102849.068000", "102851.068000", "102853.569000", "102855.069000", "102857.069000", "102859.069000", "102901.068000", "102903.068000", "102905.069000", "102907.068000", "102909.068000", "102911.069000", "102913.069000", "102915.069000", "102917.068000", "102919.067000", "102921.568000", "102923.068000", "102925.068000", "102927.069000", "102929.068000", "102931.068000", "102933.068000", "102935.069000", "102937.067000", "102939.069000", "102941.068000", "102943.069000", "102945.069000", "102947.068000", "102949.069000", "102951.068000", "102953.069000", "102955.068000", "102957.069000", "102959.068000", "103001.068000", "103003.068000", "103005.068000", "103007.068000", "103009.069000", "103011.069000", "103013.568000", "103015.069000", "103017.068000", "103019.068000", "103021.069000", "103023.068000", "103025.068000", "103027.068000", "103029.067000", "103031.068000", "103033.068000", "103035.069000", "103037.068000", "103039.068000", "103041.069000", "103043.068000", "103045.068000", "103047.068000", "103049.069000", "103051.069000", "103053.068000", "103055.069000", "103057.068000", "103059.068000", "103101.068000", "103103.068000", "103105.067000", "103107.069000", "103109.069000", "103111.069000", "103113.069000", "103115.068000", "103117.068000", "103119.068000", "103121.068000", "103123.067000", "103125.069000", "103127.068000", "103129.068000", "103131.069000", "103133.069000", "103135.068000", "103137.068000", "103139.568000", "103141.068000", "103143.068000", "103145.069000", "103147.068000", "103149.068000", "103151.068000", "103153.069000", "103155.068000", "103157.067000", "103159.069000", "103201.069000", "103203.068000", "103205.068000", "103207.569000", "103209.069000", "103211.068000", "103213.068000", "103215.067000", "103217.068000", "103219.068000", "103221.069000", "103223.068000", "103225.069000", "103227.068000", "103229.069000", "103231.068000", "103233.067000", "103235.068000", "103237.068000", "103239.068000", "103241.068000", "103243.068000", "103245.068000", "103247.068000", "103249.068000", "103251.068000", "103253.068000", "103255.068000", "103257.068000", "103259.068000", "103301.068000", "103303.069000", "103305.069000", "103307.068000", "103309.069000", "103311.068000", "103313.068000", "103315.068000", "103317.069000", "103319.069000", "103321.068000", "103323.068000", "103325.068000", "103327.069000", "103329.068000", "103331.068000", "103333.568000", "103335.069000", "103337.568000", "103339.068000", "103341.069000", "103343.068000", "103345.068000", "103347.068000", "103349.068000", "103351.068000", "103353.068000", "103355.068000", "103357.068000", "103359.067000", "103401.069000", "103403.069000", "103405.068000", "103407.068000", "103409.068000", "103411.068000", "103413.569000", "103415.069000", "103417.067000", "103419.068000", "103421.068000", "103423.068000", "103425.069000", "103427.068000", "103429.068000", "103431.068000", "103433.069000", "103435.068000", "103437.069000", "103439.069000", "103441.069000", "103443.068000", "103445.069000", "103447.069000", "103449.068000", "103451.069000", "103453.067000", "103455.069000", "103457.069000", "103459.069000", "103501.068000", "103503.069000", "103505.068000", "103507.068000", "103509.067000", "103511.068000", "103513.069000", "103515.069000", "103517.068000", "103519.069000", "103521.068000", "103523.068000", "103525.068000", "103527.068000", "103529.069000", "103531.069000", "103533.069000", "103535.068000", "103537.068000", "103539.069000", "103541.068000", "103543.068000", "103545.068000", "103547.069000", "103549.569000", "103551.069000", "103553.069000", "103555.069000", "103557.069000", "103559.069000", "103601.069000", "103603.069000", "103605.069000", "103607.069000", "103609.069000", "103611.068000", "103613.068000", "103615.069000", "103617.068000", "103619.068000", "103621.068000", "103623.068000", "103625.069000", "103627.069000", "103629.069000", "103631.069000", "103633.068000", "103634.993000"],
      "InstanceCreationTime": ["102836.073000", "102837.069000", "102839.068000", "102841.068000", "102843.568000", "102845.067000", "102847.068000", "102849.068000", "102851.068000", "102853.569000", "102855.069000", "102857.069000", "102859.069000", "102901.068000", "102903.068000", "102905.069000", "102907.068000", "102909.068000", "102911.069000", "102913.069000", "102915.069000", "102917.068000", "102919.067000", "102921.568000", "102923.068000", "102925.068000", "102927.069000", "102929.068000", "102931.068000", "102933.068000", "102935.069000", "102937.067000", "102939.069000", "102941.068000", "102943.069000", "102945.069000", "102947.068000", "102949.069000", "102951.068000", "102953.069000", "102955.068000", "102957.069000", "102959.068000", "103001.068000", "103003.068000", "103005.068000", "103007.068000", "103009.069000", "103011.069000", "103013.568000", "103015.069000", "103017.068000", "103019.068000", "103021.069000", "103023.068000", "103025.068000", "103027.068000", "103029.067000", "103031.068000", "103033.068000", "103035.069000", "103037.068000", "103039.068000", "103041.069000", "103043.068000", "103045.068000", "103047.068000", "103049.069000", "103051.069000", "103053.068000", "103055.069000", "103057.068000", "103059.068000", "103101.068000", "103103.068000", "103105.067000", "103107.069000", "103109.069000", "103111.069000", "103113.069000", "103115.068000", "103117.068000", "103119.068000", "103121.068000", "103123.067000", "103125.069000", "103127.068000", "103129.068000", "103131.069000", "103133.069000", "103135.068000", "103137.068000", "103139.568000", "103141.068000", "103143.068000", "103145.069000", "103147.068000", "103149.068000", "103151.068000", "103153.069000", "103155.068000", "103157.067000", "103159.069000", "103201.069000", "103203.068000", "103205.068000", "103207.569000", "103209.069000", "103211.068000", "103213.068000", "103215.067000", "103217.068000", "103219.068000", "103221.069000", "103223.068000", "103225.069000", "103227.068000", "103229.069000", "103231.068000", "103233.067000", "103235.068000", "103237.068000", "103239.068000", "103241.068000", "103243.068000", "103245.068000", "103247.068000", "103249.068000", "103251.068000", "103253.068000", "103255.068000", "103257.068000", "103259.068000", "103301.068000", "103303.069000", "103305.069000", "103307.068000", "103309.069000", "103311.068000", "103313.068000", "103315.068000", "103317.069000", "103319.069000", "103321.068000", "103323.068000", "103325.068000", "103327.069000", "103329.068000", "103331.068000", "103333.568000", "103335.069000", "103337.568000", "103339.068000", "103341.069000", "103343.068000", "103345.068000", "103347.068000", "103349.068000", "103351.068000", "103353.068000", "103355.068000", "103357.068000", "103359.067000", "103401.069000", "103403.069000", "103405.068000", "103407.068000", "103409.068000", "103411.068000", "103413.569000", "103415.069000", "103417.067000", "103419.068000", "103421.068000", "103423.068000", "103425.069000", "103427.068000", "103429.068000", "103431.068000", "103433.069000", "103435.068000", "103437.069000", "103439.069000", "103441.069000", "103443.068000", "103445.069000", "103447.069000", "103449.068000", "103451.069000", "103453.067000", "103455.069000", "103457.069000", "103459.069000", "103501.068000", "103503.069000", "103505.068000", "103507.068000", "103509.067000", "103511.068000", "103513.069000", "103515.069000", "103517.068000", "103519.069000", "103521.068000", "103523.068000", "103525.068000", "103527.068000", "103529.069000", "103531.069000", "103533.069000", "103535.068000", "103537.068000", "103539.069000", "103541.068000", "103543.068000", "103545.068000", "103547.069000", "103549.569000", "103551.069000", "103553.069000", "103555.069000", "103557.069000", "103559.069000", "103601.069000", "103603.069000", "103605.069000", "103607.069000", "103609.069000", "103611.068000", "103613.068000", "103615.069000", "103617.068000", "103619.068000", "103621.068000", "103623.068000", "103625.069000", "103627.069000", "103629.069000", "103631.069000", "103633.068000", "103634.993000"],
      "InstanceNumber": [1, 2, 3, 4, 5, 6, 7, 8, 9, 10, 11, 12, 13, 14, 15, 16, 17, 18, 19, 20, 21, 22, 23, 24, 25, 26, 27, 28, 29, 30, 31, 32, 33, 34, 35, 36, 37, 38, 39, 40, 41, 42, 43, 44, 45, 46, 47, 48, 49, 50, 51, 52, 53, 54, 55, 56, 57, 58, 59, 60, 61, 62, 63, 64, 65, 66, 67, 68, 69, 70, 71, 72, 73, 74, 75, 76, 77, 78, 79, 80, 81, 82, 83, 84, 85, 86, 87, 88, 89, 90, 91, 92, 93, 94, 95, 96, 97, 98, 99, 100, 101, 102, 103, 104, 105, 106, 107, 108, 109, 110, 111, 112, 113, 114, 115, 116, 117, 118, 119, 120, 121, 122, 123, 124, 125, 126, 127, 128, 129, 130, 131, 132, 133, 134, 135, 136, 137, 138, 139, 140, 141, 142, 143, 144, 145, 146, 147, 148, 149, 150, 151, 152, 153, 154, 155, 156, 157, 158, 159, 160, 161, 162, 163, 164, 165, 166, 167, 168, 169, 170, 171, 172, 173, 174, 175, 176, 177, 178, 179, 180, 181, 182, 183, 184, 185, 186, 187, 188, 189, 190, 191, 192, 193, 194, 195, 196, 197, 198, 199, 200, 201, 202, 203, 204, 205, 206, 207, 208, 209, 210, 211, 212, 213, 214, 215, 216, 217, 218, 219, 220, 221, 222, 223, 224, 225, 226, 227, 228, 229, 230, 231, 232, 233, 234, 235, 236, 237, 238, 239, 240, 241],
      "LargestImagePixelValue": [3123, 3005, 3041, 2999, 3053, 3050, 3034, 3045, 3056, 3034, 3040, 3049, 3074, 3058, 3074, 3069, 3093, 3070, 3089, 3061, 3078, 3070, 3068, 3108, 3093, 3085, 3078, 3053, 3030, 3063, 3025, 3057, 3047, 3059, 3061, 3047, 3040, 3041, 3108, 3048, 3066, 3066, 3071, 3086, 3069, 3072, 3081, 3053, 3104, 3103, 3087, 3139, 3056, 3110, 3090, 3170, 3106, 3155, 3111, 3092, 3116, 3107, 3087, 3072, 3087, 3106, 3103, 3096, 3090, 3097, 3060, 3128, 3089, 3102, 3097, 3111, 3061, 3132, 3121, 3067, 3122, 3091, 3095, 3112, 3103, 3127, 3108, 3107, 3129, 3110, 3105, 3107, 3091, 3090, 3107, 3094, 3089, 3152, 3095, 3070, 3098, 3112, 3139, 3078, 3107, 3106, 3082, 3077, 3099, 3065, 3100, 3105, 3079, 3076, 3064, 3109, 3082, 3089, 3103, 3163, 3107, 3174, 3101, 3136, 3107, 3136, 3228, 3145, 3090, 3092, 3078, 3064, 3050, 3077, 3091, 3071, 3069, 3089, 3067, 3081, 3075, 3074, 3085, 3064, 3095, 3037, 3102, 3063, 3107, 3103, 3063, 3068, 3047, 3191, 3034, 3140, 3098, 3104, 3083, 3081, 3065, 3061, 3028, 3072, 3054, 3069, 3032, 3058, 3082, 3008, 3155, 3064, 3177, 3032, 3162, 3059, 3120, 3025, 3078, 3079, 3130, 3064, 3192, 3072, 3144, 3067, 3079, 3034, 3042, 3151, 3059, 3039, 3082, 3071, 3142, 3039, 3128, 3050, 3054, 3072, 3075, 3098, 3047, 3115, 3050, 3082, 3064, 3060, 3131, 3033, 3131, 3048, 3063, 3095, 3083, 3044, 3045, 3139, 3037, 3132, 3049, 3086, 3085, 3035, 3157, 3061, 3105, 3058, 3226, 3080, 3151, 3075, 3061, 3186, 3091, 3168, 3081, 3110, 3077, 3095, 3041],
      "WindowCenter": [799.0, 796.0, 795.0, 794.0, 797.0, 798.0, 797.0, 797.0, 796.0, 796.0, 797.0, 798.0, 799.0, 799.0, 799.0, 800.0, 802.0, 803.0, 802.0, 802.0, 801.0, 801.0, 801.0, 800.0, 799.0, 799.0, 799.0, 799.0, 799.0, 799.0, 797.0, 798.0, 798.0, 798.0, 798.0, 797.0, 797.0, 798.0, 798.0, 797.0, 797.0, 797.0, 798.0, 798.0, 797.0, 798.0, 800.0, 801.0, 801.0, 800.0, 800.0, 801.0, 801.0, 801.0, 799.0, 799.0, 799.0, 800.0, 800.0, 801.0, 801.0, 799.0, 797.0, 798.0, 799.0, 799.0, 797.0, 796.0, 796.0, 797.0, 797.0, 798.0, 797.0, 797.0, 797.0, 798.0, 797.0, 799.0, 799.0, 798.0, 799.0, 800.0, 800.0, 799.0, 799.0, 800.0, 800.0, 800.0, 800.0, 800.0, 801.0, 802.0, 803.0, 801.0, 799.0, 798.0, 798.0, 799.0, 800.0, 801.0, 800.0, 798.0, 796.0, 795.0, 796.0, 798.0, 798.0, 797.0, 796.0, 795.0, 796.0, 800.0, 800.0, 799.0, 798.0, 798.0, 797.0, 797.0, 797.0, 798.0, 799.0, 799.0, 799.0, 799.0, 799.0, 799.0, 798.0, 797.0, 799.0, 799.0, 800.0, 798.0, 797.0, 797.0, 798.0, 798.0, 797.0, 797.0, 796.0, 796.0, 796.0, 796.0, 796.0, 796.0, 798.0, 799.0, 800.0, 799.0, 798.0, 797.0, 797.0, 798.0, 798.0, 801.0, 800.0, 801.0, 801.0, 800.0, 798.0, 797.0, 795.0, 795.0, 796.0, 798.0, 798.0, 797.0, 795.0, 795.0, 794.0, 794.0, 796.0, 796.0, 798.0, 798.0, 800.0, 799.0, 797.0, 795.0, 795.0, 795.0, 798.0, 798.0, 800.0, 799.0, 799.0, 798.0, 796.0, 795.0, 794.0, 795.0, 794.0, 795.0, 797.0, 798.0, 800.0, 799.0, 797.0, 794.0, 794.0, 795.0, 796.0, 796.0, 795.0, 795.0, 795.0, 797.0, 797.0, 796.0, 797.0, 796.0, 797.0, 796.0, 797.0, 799.0, 799.0, 797.0, 795.0, 795.0, 795.0, 795.0, 795.0, 797.0, 797.0, 797.0, 797.0, 796.0, 797.0, 798.0, 799.0, 798.0, 799.0, 800.0, 801.0, 802.0, 799.0, 797.0, 796.0, 797.0, 798.0, 798.0, 796.0],
      "WindowWidth": [1706.0, 1697.0, 1694.0, 1693.0, 1699.0, 1701.0, 1699.0, 1699.0, 1698.0, 1698.0, 1700.0, 1703.0, 1706.0, 1705.0, 1706.0, 1709.0, 1714.0, 1715.0, 1713.0, 1711.0, 1710.0, 1709.0, 1709.0, 1709.0, 1706.0, 1704.0, 1704.0, 1706.0, 1706.0, 1704.0, 1700.0, 1702.0, 1703.0, 1703.0, 1701.0, 1699.0, 1700.0, 1701.0, 1703.0, 1700.0, 1699.0, 1701.0, 1703.0, 1703.0, 1701.0, 1703.0, 1709.0, 1711.0, 1711.0, 1708.0, 1707.0, 1710.0, 1711.0, 1709.0, 1706.0, 1706.0, 1705.0, 1708.0, 1708.0, 1710.0, 1710.0, 1706.0, 1700.0, 1701.0, 1705.0, 1704.0, 1701.0, 1698.0, 1698.0, 1700.0, 1701.0, 1701.0, 1699.0, 1699.0, 1699.0, 1701.0, 1701.0, 1704.0, 1704.0, 1703.0, 1706.0, 1707.0, 1707.0, 1706.0, 1706.0, 1707.0, 1709.0, 1707.0, 1708.0, 1708.0, 1711.0, 1714.0, 1715.0, 1710.0, 1705.0, 1703.0, 1702.0, 1705.0, 1708.0, 1711.0, 1708.0, 1702.0, 1698.0, 1696.0, 1698.0, 1703.0, 1702.0, 1700.0, 1696.0, 1694.0, 1698.0, 1706.0, 1708.0, 1705.0, 1703.0, 1702.0, 1700.0, 1699.0, 1700.0, 1703.0, 1704.0, 1706.0, 1704.0, 1704.0, 1703.0, 1703.0, 1702.0, 1700.0, 1704.0, 1706.0, 1706.0, 1703.0, 1700.0, 1699.0, 1702.0, 1702.0, 1700.0, 1699.0, 1697.0, 1698.0, 1697.0, 1697.0, 1698.0, 1697.0, 1701.0, 1705.0, 1708.0, 1704.0, 1702.0, 1701.0, 1701.0, 1701.0, 1703.0, 1709.0, 1706.0, 1710.0, 1711.0, 1707.0, 1703.0, 1698.0, 1695.0, 1696.0, 1697.0, 1702.0, 1703.0, 1700.0, 1695.0, 1693.0, 1693.0, 1691.0, 1697.0, 1696.0, 1702.0, 1703.0, 1707.0, 1704.0, 1701.0, 1695.0, 1694.0, 1694.0, 1701.0, 1703.0, 1708.0, 1705.0, 1706.0, 1701.0, 1697.0, 1693.0, 1692.0, 1695.0, 1693.0, 1694.0, 1698.0, 1702.0, 1708.0, 1704.0, 1699.0, 1692.0, 1692.0, 1694.0, 1696.0, 1697.0, 1693.0, 1694.0, 1695.0, 1700.0, 1699.0, 1697.0, 1699.0, 1698.0, 1699.0, 1697.0, 1700.0, 1704.0, 1704.0, 1700.0, 1695.0, 1694.0, 1693.0, 1695.0, 1694.0, 1698.0, 1700.0, 1699.0, 1700.0, 1696.0, 1699.0, 1702.0, 1705.0, 1702.0, 1705.0, 1706.0, 1710.0, 1712.0, 1703.0, 1699.0, 1696.0, 1698.0, 1701.0, 1702.0, 1698.0]
    },
    "slices": {}
  }
}