{
 "AcquisitionMatrixPE": 100,
 "AcquisitionNumber": 1,
 "AcquisitionTime": "09:23:33.432500",
 "BandwidthPerPixelPhaseEncode": 18.519,
 "BaseResolution": 100,
 "BodyPartExamined": "BRAIN",
 "ConsistencyInfo": "N4_VE11C_LATEST_20160120",
 "ConversionSoftware": "dcm2niix",
 "ConversionSoftwareVersion": "v1.0.20180622 GCC4.9.2",
 "DerivedVendorReportedEchoSpacing": 0.000539986,
 "DeviceSerialNumber": "166078",
 "DwellTime": 2.1e-06,
 "EchoTime": 0.034,
 "EchoTrainLength": 100,
 "EffectiveEchoSpacing": 0.000539986,
 "FlipAngle": 90,
 "ImageOrientationPatientDICOM": [
  1,
  0,
  0,
  0,
  0.994881,
  -0.101056
 ],
 "ImageType": [
  "ORIGINAL",
  "PRIMARY",
  "M",
  "ND",
  "MOSAIC"
 ],
 "InPlanePhaseEncodingDirectionDICOM": "COL",
 "InstitutionAddress": "Street_StreetNo_Bei_Jing_District_CN_ZIP",
 "InstitutionName": "BeiJing_Normal_University",
 "InstitutionalDepartmentName": "Department",
 "MRAcquisitionType": "2D",
 "MagneticFieldStrength": 3,
 "Manufacturer": "Siemens",
 "ManufacturersModelName": "Prisma",
 "Modality": "MR",
 "MultibandAccelerationFactor": 3,
 "PartialFourier": 1,
 "PatientPosition": "HFS",
 "PercentPhaseFOV": 100,
 "PhaseEncodingDirection": "j-",
 "PhaseEncodingSteps": 100,
 "PhaseResolution": 1,
 "PixelBandwidth": 2380,
 "ProcedureStepDescription": "BNU_P2018_64CH_Zhen.ZongLei",
 "ProtocolName": "bold_100x100_s3_2x2x2_static_test_241",
 "PulseSequenceDetails": "%SiemensSeq%_ep2d_bold",
 "ReceiveCoilActiveElements": "HC1-7;NC1",
 "ReceiveCoilName": "HeadNeck_64",
 "ReconMatrixPE": 100,
 "RepetitionTime": 2,
 "SAR": 0.065392,
 "ScanOptions": "FS",
 "ScanningSequence": "EP",
 "SequenceName": "_epfid2d1_100",
 "SequenceVariant": "SK",
 "SeriesDescription": "bold_100x100_s3_2x2x2_static_test_241",
 "SeriesNumber": 5,
 "ShimSetting": [
  -5447,
  -11475,
  -1302,
  268,
  37,
  -87,
  -192,
  94
 ],
 "SliceThickness": 2,
 "SliceTiming": [
  1.485,
  0,
  0.99,
  0.0825,
  1.0725,
  0.165,
  1.155,
  0.2475,
  1.2375,
  0.33,
  1.32,
  0.4125,
  1.4025,
  0.5775,
  1.5675,
  0.66,
  1.65,
  0.7425,
  1.7325,
  0.825,
  1.815,
  0.9075,
  1.8975,
  0.495,
  1.485,
  0,
  0.99,
  0.0825,
  1.0725,
  0.165,
  1.155,
  0.2475,
  1.2375,
  0.33,
  1.32,
  0.4125,
  1.4025,
  0.5775,
  1.5675,
  0.66,
  1.65,
  0.7425,
  1.7325,
  0.825,
  1.815,
  0.9075,
  1.8975,
  0.495,
  1.485,
  0,
  0.99,
  0.0825,
  1.0725,
  0.165,
  1.155,
  0.2475,
  1.2375,
  0.33,
  1.32,
  0.4125,
  1.4025,
  0.5775,
  1.5675,
  0.66,
  1.65,
  0.7425,
  1.7325,
  0.825,
  1.815,
  0.9075,
  1.8975,
  0.495
 ],
 "SoftwareVersions": "syngo_MR_E11",
 "SpacingBetweenSlices": 2,
 "StationName": "AWP166078",
 "TaskName": "coco",
 "TotalReadoutTime": 0.0534586,
 "TxRefAmp": 222.721,
 "dcmmeta_affine": [
  [
   -2.0,
   0.0,
   0.0,
   102.69879150390625
  ],
  [
   0.0,
   1.989761471748352,
   -0.2021125853061676,
   -85.5859603881836
  ],
  [
   0.0,
   0.2021125853061676,
   1.989761471748352,
   -80.63643646240234
  ],
  [
   0.0,
   0.0,
   0.0,
   1.0
  ]
 ],
 "dcmmeta_reorient_transform": [
  [
   0.0,
   -1.0,
   0.0,
   99.0
  ],
  [
   1.0,
   0.0,
   0.0,
   0.0
  ],
  [
   0.0,
   0.0,
   1.0,
   0.0
  ],
  [
   0.0,
   0.0,
   0.0,
   1.0
  ]
 ],
 "dcmmeta_shape": [
  100,
  100,
  72,
  241
 ],
 "dcmmeta_slice_dim": 2,
 "dcmmeta_version": 0.6,
 "global": {
  "const": {
   "AcquisitionMatrix": [
    100,
    0,
    0,
    100
   ],
   "AngioFlag": "N",
   "BitsAllocated": 16,
   "BitsStored": 12,
   "BodyPartExamined": "BRAIN",
   "Columns": 900,
   "EchoNumbers": 1,
   "EchoTime": 34.0,
   "EchoTrainLength": 100,
   "FlipAngle": 90.0,
   "HighBit": 11,
   "ImageOrientationPatient": [
    1.0,
    0.0,
    0.0,
    0.0,
    0.99488070921592,
    -0.1010562933717
   ],
   "ImagePositionPatient": [
    -902.69879508018,
    -907.30498513423,
    20.217746248858
   ],
   "ImageType": [
    "ORIGINAL",
    "PRIMARY",
    "M",
    "ND",
    "MOSAIC"
   ],
   "ImagedNucleus": "1H",
   "ImagingFrequency": 123.257763,
   "InPlanePhaseEncodingDirection": "COL",
   "MRAcquisitionType": "2D",
   "MagneticFieldStrength": 3.0,
   "Manufacturer": "SIEMENS",
   "ManufacturerModelName": "Prisma",
   "Modality": "MR",
   "NumberOfAverages": 1.0,
   "NumberOfPhaseEncodingSteps": 100,
   "PercentPhaseFieldOfView": 100.0,
   "PercentSampling": 100.0,
   "PerformedProcedureStepStartTime": "085951.111000",
   "PhotometricInterpretation": "MONOCHROME2",
   "PixelBandwidth": 2380.0,
   "PixelRepresentation": 0,
   "PixelSpacing": [
    2.0,
    2.0
   ],
   "ProtocolName": "bold_100x100_s3_2x2x2_static_test_241",
   "RepetitionTime": 2000.0,
   "Rows": 900,
   "SAR": 0.06539198227493,
   "SamplesPerPixel": 1,
   "ScanOptions": "FS",
   "ScanningSequence": "EP",
   "SequenceName": "*epfid2d1_100",
   "SequenceVariant": "SK",
   "SeriesDescription": "bold_100x100_s3_2x2x2_static_test_241",
   "SeriesNumber": 5,
   "SeriesTime": "092335.905000",
   "SliceLocation": -71.574633028492,
   "SliceThickness": 2.0,
   "SmallestImagePixelValue": 0,
   "SoftwareVersions": "syngo MR E11",
   "SpacingBetweenSlices": 2.0000000427749,
   "SpecificCharacterSet": "ISO_IR 100",
   "StudyID": "1",
   "StudyTime": "085950.984000",
   "TransmitCoilName": "Body",
   "VariableFlipAngleFlag": "N",
   "WindowCenterWidthExplanation": "Algo1",
   "dBdt": 0.0
  },
  "slices": {}
 },
 "time": {
  "samples": {
   "AcquisitionNumber": [
    1,
    2,
    3,
    4,
    5,
    6,
    7,
    8,
    9,
    10,
    11,
    12,
    13,
    14,
    15,
    16,
    17,
    18,
    19,
    20,
    21,
    22,
    23,
    24,
    25,
    26,
    27,
    28,
    29,
    30,
    31,
    32,
    33,
    34,
    35,
    36,
    37,
    38,
    39,
    40,
    41,
    42,
    43,
    44,
    45,
    46,
    47,
    48,
    49,
    50,
    51,
    52,
    53,
    54,
    55,
    56,
    57,
    58,
    59,
    60,
    61,
    62,
    63,
    64,
    65,
    66,
    67,
    68,
    69,
    70,
    71,
    72,
    73,
    74,
    75,
    76,
    77,
    78,
    79,
    80,
    81,
    82,
    83,
    84,
    85,
    86,
    87,
    88,
    89,
    90,
    91,
    92,
    93,
    94,
    95,
    96,
    97,
    98,
    99,
    100,
    101,
    102,
    103,
    104,
    105,
    106,
    107,
    108,
    109,
    110,
    111,
    112,
    113,
    114,
    115,
    116,
    117,
    118,
    119,
    120,
    121,
    122,
    123,
    124,
    125,
    126,
    127,
    128,
    129,
    130,
    131,
    132,
    133,
    134,
    135,
    136,
    137,
    138,
    139,
    140,
    141,
    142,
    143,
    144,
    145,
    146,
    147,
    148,
    149,
    150,
    151,
    152,
    153,
    154,
    155,
    156,
    157,
    158,
    159,
    160,
    161,
    162,
    163,
    164,
    165,
    166,
    167,
    168,
    169,
    170,
    171,
    172,
    173,
    174,
    175,
    176,
    177,
    178,
    179,
    180,
    181,
    182,
    183,
    184,
    185,
    186,
    187,
    188,
    189,
    190,
    191,
    192,
    193,
    194,
    195,
    196,
    197,
    198,
    199,
    200,
    201,
    202,
    203,
    204,
    205,
    206,
    207,
    208,
    209,
    210,
    211,
    212,
    213,
    214,
    215,
    216,
    217,
    218,
    219,
    220,
    221,
    222,
    223,
    224,
    225,
    226,
    227,
    228,
    229,
    230,
    231,
    232,
    233,
    234,
    235,
    236,
    237,
    238,
    239,
    240,
    241
   ],
   "AcquisitionTime": [
    "092333.432500",
    "092335.432500",
    "092337.432500",
    "092339.432500",
    "092341.432500",
    "092343.432500",
    "092345.432500",
    "092347.432500",
    "092349.432500",
    "092351.432500",
    "092353.432500",
    "092355.432500",
    "092357.432500",
    "092359.432500",
    "092401.432500",
    "092403.432500",
    "092405.432500",
    "092407.432500",
    "092409.432500",
    "092411.432500",
    "092413.432500",
    "092415.432500",
    "092417.432500",
    "092419.432500",
    "092421.432500",
    "092423.432500",
    "092425.432500",
    "092427.432500",
    "092429.432500",
    "092431.432500",
    "092433.432500",
    "092435.432500",
    "092437.432500",
    "092439.432500",
    "092441.432500",
    "092443.432500",
    "092445.432500",
    "092447.432500",
    "092449.432500",
    "092451.432500",
    "092453.432500",
    "092455.432500",
    "092457.432500",
    "092459.432500",
    "092501.432500",
    "092503.432500",
    "092505.432500",
    "092507.432500",
    "092509.432500",
    "092511.432500",
    "092513.432500",
    "092515.432500",
    "092517.432500",
    "092519.432500",
    "092521.432500",
    "092523.432500",
    "092525.432500",
    "092527.432500",
    "092529.432500",
    "092531.432500",
    "092533.432500",
    "092535.432500",
    "092537.432500",
    "092539.432500",
    "092541.432500",
    "092543.432500",
    "092545.432500",
    "092547.432500",
    "092549.432500",
    "092551.432500",
    "092553.432500",
    "092555.432500",
    "092557.432500",
    "092559.432500",
    "092601.432500",
    "092603.432500",
    "092605.432500",
    "092607.432500",
    "092609.432500",
    "092611.432500",
    "092613.432500",
    "092615.432500",
    "092617.432500",
    "092619.432500",
    "092621.432500",
    "092623.432500",
    "092625.432500",
    "092627.432500",
    "092629.432500",
    "092631.432500",
    "092633.432500",
    "092635.432500",
    "092637.432500",
    "092639.432500",
    "092641.432500",
    "092643.432500",
    "092645.432500",
    "092647.432500",
    "092649.432500",
    "092651.432500",
    "092653.432500",
    "092655.432500",
    "092657.432500",
    "092659.432500",
    "092701.432500",
    "092703.432500",
    "092705.432500",
    "092707.432500",
    "092709.432500",
    "092711.432500",
    "092713.432500",
    "092715.432500",
    "092717.432500",
    "092719.432500",
    "092721.432500",
    "092723.432500",
    "092725.432500",
    "092727.432500",
    "092729.432500",
    "092731.432500",
    "092733.432500",
    "092735.432500",
    "092737.432500",
    "092739.432500",
    "092741.432500",
    "092743.432500",
    "092745.432500",
    "092747.432500",
    "092749.432500",
    "092751.432500",
    "092753.432500",
    "092755.432500",
    "092757.432500",
    "092759.432500",
    "092801.432500",
    "092803.432500",
    "092805.432500",
    "092807.432500",
    "092809.432500",
    "092811.432500",
    "092813.432500",
    "092815.432500",
    "092817.432500",
    "092819.432500",
    "092821.432500",
    "092823.432500",
    "092825.432500",
    "092827.432500",
    "092829.432500",
    "092831.432500",
    "092833.432500",
    "092835.432500",
    "092837.432500",
    "092839.432500",
    "092841.432500",
    "092843.432500",
    "092845.432500",
    "092847.432500",
    "092849.432500",
    "092851.432500",
    "092853.432500",
    "092855.432500",
    "092857.432500",
    "092859.432500",
    "092901.432500",
    "092903.432500",
    "092905.432500",
    "092907.432500",
    "092909.432500",
    "092911.432500",
    "092913.432500",
    "092915.432500",
    "092917.432500",
    "092919.432500",
    "092921.432500",
    "092923.432500",
    "092925.432500",
    "092927.432500",
    "092929.432500",
    "092931.432500",
    "092933.432500",
    "092935.432500",
    "092937.432500",
    "092939.432500",
    "092941.432500",
    "092943.432500",
    "092945.432500",
    "092947.432500",
    "092949.432500",
    "092951.432500",
    "092953.432500",
    "092955.432500",
    "092957.432500",
    "092959.432500",
    "093001.432500",
    "093003.432500",
    "093005.432500",
    "093007.432500",
    "093009.432500",
    "093011.432500",
    "093013.432500",
    "093015.432500",
    "093017.432500",
    "093019.432500",
    "093021.432500",
    "093023.432500",
    "093025.432500",
    "093027.432500",
    "093029.432500",
    "093031.432500",
    "093033.432500",
    "093035.432500",
    "093037.432500",
    "093039.432500",
    "093041.432500",
    "093043.432500",
    "093045.432500",
    "093047.432500",
    "093049.432500",
    "093051.432500",
    "093053.432500",
    "093055.432500",
    "093057.432500",
    "093059.432500",
    "093101.432500",
    "093103.432500",
    "093105.432500",
    "093107.432500",
    "093109.432500",
    "093111.432500",
    "093113.432500",
    "093115.432500",
    "093117.432500",
    "093119.432500",
    "093121.432500",
    "093123.432500",
    "093125.432500",
    "093127.432500",
    "093129.432500",
    "093131.432500",
    "093133.432500"
   ],
   "ContentTime": [
    "092335.908000",
    "092337.902000",
    "092339.402000",
    "092341.402000",
    "092343.402000",
    "092345.902000",
    "092347.403000",
    "092349.404000",
    "092351.403000",
    "092353.404000",
    "092355.402000",
    "092357.402000",
    "092359.403000",
    "092401.402000",
    "092403.902000",
    "092405.904000",
    "092407.903000",
    "092409.404000",
    "092411.402000",
    "092413.402000",
    "092415.403000",
    "092417.902000",
    "092419.402000",
    "092421.402000",
    "092423.403000",
    "092425.403000",
    "092427.904000",
    "092429.402000",
    "092431.902000",
    "092433.903000",
    "092435.402000",
    "092437.403000",
    "092439.402000",
    "092441.403000",
    "092443.404000",
    "092445.904000",
    "092447.403000",
    "092449.403000",
    "092451.902000",
    "092453.402000",
    "092455.402000",
    "092457.403000",
    "092459.403000",
    "092501.404000",
    "092503.403000",
    "092505.403000",
    "092507.402000",
    "092509.402000",
    "092511.403000",
    "092513.403000",
    "092515.403000",
    "092517.403000",
    "092519.403000",
    "092521.402000",
    "092523.402000",
    "092525.903000",
    "092527.403000",
    "092529.902000",
    "092531.402000",
    "092533.403000",
    "092535.404000",
    "092537.904000",
    "092539.402000",
    "092541.902000",
    "092543.402000",
    "092545.402000",
    "092547.902000",
    "092549.903000",
    "092551.403000",
    "092553.404000",
    "092555.404000",
    "092557.403000",
    "092559.402000",
    "092601.402000",
    "092603.402000",
    "092605.402000",
    "092607.403000",
    "092609.403000",
    "092611.403000",
    "092613.403000",
    "092615.402000",
    "092617.403000",
    "092619.903000",
    "092621.402000",
    "092623.903000",
    "092625.904000",
    "092627.404000",
    "092629.403000",
    "092631.903000",
    "092633.402000",
    "092635.403000",
    "092637.402000",
    "092639.402000",
    "092641.402000",
    "092643.403000",
    "092645.903000",
    "092647.403000",
    "092649.402000",
    "092651.402000",
    "092653.403000",
    "092655.402000",
    "092657.402000",
    "092659.403000",
    "092701.403000",
    "092703.904000",
    "092705.404000",
    "092707.402000",
    "092709.402000",
    "092711.403000",
    "092713.403000",
    "092715.903000",
    "092717.903000",
    "092719.403000",
    "092721.404000",
    "092723.903000",
    "092725.402000",
    "092727.403000",
    "092729.402000",
    "092731.402000",
    "092733.402000",
    "092735.403000",
    "092737.904000",
    "092739.403000",
    "092741.903000",
    "092743.402000",
    "092745.403000",
    "092747.402000",
    "092749.402000",
    "092751.403000",
    "092753.403000",
    "092755.903000",
    "092757.404000",
    "092759.903000",
    "092801.403000",
    "092803.402000",
    "092805.402000",
    "092807.402000",
    "092809.404000",
    "092811.904000",
    "092813.403000",
    "092815.403000",
    "092817.403000",
    "092819.403000",
    "092821.403000",
    "092823.422000",
    "092825.402000",
    "092827.404000",
    "092829.403000",
    "092831.404000",
    "092833.903000",
    "092835.903000",
    "092837.402000",
    "092839.402000",
    "092841.403000",
    "092843.403000",
    "092845.404000",
    "092847.404000",
    "092849.403000",
    "092851.902000",
    "092853.902000",
    "092855.903000",
    "092857.402000",
    "092859.903000",
    "092901.903000",
    "092903.904000",
    "092905.404000",
    "092907.403000",
    "092909.403000",
    "092911.903000",
    "092913.403000",
    "092915.402000",
    "092917.403000",
    "092919.403000",
    "092921.404000",
    "092923.404000",
    "092925.404000",
    "092927.903000",
    "092929.903000",
    "092931.403000",
    "092933.902000",
    "092935.902000",
    "092937.904000",
    "092939.403000",
    "092941.404000",
    "092943.403000",
    "092945.903000",
    "092947.403000",
    "092949.403000",
    "092951.402000",
    "092953.902000",
    "092955.904000",
    "092957.403000",
    "092959.403000",
    "093001.403000",
    "093003.403000",
    "093005.402000",
    "093007.403000",
    "093009.403000",
    "093011.403000",
    "093013.904000",
    "093015.404000",
    "093017.404000",
    "093019.902000",
    "093021.403000",
    "093023.902000",
    "093025.403000",
    "093027.402000",
    "093029.404000",
    "093031.404000",
    "093033.904000",
    "093035.403000",
    "093037.402000",
    "093039.403000",
    "093041.902000",
    "093043.902000",
    "093045.903000",
    "093047.403000",
    "093049.904000",
    "093051.403000",
    "093053.423000",
    "093055.902000",
    "093057.403000",
    "093059.402000",
    "093101.403000",
    "093103.403000",
    "093105.404000",
    "093107.404000",
    "093109.403000",
    "093111.902000",
    "093113.403000",
    "093115.402000",
    "093117.903000",
    "093119.402000",
    "093121.403000",
    "093123.903000",
    "093125.904000",
    "093127.403000",
    "093129.403000",
    "093131.403000",
    "093133.403000",
    "093135.329000"
   ],
   "InstanceCreationTime": [
    "092335.908000",
    "092337.902000",
    "092339.402000",
    "092341.402000",
    "092343.402000",
    "092345.902000",
    "092347.403000",
    "092349.404000",
    "092351.403000",
    "092353.404000",
    "092355.402000",
    "092357.402000",
    "092359.403000",
    "092401.402000",
    "092403.902000",
    "092405.904000",
    "092407.903000",
    "092409.404000",
    "092411.402000",
    "092413.402000",
    "092415.403000",
    "092417.902000",
    "092419.402000",
    "092421.402000",
    "092423.403000",
    "092425.403000",
    "092427.904000",
    "092429.402000",
    "092431.902000",
    "092433.903000",
    "092435.402000",
    "092437.403000",
    "092439.402000",
    "092441.403000",
    "092443.404000",
    "092445.904000",
    "092447.403000",
    "092449.403000",
    "092451.902000",
    "092453.402000",
    "092455.402000",
    "092457.403000",
    "092459.403000",
    "092501.404000",
    "092503.403000",
    "092505.403000",
    "092507.402000",
    "092509.402000",
    "092511.403000",
    "092513.403000",
    "092515.403000",
    "092517.403000",
    "092519.403000",
    "092521.402000",
    "092523.402000",
    "092525.903000",
    "092527.403000",
    "092529.902000",
    "092531.402000",
    "092533.403000",
    "092535.404000",
    "092537.904000",
    "092539.402000",
    "092541.902000",
    "092543.402000",
    "092545.402000",
    "092547.902000",
    "092549.903000",
    "092551.403000",
    "092553.404000",
    "092555.404000",
    "092557.403000",
    "092559.402000",
    "092601.402000",
    "092603.402000",
    "092605.402000",
    "092607.403000",
    "092609.403000",
    "092611.403000",
    "092613.403000",
    "092615.402000",
    "092617.403000",
    "092619.903000",
    "092621.402000",
    "092623.903000",
    "092625.904000",
    "092627.404000",
    "092629.403000",
    "092631.903000",
    "092633.402000",
    "092635.403000",
    "092637.402000",
    "092639.402000",
    "092641.402000",
    "092643.403000",
    "092645.903000",
    "092647.403000",
    "092649.402000",
    "092651.402000",
    "092653.403000",
    "092655.402000",
    "092657.402000",
    "092659.403000",
    "092701.403000",
    "092703.904000",
    "092705.404000",
    "092707.402000",
    "092709.402000",
    "092711.403000",
    "092713.403000",
    "092715.903000",
    "092717.903000",
    "092719.403000",
    "092721.404000",
    "092723.903000",
    "092725.402000",
    "092727.403000",
    "092729.402000",
    "092731.402000",
    "092733.402000",
    "092735.403000",
    "092737.904000",
    "092739.403000",
    "092741.903000",
    "092743.402000",
    "092745.403000",
    "092747.402000",
    "092749.402000",
    "092751.403000",
    "092753.403000",
    "092755.903000",
    "092757.404000",
    "092759.903000",
    "092801.403000",
    "092803.402000",
    "092805.402000",
    "092807.402000",
    "092809.404000",
    "092811.904000",
    "092813.403000",
    "092815.403000",
    "092817.403000",
    "092819.403000",
    "092821.403000",
    "092823.422000",
    "092825.402000",
    "092827.404000",
    "092829.403000",
    "092831.404000",
    "092833.903000",
    "092835.903000",
    "092837.402000",
    "092839.402000",
    "092841.403000",
    "092843.403000",
    "092845.404000",
    "092847.404000",
    "092849.403000",
    "092851.902000",
    "092853.902000",
    "092855.903000",
    "092857.402000",
    "092859.903000",
    "092901.903000",
    "092903.904000",
    "092905.404000",
    "092907.403000",
    "092909.403000",
    "092911.903000",
    "092913.403000",
    "092915.402000",
    "092917.403000",
    "092919.403000",
    "092921.404000",
    "092923.404000",
    "092925.404000",
    "092927.903000",
    "092929.903000",
    "092931.403000",
    "092933.902000",
    "092935.902000",
    "092937.904000",
    "092939.403000",
    "092941.404000",
    "092943.403000",
    "092945.903000",
    "092947.403000",
    "092949.403000",
    "092951.402000",
    "092953.902000",
    "092955.904000",
    "092957.403000",
    "092959.403000",
    "093001.403000",
    "093003.403000",
    "093005.402000",
    "093007.403000",
    "093009.403000",
    "093011.403000",
    "093013.904000",
    "093015.404000",
    "093017.404000",
    "093019.902000",
    "093021.403000",
    "093023.902000",
    "093025.403000",
    "093027.402000",
    "093029.404000",
    "093031.404000",
    "093033.904000",
    "093035.403000",
    "093037.402000",
    "093039.403000",
    "093041.902000",
    "093043.902000",
    "093045.903000",
    "093047.403000",
    "093049.904000",
    "093051.403000",
    "093053.423000",
    "093055.902000",
    "093057.403000",
    "093059.402000",
    "093101.403000",
    "093103.403000",
    "093105.404000",
    "093107.404000",
    "093109.403000",
    "093111.902000",
    "093113.403000",
    "093115.402000",
    "093117.903000",
    "093119.402000",
    "093121.403000",
    "093123.903000",
    "093125.904000",
    "093127.403000",
    "093129.403000",
    "093131.403000",
    "093133.403000",
    "093135.329000"
   ],
   "InstanceNumber": [
    1,
    2,
    3,
    4,
    5,
    6,
    7,
    8,
    9,
    10,
    11,
    12,
    13,
    14,
    15,
    16,
    17,
    18,
    19,
    20,
    21,
    22,
    23,
    24,
    25,
    26,
    27,
    28,
    29,
    30,
    31,
    32,
    33,
    34,
    35,
    36,
    37,
    38,
    39,
    40,
    41,
    42,
    43,
    44,
    45,
    46,
    47,
    48,
    49,
    50,
    51,
    52,
    53,
    54,
    55,
    56,
    57,
    58,
    59,
    60,
    61,
    62,
    63,
    64,
    65,
    66,
    67,
    68,
    69,
    70,
    71,
    72,
    73,
    74,
    75,
    76,
    77,
    78,
    79,
    80,
    81,
    82,
    83,
    84,
    85,
    86,
    87,
    88,
    89,
    90,
    91,
    92,
    93,
    94,
    95,
    96,
    97,
    98,
    99,
    100,
    101,
    102,
    103,
    104,
    105,
    106,
    107,
    108,
    109,
    110,
    111,
    112,
    113,
    114,
    115,
    116,
    117,
    118,
    119,
    120,
    121,
    122,
    123,
    124,
    125,
    126,
    127,
    128,
    129,
    130,
    131,
    132,
    133,
    134,
    135,
    136,
    137,
    138,
    139,
    140,
    141,
    142,
    143,
    144,
    145,
    146,
    147,
    148,
    149,
    150,
    151,
    152,
    153,
    154,
    155,
    156,
    157,
    158,
    159,
    160,
    161,
    162,
    163,
    164,
    165,
    166,
    167,
    168,
    169,
    170,
    171,
    172,
    173,
    174,
    175,
    176,
    177,
    178,
    179,
    180,
    181,
    182,
    183,
    184,
    185,
    186,
    187,
    188,
    189,
    190,
    191,
    192,
    193,
    194,
    195,
    196,
    197,
    198,
    199,
    200,
    201,
    202,
    203,
    204,
    205,
    206,
    207,
    208,
    209,
    210,
    211,
    212,
    213,
    214,
    215,
    216,
    217,
    218,
    219,
    220,
    221,
    222,
    223,
    224,
    225,
    226,
    227,
    228,
    229,
    230,
    231,
    232,
    233,
    234,
    235,
    236,
    237,
    238,
    239,
    240,
    241
   ],
   "LargestImagePixelValue": [
    3175,
    3053,
    3136,
    3042,
    3064,
    3077,
    3143,
    3053,
    3148,
    3043,
    3133,
    3076,
    3131,
    3117,
    3071,
    3088,
    3076,
    3127,
    3062,
    3165,
    3043,
    3177,
    3019,
    3051,
    3102,
    3070,
    3124,
    3084,
    3093,
    3113,
    3066,
    3063,
    3109,
    3061,
    3162,
    3050,
    3174,
    3085,
    3149,
    3068,
    3179,
    3062,
    3129,
    3072,
    3120,
    3065,
    3118,
    3119,
    3139,
    3115,
    3119,
    3150,
    3066,
    3172,
    3057,
    3211,
    3117,
    3168,
    3091,
    3106,
    3092,
    3103,
    3111,
    3110,
    3158,
    3078,
    3220,
    3088,
    3197,
    3046,
    3215,
    3137,
    3113,
    3231,
    3172,
    3156,
    3192,
    3115,
    3208,
    3163,
    3207,
    3147,
    3191,
    3131,
    3269,
    3206,
    3213,
    3207,
    3192,
    3156,
    3256,
    3186,
    3250,
    3182,
    3271,
    3198,
    3182,
    3210,
    3183,
    3230,
    3274,
    3231,
    3227,
    3206,
    3213,
    3211,
    3219,
    3286,
    3203,
    3270,
    3227,
    3283,
    3226,
    3253,
    3231,
    3237,
    3241,
    3253,
    3262,
    3256,
    3254,
    3215,
    3294,
    3226,
    3257,
    3281,
    3293,
    3263,
    3258,
    3250,
    3271,
    3304,
    3227,
    3259,
    3311,
    3286,
    3268,
    3257,
    3233,
    3303,
    3250,
    3328,
    3241,
    3267,
    3257,
    3307,
    3295,
    3339,
    3273,
    3343,
    3262,
    3341,
    3280,
    3277,
    3300,
    3298,
    3279,
    3294,
    3320,
    3225,
    3323,
    3283,
    3349,
    3286,
    3353,
    3335,
    3361,
    3306,
    3369,
    3339,
    3285,
    3318,
    3306,
    3294,
    3338,
    3317,
    3336,
    3303,
    3315,
    3312,
    3235,
    3299,
    3299,
    3318,
    3243,
    3274,
    3291,
    3280,
    3265,
    3312,
    3289,
    3329,
    3354,
    3315,
    3355,
    3280,
    3320,
    3315,
    3348,
    3253,
    3327,
    3320,
    3337,
    3344,
    3345,
    3357,
    3327,
    3301,
    3327,
    3260,
    3416,
    3346,
    3228,
    3301,
    3284,
    3311,
    3322,
    3314,
    3277,
    3302,
    3287,
    3220,
    3292,
    3273,
    3294,
    3254,
    3290,
    3286,
    3295,
    3315,
    3346,
    3324,
    3259,
    3278,
    3344,
    3297,
    3282,
    3286,
    3303,
    3255,
    3286
   ],
   "WindowCenter": [
    802.0,
    801.0,
    803.0,
    802.0,
    802.0,
    801.0,
    802.0,
    801.0,
    802.0,
    802.0,
    803.0,
    803.0,
    803.0,
    803.0,
    802.0,
    801.0,
    801.0,
    801.0,
    801.0,
    801.0,
    800.0,
    802.0,
    802.0,
    802.0,
    802.0,
    800.0,
    800.0,
    800.0,
    802.0,
    804.0,
    805.0,
    804.0,
    802.0,
    800.0,
    800.0,
    799.0,
    800.0,
    800.0,
    801.0,
    800.0,
    802.0,
    802.0,
    804.0,
    804.0,
    804.0,
    803.0,
    802.0,
    802.0,
    803.0,
    803.0,
    803.0,
    804.0,
    803.0,
    804.0,
    802.0,
    803.0,
    801.0,
    802.0,
    802.0,
    801.0,
    801.0,
    802.0,
    803.0,
    802.0,
    801.0,
    800.0,
    800.0,
    800.0,
    801.0,
    801.0,
    803.0,
    802.0,
    802.0,
    805.0,
    807.0,
    807.0,
    806.0,
    803.0,
    802.0,
    801.0,
    801.0,
    801.0,
    802.0,
    802.0,
    801.0,
    800.0,
    802.0,
    803.0,
    803.0,
    803.0,
    803.0,
    802.0,
    802.0,
    801.0,
    803.0,
    803.0,
    804.0,
    804.0,
    802.0,
    802.0,
    804.0,
    803.0,
    802.0,
    802.0,
    802.0,
    802.0,
    803.0,
    804.0,
    804.0,
    805.0,
    804.0,
    804.0,
    803.0,
    803.0,
    805.0,
    805.0,
    804.0,
    803.0,
    802.0,
    801.0,
    802.0,
    804.0,
    805.0,
    804.0,
    804.0,
    804.0,
    804.0,
    803.0,
    804.0,
    804.0,
    805.0,
    805.0,
    804.0,
    802.0,
    802.0,
    802.0,
    803.0,
    803.0,
    802.0,
    803.0,
    804.0,
    807.0,
    806.0,
    804.0,
    803.0,
    803.0,
    804.0,
    805.0,
    805.0,
    805.0,
    805.0,
    805.0,
    806.0,
    804.0,
    803.0,
    802.0,
    802.0,
    804.0,
    805.0,
    805.0,
    804.0,
    803.0,
    802.0,
    801.0,
    801.0,
    802.0,
    802.0,
    802.0,
    802.0,
    804.0,
    805.0,
    806.0,
    805.0,
    806.0,
    804.0,
    803.0,
    804.0,
    804.0,
    805.0,
    806.0,
    805.0,
    805.0,
    803.0,
    803.0,
    802.0,
    803.0,
    805.0,
    806.0,
    804.0,
    801.0,
    800.0,
    800.0,
    800.0,
    800.0,
    802.0,
    801.0,
    802.0,
    802.0,
    802.0,
    803.0,
    805.0,
    805.0,
    805.0,
    806.0,
    807.0,
    808.0,
    807.0,
    806.0,
    805.0,
    803.0,
    805.0,
    805.0,
    805.0,
    805.0,
    803.0,
    803.0,
    805.0,
    807.0,
    806.0,
    804.0,
    802.0,
    802.0,
    803.0,
    804.0,
    805.0,
    805.0,
    805.0,
    805.0,
    805.0,
    805.0,
    804.0,
    804.0,
    804.0,
    805.0,
    805.0,
    803.0,
    803.0,
    803.0,
    804.0,
    805.0,
    807.0
   ],
   "WindowWidth": [
    1716.0,
    1713.0,
    1717.0,
    1715.0,
