{
 "AcquisitionMatrixPE": 100,
 "AcquisitionNumber": 1,
 "AcquisitionTime": "10:46:35.045000",
 "BandwidthPerPixelPhaseEncode": 18.519,
 "BaseResolution": 100,
 "BodyPartExamined": "BRAIN",
 "ConsistencyInfo": "N4_VE11C_LATEST_20160120",
 "ConversionSoftware": "dcm2niix",
 "ConversionSoftwareVersion": "v1.0.20180622 GCC4.9.2",
 "DerivedVendorReportedEchoSpacing": 0.000539986,
 "DeviceSerialNumber": "166078",
 "DwellTime": 2.1e-06,
 "EchoTime": 0.034,
 "EchoTrainLength": 100,
 "EffectiveEchoSpacing": 0.000539986,
 "FlipAngle": 90,
 "ImageOrientationPatientDICOM": [
  1,
  0,
  0,
  0,
  0.994881,
  -0.101056
 ],
 "ImageType": [
  "ORIGINAL",
  "PRIMARY",
  "M",
  "ND",
  "MOSAIC"
 ],
 "InPlanePhaseEncodingDirectionDICOM": "COL",
 "InstitutionAddress": "Street_StreetNo_Bei_Jing_District_CN_ZIP",
 "InstitutionName": "BeiJing_Normal_University",
 "InstitutionalDepartmentName": "Department",
 "MRAcquisitionType": "2D",
 "MagneticFieldStrength": 3,
 "Manufacturer": "Siemens",
 "ManufacturersModelName": "Prisma",
 "Modality": "MR",
 "MultibandAccelerationFactor": 3,
 "PartialFourier": 1,
 "PatientPosition": "HFS",
 "PercentPhaseFOV": 100,
 "PhaseEncodingDirection": "j-",
 "PhaseEncodingSteps": 100,
 "PhaseResolution": 1,
 "PixelBandwidth": 2380,
 "ProcedureStepDescription": "BNU_P2018_64CH_Zhen.ZongLei",
 "ProtocolName": "bold_100x100_s3_2x2x2_static_test_241",
 "PulseSequenceDetails": "%SiemensSeq%_ep2d_bold",
 "ReceiveCoilActiveElements": "HC1-7;NC1",
 "ReceiveCoilName": "HeadNeck_64",
 "ReconMatrixPE": 100,
 "RepetitionTime": 2,
 "SAR": 0.065392,
 "ScanOptions": "FS",
 "ScanningSequence": "EP",
 "SequenceName": "_epfid2d1_100",
 "SequenceVariant": "SK",
 "SeriesDescription": "bold_100x100_s3_2x2x2_static_test_241",
 "SeriesNumber": 16,
 "ShimSetting": [
  -5447,
  -11475,
  -1302,
  268,
  37,
  -87,
  -192,
  94
 ],
 "SliceThickness": 2,
 "SliceTiming": [
  1.485,
  0,
  0.99,
  0.0825,
  1.0725,
  0.165,
  1.155,
  0.2475,
  1.2375,
  0.33,
  1.32,
  0.4125,
  1.4025,
  0.5775,
  1.5675,
  0.66,
  1.65,
  0.7425,
  1.7325,
  0.825,
  1.815,
  0.9075,
  1.8975,
  0.495,
  1.485,
  0,
  0.99,
  0.0825,
  1.0725,
  0.165,
  1.155,
  0.2475,
  1.2375,
  0.33,
  1.32,
  0.4125,
  1.4025,
  0.5775,
  1.5675,
  0.66,
  1.65,
  0.7425,
  1.7325,
  0.825,
  1.815,
  0.9075,
  1.8975,
  0.495,
  1.485,
  0,
  0.99,
  0.0825,
  1.0725,
  0.165,
  1.155,
  0.2475,
  1.2375,
  0.33,
  1.32,
  0.4125,
  1.4025,
  0.5775,
  1.5675,
  0.66,
  1.65,
  0.7425,
  1.7325,
  0.825,
  1.815,
  0.9075,
  1.8975,
  0.495
 ],
 "SoftwareVersions": "syngo_MR_E11",
 "SpacingBetweenSlices": 2,
 "StationName": "AWP166078",
 "TaskName": "coco",
 "TotalReadoutTime": 0.0534586,
 "TxRefAmp": 222.721,
 "dcmmeta_affine": [
  [
   -2.0,
   0.0,
   0.0,
   102.69879150390625
  ],
  [
   0.0,
   1.989761471748352,
   -0.2021125853061676,
   -85.5859603881836
  ],
  [
   0.0,
   0.2021125853061676,
   1.989761471748352,
   -80.63643646240234
  ],
  [
   0.0,
   0.0,
   0.0,
   1.0
  ]
 ],
 "dcmmeta_reorient_transform": [
  [
   0.0,
   -1.0,
   0.0,
   99.0
  ],
  [
   1.0,
   0.0,
   0.0,
   0.0
  ],
  [
   0.0,
   0.0,
   1.0,
   0.0
  ],
  [
   0.0,
   0.0,
   0.0,
   1.0
  ]
 ],
 "dcmmeta_shape": [
  100,
  100,
  72,
  241
 ],
 "dcmmeta_slice_dim": 2,
 "dcmmeta_version": 0.6,
 "global": {
  "const": {
   "AcquisitionMatrix": [
    100,
    0,
    0,
    100
   ],
   "AngioFlag": "N",
   "BitsAllocated": 16,
   "BitsStored": 12,
   "BodyPartExamined": "BRAIN",
   "Columns": 900,
   "EchoNumbers": 1,
   "EchoTime": 34.0,
   "EchoTrainLength": 100,
   "FlipAngle": 90.0,
   "HighBit": 11,
   "ImageOrientationPatient": [
    1.0,
    0.0,
    0.0,
    0.0,
    0.99488070921592,
    -0.1010562933717
   ],
   "ImagePositionPatient": [
    -902.69879508018,
    -907.30498513423,
    20.217746248858
   ],
   "ImageType": [
    "ORIGINAL",
    "PRIMARY",
    "M",
    "ND",
    "MOSAIC"
   ],
   "ImagedNucleus": "1H",
   "ImagingFrequency": 123.257778,
   "InPlanePhaseEncodingDirection": "COL",
   "MRAcquisitionType": "2D",
   "MagneticFieldStrength": 3.0,
   "Manufacturer": "SIEMENS",
   "ManufacturerModelName": "Prisma",
   "Modality": "MR",
   "NumberOfAverages": 1.0,
   "NumberOfPhaseEncodingSteps": 100,
   "PercentPhaseFieldOfView": 100.0,
   "PercentSampling": 100.0,
   "PerformedProcedureStepStartTime": "085951.111000",
   "PhotometricInterpretation": "MONOCHROME2",
   "PixelBandwidth": 2380.0,
   "PixelRepresentation": 0,
   "PixelSpacing": [
    2.0,
    2.0
   ],
   "ProtocolName": "bold_100x100_s3_2x2x2_static_test_241",
   "RepetitionTime": 2000.0,
   "Rows": 900,
   "SAR": 0.06539198227493,
   "SamplesPerPixel": 1,
   "ScanOptions": "FS",
   "ScanningSequence": "EP",
   "SequenceName": "*epfid2d1_100",
   "SequenceVariant": "SK",
   "SeriesDescription": "bold_100x100_s3_2x2x2_static_test_241",
   "SeriesNumber": 16,
   "SeriesTime": "104638.112000",
   "SliceLocation": -71.574633028492,
   "SliceThickness": 2.0,
   "SmallestImagePixelValue": 0,
   "SoftwareVersions": "syngo MR E11",
   "SpacingBetweenSlices": 2.0000000427749,
   "SpecificCharacterSet": "ISO_IR 100",
   "StudyID": "1",
   "StudyTime": "085950.984000",
   "TransmitCoilName": "Body",
   "VariableFlipAngleFlag": "N",
   "WindowCenterWidthExplanation": "Algo1",
   "dBdt": 0.0
  },
  "slices": {}
 },
 "time": {
  "samples": {
   "AcquisitionNumber": [
    1,
    2,
    3,
    4,
    5,
    6,
    7,
    8,
    9,
    10,
    11,
    12,
    13,
    14,
    15,
    16,
    17,
    18,
    19,
    20,
    21,
    22,
    23,
    24,
    25,
    26,
    27,
    28,
    29,
    30,
    31,
    32,
    33,
    34,
    35,
    36,
    37,
    38,
    39,
    40,
    41,
    42,
    43,
    44,
    45,
    46,
    47,
    48,
    49,
    50,
    51,
    52,
    53,
    54,
    55,
    56,
    57,
    58,
    59,
    60,
    61,
    62,
    63,
    64,
    65,
    66,
    67,
    68,
    69,
    70,
    71,
    72,
    73,
    74,
    75,
    76,
    77,
    78,
    79,
    80,
    81,
    82,
    83,
    84,
    85,
    86,
    87,
    88,
    89,
    90,
    91,
    92,
    93,
    94,
    95,
    96,
    97,
    98,
    99,
    100,
    101,
    102,
    103,
    104,
    105,
    106,
    107,
    108,
    109,
    110,
    111,
    112,
    113,
    114,
    115,
    116,
    117,
    118,
    119,
    120,
    121,
    122,
    123,
    124,
    125,
    126,
    127,
    128,
    129,
    130,
    131,
    132,
    133,
    134,
    135,
    136,
    137,
    138,
    139,
    140,
    141,
    142,
    143,
    144,
    145,
    146,
    147,
    148,
    149,
    150,
    151,
    152,
    153,
    154,
    155,
    156,
    157,
    158,
    159,
    160,
    161,
    162,
    163,
    164,
    165,
    166,
    167,
    168,
    169,
    170,
    171,
    172,
    173,
    174,
    175,
    176,
    177,
    178,
    179,
    180,
    181,
    182,
    183,
    184,
    185,
    186,
    187,
    188,
    189,
    190,
    191,
    192,
    193,
    194,
    195,
    196,
    197,
    198,
    199,
    200,
    201,
    202,
    203,
    204,
    205,
    206,
    207,
    208,
    209,
    210,
    211,
    212,
    213,
    214,
    215,
    216,
    217,
    218,
    219,
    220,
    221,
    222,
    223,
    224,
    225,
    226,
    227,
    228,
    229,
    230,
    231,
    232,
    233,
    234,
    235,
    236,
    237,
    238,
    239,
    240,
    241
   ],
   "AcquisitionTime": [
    "104635.045000",
    "104637.045000",
    "104639.045000",
    "104641.045000",
    "104643.045000",
    "104645.045000",
    "104647.045000",
    "104649.045000",
    "104651.045000",
    "104653.045000",
    "104655.045000",
    "104657.045000",
    "104659.045000",
    "104701.045000",
    "104703.045000",
    "104705.045000",
    "104707.045000",
    "104709.045000",
    "104711.045000",
    "104713.045000",
    "104715.045000",
    "104717.045000",
    "104719.045000",
    "104721.045000",
    "104723.045000",
    "104725.045000",
    "104727.045000",
    "104729.045000",
    "104731.045000",
    "104733.045000",
    "104735.045000",
    "104737.045000",
    "104739.045000",
    "104741.045000",
    "104743.045000",
    "104745.045000",
    "104747.045000",
    "104749.045000",
    "104751.045000",
    "104753.045000",
    "104755.045000",
    "104757.045000",
    "104759.045000",
    "104801.045000",
    "104803.045000",
    "104805.045000",
    "104807.045000",
    "104809.045000",
    "104811.045000",
    "104813.045000",
    "104815.045000",
    "104817.045000",
    "104819.045000",
    "104821.045000",
    "104823.045000",
    "104825.045000",
    "104827.045000",
    "104829.045000",
    "104831.045000",
    "104833.045000",
    "104835.045000",
    "104837.045000",
    "104839.045000",
    "104841.045000",
    "104843.045000",
    "104845.045000",
    "104847.045000",
    "104849.045000",
    "104851.045000",
    "104853.045000",
    "104855.045000",
    "104857.045000",
    "104859.045000",
    "104901.045000",
    "104903.045000",
    "104905.045000",
    "104907.045000",
    "104909.045000",
    "104911.045000",
    "104913.045000",
    "104915.045000",
    "104917.045000",
    "104919.045000",
    "104921.045000",
    "104923.045000",
    "104925.045000",
    "104927.045000",
    "104929.045000",
    "104931.045000",
    "104933.045000",
    "104935.045000",
    "104937.045000",
    "104939.045000",
    "104941.045000",
    "104943.045000",
    "104945.045000",
    "104947.045000",
    "104949.045000",
    "104951.045000",
    "104953.045000",
    "104955.045000",
    "104957.045000",
    "104959.045000",
    "105001.045000",
    "105003.045000",
    "105005.045000",
    "105007.045000",
    "105009.045000",
    "105011.045000",
    "105013.045000",
    "105015.045000",
    "105017.045000",
    "105019.045000",
    "105021.045000",
    "105023.045000",
    "105025.045000",
    "105027.045000",
    "105029.045000",
    "105031.045000",
    "105033.045000",
    "105035.045000",
    "105037.045000",
    "105039.045000",
    "105041.045000",
    "105043.045000",
    "105045.045000",
    "105047.045000",
    "105049.045000",
    "105051.045000",
    "105053.045000",
    "105055.045000",
    "105057.045000",
    "105059.045000",
    "105101.045000",
    "105103.045000",
    "105105.045000",
    "105107.045000",
    "105109.045000",
    "105111.045000",
    "105113.045000",
    "105115.045000",
    "105117.045000",
    "105119.045000",
    "105121.045000",
    "105123.045000",
    "105125.045000",
    "105127.045000",
    "105129.045000",
    "105131.045000",
    "105133.045000",
    "105135.045000",
    "105137.045000",
    "105139.045000",
    "105141.045000",
    "105143.045000",
    "105145.045000",
    "105147.045000",
    "105149.045000",
    "105151.045000",
    "105153.045000",
    "105155.045000",
    "105157.045000",
    "105159.045000",
    "105201.045000",
    "105203.045000",
    "105205.045000",
    "105207.045000",
    "105209.045000",
    "105211.045000",
    "105213.045000",
    "105215.045000",
    "105217.045000",
    "105219.045000",
    "105221.045000",
    "105223.045000",
    "105225.045000",
    "105227.045000",
    "105229.045000",
    "105231.045000",
    "105233.045000",
    "105235.045000",
    "105237.045000",
    "105239.045000",
    "105241.045000",
    "105243.045000",
    "105245.045000",
    "105247.045000",
    "105249.045000",
    "105251.045000",
    "105253.045000",
    "105255.045000",
    "105257.045000",
    "105259.045000",
    "105301.045000",
    "105303.045000",
    "105305.045000",
    "105307.045000",
    "105309.045000",
    "105311.045000",
    "105313.045000",
    "105315.045000",
    "105317.045000",
    "105319.045000",
    "105321.045000",
    "105323.045000",
    "105325.045000",
    "105327.045000",
    "105329.045000",
    "105331.045000",
    "105333.045000",
    "105335.045000",
    "105337.045000",
    "105339.045000",
    "105341.045000",
    "105343.045000",
    "105345.045000",
    "105347.045000",
    "105349.045000",
    "105351.045000",
    "105353.045000",
    "105355.045000",
    "105357.045000",
    "105359.045000",
    "105401.045000",
    "105403.045000",
    "105405.045000",
    "105407.045000",
    "105409.045000",
    "105411.045000",
    "105413.045000",
    "105415.045000",
    "105417.045000",
    "105419.045000",
    "105421.045000",
    "105423.045000",
    "105425.045000",
    "105427.045000",
    "105429.045000",
    "105431.045000",
    "105433.045000",
    "105435.045000"
   ],
   "ContentTime": [
    "104638.116000",
    "104639.612000",
    "104641.611000",
    "104643.612000",
    "104645.612000",
    "104647.611000",
    "104649.612000",
    "104651.612000",
    "104653.612000",
    "104655.611000",
    "104657.612000",
    "104659.612000",
    "104701.611000",
    "104703.612000",
    "104705.612000",
    "104707.613000",
    "104709.613000",
    "104711.612000",
    "104713.612000",
    "104715.611000",
    "104717.611000",
    "104719.611000",
    "104721.612000",
    "104723.611000",
    "104725.612000",
    "104727.613000",
    "104729.612000",
    "104731.611000",
    "104733.612000",
    "104735.611000",
    "104737.611000",
    "104739.611000",
    "104741.612000",
    "104743.613000",
    "104745.612000",
    "104747.611000",
    "104749.612000",
    "104751.611000",
    "104753.612000",
    "104755.611000",
    "104757.612000",
    "104759.612000",
    "104801.612000",
    "104803.612000",
    "104805.611000",
    "104807.612000",
    "104809.611000",
    "104811.611000",
    "104813.612000",
    "104815.611000",
    "104817.612000",
    "104819.612000",
    "104821.612000",
    "104823.612000",
    "104825.612000",
    "104827.612000",
    "104829.612000",
    "104831.612000",
    "104833.611000",
    "104835.612000",
    "104837.612000",
    "104839.612000",
    "104841.612000",
    "104843.612000",
    "104845.612000",
    "104847.612000",
    "104849.611000",
    "104851.612000",
    "104853.613000",
    "104855.612000",
    "104857.612000",
    "104859.611000",
    "104901.612000",
    "104903.612000",
    "104905.611000",
    "104907.612000",
    "104909.611000",
    "104911.612000",
    "104913.612000",
    "104915.611000",
    "104917.611000",
    "104919.611000",
    "104921.611000",
    "104923.612000",
    "104925.611000",
    "104927.612000",
    "104929.612000",
    "104931.612000",
    "104933.612000",
    "104935.612000",
    "104937.612000",
    "104939.611000",
    "104941.611000",
    "104943.612000",
    "104945.612000",
    "104947.612000",
    "104949.612000",
    "104951.611000",
    "104953.611000",
    "104955.611000",
    "104957.612000",
    "104959.612000",
    "105001.611000",
    "105003.612000",
    "105005.612000",
    "105007.612000",
    "105009.612000",
    "105011.612000",
    "105013.612000",
    "105015.612000",
    "105017.612000",
    "105019.612000",
    "105021.613000",
    "105023.612000",
    "105025.612000",
    "105027.612000",
    "105029.612000",
    "105031.612000",
    "105033.612000",
    "105035.612000",
    "105037.613000",
    "105039.612000",
    "105041.612000",
    "105043.612000",
    "105045.611000",
    "105047.611000",
    "105049.611000",
    "105051.611000",
    "105053.612000",
    "105055.612000",
    "105057.612000",
    "105059.611000",
    "105101.612000",
    "105103.612000",
    "105105.611000",
    "105107.612000",
    "105109.612000",
    "105111.611000",
    "105113.612000",
    "105115.611000",
    "105117.611000",
    "105119.611000",
    "105121.611000",
    "105123.612000",
    "105125.611000",
    "105127.612000",
    "105129.612000",
    "105131.613000",
    "105133.611000",
    "105135.611000",
    "105137.611000",
    "105139.611000",
    "105141.611000",
    "105143.611000",
    "105145.612000",
    "105147.613000",
    "105149.613000",
    "105151.612000",
    "105153.611000",
    "105155.611000",
    "105157.612000",
    "105159.611000",
    "105201.612000",
    "105203.611000",
    "105205.613000",
    "105207.622000",
    "105209.612000",
    "105211.611000",
    "105213.611000",
    "105215.612000",
    "105217.611000",
    "105219.611000",
    "105221.612000",
    "105223.613000",
    "105225.612000",
    "105227.612000",
    "105229.612000",
    "105231.612000",
    "105233.611000",
    "105235.611000",
    "105237.612000",
    "105239.612000",
    "105241.612000",
    "105243.612000",
    "105245.611000",
    "105247.612000",
    "105249.612000",
    "105251.612000",
    "105253.612000",
    "105255.612000",
    "105257.613000",
    "105259.613000",
    "105301.612000",
    "105303.611000",
    "105305.612000",
    "105307.612000",
    "105309.611000",
    "105311.612000",
    "105313.612000",
    "105315.613000",
    "105317.613000",
    "105319.611000",
    "105321.612000",
    "105323.611000",
    "105325.612000",
    "105327.612000",
    "105329.612000",
    "105331.612000",
    "105333.612000",
    "105335.611000",
    "105337.611000",
    "105339.612000",
    "105341.612000",
    "105343.612000",
    "105345.612000",
    "105347.611000",
    "105349.613000",
    "105351.612000",
    "105353.612000",
    "105355.611000",
    "105357.611000",
    "105359.612000",
    "105401.612000",
    "105403.612000",
    "105405.612000",
    "105407.612000",
    "105409.613000",
    "105411.612000",
    "105413.612000",
    "105415.612000",
    "105417.612000",
    "105419.612000",
    "105421.611000",
    "105423.612000",
    "105425.613000",
    "105427.612000",
    "105429.611000",
    "105431.612000",
    "105433.612000",
    "105435.611000",
    "105437.182000"
   ],
   "InstanceCreationTime": [
    "104638.116000",
    "104639.612000",
    "104641.611000",
    "104643.612000",
    "104645.612000",
    "104647.611000",
    "104649.612000",
    "104651.612000",
    "104653.612000",
    "104655.611000",
    "104657.612000",
    "104659.612000",
    "104701.611000",
    "104703.612000",
    "104705.612000",
    "104707.613000",
    "104709.613000",
    "104711.612000",
    "104713.612000",
    "104715.611000",
    "104717.611000",
    "104719.611000",
    "104721.612000",
    "104723.611000",
    "104725.612000",
    "104727.613000",
    "104729.612000",
    "104731.611000",
    "104733.612000",
    "104735.611000",
    "104737.611000",
    "104739.611000",
    "104741.612000",
    "104743.613000",
    "104745.612000",
    "104747.611000",
    "104749.612000",
    "104751.611000",
    "104753.612000",
    "104755.611000",
    "104757.612000",
    "104759.612000",
    "104801.612000",
    "104803.612000",
    "104805.611000",
    "104807.612000",
    "104809.611000",
    "104811.611000",
    "104813.612000",
    "104815.611000",
    "104817.612000",
    "104819.612000",
    "104821.612000",
    "104823.612000",
    "104825.612000",
    "104827.612000",
    "104829.612000",
    "104831.612000",
    "104833.611000",
    "104835.612000",
    "104837.612000",
    "104839.612000",
    "104841.612000",
    "104843.612000",
    "104845.612000",
    "104847.612000",
    "104849.611000",
    "104851.612000",
    "104853.613000",
    "104855.612000",
    "104857.612000",
    "104859.611000",
    "104901.612000",
    "104903.612000",
    "104905.611000",
    "104907.612000",
    "104909.611000",
    "104911.612000",
    "104913.612000",
    "104915.611000",
    "104917.611000",
    "104919.611000",
    "104921.611000",
    "104923.612000",
    "104925.611000",
    "104927.612000",
    "104929.612000",
    "104931.612000",
    "104933.612000",
    "104935.612000",
    "104937.612000",
    "104939.611000",
    "104941.611000",
    "104943.612000",
    "104945.612000",
    "104947.612000",
    "104949.612000",
    "104951.611000",
    "104953.611000",
    "104955.611000",
    "104957.612000",
    "104959.612000",
    "105001.611000",
    "105003.612000",
    "105005.612000",
    "105007.612000",
    "105009.612000",
    "105011.612000",
    "105013.612000",
    "105015.612000",
    "105017.612000",
    "105019.612000",
    "105021.613000",
    "105023.612000",
    "105025.612000",
    "105027.612000",
    "105029.612000",
    "105031.612000",
    "105033.612000",
    "105035.612000",
    "105037.613000",
    "105039.612000",
    "105041.612000",
    "105043.612000",
    "105045.611000",
    "105047.611000",
    "105049.611000",
    "105051.611000",
    "105053.612000",
    "105055.612000",
    "105057.612000",
    "105059.611000",
    "105101.612000",
    "105103.612000",
    "105105.611000",
    "105107.612000",
    "105109.612000",
    "105111.611000",
    "105113.612000",
    "105115.611000",
    "105117.611000",
    "105119.611000",
    "105121.611000",
    "105123.612000",
    "105125.611000",
    "105127.612000",
    "105129.612000",
    "105131.613000",
    "105133.611000",
    "105135.611000",
    "105137.611000",
    "105139.611000",
    "105141.611000",
    "105143.611000",
    "105145.612000",
    "105147.613000",
    "105149.613000",
    "105151.612000",
    "105153.611000",
    "105155.611000",
    "105157.612000",
    "105159.611000",
    "105201.612000",
    "105203.611000",
    "105205.613000",
    "105207.622000",
    "105209.612000",
    "105211.611000",
    "105213.611000",
    "105215.612000",
    "105217.611000",
    "105219.611000",
    "105221.612000",
    "105223.613000",
    "105225.612000",
    "105227.612000",
    "105229.612000",
    "105231.612000",
    "105233.611000",
    "105235.611000",
    "105237.612000",
    "105239.612000",
    "105241.612000",
    "105243.612000",
    "105245.611000",
    "105247.612000",
    "105249.612000",
    "105251.612000",
    "105253.612000",
    "105255.612000",
    "105257.613000",
    "105259.613000",
    "105301.612000",
    "105303.611000",
    "105305.612000",
    "105307.612000",
    "105309.611000",
    "105311.612000",
    "105313.612000",
    "105315.613000",
    "105317.613000",
    "105319.611000",
    "105321.612000",
    "105323.611000",
    "105325.612000",
    "105327.612000",
    "105329.612000",
    "105331.612000",
    "105333.612000",
    "105335.611000",
    "105337.611000",
    "105339.612000",
    "105341.612000",
    "105343.612000",
    "105345.612000",
    "105347.611000",
    "105349.613000",
    "105351.612000",
    "105353.612000",
    "105355.611000",
    "105357.611000",
    "105359.612000",
    "105401.612000",
    "105403.612000",
    "105405.612000",
    "105407.612000",
    "105409.613000",
    "105411.612000",
    "105413.612000",
    "105415.612000",
    "105417.612000",
    "105419.612000",
    "105421.611000",
    "105423.612000",
    "105425.613000",
    "105427.612000",
    "105429.611000",
    "105431.612000",
    "105433.612000",
    "105435.611000",
    "105437.182000"
   ],
   "InstanceNumber": [
    1,
    2,
    3,
    4,
    5,
    6,
    7,
    8,
    9,
    10,
    11,
    12,
    13,
    14,
    15,
    16,
    17,
    18,
    19,
    20,
    21,
    22,
    23,
    24,
    25,
    26,
    27,
    28,
    29,
    30,
    31,
    32,
    33,
    34,
    35,
    36,
    37,
    38,
    39,
    40,
    41,
    42,
    43,
    44,
    45,
    46,
    47,
    48,
    49,
    50,
    51,
    52,
    53,
    54,
    55,
    56,
    57,
    58,
    59,
    60,
    61,
    62,
    63,
    64,
    65,
    66,
    67,
    68,
    69,
    70,
    71,
    72,
    73,
    74,
    75,
    76,
    77,
    78,
    79,
    80,
    81,
    82,
    83,
    84,
    85,
    86,
    87,
    88,
    89,
    90,
    91,
    92,
    93,
    94,
    95,
    96,
    97,
    98,
    99,
    100,
    101,
    102,
    103,
    104,
    105,
    106,
    107,
    108,
    109,
    110,
    111,
    112,
    113,
    114,
    115,
    116,
    117,
    118,
    119,
    120,
    121,
    122,
    123,
    124,
    125,
    126,
    127,
    128,
    129,
    130,
    131,
    132,
    133,
    134,
    135,
    136,
    137,
    138,
    139,
    140,
    141,
    142,
    143,
    144,
    145,
    146,
    147,
    148,
    149,
    150,
    151,
    152,
    153,
    154,
    155,
    156,
    157,
    158,
    159,
    160,
    161,
    162,
    163,
    164,
    165,
    166,
    167,
    168,
    169,
    170,
    171,
    172,
    173,
    174,
    175,
    176,
    177,
    178,
    179,
    180,
    181,
    182,
    183,
    184,
    185,
    186,
    187,
    188,
    189,
    190,
    191,
    192,
    193,
    194,
    195,
    196,
    197,
    198,
    199,
    200,
    201,
    202,
    203,
    204,
    205,
    206,
    207,
    208,
    209,
    210,
    211,
    212,
    213,
    214,
    215,
    216,
    217,
    218,
    219,
    220,
    221,
    222,
    223,
    224,
    225,
    226,
    227,
    228,
    229,
    230,
    231,
    232,
    233,
    234,
    235,
    236,
    237,
    238,
    239,
    240,
    241
   ],
   "LargestImagePixelValue": [
    3169,
    3147,
    3128,
    3119,
    3125,
    3111,
    3098,
    3078,
    3095,
    3081,
    3072,
    3074,
    3071,
    3096,
    3086,
    3069,
    3092,
    3058,
    3101,
    3097,
    3099,
    3066,
    3101,
    3076,
    3069,
    3066,
    3117,
    3079,
    3112,
    3063,
    3108,
    3101,
    3083,
    3082,
    3090,
    3087,
    3087,
    3113,
    3123,
    3117,
    3106,
    3089,
    3086,
    3047,
    3109,
    3081,
    3045,
    3080,
    3052,
    3103,
    3090,
    3061,
    3096,
    3062,
    3074,
    3069,
    3076,
    3066,
    3065,
    3056,
    3094,
    3065,
    3094,
    3057,
    3077,
    3037,
    3093,
    3072,
    3153,
    3094,
    3111,
    3091,
    3050,
    3044,
    3026,
    3052,
    3015,
    3107,
    2968,
    3038,
    2983,
    3108,
    3018,
    3089,
    3077,
    3033,
    2995,
    3108,
    3049,
    3062,
    2996,
    3010,
    3046,
    3038,
    3132,
    2997,
    3073,
    3012,
    3040,
    3030,
    2975,
    3082,
    2983,
    3041,
    3004,
    3002,
    3069,
    2978,
    3052,
    2976,
    3052,
    3001,
    3084,
    3015,
    3075,
    3029,
    3040,
    3005,
    3031,
    3029,
    3097,
    3062,
    3116,
    3038,
    3076,
    2980,
    3137,
    3006,
    3131,
    2995,
    3102,
    2996,
    3088,
    3018,
    2994,
    3070,
    3003,
    3045,
    3028,
    2981,
    3098,
    3029,
    3095,
    3120,
    3085,
    3092,
    3111,
    3080,
    3055,
    3094,
    3058,
    3084,
    3055,
    3097,
    3075,
    3116,
    3082,
    3097,
    3079,
    3105,
    3097,
    3012,
    3129,
    2967,
    3130,
    3002,
    3134,
    3021,
    3185,
    3104,
    3084,
    3088,
    3015,
    3003,
    3082,
    2998,
    3130,
    3039,
    3061,
    3042,
    3045,
    3166,
    3053,
    3210,
    3070,
    3084,
    3133,
    3049,
    3193,
    3083,
    3199,
    3139,
    3183,
    3103,
    3226,
    3062,
    3195,
    3093,
    3158,
    3025,
    3204,
    3082,
    3174,
    3099,
    3158,
    3104,
    3148,
    3124,
    3137,
    3192,
    3111,
    3233,
    3078,
    3167,
    3189,
    3158,
    3098,
    3065,
    3147,
    3090,
    3160,
    3130,
    3157,
    3145,
    3163,
    3112,
    3189,
    3121,
    3174,
    3125,
    3148,
    3141,
    3175,
    3149,
    3187,
    3089,
    3132,
    3148,
    3162,
    3191,
    3121
   ],
   "WindowCenter": [
    797.0,
    797.0,
    798.0,
    799.0,
    799.0,
    799.0,
    800.0,
    800.0,
    800.0,
    799.0,
    799.0,
    798.0,
    797.0,
    797.0,
    797.0,
    796.0,
    796.0,
    796.0,
    798.0,
    798.0,
    799.0,
    798.0,
    798.0,
    798.0,
    799.0,
    799.0,
    799.0,
    798.0,
    799.0,
    800.0,
    802.0,
    802.0,
    801.0,
    800.0,
    800.0,
    801.0,
    800.0,
    801.0,
    800.0,
    799.0,
    798.0,
    797.0,
    797.0,
    797.0,
    796.0,
    795.0,
    793.0,
    795.0,
    796.0,
    798.0,
    797.0,
    796.0,
    796.0,
    796.0,
    797.0,
    796.0,
    796.0,
    797.0,
    798.0,
    798.0,
    798.0,
    797.0,
    798.0,
    798.0,
    797.0,
    796.0,
    798.0,
    800.0,
    800.0,
    798.0,
    797.0,
    796.0,
    795.0,
    793.0,
    793.0,
    793.0,
    793.0,
    794.0,
    794.0,
    794.0,
    794.0,
    796.0,
    797.0,
    797.0,
    796.0,
    795.0,
    796.0,
    799.0,
    798.0,
    796.0,
    795.0,
    795.0,
    797.0,
    800.0,
    800.0,
    797.0,
    797.0,
    796.0,
    796.0,
    795.0,
    794.0,
    794.0,
    792.0,
    792.0,
    792.0,
    792.0,
    793.0,
    793.0,
    794.0,
    794.0,
    796.0,
    796.0,
    797.0,
    796.0,
    796.0,
    795.0,
    796.0,
    796.0,
    797.0,
    797.0,
    800.0,
    802.0,
    800.0,
    798.0,
    796.0,
    796.0,
    800.0,
    800.0,
    799.0,
    796.0,
    795.0,
    794.0,
    795.0,
    795.0,
    794.0,
    794.0,
    793.0,
    793.0,
    792.0,
    792.0,
    793.0,
    794.0,
    796.0,
    796.0,
    796.0,
    796.0,
    796.0,
    795.0,
    795.0,
    795.0,
    796.0,
    796.0,
    796.0,
    797.0,
    797.0,
    799.0,
    799.0,
    799.0,
    798.0,
    800.0,
    799.0,
    797.0,
    796.0,
    794.0,
    796.0,
    795.0,
    796.0,
    795.0,
    798.0,
    800.0,
    800.0,
    798.0,
    795.0,
    793.0,
    793.0,
    793.0,
    795.0,
    794.0,
    794.0,
    794.0,
    794.0,
    795.0,
    795.0,
    796.0,
    795.0,
    795.0,
    796.0,
    795.0,
    796.0,
    797.0,
    798.0,
    798.0,
    798.0,
    797.0,
    797.0,
    796.0,
    796.0,
    794.0,
    794.0,
    793.0,
    796.0,
    796.0,
    796.0,
    795.0,
    796.0,
    796.0,
    796.0,
    797.0,
    798.0,
    799.0,
    797.0,
    797.0,
    794.0,
    795.0,
    796.0,
    795.0,
    794.0,
    793.0,
    793.0,
    793.0,
    794.0,
    794.0,
    795.0,
    795.0,
    795.0,
    795.0,
    796.0,
    797.0,
    797.0,
    796.0,
    796.0,
    796.0,
    797.0,
    796.0,
    796.0,
    795.0,
    796.0,
    797.0,
    798.0,
    797.0,
    797.0
   ],
   "WindowWidth": [
    1699.0,
    1699.0,
    1701.0,
    1704.0,
