{
  "AcquisitionMatrixPE": 100,
  "AcquisitionNumber": 1,
  "AcquisitionTime": "09:42:7.295000",
  "BandwidthPerPixelPhaseEncode": 18.519,
  "BaseResolution": 100,
  "BodyPartExamined": "BRAIN",
  "ConsistencyInfo": "N4_VE11C_LATEST_20160120",
  "ConversionSoftware": "dcm2niix",
  "ConversionSoftwareVersion": "v1.0.20180622 GCC4.9.2",
  "DerivedVendorReportedEchoSpacing": 0.000539986,
  "DeviceSerialNumber": "166078",
  "DwellTime": 2.1e-06,
  "EchoTime": 0.034,
  "EchoTrainLength": 100,
  "EffectiveEchoSpacing": 0.000539986,
  "FlipAngle": 90,
  "ImageOrientationPatientDICOM": [1, 0, 0, 0, 0.994881, -0.101056],
  "ImageType": [
    "ORIGINAL",
    "PRIMARY",
    "M",
    "ND",
    "MOSAIC"
],
  "InPlanePhaseEncodingDirectionDICOM": "COL",
  "InstitutionAddress": "Street_StreetNo_Bei_Jing_District_CN_ZIP",
  "InstitutionName": "BeiJing_Normal_University",
  "InstitutionalDepartmentName": "Department",
  "MRAcquisitionType": "2D",
  "MagneticFieldStrength": 3,
  "Manufacturer": "Siemens",
  "ManufacturersModelName": "Prisma",
  "Modality": "MR",
  "MultibandAccelerationFactor": 3,
  "PartialFourier": 1,
  "PatientPosition": "HFS",
  "PercentPhaseFOV": 100,
  "PhaseEncodingDirection": "j-",
  "PhaseEncodingSteps": 100,
  "PhaseResolution": 1,
  "PixelBandwidth": 2380,
  "ProcedureStepDescription": "BNU_P2018_64CH_Zhen.ZongLei",
  "ProtocolName": "bold_100x100_s3_2x2x2_static_test_241",
  "PulseSequenceDetails": "%SiemensSeq%_ep2d_bold",
  "ReceiveCoilActiveElements": "HC1-7;NC1",
  "ReceiveCoilName": "HeadNeck_64",
  "ReconMatrixPE": 100,
  "RepetitionTime": 2,
  "SAR": 0.065392,
  "ScanOptions": "FS",
  "ScanningSequence": "EP",
  "SequenceName": "_epfid2d1_100",
  "SequenceVariant": "SK",
  "SeriesDescription": "bold_100x100_s3_2x2x2_static_test_241",
  "SeriesNumber": 7,
  "ShimSetting": [-5447, -11475, -1302, 268, 37, -87, -192, 94],
  "SliceThickness": 2,
  "SliceTiming": [1.485, 0, 0.99, 0.0825, 1.0725, 0.165, 1.155, 0.2475, 1.2375, 0.33, 1.32, 0.4125, 1.4025, 0.5775, 1.5675, 0.66, 1.65, 0.7425, 1.7325, 0.825, 1.815, 0.9075, 1.8975, 0.495, 1.485, 0, 0.99, 0.0825, 1.0725, 0.165, 1.155, 0.2475, 1.2375, 0.33, 1.32, 0.4125, 1.4025, 0.5775, 1.5675, 0.66, 1.65, 0.7425, 1.7325, 0.825, 1.815, 0.9075, 1.8975, 0.495, 1.485, 0, 0.99, 0.0825, 1.0725, 0.165, 1.155, 0.2475, 1.2375, 0.33, 1.32, 0.4125, 1.4025, 0.5775, 1.5675, 0.66, 1.65, 0.7425, 1.7325, 0.825, 1.815, 0.9075, 1.8975, 0.495],
  "SoftwareVersions": "syngo_MR_E11",
  "SpacingBetweenSlices": 2,
  "StationName": "AWP166078",
  "TaskName": "naturalvision2",
  "TotalReadoutTime": 0.0534586,
  "TxRefAmp": 222.721,
  "dcmmeta_affine": [
    [-2.0, 0.0, 0.0, 102.69879150390625],
    [0.0, 1.989761471748352, -0.2021125853061676, -85.5859603881836],
    [0.0, 0.2021125853061676, 1.989761471748352, -80.63643646240234],
    [0.0, 0.0, 0.0, 1.0]
],
  "dcmmeta_reorient_transform": [
    [0.0, -1.0, 0.0, 99.0],
    [1.0, 0.0, 0.0, 0.0],
    [0.0, 0.0, 1.0, 0.0],
    [0.0, 0.0, 0.0, 1.0]
],
  "dcmmeta_shape": [100, 100, 72, 241],
  "dcmmeta_slice_dim": 2,
  "dcmmeta_version": 0.6,
  "global": {
    "const": {
      "AcquisitionMatrix": [100, 0, 0, 100],
      "AngioFlag": "N",
      "BitsAllocated": 16,
      "BitsStored": 12,
      "BodyPartExamined": "BRAIN",
      "Columns": 900,
      "EchoNumbers": 1,
      "EchoTime": 34.0,
      "EchoTrainLength": 100,
      "FlipAngle": 90.0,
      "HighBit": 11,
      "ImageOrientationPatient": [1.0, 0.0, 0.0, 0.0, 0.99488070921592, -0.1010562933717],
      "ImagePositionPatient": [-902.69879508018, -907.30498513423, 20.217746248858],
      "ImageType": [
        "ORIGINAL",
        "PRIMARY",
        "M",
        "ND",
        "MOSAIC"
],
      "ImagedNucleus": "1H",
      "ImagingFrequency": 123.257773,
      "InPlanePhaseEncodingDirection": "COL",
      "MRAcquisitionType": "2D",
      "MagneticFieldStrength": 3.0,
      "Manufacturer": "SIEMENS",
      "ManufacturerModelName": "Prisma",
      "Modality": "MR",
      "NumberOfAverages": 1.0,
      "NumberOfPhaseEncodingSteps": 100,
      "PercentPhaseFieldOfView": 100.0,
      "PercentSampling": 100.0,
      "PerformedProcedureStepStartTime": "085951.111000",
      "PhotometricInterpretation": "MONOCHROME2",
      "PixelBandwidth": 2380.0,
      "PixelRepresentation": 0,
      "PixelSpacing": [2.0, 2.0],
      "ProtocolName": "bold_100x100_s3_2x2x2_static_test_241",
      "RepetitionTime": 2000.0,
      "Rows": 900,
      "SAR": 0.06539198227493,
      "SamplesPerPixel": 1,
      "ScanOptions": "FS",
      "ScanningSequence": "EP",
      "SequenceName": "*epfid2d1_100",
      "SequenceVariant": "SK",
      "SeriesDescription": "bold_100x100_s3_2x2x2_static_test_241",
      "SeriesNumber": 7,
      "SeriesTime": "094209.549000",
      "SliceLocation": -71.574633028492,
      "SliceThickness": 2.0,
      "SmallestImagePixelValue": 0,
      "SoftwareVersions": "syngo MR E11",
      "SpacingBetweenSlices": 2.0000000427749,
      "SpecificCharacterSet": "ISO_IR 100",
      "StudyID": "1",
      "StudyTime": "085950.984000",
      "TransmitCoilName": "Body",
      "VariableFlipAngleFlag": "N",
      "WindowCenterWidthExplanation": "Algo1",
      "dBdt": 0.0},
    "slices": {}
  },
  "time": {
    "samples": {
      "AcquisitionNumber": [1, 2, 3, 4, 5, 6, 7, 8, 9, 10, 11, 12, 13, 14, 15, 16, 17, 18, 19, 20, 21, 22, 23, 24, 25, 26, 27, 28, 29, 30, 31, 32, 33, 34, 35, 36, 37, 38, 39, 40, 41, 42, 43, 44, 45, 46, 47, 48, 49, 50, 51, 52, 53, 54, 55, 56, 57, 58, 59, 60, 61, 62, 63, 64, 65, 66, 67, 68, 69, 70, 71, 72, 73, 74, 75, 76, 77, 78, 79, 80, 81, 82, 83, 84, 85, 86, 87, 88, 89, 90, 91, 92, 93, 94, 95, 96, 97, 98, 99, 100, 101, 102, 103, 104, 105, 106, 107, 108, 109, 110, 111, 112, 113, 114, 115, 116, 117, 118, 119, 120, 121, 122, 123, 124, 125, 126, 127, 128, 129, 130, 131, 132, 133, 134, 135, 136, 137, 138, 139, 140, 141, 142, 143, 144, 145, 146, 147, 148, 149, 150, 151, 152, 153, 154, 155, 156, 157, 158, 159, 160, 161, 162, 163, 164, 165, 166, 167, 168, 169, 170, 171, 172, 173, 174, 175, 176, 177, 178, 179, 180, 181, 182, 183, 184, 185, 186, 187, 188, 189, 190, 191, 192, 193, 194, 195, 196, 197, 198, 199, 200, 201, 202, 203, 204, 205, 206, 207, 208, 209, 210, 211, 212, 213, 214, 215, 216, 217, 218, 219, 220, 221, 222, 223, 224, 225, 226, 227, 228, 229, 230, 231, 232, 233, 234, 235, 236, 237, 238, 239, 240, 241],
      "AcquisitionTime": ["094207.295000", "094209.295000", "094211.295000", "094213.295000", "094215.295000", "094217.295000", "094219.295000", "094221.295000", "094223.295000", "094225.295000", "094227.295000", "094229.295000", "094231.295000", "094233.295000", "094235.295000", "094237.295000", "094239.295000", "094241.295000", "094243.295000", "094245.295000", "094247.295000", "094249.295000", "094251.295000", "094253.295000", "094255.295000", "094257.295000", "094259.295000", "094301.295000", "094303.295000", "094305.295000", "094307.295000", "094309.295000", "094311.295000", "094313.295000", "094315.295000", "094317.295000", "094319.295000", "094321.295000", "094323.295000", "094325.295000", "094327.295000", "094329.295000", "094331.295000", "094333.295000", "094335.295000", "094337.295000", "094339.295000", "094341.295000", "094343.295000", "094345.295000", "094347.295000", "094349.295000", "094351.295000", "094353.295000", "094355.295000", "094357.295000", "094359.295000", "094401.295000", "094403.295000", "094405.295000", "094407.295000", "094409.295000", "094411.295000", "094413.295000", "094415.295000", "094417.295000", "094419.295000", "094421.295000", "094423.295000", "094425.295000", "094427.295000", "094429.295000", "094431.295000", "094433.295000", "094435.295000", "094437.295000", "094439.295000", "094441.295000", "094443.295000", "094445.295000", "094447.295000", "094449.295000", "094451.295000", "094453.295000", "094455.295000", "094457.295000", "094459.295000", "094501.295000", "094503.295000", "094505.295000", "094507.295000", "094509.295000", "094511.295000", "094513.295000", "094515.295000", "094517.295000", "094519.295000", "094521.295000", "094523.295000", "094525.295000", "094527.295000", "094529.295000", "094531.295000", "094533.295000", "094535.295000", "094537.295000", "094539.295000", "094541.295000", "094543.295000", "094545.295000", "094547.295000", "094549.295000", "094551.295000", "094553.295000", "094555.295000", "094557.295000", "094559.295000", "094601.295000", "094603.295000", "094605.295000", "094607.295000", "094609.295000", "094611.295000", "094613.295000", "094615.295000", "094617.295000", "094619.295000", "094621.295000", "094623.295000", "094625.295000", "094627.295000", "094629.295000", "094631.295000", "094633.295000", "094635.295000", "094637.295000", "094639.295000", "094641.295000", "094643.295000", "094645.295000", "094647.295000", "094649.295000", "094651.295000", "094653.295000", "094655.295000", "094657.295000", "094659.295000", "094701.295000", "094703.295000", "094705.295000", "094707.295000", "094709.295000", "094711.295000", "094713.295000", "094715.295000", "094717.295000", "094719.295000", "094721.295000", "094723.295000", "094725.295000", "094727.295000", "094729.295000", "094731.295000", "094733.295000", "094735.295000", "094737.295000", "094739.295000", "094741.295000", "094743.295000", "094745.295000", "094747.295000", "094749.295000", "094751.295000", "094753.295000", "094755.295000", "094757.295000", "094759.295000", "094801.295000", "094803.295000", "094805.295000", "094807.295000", "094809.295000", "094811.295000", "094813.295000", "094815.295000", "094817.295000", "094819.295000", "094821.295000", "094823.295000", "094825.295000", "094827.295000", "094829.295000", "094831.295000", "094833.295000", "094835.295000", "094837.295000", "094839.295000", "094841.295000", "094843.295000", "094845.295000", "094847.295000", "094849.295000", "094851.295000", "094853.295000", "094855.295000", "094857.295000", "094859.295000", "094901.295000", "094903.295000", "094905.295000", "094907.295000", "094909.295000", "094911.295000", "094913.295000", "094915.295000", "094917.295000", "094919.295000", "094921.295000", "094923.295000", "094925.295000", "094927.295000", "094929.295000", "094931.295000", "094933.295000", "094935.295000", "094937.295000", "094939.295000", "094941.295000", "094943.295000", "094945.295000", "094947.295000", "094949.295000", "094951.295000", "094953.295000", "094955.295000", "094957.295000", "094959.295000", "095001.295000", "095003.295000", "095005.295000", "095007.295000"],
      "ContentTime": ["094209.553000", "094211.047000", "094213.047000", "094215.047000", "094217.047000", "094219.048000", "094221.047000", "094223.047000", "094225.047000", "094227.049000", "094229.048000", "094231.047000", "094233.048000", "094235.048000", "094237.047000", "094239.048000", "094241.047000", "094243.047000", "094245.049000", "094247.047000", "094249.048000", "094251.047000", "094253.047000", "094255.047000", "094257.047000", "094259.047000", "094301.048000", "094303.047000", "094305.047000", "094307.047000", "094309.047000", "094311.047000", "094313.047000", "094315.048000", "094317.047000", "094319.048000", "094321.048000", "094323.048000", "094325.047000", "094327.047000", "094329.047000", "094331.047000", "094333.047000", "094335.047000", "094337.048000", "094339.048000", "094341.048000", "094343.048000", "094345.047000", "094347.047000", "094349.048000", "094351.047000", "094353.047000", "094355.048000", "094357.047000", "094359.047000", "094401.048000", "094403.047000", "094405.047000", "094407.048000", "094409.047000", "094411.048000", "094413.047000", "094415.048000", "094417.048000", "094419.048000", "094421.047000", "094423.047000", "094425.048000", "094427.047000", "094429.048000", "094431.047000", "094433.047000", "094435.048000", "094437.047000", "094439.048000", "094441.047000", "094443.047000", "094445.047000", "094447.048000", "094449.047000", "094451.047000", "094453.048000", "094455.047000", "094457.048000", "094459.048000", "094501.047000", "094503.047000", "094505.049000", "094507.047000", "094509.048000", "094511.048000", "094513.047000", "094515.047000", "094517.047000", "094519.047000", "094521.048000", "094523.048000", "094525.048000", "094527.047000", "094529.048000", "094531.048000", "094533.048000", "094535.048000", "094537.047000", "094539.048000", "094541.048000", "094543.047000", "094545.048000", "094547.048000", "094549.048000", "094551.047000", "094553.048000", "094555.048000", "094557.049000", "094559.047000", "094601.048000", "094603.047000", "094605.048000", "094607.047000", "094609.048000", "094611.048000", "094613.048000", "094615.048000", "094617.048000", "094619.047000", "094621.047000", "094623.047000", "094625.047000", "094627.047000", "094629.047000", "094631.049000", "094633.047000", "094635.047000", "094637.047000", "094639.047000", "094641.048000", "094643.047000", "094645.047000", "094647.047000", "094649.049000", "094651.048000", "094653.048000", "094655.048000", "094657.047000", "094659.048000", "094701.047000", "094703.048000", "094705.048000", "094707.048000", "094709.048000", "094711.048000", "094713.048000", "094715.047000", "094717.047000", "094719.048000", "094721.047000", "094723.047000", "094725.048000", "094727.047000", "094729.048000", "094731.048000", "094733.047000", "094735.047000", "094737.047000", "094739.048000", "094741.049000", "094743.047000", "094745.047000", "094747.047000", "094749.047000", "094751.048000", "094753.048000", "094755.047000", "094757.048000", "094759.048000", "094801.047000", "094803.048000", "094805.048000", "094807.048000", "094809.047000", "094811.047000", "094813.047000", "094815.047000", "094817.049000", "094819.047000", "094821.047000", "094823.047000", "094825.048000", "094827.047000", "094829.048000", "094831.048000", "094833.047000", "094835.049000", "094837.048000", "094839.048000", "094841.048000", "094843.048000", "094845.048000", "094847.047000", "094849.047000", "094851.049000", "094853.047000", "094855.048000", "094857.047000", "094859.047000", "094901.048000", "094903.047000", "094905.048000", "094907.048000", "094909.049000", "094911.048000", "094913.048000", "094915.048000", "094917.047000", "094919.048000", "094921.047000", "094923.048000", "094925.048000", "094927.048000", "094929.048000", "094931.047000", "094933.048000", "094935.047000", "094937.048000", "094939.048000", "094941.048000", "094943.047000", "094945.048000", "094947.048000", "094949.048000", "094951.047000", "094953.047000", "094955.047000", "094957.048000", "094959.047000", "095001.048000", "095003.048000", "095005.048000", "095007.047000", "095008.915000"],
      "InstanceCreationTime": ["094209.553000", "094211.047000", "094213.047000", "094215.047000", "094217.047000", "094219.048000", "094221.047000", "094223.047000", "094225.047000", "094227.049000", "094229.048000", "094231.047000", "094233.048000", "094235.048000", "094237.047000", "094239.048000", "094241.047000", "094243.047000", "094245.049000", "094247.047000", "094249.048000", "094251.047000", "094253.047000", "094255.047000", "094257.047000", "094259.047000", "094301.048000", "094303.047000", "094305.047000", "094307.047000", "094309.047000", "094311.047000", "094313.047000", "094315.048000", "094317.047000", "094319.048000", "094321.048000", "094323.048000", "094325.047000", "094327.047000", "094329.047000", "094331.047000", "094333.047000", "094335.047000", "094337.048000", "094339.048000", "094341.048000", "094343.048000", "094345.047000", "094347.047000", "094349.048000", "094351.047000", "094353.047000", "094355.048000", "094357.047000", "094359.047000", "094401.048000", "094403.047000", "094405.047000", "094407.048000", "094409.047000", "094411.048000", "094413.047000", "094415.048000", "094417.048000", "094419.048000", "094421.047000", "094423.047000", "094425.048000", "094427.047000", "094429.048000", "094431.047000", "094433.047000", "094435.048000", "094437.047000", "094439.048000", "094441.047000", "094443.047000", "094445.047000", "094447.048000", "094449.047000", "094451.047000", "094453.048000", "094455.047000", "094457.048000", "094459.048000", "094501.047000", "094503.047000", "094505.049000", "094507.047000", "094509.048000", "094511.048000", "094513.047000", "094515.047000", "094517.047000", "094519.047000", "094521.048000", "094523.048000", "094525.048000", "094527.047000", "094529.048000", "094531.048000", "094533.048000", "094535.048000", "094537.047000", "094539.048000", "094541.048000", "094543.047000", "094545.048000", "094547.048000", "094549.048000", "094551.047000", "094553.048000", "094555.048000", "094557.049000", "094559.047000", "094601.048000", "094603.047000", "094605.048000", "094607.047000", "094609.048000", "094611.048000", "094613.048000", "094615.048000", "094617.048000", "094619.047000", "094621.047000", "094623.047000", "094625.047000", "094627.047000", "094629.047000", "094631.049000", "094633.047000", "094635.047000", "094637.047000", "094639.047000", "094641.048000", "094643.047000", "094645.047000", "094647.047000", "094649.049000", "094651.048000", "094653.048000", "094655.048000", "094657.047000", "094659.048000", "094701.047000", "094703.048000", "094705.048000", "094707.048000", "094709.048000", "094711.048000", "094713.048000", "094715.047000", "094717.047000", "094719.048000", "094721.047000", "094723.047000", "094725.048000", "094727.047000", "094729.048000", "094731.048000", "094733.047000", "094735.047000", "094737.047000", "094739.048000", "094741.049000", "094743.047000", "094745.047000", "094747.047000", "094749.047000", "094751.048000", "094753.048000", "094755.047000", "094757.048000", "094759.048000", "094801.047000", "094803.048000", "094805.048000", "094807.048000", "094809.047000", "094811.047000", "094813.047000", "094815.047000", "094817.049000", "094819.047000", "094821.047000", "094823.047000", "094825.048000", "094827.047000", "094829.048000", "094831.048000", "094833.047000", "094835.049000", "094837.048000", "094839.048000", "094841.048000", "094843.048000", "094845.048000", "094847.047000", "094849.047000", "094851.049000", "094853.047000", "094855.048000", "094857.047000", "094859.047000", "094901.048000", "094903.047000", "094905.048000", "094907.048000", "094909.049000", "094911.048000", "094913.048000", "094915.048000", "094917.047000", "094919.048000", "094921.047000", "094923.048000", "094925.048000", "094927.048000", "094929.048000", "094931.047000", "094933.048000", "094935.047000", "094937.048000", "094939.048000", "094941.048000", "094943.047000", "094945.048000", "094947.048000", "094949.048000", "094951.047000", "094953.047000", "094955.047000", "094957.048000", "094959.047000", "095001.048000", "095003.048000", "095005.048000", "095007.047000", "095008.915000"],
      "InstanceNumber": [1, 2, 3, 4, 5, 6, 7, 8, 9, 10, 11, 12, 13, 14, 15, 16, 17, 18, 19, 20, 21, 22, 23, 24, 25, 26, 27, 28, 29, 30, 31, 32, 33, 34, 35, 36, 37, 38, 39, 40, 41, 42, 43, 44, 45, 46, 47, 48, 49, 50, 51, 52, 53, 54, 55, 56, 57, 58, 59, 60, 61, 62, 63, 64, 65, 66, 67, 68, 69, 70, 71, 72, 73, 74, 75, 76, 77, 78, 79, 80, 81, 82, 83, 84, 85, 86, 87, 88, 89, 90, 91, 92, 93, 94, 95, 96, 97, 98, 99, 100, 101, 102, 103, 104, 105, 106, 107, 108, 109, 110, 111, 112, 113, 114, 115, 116, 117, 118, 119, 120, 121, 122, 123, 124, 125, 126, 127, 128, 129, 130, 131, 132, 133, 134, 135, 136, 137, 138, 139, 140, 141, 142, 143, 144, 145, 146, 147, 148, 149, 150, 151, 152, 153, 154, 155, 156, 157, 158, 159, 160, 161, 162, 163, 164, 165, 166, 167, 168, 169, 170, 171, 172, 173, 174, 175, 176, 177, 178, 179, 180, 181, 182, 183, 184, 185, 186, 187, 188, 189, 190, 191, 192, 193, 194, 195, 196, 197, 198, 199, 200, 201, 202, 203, 204, 205, 206, 207, 208, 209, 210, 211, 212, 213, 214, 215, 216, 217, 218, 219, 220, 221, 222, 223, 224, 225, 226, 227, 228, 229, 230, 231, 232, 233, 234, 235, 236, 237, 238, 239, 240, 241],
      "LargestImagePixelValue": [3305, 3262, 3190, 3246, 3202, 3205, 3228, 3200, 3181, 3171, 3200, 3130, 3189, 3150, 3153, 3135, 3198, 3200, 3181, 3226, 3174, 3224, 3166, 3147, 3160, 3135, 3134, 3166, 3125, 3105, 3152, 3121, 3160, 3086, 3125, 3093, 3160, 3124, 3126, 3063, 3177, 3126, 3136, 3143, 3086, 3082, 3054, 3106, 3013, 3106, 3001, 3093, 3026, 3083, 3018, 3108, 3039, 3090, 3006, 3112, 3039, 3108, 3072, 3114, 3113, 3071, 3142, 3054, 3051, 3078, 3098, 3080, 3083, 3054, 3070, 3079, 3060, 3025, 3060, 3043, 3103, 3060, 3065, 3071, 3044, 3127, 3039, 3146, 3057, 3156, 3091, 3143, 3136, 3078, 3135, 3098, 3175, 3047, 3069, 3134, 3130, 3142, 3111, 3215, 3105, 3205, 3152, 3200, 3097, 3187, 3106, 3199, 3100, 3232, 3131, 3226, 3188, 3229, 3176, 3187, 3191, 3184, 3172, 3243, 3139, 3220, 3202, 3205, 3168, 3210, 3168, 3212, 3200, 3226, 3218, 3215, 3183, 3187, 3140, 3188, 3149, 3162, 3146, 3165, 3154, 3145, 3123, 3142, 3185, 3171, 3205, 3179, 3211, 3188, 3197, 3153, 3196, 3170, 3161, 3184, 3171, 3176, 3146, 3161, 3182, 3195, 3165, 3168, 3176, 3179, 3198, 3213, 3232, 3190, 3163, 3182, 3192, 3229, 3212, 3214, 3233, 3186, 3202, 3244, 3225, 3226, 3178, 3215, 3213, 3173, 3204, 3186, 3208, 3179, 3211, 3208, 3222, 3191, 3240, 3222, 3216, 3200, 3215, 3216, 3212, 3248, 3242, 3208, 3185, 3186, 3218, 3195, 3183, 3211, 3195, 3238, 3220, 3235, 3215, 3196, 3225, 3218, 3247, 3242, 3182, 3185, 3196, 3240, 3207, 3197, 3189, 3248, 3179, 3210, 3353, 3254, 3179, 3163, 3182, 3146, 3184],
      "WindowCenter": [802.0, 800.0, 799.0, 800.0, 800.0, 800.0, 799.0, 799.0, 799.0, 800.0, 800.0, 799.0, 800.0, 800.0, 801.0, 802.0, 803.0, 803.0, 802.0, 801.0, 800.0, 800.0, 800.0, 799.0, 799.0, 799.0, 801.0, 802.0, 802.0, 800.0, 798.0, 798.0, 799.0, 798.0, 798.0, 798.0, 799.0, 799.0, 799.0, 796.0, 798.0, 800.0, 800.0, 800.0, 798.0, 797.0, 797.0, 798.0, 797.0, 798.0, 798.0, 798.0, 797.0, 799.0, 800.0, 800.0, 797.0, 796.0, 794.0, 796.0, 798.0, 801.0, 802.0, 803.0, 801.0, 799.0, 800.0, 799.0, 798.0, 798.0, 797.0, 796.0, 796.0, 796.0, 798.0, 799.0, 799.0, 798.0, 797.0, 796.0, 796.0, 796.0, 797.0, 799.0, 798.0, 797.0, 796.0, 797.0, 797.0, 798.0, 798.0, 800.0, 801.0, 801.0, 800.0, 799.0, 799.0, 799.0, 799.0, 798.0, 798.0, 799.0, 799.0, 800.0, 801.0, 802.0, 800.0, 799.0, 798.0, 799.0, 800.0, 799.0, 796.0, 796.0, 795.0, 798.0, 800.0, 800.0, 799.0, 798.0, 797.0, 797.0, 796.0, 797.0, 798.0, 798.0, 798.0, 797.0, 797.0, 799.0, 800.0, 801.0, 801.0, 801.0, 801.0, 801.0, 800.0, 798.0, 797.0, 797.0, 796.0, 796.0, 797.0, 797.0, 796.0, 796.0, 798.0, 797.0, 797.0, 797.0, 799.0, 801.0, 800.0, 800.0, 797.0, 796.0, 796.0, 796.0, 796.0, 799.0, 800.0, 801.0, 801.0, 799.0, 798.0, 798.0, 799.0, 800.0, 800.0, 799.0, 798.0, 798.0, 799.0, 801.0, 800.0, 797.0, 795.0, 795.0, 795.0, 796.0, 796.0, 797.0, 798.0, 798.0, 797.0, 797.0, 796.0, 797.0, 797.0, 797.0, 796.0, 794.0, 795.0, 797.0, 799.0, 796.0, 795.0, 793.0, 794.0, 795.0, 798.0, 800.0, 800.0, 800.0, 800.0, 799.0, 798.0, 796.0, 795.0, 796.0, 798.0, 799.0, 798.0, 797.0, 796.0, 798.0, 799.0, 800.0, 797.0, 797.0, 797.0, 798.0, 797.0, 797.0, 797.0, 798.0, 799.0, 800.0, 799.0, 797.0, 796.0, 797.0, 797.0, 800.0, 802.0, 801.0, 799.0, 797.0, 796.0, 796.0, 796.0],
      "WindowWidth": [1714.0, 1709.0, 1706.0, 1709.0, 1710.0, 1710.0, 1707.0, 1706.0, 1707.0, 1708.0, 1708.0, 1706.0, 1708.0, 1710.0, 1712.0, 1714.0, 1717.0, 1717.0, 1715.0, 1712.0, 1709.0, 1709.0, 1708.0, 1707.0, 1708.0, 1707.0, 1710.0, 1715.0, 1713.0, 1707.0, 1705.0, 1703.0, 1706.0, 1704.0, 1705.0, 1703.0, 1707.0, 1707.0, 1705.0, 1699.0, 1704.0, 1709.0, 1710.0, 1709.0, 1704.0, 1702.0, 1701.0, 1702.0, 1701.0, 1705.0, 1702.0, 1704.0, 1701.0, 1706.0, 1709.0, 1708.0, 1702.0, 1699.0, 1694.0, 1700.0, 1702.0, 1711.0, 1715.0, 1717.0, 1711.0, 1707.0, 1708.0, 1707.0, 1705.0, 1703.0, 1701.0, 1699.0, 1699.0, 1700.0, 1703.0, 1707.0, 1708.0, 1704.0, 1702.0, 1700.0, 1699.0, 1698.0, 1701.0, 1705.0, 1704.0, 1702.0, 1699.0, 1701.0, 1701.0, 1704.0, 1705.0, 1709.0, 1711.0, 1712.0, 1710.0, 1707.0, 1708.0, 1706.0, 1705.0, 1704.0, 1704.0, 1705.0, 1706.0, 1709.0, 1713.0, 1715.0, 1710.0, 1706.0, 1703.0, 1707.0, 1708.0, 1705.0, 1699.0, 1697.0, 1697.0, 1704.0, 1708.0, 1709.0, 1707.0, 1703.0, 1702.0, 1701.0, 1700.0, 1701.0, 1703.0, 1704.0, 1704.0, 1702.0, 1702.0, 1706.0, 1709.0, 1712.0, 1713.0, 1712.0, 1712.0, 1712.0, 1708.0, 1705.0, 1702.0, 1701.0, 1699.0, 1700.0, 1701.0, 1700.0, 1697.0, 1699.0, 1702.0, 1702.0, 1701.0, 1701.0, 1705.0, 1711.0, 1708.0, 1707.0, 1702.0, 1699.0, 1698.0, 1697.0, 1699.0, 1705.0, 1710.0, 1712.0, 1711.0, 1706.0, 1704.0, 1703.0, 1705.0, 1708.0, 1709.0, 1706.0, 1703.0, 1705.0, 1708.0, 1711.0, 1707.0, 1701.0, 1696.0, 1696.0, 1696.0, 1698.0, 1698.0, 1700.0, 1703.0, 1703.0, 1700.0, 1701.0, 1699.0, 1700.0, 1702.0, 1701.0, 1698.0, 1693.0, 1695.0, 1701.0, 1706.0, 1699.0, 1695.0, 1691.0, 1694.0, 1697.0, 1704.0, 1708.0, 1709.0, 1710.0, 1707.0, 1706.0, 1702.0, 1698.0, 1694.0, 1698.0, 1703.0, 1705.0, 1702.0, 1701.0, 1699.0, 1705.0, 1706.0, 1707.0, 1701.0, 1700.0, 1701.0, 1703.0, 1702.0, 1701.0, 1702.0, 1704.0, 1706.0, 1709.0, 1706.0, 1701.0, 1698.0, 1701.0, 1702.0, 1710.0, 1714.0, 1712.0, 1706.0, 1701.0, 1699.0, 1698.0, 1699.0]
    },
    "slices": {}
  }
}