{
  "AcquisitionMatrixPE": 100,
  "AcquisitionNumber": 1,
  "AcquisitionTime": "12:42:7.745000",
  "BandwidthPerPixelPhaseEncode": 18.519,
  "BaseResolution": 100,
  "BodyPartExamined": "BRAIN",
  "ConsistencyInfo": "N4_VE11C_LATEST_20160120",
  "ConversionSoftware": "dcm2niix",
  "ConversionSoftwareVersion": "v1.0.20180622 GCC4.9.2",
  "DerivedVendorReportedEchoSpacing": 0.000539986,
  "DeviceSerialNumber": "166078",
  "DwellTime": 2.1e-06,
  "EchoTime": 0.034,
  "EchoTrainLength": 100,
  "EffectiveEchoSpacing": 0.000539986,
  "FlipAngle": 90,
  "ImageOrientationPatientDICOM": [1, 0, 0, 0, 0.985109, -0.171929],
  "ImageType": [
    "ORIGINAL",
    "PRIMARY",
    "M",
    "ND",
    "MOSAIC"
],
  "InPlanePhaseEncodingDirectionDICOM": "COL",
  "InstitutionAddress": "Street_StreetNo_Bei_Jing_District_CN_ZIP",
  "InstitutionName": "BeiJing_Normal_University",
  "InstitutionalDepartmentName": "Department",
  "MRAcquisitionType": "2D",
  "MagneticFieldStrength": 3,
  "Manufacturer": "Siemens",
  "ManufacturersModelName": "Prisma",
  "Modality": "MR",
  "MultibandAccelerationFactor": 3,
  "PartialFourier": 1,
  "PatientPosition": "HFS",
  "PercentPhaseFOV": 100,
  "PhaseEncodingDirection": "j-",
  "PhaseEncodingSteps": 100,
  "PhaseResolution": 1,
  "PixelBandwidth": 2380,
  "ProcedureStepDescription": "BNU_P2018_64CH_Zhen.ZongLei",
  "ProtocolName": "bold_100x100_s3_2x2x2_retino_150",
  "PulseSequenceDetails": "%SiemensSeq%_ep2d_bold",
  "ReceiveCoilActiveElements": "HC1-7;NC1",
  "ReceiveCoilName": "HeadNeck_64",
  "ReconMatrixPE": 100,
  "RepetitionTime": 2,
  "SAR": 0.0841872,
  "ScanOptions": "FS",
  "ScanningSequence": "EP",
  "SequenceName": "_epfid2d1_100",
  "SequenceVariant": "SK",
  "SeriesDescription": "bold_100x100_s3_2x2x2_retino_150",
  "SeriesNumber": 4,
  "ShimSetting": [-5481, -11509, -1252, 521, -54, -236, -148, 128],
  "SliceThickness": 2,
  "SliceTiming": [1.4825, 0, 0.9875, 0.0825, 1.07, 0.165, 1.1525, 0.245, 1.235, 0.3275, 1.3175, 0.41, 1.4, 0.575, 1.565, 0.6575, 1.6475, 0.74, 1.73, 0.8225, 1.8125, 0.905, 1.895, 0.4925, 1.4825, 0, 0.9875, 0.0825, 1.07, 0.165, 1.1525, 0.245, 1.235, 0.3275, 1.3175, 0.41, 1.4, 0.575, 1.565, 0.6575, 1.6475, 0.74, 1.73, 0.8225, 1.8125, 0.905, 1.895, 0.4925, 1.4825, 0, 0.9875, 0.0825, 1.07, 0.165, 1.1525, 0.245, 1.235, 0.3275, 1.3175, 0.41, 1.4, 0.575, 1.565, 0.6575, 1.6475, 0.74, 1.73, 0.8225, 1.8125, 0.905, 1.895, 0.4925],
  "SoftwareVersions": "syngo_MR_E11",
  "SpacingBetweenSlices": 2,
  "StationName": "AWP166078",
  "TaskName": "retinotopy",
  "TotalReadoutTime": 0.0534586,
  "TxRefAmp": 230.376,
  "dcmmeta_affine": [
    [-2.0, 0.0, 0.0, 102.02409362792969],
    [0.0, 1.9702186584472656, -0.34385818243026733, -84.04940795898438],
    [0.0, 0.3438582122325897, 1.9702186584472656, -83.70747375488281],
    [0.0, 0.0, 0.0, 1.0]
],
  "dcmmeta_reorient_transform": [
    [0.0, -1.0, 0.0, 99.0],
    [1.0, 0.0, 0.0, 0.0],
    [0.0, 0.0, 1.0, 0.0],
    [0.0, 0.0, 0.0, 1.0]
],
  "dcmmeta_shape": [100, 100, 72, 150],
  "dcmmeta_slice_dim": 2,
  "dcmmeta_version": 0.6,
  "global": {
    "const": {
      "AcquisitionMatrix": [100, 0, 0, 100],
      "AngioFlag": "N",
      "BitsAllocated": 16,
      "BitsStored": 12,
      "BodyPartExamined": "BRAIN",
      "Columns": 900,
      "EchoNumbers": 1,
      "EchoTime": 34.0,
      "EchoTrainLength": 100,
      "FlipAngle": 90.0,
      "HighBit": 11,
      "ImageOrientationPatient": [1.0, 0.0, 0.0, 0.0, 0.98510932620277, -0.1719291000044],
      "ImagePositionPatient": [-902.02409648895, -899.0896970264, 87.877768678303],
      "ImageType": [
        "ORIGINAL",
        "PRIMARY",
        "M",
        "ND",
        "MOSAIC"
],
      "ImagedNucleus": "1H",
      "ImagingFrequency": 123.257745,
      "InPlanePhaseEncodingDirection": "COL",
      "MRAcquisitionType": "2D",
      "MagneticFieldStrength": 3.0,
      "Manufacturer": "SIEMENS",
      "ManufacturerModelName": "Prisma",
      "Modality": "MR",
      "NumberOfAverages": 1.0,
      "NumberOfPhaseEncodingSteps": 100,
      "PercentPhaseFieldOfView": 100.0,
      "PercentSampling": 100.0,
      "PerformedProcedureStepStartTime": "121324.353000",
      "PhotometricInterpretation": "MONOCHROME2",
      "PixelBandwidth": 2380.0,
      "PixelRepresentation": 0,
      "PixelSpacing": [2.0, 2.0],
      "ProtocolName": "bold_100x100_s3_2x2x2_retino_150",
      "RepetitionTime": 2000.0,
      "Rows": 900,
      "SAR": 0.08418718233249,
      "SamplesPerPixel": 1,
      "ScanOptions": "FS",
      "ScanningSequence": "EP",
      "SequenceName": "*epfid2d1_100",
      "SequenceVariant": "SK",
      "SeriesDescription": "bold_100x100_s3_2x2x2_retino_150",
      "SeriesNumber": 4,
      "SeriesTime": "124210.777000",
      "SliceLocation": -68.010472942118,
      "SliceThickness": 2.0,
      "SmallestImagePixelValue": 0,
      "SoftwareVersions": "syngo MR E11",
      "SpacingBetweenSlices": 1.9999999521664,
      "SpecificCharacterSet": "ISO_IR 100",
      "StudyID": "1",
      "StudyTime": "121324.253000",
      "TransmitCoilName": "Body",
      "VariableFlipAngleFlag": "N",
      "WindowCenterWidthExplanation": "Algo1",
      "dBdt": 0.0},
    "slices": {}
  },
  "time": {
    "samples": {
      "AcquisitionNumber": [1, 2, 3, 4, 5, 6, 7, 8, 9, 10, 11, 12, 13, 14, 15, 16, 17, 18, 19, 20, 21, 22, 23, 24, 25, 26, 27, 28, 29, 30, 31, 32, 33, 34, 35, 36, 37, 38, 39, 40, 41, 42, 43, 44, 45, 46, 47, 48, 49, 50, 51, 52, 53, 54, 55, 56, 57, 58, 59, 60, 61, 62, 63, 64, 65, 66, 67, 68, 69, 70, 71, 72, 73, 74, 75, 76, 77, 78, 79, 80, 81, 82, 83, 84, 85, 86, 87, 88, 89, 90, 91, 92, 93, 94, 95, 96, 97, 98, 99, 100, 101, 102, 103, 104, 105, 106, 107, 108, 109, 110, 111, 112, 113, 114, 115, 116, 117, 118, 119, 120, 121, 122, 123, 124, 125, 126, 127, 128, 129, 130, 131, 132, 133, 134, 135, 136, 137, 138, 139, 140, 141, 142, 143, 144, 145, 146, 147, 148, 149, 150],
      "AcquisitionTime": ["124207.745000", "124209.745000", "124211.745000", "124213.745000", "124215.745000", "124217.745000", "124219.745000", "124221.745000", "124223.745000", "124225.745000", "124227.745000", "124229.745000", "124231.745000", "124233.745000", "124235.745000", "124237.745000", "124239.745000", "124241.745000", "124243.745000", "124245.745000", "124247.745000", "124249.745000", "124251.745000", "124253.745000", "124255.745000", "124257.745000", "124259.745000", "124301.745000", "124303.745000", "124305.745000", "124307.745000", "124309.745000", "124311.745000", "124313.745000", "124315.745000", "124317.745000", "124319.745000", "124321.745000", "124323.745000", "124325.745000", "124327.745000", "124329.745000", "124331.745000", "124333.745000", "124335.745000", "124337.745000", "124339.745000", "124341.745000", "124343.745000", "124345.745000", "124347.745000", "124349.745000", "124351.745000", "124353.745000", "124355.745000", "124357.745000", "124359.745000", "124401.745000", "124403.745000", "124405.745000", "124407.745000", "124409.745000", "124411.745000", "124413.745000", "124415.745000", "124417.745000", "124419.745000", "124421.745000", "124423.745000", "124425.745000", "124427.745000", "124429.745000", "124431.745000", "124433.745000", "124435.745000", "124437.745000", "124439.745000", "124441.745000", "124443.745000", "124445.745000", "124447.745000", "124449.745000", "124451.745000", "124453.745000", "124455.745000", "124457.745000", "124459.745000", "124501.745000", "124503.745000", "124505.745000", "124507.745000", "124509.745000", "124511.745000", "124513.745000", "124515.745000", "124517.745000", "124519.745000", "124521.745000", "124523.745000", "124525.745000", "124527.745000", "124529.745000", "124531.745000", "124533.745000", "124535.745000", "124537.745000", "124539.745000", "124541.745000", "124543.745000", "124545.745000", "124547.745000", "124549.745000", "124551.745000", "124553.745000", "124555.745000", "124557.745000", "124559.745000", "124601.745000", "124603.745000", "124605.745000", "124607.745000", "124609.745000", "124611.745000", "124613.745000", "124615.745000", "124617.745000", "124619.745000", "124621.745000", "124623.745000", "124625.745000", "124627.745000", "124629.745000", "124631.745000", "124633.745000", "124635.745000", "124637.745000", "124639.745000", "124641.745000", "124643.745000", "124645.745000", "124647.745000", "124649.745000", "124651.745000", "124653.745000", "124655.745000", "124657.745000", "124659.745000", "124701.745000", "124703.745000", "124705.745000"],
      "ContentTime": ["124210.781000", "124212.277000", "124214.277000", "124216.277000", "124218.276000", "124220.276000", "124222.276000", "124224.277000", "124226.277000", "124228.277000", "124230.277000", "124232.277000", "124234.276000", "124236.277000", "124238.277000", "124240.278000", "124242.278000", "124244.277000", "124246.278000", "124248.276000", "124250.277000", "124252.277000", "124254.277000", "124256.277000", "124258.277000", "124300.277000", "124302.278000", "124304.276000", "124306.277000", "124308.276000", "124310.277000", "124312.277000", "124314.277000", "124316.278000", "124318.278000", "124320.277000", "124322.276000", "124324.277000", "124326.277000", "124328.277000", "124330.276000", "124332.277000", "124334.277000", "124336.277000", "124338.276000", "124340.277000", "124342.277000", "124344.277000", "124346.276000", "124348.276000", "124350.278000", "124352.277000", "124354.278000", "124356.276000", "124358.277000", "124400.276000", "124402.276000", "124404.276000", "124406.277000", "124408.278000", "124410.278000", "124412.278000", "124414.276000", "124416.276000", "124418.277000", "124420.277000", "124422.277000", "124424.277000", "124426.278000", "124428.277000", "124430.278000", "124432.277000", "124434.276000", "124436.277000", "124438.276000", "124440.277000", "124442.276000", "124444.278000", "124446.278000", "124448.277000", "124450.276000", "124452.276000", "124454.276000", "124456.277000", "124458.276000", "124500.278000", "124502.278000", "124504.278000", "124506.277000", "124508.276000", "124510.276000", "124512.277000", "124514.276000", "124516.276000", "124518.277000", "124520.278000", "124522.277000", "124524.276000", "124526.276000", "124528.277000", "124530.277000", "124532.277000", "124534.277000", "124536.277000", "124538.278000", "124540.277000", "124542.276000", "124544.277000", "124546.277000", "124548.277000", "124550.278000", "124552.277000", "124554.277000", "124556.277000", "124558.276000", "124600.277000", "124602.276000", "124604.277000", "124606.277000", "124608.277000", "124610.278000", "124612.278000", "124614.277000", "124616.277000", "124618.277000", "124620.277000", "124622.277000", "124624.276000", "124626.276000", "124628.277000", "124630.278000", "124632.278000", "124634.276000", "124636.277000", "124638.276000", "124640.277000", "124642.276000", "124644.276000", "124646.277000", "124648.278000", "124650.278000", "124652.277000", "124654.277000", "124656.277000", "124658.276000", "124700.277000", "124702.277000", "124704.278000", "124706.278000", "124707.970000"],
      "InstanceCreationTime": ["124210.781000", "124212.277000", "124214.277000", "124216.277000", "124218.276000", "124220.276000", "124222.276000", "124224.277000", "124226.277000", "124228.277000", "124230.277000", "124232.277000", "124234.276000", "124236.277000", "124238.277000", "124240.278000", "124242.278000", "124244.277000", "124246.278000", "124248.276000", "124250.277000", "124252.277000", "124254.277000", "124256.277000", "124258.277000", "124300.277000", "124302.278000", "124304.276000", "124306.277000", "124308.276000", "124310.277000", "124312.277000", "124314.277000", "124316.278000", "124318.278000", "124320.277000", "124322.276000", "124324.277000", "124326.277000", "124328.277000", "124330.276000", "124332.277000", "124334.277000", "124336.277000", "124338.276000", "124340.277000", "124342.277000", "124344.277000", "124346.276000", "124348.276000", "124350.278000", "124352.277000", "124354.278000", "124356.276000", "124358.277000", "124400.276000", "124402.276000", "124404.276000", "124406.277000", "124408.278000", "124410.278000", "124412.278000", "124414.276000", "124416.276000", "124418.277000", "124420.277000", "124422.277000", "124424.277000", "124426.278000", "124428.277000", "124430.278000", "124432.277000", "124434.276000", "124436.277000", "124438.276000", "124440.277000", "124442.276000", "124444.278000", "124446.278000", "124448.277000", "124450.276000", "124452.276000", "124454.276000", "124456.277000", "124458.276000", "124500.278000", "124502.278000", "124504.278000", "124506.277000", "124508.276000", "124510.276000", "124512.277000", "124514.276000", "124516.276000", "124518.277000", "124520.278000", "124522.277000", "124524.276000", "124526.276000", "124528.277000", "124530.277000", "124532.277000", "124534.277000", "124536.277000", "124538.278000", "124540.277000", "124542.276000", "124544.277000", "124546.277000", "124548.277000", "124550.278000", "124552.277000", "124554.277000", "124556.277000", "124558.276000", "124600.277000", "124602.276000", "124604.277000", "124606.277000", "124608.277000", "124610.278000", "124612.278000", "124614.277000", "124616.277000", "124618.277000", "124620.277000", "124622.277000", "124624.276000", "124626.276000", "124628.277000", "124630.278000", "124632.278000", "124634.276000", "124636.277000", "124638.276000", "124640.277000", "124642.276000", "124644.276000", "124646.277000", "124648.278000", "124650.278000", "124652.277000", "124654.277000", "124656.277000", "124658.276000", "124700.277000", "124702.277000", "124704.278000", "124706.278000", "124707.970000"],
      "InstanceNumber": [1, 2, 3, 4, 5, 6, 7, 8, 9, 10, 11, 12, 13, 14, 15, 16, 17, 18, 19, 20, 21, 22, 23, 24, 25, 26, 27, 28, 29, 30, 31, 32, 33, 34, 35, 36, 37, 38, 39, 40, 41, 42, 43, 44, 45, 46, 47, 48, 49, 50, 51, 52, 53, 54, 55, 56, 57, 58, 59, 60, 61, 62, 63, 64, 65, 66, 67, 68, 69, 70, 71, 72, 73, 74, 75, 76, 77, 78, 79, 80, 81, 82, 83, 84, 85, 86, 87, 88, 89, 90, 91, 92, 93, 94, 95, 96, 97, 98, 99, 100, 101, 102, 103, 104, 105, 106, 107, 108, 109, 110, 111, 112, 113, 114, 115, 116, 117, 118, 119, 120, 121, 122, 123, 124, 125, 126, 127, 128, 129, 130, 131, 132, 133, 134, 135, 136, 137, 138, 139, 140, 141, 142, 143, 144, 145, 146, 147, 148, 149, 150],
      "LargestImagePixelValue": [3237, 3136, 3176, 3122, 3128, 3060, 3059, 3083, 3082, 3065, 3039, 3019, 3034, 3042, 3092, 3061, 3081, 3145, 3111, 3098, 3097, 3155, 3151, 3067, 3016, 3049, 3031, 2963, 3027, 3039, 2989, 3029, 3044, 2992, 2929, 2972, 3046, 3142, 3029, 3011, 3091, 3048, 3014, 2952, 2989, 2985, 2975, 3071, 2999, 2989, 3050, 3098, 2999, 3005, 2958, 2942, 2963, 2969, 2947, 2977, 2993, 3001, 3001, 3021, 3057, 3077, 3061, 3130, 3067, 3073, 3069, 3103, 2997, 2981, 2993, 2959, 2951, 3000, 3005, 3001, 3012, 3023, 2972, 2984, 3033, 3009, 3009, 2984, 3012, 3062, 3063, 3131, 3155, 3145, 3134, 3067, 3106, 3046, 3085, 3096, 3074, 2996, 3017, 3084, 3061, 3097, 3105, 3094, 3069, 3000, 3062, 3091, 3104, 3102, 3055, 3070, 3047, 2992, 3026, 2988, 2947, 3038, 3089, 3078, 3124, 3117, 3123, 3169, 3164, 3168, 3187, 3217, 3211, 3183, 3205, 3176, 3181, 3139, 3090, 3101, 3113, 3095, 3079, 3132, 3115, 3126, 3111, 3079, 3083, 3079],
      "WindowCenter": [788.0, 786.0, 786.0, 785.0, 784.0, 783.0, 783.0, 785.0, 784.0, 784.0, 783.0, 783.0, 783.0, 784.0, 786.0, 786.0, 786.0, 786.0, 786.0, 786.0, 786.0, 786.0, 785.0, 783.0, 782.0, 782.0, 782.0, 781.0, 782.0, 781.0, 781.0, 782.0, 781.0, 781.0, 780.0, 782.0, 783.0, 783.0, 782.0, 782.0, 782.0, 781.0, 782.0, 782.0, 781.0, 782.0, 782.0, 782.0, 781.0, 781.0, 783.0, 782.0, 780.0, 780.0, 780.0, 781.0, 781.0, 780.0, 780.0, 780.0, 781.0, 781.0, 781.0, 782.0, 783.0, 783.0, 784.0, 784.0, 783.0, 783.0, 783.0, 782.0, 782.0, 781.0, 781.0, 781.0, 782.0, 783.0, 784.0, 784.0, 783.0, 783.0, 783.0, 783.0, 784.0, 783.0, 784.0, 784.0, 784.0, 784.0, 784.0, 785.0, 786.0, 785.0, 783.0, 783.0, 784.0, 783.0, 784.0, 783.0, 783.0, 783.0, 784.0, 785.0, 784.0, 784.0, 783.0, 783.0, 782.0, 782.0, 782.0, 782.0, 782.0, 782.0, 782.0, 783.0, 783.0, 783.0, 783.0, 782.0, 783.0, 784.0, 784.0, 783.0, 783.0, 782.0, 782.0, 783.0, 784.0, 783.0, 784.0, 783.0, 784.0, 784.0, 785.0, 785.0, 785.0, 783.0, 783.0, 783.0, 783.0, 783.0, 783.0, 783.0, 783.0, 784.0, 783.0, 783.0, 783.0, 783.0],
      "WindowWidth": [1700.0, 1693.0, 1693.0, 1689.0, 1687.0, 1685.0, 1686.0, 1689.0, 1689.0, 1687.0, 1684.0, 1684.0, 1685.0, 1687.0, 1693.0, 1693.0, 1694.0, 1694.0, 1694.0, 1695.0, 1695.0, 1693.0, 1690.0, 1686.0, 1685.0, 1684.0, 1683.0, 1682.0, 1683.0, 1680.0, 1680.0, 1684.0, 1682.0, 1680.0, 1678.0, 1682.0, 1685.0, 1686.0, 1683.0, 1683.0, 1684.0, 1682.0, 1684.0, 1684.0, 1682.0, 1683.0, 1683.0, 1683.0, 1680.0, 1681.0, 1686.0, 1683.0, 1678.0, 1677.0, 1677.0, 1680.0, 1681.0, 1679.0, 1678.0, 1678.0, 1680.0, 1681.0, 1682.0, 1683.0, 1685.0, 1687.0, 1688.0, 1689.0, 1687.0, 1687.0, 1685.0, 1684.0, 1682.0, 1681.0, 1682.0, 1681.0, 1684.0, 1687.0, 1688.0, 1687.0, 1687.0, 1686.0, 1685.0, 1686.0, 1688.0, 1687.0, 1688.0, 1688.0, 1689.0, 1689.0, 1690.0, 1692.0, 1692.0, 1690.0, 1687.0, 1686.0, 1687.0, 1687.0, 1687.0, 1685.0, 1685.0, 1686.0, 1689.0, 1690.0, 1688.0, 1688.0, 1686.0, 1684.0, 1684.0, 1682.0, 1683.0, 1684.0, 1683.0, 1684.0, 1684.0, 1686.0, 1686.0, 1686.0, 1686.0, 1684.0, 1685.0, 1688.0, 1688.0, 1685.0, 1685.0, 1684.0, 1684.0, 1686.0, 1687.0, 1687.0, 1687.0, 1687.0, 1688.0, 1689.0, 1691.0, 1691.0, 1690.0, 1687.0, 1685.0, 1686.0, 1687.0, 1686.0, 1685.0, 1686.0, 1687.0, 1687.0, 1687.0, 1686.0, 1686.0, 1685.0]
    },
    "slices": {}
  }
}