{
 "AcquisitionMatrixPE": 100,
 "AcquisitionNumber": 1,
 "AcquisitionTime": "13:22:54.905000",
 "BandwidthPerPixelPhaseEncode": 18.519,
 "BaseResolution": 100,
 "BodyPartExamined": "BRAIN",
 "ConsistencyInfo": "N4_VE11C_LATEST_20160120",
 "ConversionSoftware": "dcm2niix",
 "ConversionSoftwareVersion": "v1.0.20180622 GCC4.9.2",
 "DerivedVendorReportedEchoSpacing": 0.000539986,
 "DeviceSerialNumber": "166078",
 "DwellTime": 2.1e-06,
 "EchoTime": 0.034,
 "EchoTrainLength": 100,
 "EffectiveEchoSpacing": 0.000539986,
 "FlipAngle": 90,
 "ImageOrientationPatientDICOM": [
  1,
  0,
  0,
  0,
  0.985109,
  -0.171929
 ],
 "ImageType": [
  "ORIGINAL",
  "PRIMARY",
  "M",
  "ND",
  "MOSAIC"
 ],
 "InPlanePhaseEncodingDirectionDICOM": "COL",
 "InstitutionAddress": "Street_StreetNo_Bei_Jing_District_CN_ZIP",
 "InstitutionName": "BeiJing_Normal_University",
 "InstitutionalDepartmentName": "Department",
 "MRAcquisitionType": "2D",
 "MagneticFieldStrength": 3,
 "Manufacturer": "Siemens",
 "ManufacturersModelName": "Prisma",
 "Modality": "MR",
 "MultibandAccelerationFactor": 3,
 "PartialFourier": 1,
 "PatientPosition": "HFS",
 "PercentPhaseFOV": 100,
 "PhaseEncodingDirection": "j-",
 "PhaseEncodingSteps": 100,
 "PhaseResolution": 1,
 "PixelBandwidth": 2380,
 "ProcedureStepDescription": "BNU_P2018_64CH_Zhen.ZongLei",
 "ProtocolName": "bold_100x100_s3_2x2x2_retino_150",
 "PulseSequenceDetails": "%SiemensSeq%_ep2d_bold",
 "ReceiveCoilActiveElements": "HC1-7;NC1",
 "ReceiveCoilName": "HeadNeck_64",
 "ReconMatrixPE": 100,
 "RepetitionTime": 2,
 "SAR": 0.0841872,
 "ScanOptions": "FS",
 "ScanningSequence": "EP",
 "SequenceName": "_epfid2d1_100",
 "SequenceVariant": "SK",
 "SeriesDescription": "bold_100x100_s3_2x2x2_retino_150",
 "SeriesNumber": 12,
 "ShimSetting": [
  -5481,
  -11509,
  -1252,
  521,
  -54,
  -236,
  -148,
  128
 ],
 "SliceThickness": 2,
 "SliceTiming": [
  1.485,
  0,
  0.99,
  0.0825,
  1.0725,
  0.165,
  1.155,
  0.2475,
  1.2375,
  0.33,
  1.32,
  0.4125,
  1.4025,
  0.5775,
  1.5675,
  0.66,
  1.65,
  0.7425,
  1.7325,
  0.825,
  1.815,
  0.9075,
  1.8975,
  0.495,
  1.485,
  0,
  0.99,
  0.0825,
  1.0725,
  0.165,
  1.155,
  0.2475,
  1.2375,
  0.33,
  1.32,
  0.4125,
  1.4025,
  0.5775,
  1.5675,
  0.66,
  1.65,
  0.7425,
  1.7325,
  0.825,
  1.815,
  0.9075,
  1.8975,
  0.495,
  1.485,
  0,
  0.99,
  0.0825,
  1.0725,
  0.165,
  1.155,
  0.2475,
  1.2375,
  0.33,
  1.32,
  0.4125,
  1.4025,
  0.5775,
  1.5675,
  0.66,
  1.65,
  0.7425,
  1.7325,
  0.825,
  1.815,
  0.9075,
  1.8975,
  0.495
 ],
 "SoftwareVersions": "syngo_MR_E11",
 "SpacingBetweenSlices": 2,
 "StationName": "AWP166078",
 "TaskName": "prf",
 "TotalReadoutTime": 0.0534586,
 "TxRefAmp": 230.376,
 "dcmmeta_affine": [
  [
   -2.0,
   0.0,
   0.0,
   102.02409362792969
  ],
  [
   0.0,
   1.9702186584472656,
   -0.34385818243026733,
   -84.04940795898438
  ],
  [
   0.0,
   0.3438582122325897,
   1.9702186584472656,
   -83.70747375488281
  ],
  [
   0.0,
   0.0,
   0.0,
   1.0
  ]
 ],
 "dcmmeta_reorient_transform": [
  [
   0.0,
   -1.0,
   0.0,
   99.0
  ],
  [
   1.0,
   0.0,
   0.0,
   0.0
  ],
  [
   0.0,
   0.0,
   1.0,
   0.0
  ],
  [
   0.0,
   0.0,
   0.0,
   1.0
  ]
 ],
 "dcmmeta_shape": [
  100,
  100,
  72,
  150
 ],
 "dcmmeta_slice_dim": 2,
 "dcmmeta_version": 0.6,
 "global": {
  "const": {
   "AcquisitionMatrix": [
    100,
    0,
    0,
    100
   ],
   "AngioFlag": "N",
   "BitsAllocated": 16,
   "BitsStored": 12,
   "BodyPartExamined": "BRAIN",
   "Columns": 900,
   "EchoNumbers": 1,
   "EchoTime": 34.0,
   "EchoTrainLength": 100,
   "FlipAngle": 90.0,
   "HighBit": 11,
   "ImageOrientationPatient": [
    1.0,
    0.0,
    0.0,
    0.0,
    0.98510932620277,
    -0.1719291000044
   ],
   "ImagePositionPatient": [
    -902.02409648895,
    -899.0896970264,
    87.877768678303
   ],
   "ImageType": [
    "ORIGINAL",
    "PRIMARY",
    "M",
    "ND",
    "MOSAIC"
   ],
   "ImagedNucleus": "1H",
   "ImagingFrequency": 123.257755,
   "InPlanePhaseEncodingDirection": "COL",
   "MRAcquisitionType": "2D",
   "MagneticFieldStrength": 3.0,
   "Manufacturer": "SIEMENS",
   "ManufacturerModelName": "Prisma",
   "Modality": "MR",
   "NumberOfAverages": 1.0,
   "NumberOfPhaseEncodingSteps": 100,
   "PercentPhaseFieldOfView": 100.0,
   "PercentSampling": 100.0,
   "PerformedProcedureStepStartTime": "121324.353000",
   "PhotometricInterpretation": "MONOCHROME2",
   "PixelBandwidth": 2380.0,
   "PixelRepresentation": 0,
   "PixelSpacing": [
    2.0,
    2.0
   ],
   "ProtocolName": "bold_100x100_s3_2x2x2_retino_150",
   "RepetitionTime": 2000.0,
   "Rows": 900,
   "SAR": 0.08418718233249,
   "SamplesPerPixel": 1,
   "ScanOptions": "FS",
   "ScanningSequence": "EP",
   "SequenceName": "*epfid2d1_100",
   "SequenceVariant": "SK",
   "SeriesDescription": "bold_100x100_s3_2x2x2_retino_150",
   "SeriesNumber": 12,
   "SeriesTime": "132257.237000",
   "SliceLocation": -68.010472942118,
   "SliceThickness": 2.0,
   "SmallestImagePixelValue": 0,
   "SoftwareVersions": "syngo MR E11",
   "SpacingBetweenSlices": 1.9999999521664,
   "SpecificCharacterSet": "ISO_IR 100",
   "StudyID": "1",
   "StudyTime": "121324.253000",
   "TransmitCoilName": "Body",
   "VariableFlipAngleFlag": "N",
   "WindowCenterWidthExplanation": "Algo1",
   "dBdt": 0.0
  },
  "slices": {}
 },
 "time": {
  "samples": {
   "AcquisitionNumber": [
    1,
    2,
    3,
    4,
    5,
    6,
    7,
    8,
    9,
    10,
    11,
    12,
    13,
    14,
    15,
    16,
    17,
    18,
    19,
    20,
    21,
    22,
    23,
    24,
    25,
    26,
    27,
    28,
    29,
    30,
    31,
    32,
    33,
    34,
    35,
    36,
    37,
    38,
    39,
    40,
    41,
    42,
    43,
    44,
    45,
    46,
    47,
    48,
    49,
    50,
    51,
    52,
    53,
    54,
    55,
    56,
    57,
    58,
    59,
    60,
    61,
    62,
    63,
    64,
    65,
    66,
    67,
    68,
    69,
    70,
    71,
    72,
    73,
    74,
    75,
    76,
    77,
    78,
    79,
    80,
    81,
    82,
    83,
    84,
    85,
    86,
    87,
    88,
    89,
    90,
    91,
    92,
    93,
    94,
    95,
    96,
    97,
    98,
    99,
    100,
    101,
    102,
    103,
    104,
    105,
    106,
    107,
    108,
    109,
    110,
    111,
    112,
    113,
    114,
    115,
    116,
    117,
    118,
    119,
    120,
    121,
    122,
    123,
    124,
    125,
    126,
    127,
    128,
    129,
    130,
    131,
    132,
    133,
    134,
    135,
    136,
    137,
    138,
    139,
    140,
    141,
    142,
    143,
    144,
    145,
    146,
    147,
    148,
    149,
    150
   ],
   "AcquisitionTime": [
    "132254.905000",
    "132256.905000",
    "132258.905000",
    "132300.905000",
    "132302.905000",
    "132304.905000",
    "132306.905000",
    "132308.905000",
    "132310.905000",
    "132312.905000",
    "132314.905000",
    "132316.905000",
    "132318.905000",
    "132320.905000",
    "132322.905000",
    "132324.905000",
    "132326.905000",
    "132328.905000",
    "132330.905000",
    "132332.905000",
    "132334.905000",
    "132336.905000",
    "132338.905000",
    "132340.905000",
    "132342.905000",
    "132344.905000",
    "132346.905000",
    "132348.905000",
    "132350.905000",
    "132352.905000",
    "132354.905000",
    "132356.905000",
    "132358.905000",
    "132400.905000",
    "132402.905000",
    "132404.905000",
    "132406.905000",
    "132408.905000",
    "132410.905000",
    "132412.905000",
    "132414.905000",
    "132416.905000",
    "132418.905000",
    "132420.905000",
    "132422.905000",
    "132424.905000",
    "132426.905000",
    "132428.905000",
    "132430.905000",
    "132432.905000",
    "132434.905000",
    "132436.905000",
    "132438.905000",
    "132440.905000",
    "132442.905000",
    "132444.905000",
    "132446.905000",
    "132448.905000",
    "132450.905000",
    "132452.905000",
    "132454.905000",
    "132456.905000",
    "132458.905000",
    "132500.905000",
    "132502.905000",
    "132504.905000",
    "132506.905000",
    "132508.905000",
    "132510.905000",
    "132512.905000",
    "132514.905000",
    "132516.905000",
    "132518.905000",
    "132520.905000",
    "132522.905000",
    "132524.905000",
    "132526.905000",
    "132528.905000",
    "132530.905000",
    "132532.905000",
    "132534.905000",
    "132536.905000",
    "132538.905000",
    "132540.905000",
    "132542.905000",
    "132544.905000",
    "132546.905000",
    "132548.905000",
    "132550.905000",
    "132552.905000",
    "132554.905000",
    "132556.905000",
    "132558.905000",
    "132600.905000",
    "132602.905000",
    "132604.905000",
    "132606.905000",
    "132608.905000",
    "132610.905000",
    "132612.905000",
    "132614.905000",
    "132616.905000",
    "132618.905000",
    "132620.905000",
    "132622.905000",
    "132624.905000",
    "132626.905000",
    "132628.905000",
    "132630.905000",
    "132632.905000",
    "132634.905000",
    "132636.905000",
    "132638.905000",
    "132640.905000",
    "132642.905000",
    "132644.905000",
    "132646.905000",
    "132648.905000",
    "132650.905000",
    "132652.905000",
    "132654.905000",
    "132656.905000",
    "132658.905000",
    "132700.905000",
    "132702.905000",
    "132704.905000",
    "132706.905000",
    "132708.905000",
    "132710.905000",
    "132712.905000",
    "132714.905000",
    "132716.905000",
    "132718.905000",
    "132720.905000",
    "132722.905000",
    "132724.905000",
    "132726.905000",
    "132728.905000",
    "132730.905000",
    "132732.905000",
    "132734.905000",
    "132736.905000",
    "132738.905000",
    "132740.905000",
    "132742.905000",
    "132744.905000",
    "132746.905000",
    "132748.905000",
    "132750.905000",
    "132752.905000"
   ],
   "ContentTime": [
    "132257.241000",
    "132258.736000",
    "132300.735000",
    "132302.736000",
    "132304.735000",
    "132306.735000",
    "132308.735000",
    "132310.736000",
    "132312.737000",
    "132314.736000",
    "132316.736000",
    "132318.735000",
    "132320.735000",
    "132322.736000",
    "132324.735000",
    "132326.736000",
    "132328.736000",
    "132330.736000",
    "132332.737000",
    "132334.735000",
    "132336.736000",
    "132338.735000",
    "132340.735000",
    "132342.735000",
    "132344.735000",
    "132346.736000",
    "132348.736000",
    "132350.736000",
    "132352.735000",
    "132354.736000",
    "132356.735000",
    "132358.735000",
    "132400.735000",
    "132402.737000",
    "132404.736000",
    "132406.737000",
    "132408.737000",
    "132410.736000",
    "132412.736000",
    "132414.736000",
    "132416.735000",
    "132418.735000",
    "132420.737000",
    "132422.736000",
    "132424.736000",
    "132426.735000",
    "132428.735000",
    "132430.735000",
    "132432.735000",
    "132434.736000",
    "132436.735000",
    "132438.737000",
    "132440.737000",
    "132442.736000",
    "132444.736000",
    "132446.735000",
    "132448.735000",
    "132450.735000",
    "132452.735000",
    "132454.735000",
    "132456.737000",
    "132458.736000",
    "132500.736000",
    "132502.735000",
    "132504.735000",
    "132506.735000",
    "132508.736000",
    "132510.735000",
    "132512.736000",
    "132514.736000",
    "132516.736000",
    "132518.736000",
    "132520.735000",
    "132522.735000",
    "132524.736000",
    "132526.735000",
    "132528.735000",
    "132530.736000",
    "132532.736000",
    "132534.736000",
    "132536.735000",
    "132538.735000",
    "132540.736000",
    "132542.735000",
    "132544.735000",
    "132546.735000",
    "132548.736000",
    "132550.736000",
    "132552.736000",
    "132554.736000",
    "132557.235000",
    "132558.735000",
    "132600.735000",
    "132602.735000",
    "132604.735000",
    "132606.736000",
    "132608.736000",
    "132610.737000",
    "132612.736000",
    "132614.735000",
    "132616.736000",
    "132618.735000",
    "132620.735000",
    "132622.736000",
    "132624.736000",
    "132626.737000",
    "132628.737000",
    "132630.736000",
    "132632.735000",
    "132634.735000",
    "132636.736000",
    "132638.735000",
    "132640.736000",
    "132642.737000",
    "132644.736000",
    "132646.736000",
    "132648.735000",
    "132650.735000",
    "132652.735000",
    "132654.735000",
    "132656.735000",
    "132658.736000",
    "132700.737000",
    "132702.736000",
    "132704.735000",
    "132706.735000",
    "132708.736000",
    "132710.735000",
    "132712.735000",
    "132714.736000",
    "132716.737000",
    "132718.736000",
    "132720.737000",
    "132722.735000",
    "132724.736000",
    "132726.735000",
    "132728.735000",
    "132730.736000",
    "132732.736000",
    "132734.736000",
    "132736.736000",
    "132738.736000",
    "132740.736000",
    "132742.735000",
    "132744.735000",
    "132746.735000",
    "132748.736000",
    "132750.737000",
    "132752.736000",
    "132754.691000"
   ],
   "InstanceCreationTime": [
    "132257.241000",
    "132258.736000",
    "132300.735000",
    "132302.736000",
    "132304.735000",
    "132306.735000",
    "132308.735000",
    "132310.736000",
    "132312.737000",
    "132314.736000",
    "132316.736000",
    "132318.735000",
    "132320.735000",
    "132322.736000",
    "132324.735000",
    "132326.736000",
    "132328.736000",
    "132330.736000",
    "132332.737000",
    "132334.735000",
    "132336.736000",
    "132338.735000",
    "132340.735000",
    "132342.735000",
    "132344.735000",
    "132346.736000",
    "132348.736000",
    "132350.736000",
    "132352.735000",
    "132354.736000",
    "132356.735000",
    "132358.735000",
    "132400.735000",
    "132402.737000",
    "132404.736000",
    "132406.737000",
    "132408.737000",
    "132410.736000",
    "132412.736000",
    "132414.736000",
    "132416.735000",
    "132418.735000",
    "132420.737000",
    "132422.736000",
    "132424.736000",
    "132426.735000",
    "132428.735000",
    "132430.735000",
    "132432.735000",
    "132434.736000",
    "132436.735000",
    "132438.737000",
    "132440.737000",
    "132442.736000",
    "132444.736000",
    "132446.735000",
    "132448.735000",
    "132450.735000",
    "132452.735000",
    "132454.735000",
    "132456.737000",
    "132458.736000",
    "132500.736000",
    "132502.735000",
    "132504.735000",
    "132506.735000",
    "132508.736000",
    "132510.735000",
    "132512.736000",
    "132514.736000",
    "132516.736000",
    "132518.736000",
    "132520.735000",
    "132522.735000",
    "132524.736000",
    "132526.735000",
    "132528.735000",
    "132530.736000",
    "132532.736000",
    "132534.736000",
    "132536.735000",
    "132538.735000",
    "132540.736000",
    "132542.735000",
    "132544.735000",
    "132546.735000",
    "132548.736000",
    "132550.736000",
    "132552.736000",
    "132554.736000",
    "132557.235000",
    "132558.735000",
    "132600.735000",
    "132602.735000",
    "132604.735000",
    "132606.736000",
    "132608.736000",
    "132610.737000",
    "132612.736000",
    "132614.735000",
    "132616.736000",
    "132618.735000",
    "132620.735000",
    "132622.736000",
    "132624.736000",
    "132626.737000",
    "132628.737000",
    "132630.736000",
    "132632.735000",
    "132634.735000",
    "132636.736000",
    "132638.735000",
    "132640.736000",
    "132642.737000",
    "132644.736000",
    "132646.736000",
    "132648.735000",
    "132650.735000",
    "132652.735000",
    "132654.735000",
    "132656.735000",
    "132658.736000",
    "132700.737000",
    "132702.736000",
    "132704.735000",
    "132706.735000",
    "132708.736000",
    "132710.735000",
    "132712.735000",
    "132714.736000",
    "132716.737000",
    "132718.736000",
    "132720.737000",
    "132722.735000",
    "132724.736000",
    "132726.735000",
    "132728.735000",
    "132730.736000",
    "132732.736000",
    "132734.736000",
    "132736.736000",
    "132738.736000",
    "132740.736000",
    "132742.735000",
    "132744.735000",
    "132746.735000",
    "132748.736000",
    "132750.737000",
    "132752.736000",
    "132754.691000"
   ],
   "InstanceNumber": [
    1,
    2,
    3,
    4,
    5,
    6,
    7,
    8,
    9,
    10,
    11,
    12,
    13,
    14,
    15,
    16,
    17,
    18,
    19,
    20,
    21,
    22,
    23,
    24,
    25,
    26,
    27,
    28,
    29,
    30,
    31,
    32,
    33,
    34,
    35,
    36,
    37,
    38,
    39,
    40,
    41,
    42,
    43,
    44,
    45,
    46,
    47,
    48,
    49,
    50,
    51,
    52,
    53,
    54,
    55,
    56,
    57,
    58,
    59,
    60,
    61,
    62,
    63,
    64,
    65,
    66,
    67,
    68,
    69,
    70,
    71,
    72,
    73,
    74,
    75,
    76,
    77,
    78,
    79,
    80,
    81,
    82,
    83,
    84,
    85,
    86,
    87,
    88,
    89,
    90,
    91,
    92,
    93,
    94,
    95,
    96,
    97,
    98,
    99,
    100,
    101,
    102,
    103,
    104,
    105,
    106,
    107,
    108,
    109,
    110,
    111,
    112,
    113,
    114,
    115,
    116,
    117,
    118,
    119,
    120,
    121,
    122,
    123,
    124,
    125,
    126,
    127,
    128,
    129,
    130,
    131,
    132,
    133,
    134,
    135,
    136,
    137,
    138,
    139,
    140,
    141,
    142,
    143,
    144,
    145,
    146,
    147,
    148,
    149,
    150
   ],
   "LargestImagePixelValue": [
    3086,
    3098,
    3096,
    3163,
    3120,
    3095,
    3031,
    3003,
    2976,
    2995,
    2958,
    2990,
    2985,
    2980,
    2958,
    2937,
    2918,
    2951,
    2950,
    2988,
    3058,
    3046,
    3056,
    3075,
    2975,
    2958,
    3001,
    3034,
    3024,
    2980,
    2955,
    2979,
    2957,
    2911,
    2933,
    2911,
    2951,
    2947,
    2939,
    2979,
    2996,
    2992,
    2940,
    2929,
    2912,
    2952,
    2904,
    2926,
    2932,
    2945,
    2950,
    3005,
    2986,
    2958,
    2962,
    2949,
    2964,
    2918,
    2920,
    2916,
    2934,
    2970,
    3002,
    2989,
    2971,
    2989,
    2985,
    2949,
    2934,
    2931,
    2931,
    2914,
    2934,
    3018,
    2928,
    2952,
    3032,
    3031,
    3044,
    2981,
    3033,
    3013,
    3015,
    3083,
    3002,
    3043,
    3093,
    3083,
    3073,
    3085,
    3073,
    2960,
    2934,
    3061,
    3038,
    3051,
    3012,
    2980,
    3023,
    3096,
    3134,
    3161,
    3117,
    3103,
    3072,
    3108,
    3027,
    3059,
    3031,
    2986,
    3045,
    3058,
    3099,
    3107,
    3024,
    2979,
    3023,
    3065,
    3019,
    2944,
    2928,
    2932,
    2926,
    2924,
    2942,
    2974,
    2983,
    2943,
    2963,
    3011,
    2992,
    3041,
    3037,
    3033,
    3098,
    3110,
    3002,
    3030,
    2981,
    2992,
    2969,
    2963,
    2938,
    2931,
    2943,
    2942,
    2931,
    2947,
    2978,
    2960
   ],
   "WindowCenter": [
    789.0,
    788.0,
    789.0,
    790.0,
    790.0,
    791.0,
    789.0,
    788.0,
    788.0,
    788.0,
    788.0,
    788.0,
    786.0,
    786.0,
    786.0,
    786.0,
    786.0,
    786.0,
    786.0,
    786.0,
    787.0,
    787.0,
    787.0,
    786.0,
    784.0,
    784.0,
    786.0,
    787.0,
    786.0,
    785.0,
    785.0,
    786.0,
    786.0,
    785.0,
    785.0,
    785.0,
    785.0,
    785.0,
    785.0,
    785.0,
    786.0,
    786.0,
    785.0,
    784.0,
    785.0,
    786.0,
    784.0,
    784.0,
    785.0,
    785.0,
    785.0,
    786.0,
    785.0,
    786.0,
    786.0,
    786.0,
    785.0,
    785.0,
    785.0,
    785.0,
    785.0,
    786.0,
    786.0,
    786.0,
    787.0,
    788.0,
    788.0,
    787.0,
    786.0,
    786.0,
    786.0,
    786.0,
    787.0,
    787.0,
    786.0,
    787.0,
    788.0,
    788.0,
    788.0,
    788.0,
    788.0,
    788.0,
    789.0,
    790.0,
    790.0,
    790.0,
    790.0,
    789.0,
    789.0,
    789.0,
    788.0,
    786.0,
    787.0,
    788.0,
    787.0,
    786.0,
    787.0,
    788.0,
    788.0,
    789.0,
    790.0,
    790.0,
    790.0,
    789.0,
    788.0,
    789.0,
    788.0,
    788.0,
    787.0,
    787.0,
    787.0,
    787.0,
    787.0,
    787.0,
    786.0,
    786.0,
    787.0,
    787.0,
    787.0,
    786.0,
    787.0,
    787.0,
    787.0,
    786.0,
    785.0,
    786.0,
    786.0,
    787.0,
    786.0,
    787.0,
    785.0,
    786.0,
    786.0,
    787.0,
    789.0,
    789.0,
    788.0,
    788.0,
    788.0,
    788.0,
    787.0,
    787.0,
    786.0,
    786.0,
    786.0,
    786.0,
    787.0,
    786.0,
    787.0,
    788.0
   ],
   "WindowWidth": [
    1698.0,
    1697.0,
    1698.0,
    1700.0,
    1701.0,
    1702.0,
    1699.0,
    1696.0,
    1695.0,
    1696.0,
    1695.0,
    1696.0,
    1690.0,
    1689.0,
    1690.0,
    1691.0,
    1690.0,
    1690.0,
    1691.0,
    1691.0,
    1693.0,
    1693.0,
    1693.0,
    1690.0,
    1686.0,
    1686.0,
    1690.0,
    1693.0,
    1691.0,
    1689.0,
    1689.0,
    1691.0,
    1689.0,
    1687.0,
    1688.0,
    1689.0,
    1689.0,
    1688.0,
    1687.0,
    1688.0,
    1691.0,
    1690.0,
    1688.0,
    1687.0,
    1689.0,
    1691.0,
    1686.0,
    1686.0,
    1688.0,
    1689.0,
    1689.0,
    1690.0,
    1689.0,
    1690.0,
    1690.0,
    1689.0,
    1688.0,
    1689.0,
    1688.0,
    1688.0,
    1688.0,
    1689.0,
    1690.0,
    1691.0,
    1693.0,
    1695.0,
    1695.0,
    1693.0,
    1691.0,
    1691.0,
    1690.0,
    1691.0,
    1693.0,
    1693.0,
    1690.0,
    1692.0,
    1695.0,
    1695.0,
    1695.0,
    1695.0,
    1696.0,
    1695.0,
    1697.0,
    1700.0,
    1700.0,
    1699.0,
    1700.0,
    1699.0,
    1698.0,
    1697.0,
    1694.0,
    1691.0,
    1692.0,
    1696.0,
    1692.0,
    1691.0,
    1694.0,
    1694.0,
    1695.0,
    1699.0,
    1700.0,
    1700.0,
    1701.0,
    1699.0,
    1696.0,
    1697.0,
    1696.0,
    1696.0,
    1693.0,
    1692.0,
    1693.0,
    1694.0,
    1694.0,
    1692.0,
    1690.0,
    1691.0,
    1693.0,
    1694.0,
    1693.0,
    1691.0,
    1694.0,
    1694.0,
    1692.0,
    1690.0,
    1688.0,
    1690.0,
    1690.0,
    1692.0,
    1691.0,
    1691.0,
    1689.0,
    1691.0,
    1691.0,
    1692.0,
    1698.0,
    1699.0,
    1694.0,
    1695.0,
    1695.0,
    1695.0,
    1693.0,
    1692.0,
    1690.0,
    1690.0,
    1690.0,
    1691.0,
    1691.0,
    1690.0,
    1692.0,
    1694.0
   ]
  },
  "slices": {}
 }
}