{
  "AcquisitionMatrixPE": 100,
  "AcquisitionNumber": 1,
  "AcquisitionTime": "16:37:30.145000",
  "BandwidthPerPixelPhaseEncode": 18.519,
  "BaseResolution": 100,
  "BodyPartExamined": "BRAIN",
  "ConsistencyInfo": "N4_VE11C_LATEST_20160120",
  "ConversionSoftware": "dcm2niix",
  "ConversionSoftwareVersion": "v1.0.20180622 GCC4.9.2",
  "DerivedVendorReportedEchoSpacing": 0.000539986,
  "DeviceSerialNumber": "166078",
  "DwellTime": 2.1e-06,
  "EchoTime": 0.034,
  "EchoTrainLength": 100,
  "EffectiveEchoSpacing": 0.000539986,
  "FlipAngle": 90,
  "ImageOrientationPatientDICOM": [0.999627, 0.0233493, -0.0141742, -0.0244304, 0.996364, -0.0816166],
  "ImageType": [
    "ORIGINAL",
    "PRIMARY",
    "M",
    "ND",
    "MOSAIC"
],
  "InPlanePhaseEncodingDirectionDICOM": "COL",
  "InstitutionAddress": "Street_StreetNo_Bei_Jing_District_CN_ZIP",
  "InstitutionName": "BeiJing_Normal_University",
  "InstitutionalDepartmentName": "Department",
  "MRAcquisitionType": "2D",
  "MagneticFieldStrength": 3,
  "Manufacturer": "Siemens",
  "ManufacturersModelName": "Prisma",
  "Modality": "MR",
  "MultibandAccelerationFactor": 3,
  "PartialFourier": 1,
  "PatientPosition": "HFS",
  "PercentPhaseFOV": 100,
  "PhaseEncodingDirection": "j-",
  "PhaseEncodingSteps": 100,
  "PhaseResolution": 1,
  "PixelBandwidth": 2380,
  "ProcedureStepDescription": "BNU_P2018_64CH_Zhen.ZongLei",
  "ProtocolName": "bold_100x100_s3_2x2x2_static_test_241",
  "PulseSequenceDetails": "%SiemensSeq%_ep2d_bold",
  "ReceiveCoilActiveElements": "HC1-7;NC1",
  "ReceiveCoilName": "HeadNeck_64",
  "ReconMatrixPE": 100,
  "RepetitionTime": 2,
  "SAR": 0.0747144,
  "ScanOptions": "FS",
  "ScanningSequence": "EP",
  "SequenceName": "_epfid2d1_100",
  "SequenceVariant": "SK",
  "SeriesDescription": "bold_100x100_s3_2x2x2_static_test_241",
  "SeriesNumber": 15,
  "ShimSetting": [-5468, -11530, -1293, 550, 34, -223, -130, 6],
  "SliceThickness": 2,
  "SliceTiming": [1.485, 0, 0.99, 0.0825, 1.0725, 0.165, 1.155, 0.2475, 1.2375, 0.33, 1.32, 0.4125, 1.4025, 0.5775, 1.5675, 0.66, 1.65, 0.7425, 1.7325, 0.825, 1.815, 0.9075, 1.8975, 0.495, 1.485, 0, 0.99, 0.0825, 1.0725, 0.165, 1.155, 0.2475, 1.2375, 0.33, 1.32, 0.4125, 1.4025, 0.5775, 1.5675, 0.66, 1.65, 0.7425, 1.7325, 0.825, 1.815, 0.9075, 1.8975, 0.495, 1.485, 0, 0.99, 0.0825, 1.0725, 0.165, 1.155, 0.2475, 1.2375, 0.33, 1.32, 0.4125, 1.4025, 0.5775, 1.5675, 0.66, 1.65, 0.7425, 1.7325, 0.825, 1.815, 0.9075, 1.8975, 0.495],
  "SoftwareVersions": "syngo_MR_E11",
  "SpacingBetweenSlices": 2,
  "StationName": "AWP166078",
  "TaskName": "naturalvision2",
  "TotalReadoutTime": 0.0534586,
  "TxRefAmp": 212.813,
  "dcmmeta_affine": [
    [-1.999253749847412, -0.048860739916563034, -0.02443399652838707, 104.57366943359375],
    [-0.046698588877916336, 1.9927287101745605, -0.16386477649211884, -85.66024780273438],
    [-0.028348440304398537, 0.16323313117027283, 1.9931260347366333, -70.2044448852539],
    [0.0, 0.0, 0.0, 1.0]
],
  "dcmmeta_reorient_transform": [
    [0.0, -1.0, 0.0, 99.0],
    [1.0, 0.0, 0.0, 0.0],
    [0.0, 0.0, 1.0, 0.0],
    [0.0, 0.0, 0.0, 1.0]
],
  "dcmmeta_shape": [100, 100, 72, 241],
  "dcmmeta_slice_dim": 2,
  "dcmmeta_version": 0.6,
  "global": {
    "const": {
      "AcquisitionMatrix": [100, 0, 0, 100],
      "AngioFlag": "N",
      "BitsAllocated": 16,
      "BitsStored": 12,
      "BodyPartExamined": "BRAIN",
      "Columns": 900,
      "EchoNumbers": 1,
      "EchoTime": 34.0,
      "EchoTrainLength": 100,
      "FlipAngle": 90.0,
      "HighBit": 11,
      "ImageOrientationPatient": [0.99962688136753, 0.02334929400859, -0.014174220145, -0.0244303704077, 0.9963643378911, -0.0816165619257],
      "ImagePositionPatient": [-879.89366460666, -927.39079394776, 22.588260260099],
      "ImageType": [
        "ORIGINAL",
        "PRIMARY",
        "M",
        "ND",
        "MOSAIC"
],
      "ImagedNucleus": "1H",
      "ImagingFrequency": 123.257779,
      "InPlanePhaseEncodingDirection": "COL",
      "MRAcquisitionType": "2D",
      "MagneticFieldStrength": 3.0,
      "Manufacturer": "SIEMENS",
      "ManufacturerModelName": "Prisma",
      "Modality": "MR",
      "NumberOfAverages": 1.0,
      "NumberOfPhaseEncodingSteps": 100,
      "PercentPhaseFieldOfView": 100.0,
      "PercentSampling": 100.0,
      "PerformedProcedureStepStartTime": "150708.363000",
      "PhotometricInterpretation": "MONOCHROME2",
      "PixelBandwidth": 2380.0,
      "PixelRepresentation": 0,
      "PixelSpacing": [2.0, 2.0],
      "ProtocolName": "bold_100x100_s3_2x2x2_static_test_241",
      "RepetitionTime": 2000.0,
      "Rows": 900,
      "SAR": 0.07471435862482,
      "SamplesPerPixel": 1,
      "ScanOptions": "FS",
      "ScanningSequence": "EP",
      "SequenceName": "*epfid2d1_100",
      "SequenceVariant": "SK",
      "SeriesDescription": "bold_100x100_s3_2x2x2_static_test_241",
      "SeriesNumber": 15,
      "SeriesTime": "163732.648000",
      "SliceLocation": -64.222379756871,
      "SliceThickness": 2.0,
      "SmallestImagePixelValue": 0,
      "SoftwareVersions": "syngo MR E11",
      "SpacingBetweenSlices": 2.0000000081223,
      "SpecificCharacterSet": "ISO_IR 100",
      "StudyID": "1",
      "StudyTime": "150708.281000",
      "TransmitCoilName": "Body",
      "VariableFlipAngleFlag": "N",
      "WindowCenterWidthExplanation": "Algo1",
      "dBdt": 0.0},
    "slices": {}
  },
  "time": {
    "samples": {
      "AcquisitionNumber": [1, 2, 3, 4, 5, 6, 7, 8, 9, 10, 11, 12, 13, 14, 15, 16, 17, 18, 19, 20, 21, 22, 23, 24, 25, 26, 27, 28, 29, 30, 31, 32, 33, 34, 35, 36, 37, 38, 39, 40, 41, 42, 43, 44, 45, 46, 47, 48, 49, 50, 51, 52, 53, 54, 55, 56, 57, 58, 59, 60, 61, 62, 63, 64, 65, 66, 67, 68, 69, 70, 71, 72, 73, 74, 75, 76, 77, 78, 79, 80, 81, 82, 83, 84, 85, 86, 87, 88, 89, 90, 91, 92, 93, 94, 95, 96, 97, 98, 99, 100, 101, 102, 103, 104, 105, 106, 107, 108, 109, 110, 111, 112, 113, 114, 115, 116, 117, 118, 119, 120, 121, 122, 123, 124, 125, 126, 127, 128, 129, 130, 131, 132, 133, 134, 135, 136, 137, 138, 139, 140, 141, 142, 143, 144, 145, 146, 147, 148, 149, 150, 151, 152, 153, 154, 155, 156, 157, 158, 159, 160, 161, 162, 163, 164, 165, 166, 167, 168, 169, 170, 171, 172, 173, 174, 175, 176, 177, 178, 179, 180, 181, 182, 183, 184, 185, 186, 187, 188, 189, 190, 191, 192, 193, 194, 195, 196, 197, 198, 199, 200, 201, 202, 203, 204, 205, 206, 207, 208, 209, 210, 211, 212, 213, 214, 215, 216, 217, 218, 219, 220, 221, 222, 223, 224, 225, 226, 227, 228, 229, 230, 231, 232, 233, 234, 235, 236, 237, 238, 239, 240, 241],
      "AcquisitionTime": ["163730.145000", "163732.145000", "163734.145000", "163736.145000", "163738.145000", "163740.145000", "163742.145000", "163744.145000", "163746.145000", "163748.145000", "163750.145000", "163752.145000", "163754.145000", "163756.145000", "163758.145000", "163800.145000", "163802.145000", "163804.145000", "163806.145000", "163808.145000", "163810.145000", "163812.145000", "163814.145000", "163816.145000", "163818.145000", "163820.145000", "163822.145000", "163824.145000", "163826.145000", "163828.145000", "163830.145000", "163832.145000", "163834.145000", "163836.145000", "163838.145000", "163840.145000", "163842.145000", "163844.145000", "163846.145000", "163848.145000", "163850.145000", "163852.145000", "163854.145000", "163856.145000", "163858.145000", "163900.145000", "163902.145000", "163904.145000", "163906.145000", "163908.145000", "163910.145000", "163912.145000", "163914.145000", "163916.145000", "163918.145000", "163920.145000", "163922.145000", "163924.145000", "163926.145000", "163928.145000", "163930.145000", "163932.145000", "163934.145000", "163936.145000", "163938.145000", "163940.145000", "163942.145000", "163944.145000", "163946.145000", "163948.145000", "163950.145000", "163952.145000", "163954.145000", "163956.145000", "163958.145000", "164000.145000", "164002.145000", "164004.145000", "164006.145000", "164008.145000", "164010.145000", "164012.145000", "164014.145000", "164016.145000", "164018.145000", "164020.145000", "164022.145000", "164024.145000", "164026.145000", "164028.145000", "164030.145000", "164032.145000", "164034.145000", "164036.145000", "164038.145000", "164040.145000", "164042.145000", "164044.145000", "164046.145000", "164048.145000", "164050.145000", "164052.145000", "164054.145000", "164056.145000", "164058.145000", "164100.145000", "164102.145000", "164104.145000", "164106.145000", "164108.145000", "164110.145000", "164112.145000", "164114.145000", "164116.145000", "164118.145000", "164120.145000", "164122.145000", "164124.145000", "164126.145000", "164128.145000", "164130.145000", "164132.145000", "164134.145000", "164136.145000", "164138.145000", "164140.145000", "164142.145000", "164144.145000", "164146.145000", "164148.145000", "164150.145000", "164152.145000", "164154.145000", "164156.145000", "164158.145000", "164200.145000", "164202.145000", "164204.145000", "164206.145000", "164208.145000", "164210.145000", "164212.145000", "164214.145000", "164216.145000", "164218.145000", "164220.145000", "164222.145000", "164224.145000", "164226.145000", "164228.145000", "164230.145000", "164232.145000", "164234.145000", "164236.145000", "164238.145000", "164240.145000", "164242.145000", "164244.145000", "164246.145000", "164248.145000", "164250.145000", "164252.145000", "164254.145000", "164256.145000", "164258.145000", "164300.145000", "164302.145000", "164304.145000", "164306.145000", "164308.145000", "164310.145000", "164312.145000", "164314.145000", "164316.145000", "164318.145000", "164320.145000", "164322.145000", "164324.145000", "164326.145000", "164328.145000", "164330.145000", "164332.145000", "164334.145000", "164336.145000", "164338.145000", "164340.145000", "164342.145000", "164344.145000", "164346.145000", "164348.145000", "164350.145000", "164352.145000", "164354.145000", "164356.145000", "164358.145000", "164400.145000", "164402.145000", "164404.145000", "164406.145000", "164408.145000", "164410.145000", "164412.145000", "164414.145000", "164416.145000", "164418.145000", "164420.145000", "164422.145000", "164424.145000", "164426.145000", "164428.145000", "164430.145000", "164432.145000", "164434.145000", "164436.145000", "164438.145000", "164440.145000", "164442.145000", "164444.145000", "164446.145000", "164448.145000", "164450.145000", "164452.145000", "164454.145000", "164456.145000", "164458.145000", "164500.145000", "164502.145000", "164504.145000", "164506.145000", "164508.145000", "164510.145000", "164512.145000", "164514.145000", "164516.145000", "164518.145000", "164520.145000", "164522.145000", "164524.145000", "164526.145000", "164528.145000", "164530.145000"],
      "ContentTime": ["163732.652000", "163734.148000", "163736.146000", "163738.146000", "163740.146000", "163742.147000", "163744.146000", "163746.147000", "163748.146000", "163750.148000", "163752.147000", "163754.147000", "163756.147000", "163758.147000", "163800.147000", "163802.147000", "163804.147000", "163806.148000", "163808.148000", "163810.147000", "163812.146000", "163814.146000", "163816.146000", "163818.146000", "163820.146000", "163822.147000", "163824.147000", "163826.148000", "163828.147000", "163830.147000", "163832.147000", "163834.146000", "163836.146000", "163838.146000", "163840.148000", "163842.148000", "163844.148000", "163846.146000", "163848.147000", "163850.146000", "163852.147000", "163854.146000", "163856.146000", "163858.146000", "163900.148000", "163902.147000", "163904.147000", "163906.146000", "163908.146000", "163910.146000", "163912.146000", "163914.147000", "163916.148000", "163918.148000", "163920.146000", "163922.147000", "163924.147000", "163926.146000", "163928.147000", "163930.146000", "163932.146000", "163934.147000", "163936.147000", "163938.147000", "163940.147000", "163942.147000", "163944.147000", "163946.146000", "163948.146000", "163950.147000", "163952.148000", "163954.148000", "163956.146000", "163958.147000", "164000.146000", "164002.146000", "164004.147000", "164006.146000", "164008.146000", "164010.147000", "164012.147000", "164014.146000", "164016.147000", "164018.146000", "164020.146000", "164022.147000", "164024.147000", "164026.148000", "164028.148000", "164030.147000", "164032.147000", "164034.146000", "164036.146000", "164038.146000", "164040.147000", "164042.146000", "164044.147000", "164046.147000", "164048.147000", "164050.146000", "164052.146000", "164054.147000", "164056.146000", "164058.146000", "164100.146000", "164102.148000", "164104.148000", "164106.146000", "164108.146000", "164110.146000", "164112.147000", "164114.146000", "164116.147000", "164118.147000", "164120.148000", "164122.146000", "164124.147000", "164126.146000", "164128.146000", "164130.146000", "164132.146000", "164134.147000", "164136.149000", "164138.147000", "164140.147000", "164142.146000", "164144.146000", "164146.147000", "164148.147000", "164150.146000", "164152.147000", "164154.147000", "164156.147000", "164158.147000", "164200.146000", "164202.146000", "164204.146000", "164206.147000", "164208.147000", "164210.146000", "164212.148000", "164214.147000", "164216.146000", "164218.146000", "164220.146000", "164222.147000", "164224.147000", "164226.146000", "164228.146000", "164230.147000", "164232.147000", "164234.147000", "164236.147000", "164238.146000", "164240.147000", "164242.147000", "164244.147000", "164246.147000", "164248.147000", "164250.147000", "164252.147000", "164254.146000", "164256.147000", "164258.147000", "164300.149000", "164302.156000", "164304.147000", "164306.148000", "164308.147000", "164310.147000", "164312.147000", "164314.146000", "164316.146000", "164318.146000", "164320.146000", "164322.147000", "164324.147000", "164326.147000", "164328.147000", "164330.147000", "164332.146000", "164334.147000", "164336.146000", "164338.147000", "164340.148000", "164342.146000", "164344.146000", "164346.147000", "164348.146000", "164350.146000", "164352.146000", "164354.146000", "164356.147000", "164358.148000", "164400.146000", "164402.146000", "164404.147000", "164406.146000", "164408.146000", "164410.146000", "164412.147000", "164414.148000", "164416.147000", "164418.146000", "164420.146000", "164422.147000", "164424.146000", "164426.147000", "164428.146000", "164430.146000", "164432.148000", "164434.148000", "164436.146000", "164438.146000", "164440.147000", "164442.147000", "164444.146000", "164446.147000", "164448.147000", "164450.148000", "164452.147000", "164454.146000", "164456.147000", "164458.146000", "164500.147000", "164502.146000", "164504.147000", "164506.148000", "164508.147000", "164510.147000", "164512.149000", "164514.147000", "164516.147000", "164518.146000", "164520.146000", "164522.147000", "164524.150000", "164526.147000", "164528.146000", "164530.147000", "164531.726000"],
      "InstanceCreationTime": ["163732.652000", "163734.148000", "163736.146000", "163738.146000", "163740.146000", "163742.147000", "163744.146000", "163746.147000", "163748.146000", "163750.148000", "163752.147000", "163754.147000", "163756.147000", "163758.147000", "163800.147000", "163802.147000", "163804.147000", "163806.148000", "163808.148000", "163810.147000", "163812.146000", "163814.146000", "163816.146000", "163818.146000", "163820.146000", "163822.147000", "163824.147000", "163826.148000", "163828.147000", "163830.147000", "163832.147000", "163834.146000", "163836.146000", "163838.146000", "163840.148000", "163842.148000", "163844.148000", "163846.146000", "163848.147000", "163850.146000", "163852.147000", "163854.146000", "163856.146000", "163858.146000", "163900.148000", "163902.147000", "163904.147000", "163906.146000", "163908.146000", "163910.146000", "163912.146000", "163914.147000", "163916.148000", "163918.148000", "163920.146000", "163922.147000", "163924.147000", "163926.146000", "163928.147000", "163930.146000", "163932.146000", "163934.147000", "163936.147000", "163938.147000", "163940.147000", "163942.147000", "163944.147000", "163946.146000", "163948.146000", "163950.147000", "163952.148000", "163954.148000", "163956.146000", "163958.147000", "164000.146000", "164002.146000", "164004.147000", "164006.146000", "164008.146000", "164010.147000", "164012.147000", "164014.146000", "164016.147000", "164018.146000", "164020.146000", "164022.147000", "164024.147000", "164026.148000", "164028.148000", "164030.147000", "164032.147000", "164034.146000", "164036.146000", "164038.146000", "164040.147000", "164042.146000", "164044.147000", "164046.147000", "164048.147000", "164050.146000", "164052.146000", "164054.147000", "164056.146000", "164058.146000", "164100.146000", "164102.148000", "164104.148000", "164106.146000", "164108.146000", "164110.146000", "164112.147000", "164114.146000", "164116.147000", "164118.147000", "164120.148000", "164122.146000", "164124.147000", "164126.146000", "164128.146000", "164130.146000", "164132.146000", "164134.147000", "164136.149000", "164138.147000", "164140.147000", "164142.146000", "164144.146000", "164146.147000", "164148.147000", "164150.146000", "164152.147000", "164154.147000", "164156.147000", "164158.147000", "164200.146000", "164202.146000", "164204.146000", "164206.147000", "164208.147000", "164210.146000", "164212.148000", "164214.147000", "164216.146000", "164218.146000", "164220.146000", "164222.147000", "164224.147000", "164226.146000", "164228.146000", "164230.147000", "164232.147000", "164234.147000", "164236.147000", "164238.146000", "164240.147000", "164242.147000", "164244.147000", "164246.147000", "164248.147000", "164250.147000", "164252.147000", "164254.146000", "164256.147000", "164258.147000", "164300.149000", "164302.156000", "164304.147000", "164306.148000", "164308.147000", "164310.147000", "164312.147000", "164314.146000", "164316.146000", "164318.146000", "164320.146000", "164322.147000", "164324.147000", "164326.147000", "164328.147000", "164330.147000", "164332.146000", "164334.147000", "164336.146000", "164338.147000", "164340.148000", "164342.146000", "164344.146000", "164346.147000", "164348.146000", "164350.146000", "164352.146000", "164354.146000", "164356.147000", "164358.148000", "164400.146000", "164402.146000", "164404.147000", "164406.146000", "164408.146000", "164410.146000", "164412.147000", "164414.148000", "164416.147000", "164418.146000", "164420.146000", "164422.147000", "164424.146000", "164426.147000", "164428.146000", "164430.146000", "164432.148000", "164434.148000", "164436.146000", "164438.146000", "164440.147000", "164442.147000", "164444.146000", "164446.147000", "164448.147000", "164450.148000", "164452.147000", "164454.146000", "164456.147000", "164458.146000", "164500.147000", "164502.146000", "164504.147000", "164506.148000", "164508.147000", "164510.147000", "164512.149000", "164514.147000", "164516.147000", "164518.146000", "164520.146000", "164522.147000", "164524.150000", "164526.147000", "164528.146000", "164530.147000", "164531.726000"],
      "InstanceNumber": [1, 2, 3, 4, 5, 6, 7, 8, 9, 10, 11, 12, 13, 14, 15, 16, 17, 18, 19, 20, 21, 22, 23, 24, 25, 26, 27, 28, 29, 30, 31, 32, 33, 34, 35, 36, 37, 38, 39, 40, 41, 42, 43, 44, 45, 46, 47, 48, 49, 50, 51, 52, 53, 54, 55, 56, 57, 58, 59, 60, 61, 62, 63, 64, 65, 66, 67, 68, 69, 70, 71, 72, 73, 74, 75, 76, 77, 78, 79, 80, 81, 82, 83, 84, 85, 86, 87, 88, 89, 90, 91, 92, 93, 94, 95, 96, 97, 98, 99, 100, 101, 102, 103, 104, 105, 106, 107, 108, 109, 110, 111, 112, 113, 114, 115, 116, 117, 118, 119, 120, 121, 122, 123, 124, 125, 126, 127, 128, 129, 130, 131, 132, 133, 134, 135, 136, 137, 138, 139, 140, 141, 142, 143, 144, 145, 146, 147, 148, 149, 150, 151, 152, 153, 154, 155, 156, 157, 158, 159, 160, 161, 162, 163, 164, 165, 166, 167, 168, 169, 170, 171, 172, 173, 174, 175, 176, 177, 178, 179, 180, 181, 182, 183, 184, 185, 186, 187, 188, 189, 190, 191, 192, 193, 194, 195, 196, 197, 198, 199, 200, 201, 202, 203, 204, 205, 206, 207, 208, 209, 210, 211, 212, 213, 214, 215, 216, 217, 218, 219, 220, 221, 222, 223, 224, 225, 226, 227, 228, 229, 230, 231, 232, 233, 234, 235, 236, 237, 238, 239, 240, 241],
      "LargestImagePixelValue": [2722, 2755, 2723, 2671, 2686, 2729, 2709, 2761, 2733, 2738, 2704, 2708, 2729, 2744, 2726, 2735, 2690, 2719, 2746, 2763, 2712, 2701, 2700, 2719, 2726, 2732, 2775, 2750, 2711, 2766, 2747, 2780, 2771, 2732, 2721, 2721, 2759, 2744, 2677, 2770, 2753, 2765, 2780, 2753, 2786, 2774, 2792, 2809, 2781, 2752, 2786, 2768, 2834, 2786, 2777, 2781, 2808, 2780, 2827, 2844, 2835, 2825, 2794, 2766, 2870, 2807, 2849, 2770, 2828, 2808, 2845, 2801, 2858, 2844, 2852, 2873, 2887, 2851, 2847, 2864, 2897, 2881, 2905, 2873, 2879, 2860, 2874, 2865, 2920, 2827, 2826, 2736, 2795, 2754, 2777, 2763, 2758, 2794, 2818, 2778, 2758, 2730, 2824, 2781, 2841, 2825, 2843, 2818, 2814, 2837, 2819, 2815, 2776, 2733, 2946, 2767, 2776, 2767, 2768, 2778, 2770, 2742, 2775, 2788, 2842, 2762, 2819, 2761, 2823, 2798, 2786, 2793, 2792, 2742, 2746, 2733, 2740, 2773, 2780, 2745, 2781, 2758, 2748, 2744, 2786, 2714, 2721, 2699, 2726, 2729, 2764, 2740, 2735, 2963, 2727, 2796, 2753, 2755, 2771, 2761, 2722, 2779, 2777, 2772, 2751, 2780, 2744, 2762, 2779, 2762, 2784, 2757, 2782, 2756, 2764, 2760, 2778, 2789, 2779, 2773, 2756, 2764, 2789, 2806, 2793, 2783, 2765, 2750, 2747, 2783, 2784, 2778, 2763, 2757, 2780, 2793, 2786, 2804, 2771, 2758, 2793, 2745, 2785, 2768, 2793, 2789, 2797, 2784, 2798, 2779, 2769, 2769, 2786, 2802, 2802, 2781, 2767, 2796, 2831, 2812, 2771, 2797, 2769, 2780, 2824, 2781, 2785, 2819, 2758, 2801, 2813, 2805, 2847, 2796, 2814, 2802, 2837, 2770, 2759, 2765, 2808],
      "WindowCenter": [733.0, 733.0, 732.0, 731.0, 731.0, 731.0, 732.0, 732.0, 732.0, 733.0, 733.0, 733.0, 733.0, 733.0, 732.0, 732.0, 733.0, 733.0, 733.0, 733.0, 732.0, 731.0, 732.0, 732.0, 733.0, 734.0, 733.0, 732.0, 732.0, 731.0, 731.0, 731.0, 732.0, 733.0, 732.0, 732.0, 732.0, 732.0, 732.0, 733.0, 733.0, 733.0, 733.0, 733.0, 734.0, 736.0, 736.0, 734.0, 733.0, 733.0, 734.0, 734.0, 734.0, 733.0, 734.0, 734.0, 735.0, 734.0, 734.0, 735.0, 735.0, 735.0, 734.0, 734.0, 735.0, 734.0, 733.0, 733.0, 734.0, 735.0, 735.0, 734.0, 734.0, 734.0, 735.0, 735.0, 735.0, 734.0, 734.0, 735.0, 736.0, 736.0, 734.0, 734.0, 734.0, 734.0, 735.0, 735.0, 735.0, 734.0, 735.0, 734.0, 734.0, 733.0, 734.0, 734.0, 733.0, 733.0, 734.0, 734.0, 735.0, 734.0, 733.0, 732.0, 733.0, 733.0, 734.0, 734.0, 733.0, 733.0, 733.0, 733.0, 733.0, 733.0, 735.0, 734.0, 733.0, 733.0, 733.0, 734.0, 735.0, 733.0, 733.0, 733.0, 733.0, 734.0, 735.0, 733.0, 733.0, 733.0, 732.0, 733.0, 734.0, 734.0, 734.0, 734.0, 733.0, 733.0, 732.0, 732.0, 734.0, 734.0, 733.0, 732.0, 732.0, 732.0, 733.0, 733.0, 732.0, 732.0, 733.0, 733.0, 732.0, 734.0, 733.0, 733.0, 732.0, 732.0, 733.0, 734.0, 733.0, 733.0, 733.0, 732.0, 732.0, 733.0, 733.0, 734.0, 734.0, 733.0, 734.0, 734.0, 736.0, 735.0, 733.0, 732.0, 732.0, 733.0, 735.0, 735.0, 734.0, 732.0, 733.0, 733.0, 734.0, 734.0, 734.0, 733.0, 732.0, 733.0, 734.0, 734.0, 732.0, 733.0, 734.0, 733.0, 733.0, 734.0, 734.0, 733.0, 733.0, 732.0, 732.0, 732.0, 733.0, 733.0, 735.0, 735.0, 735.0, 733.0, 733.0, 733.0, 734.0, 734.0, 733.0, 733.0, 733.0, 734.0, 734.0, 733.0, 732.0, 733.0, 733.0, 734.0, 735.0, 735.0, 734.0, 733.0, 733.0, 734.0, 734.0, 734.0, 734.0, 732.0, 732.0, 732.0, 733.0, 733.0, 733.0, 733.0, 733.0],
      "WindowWidth": [1577.0, 1578.0, 1576.0, 1573.0, 1571.0, 1571.0, 1574.0, 1576.0, 1576.0, 1576.0, 1577.0, 1577.0, 1578.0, 1577.0, 1575.0, 1575.0, 1577.0, 1577.0, 1577.0, 1576.0, 1574.0, 1573.0, 1574.0, 1575.0, 1578.0, 1580.0, 1577.0, 1574.0, 1574.0, 1573.0, 1573.0, 1573.0, 1574.0, 1576.0, 1576.0, 1575.0, 1575.0, 1574.0, 1575.0, 1579.0, 1578.0, 1578.0, 1577.0, 1577.0, 1581.0, 1587.0, 1586.0, 1581.0, 1577.0, 1578.0, 1579.0, 1580.0, 1581.0, 1579.0, 1579.0, 1580.0, 1582.0, 1580.0, 1580.0, 1582.0, 1583.0, 1581.0, 1579.0, 1579.0, 1583.0, 1580.0, 1578.0, 1577.0, 1581.0, 1583.0, 1583.0, 1580.0, 1580.0, 1579.0, 1582.0, 1584.0, 1583.0, 1581.0, 1580.0, 1583.0, 1585.0, 1584.0, 1581.0, 1579.0, 1579.0, 1580.0, 1582.0, 1582.0, 1581.0, 1581.0, 1583.0, 1581.0, 1580.0, 1578.0, 1580.0, 1581.0, 1579.0, 1578.0, 1580.0, 1581.0, 1583.0, 1581.0, 1579.0, 1576.0, 1576.0, 1578.0, 1581.0, 1579.0, 1578.0, 1577.0, 1578.0, 1577.0, 1578.0, 1577.0, 1583.0, 1580.0, 1579.0, 1578.0, 1577.0, 1580.0, 1583.0, 1579.0, 1577.0, 1577.0, 1579.0, 1581.0, 1582.0, 1579.0, 1578.0, 1577.0, 1576.0, 1578.0, 1580.0, 1580.0, 1580.0, 1579.0, 1579.0, 1578.0, 1576.0, 1576.0, 1580.0, 1580.0, 1577.0, 1574.0, 1575.0, 1576.0, 1578.0, 1577.0, 1575.0, 1575.0, 1577.0, 1578.0, 1576.0, 1581.0, 1577.0, 1579.0, 1576.0, 1576.0, 1577.0, 1580.0, 1577.0, 1578.0, 1577.0, 1576.0, 1576.0, 1578.0, 1578.0, 1579.0, 1580.0, 1577.0, 1579.0, 1582.0, 1585.0, 1583.0, 1578.0, 1574.0, 1576.0, 1578.0, 1583.0, 1584.0, 1580.0, 1576.0, 1576.0, 1577.0, 1580.0, 1581.0, 1580.0, 1576.0, 1575.0, 1578.0, 1581.0, 1579.0, 1576.0, 1577.0, 1580.0, 1579.0, 1577.0, 1579.0, 1579.0, 1578.0, 1578.0, 1575.0, 1576.0, 1576.0, 1578.0, 1579.0, 1582.0, 1584.0, 1582.0, 1577.0, 1577.0, 1578.0, 1581.0, 1580.0, 1579.0, 1578.0, 1579.0, 1580.0, 1580.0, 1578.0, 1576.0, 1579.0, 1579.0, 1581.0, 1584.0, 1582.0, 1579.0, 1578.0, 1577.0, 1580.0, 1581.0, 1580.0, 1579.0, 1575.0, 1574.0, 1576.0, 1578.0, 1578.0, 1576.0, 1577.0, 1578.0]
    },
    "slices": {}
  }
}