{
 "AcquisitionMatrixPE": 100,
 "AcquisitionNumber": 1,
 "AcquisitionTime": "15:48:9.035000",
 "BandwidthPerPixelPhaseEncode": 18.519,
 "BaseResolution": 100,
 "BodyPartExamined": "BRAIN",
 "ConsistencyInfo": "N4_VE11C_LATEST_20160120",
 "ConversionSoftware": "dcm2niix",
 "ConversionSoftwareVersion": "v1.0.20180622 GCC4.9.2",
 "DerivedVendorReportedEchoSpacing": 0.000539986,
 "DeviceSerialNumber": "166078",
 "DwellTime": 2.1e-06,
 "EchoTime": 0.034,
 "EchoTrainLength": 100,
 "EffectiveEchoSpacing": 0.000539986,
 "FlipAngle": 90,
 "ImageOrientationPatientDICOM": [
  0.999627,
  0.0233493,
  -0.0141742,
  -0.0244304,
  0.996364,
  -0.0816166
 ],
 "ImageType": [
  "ORIGINAL",
  "PRIMARY",
  "M",
  "ND",
  "MOSAIC"
 ],
 "InPlanePhaseEncodingDirectionDICOM": "COL",
 "InstitutionAddress": "Street_StreetNo_Bei_Jing_District_CN_ZIP",
 "InstitutionName": "BeiJing_Normal_University",
 "InstitutionalDepartmentName": "Department",
 "MRAcquisitionType": "2D",
 "MagneticFieldStrength": 3,
 "Manufacturer": "Siemens",
 "ManufacturersModelName": "Prisma",
 "Modality": "MR",
 "MultibandAccelerationFactor": 3,
 "PartialFourier": 1,
 "PatientPosition": "HFS",
 "PercentPhaseFOV": 100,
 "PhaseEncodingDirection": "j-",
 "PhaseEncodingSteps": 100,
 "PhaseResolution": 1,
 "PixelBandwidth": 2380,
 "ProcedureStepDescription": "BNU_P2018_64CH_Zhen.ZongLei",
 "ProtocolName": "bold_100x100_s3_2x2x2_static_test_241",
 "PulseSequenceDetails": "%SiemensSeq%_ep2d_bold",
 "ReceiveCoilActiveElements": "HC1-7;NC1",
 "ReceiveCoilName": "HeadNeck_64",
 "ReconMatrixPE": 100,
 "RepetitionTime": 2,
 "SAR": 0.0747144,
 "ScanOptions": "FS",
 "ScanningSequence": "EP",
 "SequenceName": "_epfid2d1_100",
 "SequenceVariant": "SK",
 "SeriesDescription": "bold_100x100_s3_2x2x2_static_test_241",
 "SeriesNumber": 8,
 "ShimSetting": [
  -5468,
  -11530,
  -1293,
  550,
  34,
  -223,
  -130,
  6
 ],
 "SliceThickness": 2,
 "SliceTiming": [
  1.485,
  0,
  0.99,
  0.0825,
  1.0725,
  0.165,
  1.155,
  0.2475,
  1.2375,
  0.33,
  1.32,
  0.4125,
  1.4025,
  0.5775,
  1.5675,
  0.66,
  1.65,
  0.7425,
  1.7325,
  0.825,
  1.815,
  0.9075,
  1.8975,
  0.495,
  1.485,
  0,
  0.99,
  0.0825,
  1.0725,
  0.165,
  1.155,
  0.2475,
  1.2375,
  0.33,
  1.32,
  0.4125,
  1.4025,
  0.5775,
  1.5675,
  0.66,
  1.65,
  0.7425,
  1.7325,
  0.825,
  1.815,
  0.9075,
  1.8975,
  0.495,
  1.485,
  0,
  0.99,
  0.0825,
  1.0725,
  0.165,
  1.155,
  0.2475,
  1.2375,
  0.33,
  1.32,
  0.4125,
  1.4025,
  0.5775,
  1.5675,
  0.66,
  1.65,
  0.7425,
  1.7325,
  0.825,
  1.815,
  0.9075,
  1.8975,
  0.495
 ],
 "SoftwareVersions": "syngo_MR_E11",
 "SpacingBetweenSlices": 2,
 "StationName": "AWP166078",
 "TaskName": "coco",
 "TotalReadoutTime": 0.0534586,
 "TxRefAmp": 212.813,
 "dcmmeta_affine": [
  [
   -1.999253749847412,
   -0.048860739916563034,
   -0.02443399652838707,
   104.57366943359375
  ],
  [
   -0.046698588877916336,
   1.9927287101745605,
   -0.16386477649211884,
   -85.66024780273438
  ],
  [
   -0.028348440304398537,
   0.16323313117027283,
   1.9931260347366333,
   -70.2044448852539
  ],
  [
   0.0,
   0.0,
   0.0,
   1.0
  ]
 ],
 "dcmmeta_reorient_transform": [
  [
   0.0,
   -1.0,
   0.0,
   99.0
  ],
  [
   1.0,
   0.0,
   0.0,
   0.0
  ],
  [
   0.0,
   0.0,
   1.0,
   0.0
  ],
  [
   0.0,
   0.0,
   0.0,
   1.0
  ]
 ],
 "dcmmeta_shape": [
  100,
  100,
  72,
  241
 ],
 "dcmmeta_slice_dim": 2,
 "dcmmeta_version": 0.6,
 "global": {
  "const": {
   "AcquisitionMatrix": [
    100,
    0,
    0,
    100
   ],
   "AngioFlag": "N",
   "BitsAllocated": 16,
   "BitsStored": 12,
   "BodyPartExamined": "BRAIN",
   "Columns": 900,
   "EchoNumbers": 1,
   "EchoTime": 34.0,
   "EchoTrainLength": 100,
   "FlipAngle": 90.0,
   "HighBit": 11,
   "ImageOrientationPatient": [
    0.99962688136753,
    0.02334929400859,
    -0.014174220145,
    -0.0244303704077,
    0.9963643378911,
    -0.0816165619257
   ],
   "ImagePositionPatient": [
    -879.89366460666,
    -927.39079394776,
    22.588260260099
   ],
   "ImageType": [
    "ORIGINAL",
    "PRIMARY",
    "M",
    "ND",
    "MOSAIC"
   ],
   "ImagedNucleus": "1H",
   "ImagingFrequency": 123.257774,
   "InPlanePhaseEncodingDirection": "COL",
   "MRAcquisitionType": "2D",
   "MagneticFieldStrength": 3.0,
   "Manufacturer": "SIEMENS",
   "ManufacturerModelName": "Prisma",
   "Modality": "MR",
   "NumberOfAverages": 1.0,
   "NumberOfPhaseEncodingSteps": 100,
   "PercentPhaseFieldOfView": 100.0,
   "PercentSampling": 100.0,
   "PerformedProcedureStepStartTime": "150708.363000",
   "PhotometricInterpretation": "MONOCHROME2",
   "PixelBandwidth": 2380.0,
   "PixelRepresentation": 0,
   "PixelSpacing": [
    2.0,
    2.0
   ],
   "ProtocolName": "bold_100x100_s3_2x2x2_static_test_241",
   "RepetitionTime": 2000.0,
   "Rows": 900,
   "SAR": 0.07471435862482,
   "SamplesPerPixel": 1,
   "ScanOptions": "FS",
   "ScanningSequence": "EP",
   "SequenceName": "*epfid2d1_100",
   "SequenceVariant": "SK",
   "SeriesDescription": "bold_100x100_s3_2x2x2_static_test_241",
   "SeriesNumber": 8,
   "SeriesTime": "154811.829000",
   "SliceLocation": -64.222379756871,
   "SliceThickness": 2.0,
   "SmallestImagePixelValue": 0,
   "SoftwareVersions": "syngo MR E11",
   "SpacingBetweenSlices": 2.0000000081223,
   "SpecificCharacterSet": "ISO_IR 100",
   "StudyID": "1",
   "StudyTime": "150708.281000",
   "TransmitCoilName": "Body",
   "VariableFlipAngleFlag": "N",
   "WindowCenterWidthExplanation": "Algo1",
   "dBdt": 0.0
  },
  "slices": {}
 },
 "time": {
  "samples": {
   "AcquisitionNumber": [
    1,
    2,
    3,
    4,
    5,
    6,
    7,
    8,
    9,
    10,
    11,
    12,
    13,
    14,
    15,
    16,
    17,
    18,
    19,
    20,
    21,
    22,
    23,
    24,
    25,
    26,
    27,
    28,
    29,
    30,
    31,
    32,
    33,
    34,
    35,
    36,
    37,
    38,
    39,
    40,
    41,
    42,
    43,
    44,
    45,
    46,
    47,
    48,
    49,
    50,
    51,
    52,
    53,
    54,
    55,
    56,
    57,
    58,
    59,
    60,
    61,
    62,
    63,
    64,
    65,
    66,
    67,
    68,
    69,
    70,
    71,
    72,
    73,
    74,
    75,
    76,
    77,
    78,
    79,
    80,
    81,
    82,
    83,
    84,
    85,
    86,
    87,
    88,
    89,
    90,
    91,
    92,
    93,
    94,
    95,
    96,
    97,
    98,
    99,
    100,
    101,
    102,
    103,
    104,
    105,
    106,
    107,
    108,
    109,
    110,
    111,
    112,
    113,
    114,
    115,
    116,
    117,
    118,
    119,
    120,
    121,
    122,
    123,
    124,
    125,
    126,
    127,
    128,
    129,
    130,
    131,
    132,
    133,
    134,
    135,
    136,
    137,
    138,
    139,
    140,
    141,
    142,
    143,
    144,
    145,
    146,
    147,
    148,
    149,
    150,
    151,
    152,
    153,
    154,
    155,
    156,
    157,
    158,
    159,
    160,
    161,
    162,
    163,
    164,
    165,
    166,
    167,
    168,
    169,
    170,
    171,
    172,
    173,
    174,
    175,
    176,
    177,
    178,
    179,
    180,
    181,
    182,
    183,
    184,
    185,
    186,
    187,
    188,
    189,
    190,
    191,
    192,
    193,
    194,
    195,
    196,
    197,
    198,
    199,
    200,
    201,
    202,
    203,
    204,
    205,
    206,
    207,
    208,
    209,
    210,
    211,
    212,
    213,
    214,
    215,
    216,
    217,
    218,
    219,
    220,
    221,
    222,
    223,
    224,
    225,
    226,
    227,
    228,
    229,
    230,
    231,
    232,
    233,
    234,
    235,
    236,
    237,
    238,
    239,
    240,
    241
   ],
   "AcquisitionTime": [
    "154809.035000",
    "154811.035000",
    "154813.035000",
    "154815.035000",
    "154817.035000",
    "154819.035000",
    "154821.035000",
    "154823.035000",
    "154825.035000",
    "154827.035000",
    "154829.035000",
    "154831.035000",
    "154833.035000",
    "154835.035000",
    "154837.035000",
    "154839.035000",
    "154841.035000",
    "154843.035000",
    "154845.035000",
    "154847.035000",
    "154849.035000",
    "154851.035000",
    "154853.035000",
    "154855.035000",
    "154857.035000",
    "154859.035000",
    "154901.035000",
    "154903.035000",
    "154905.035000",
    "154907.035000",
    "154909.035000",
    "154911.035000",
    "154913.035000",
    "154915.035000",
    "154917.035000",
    "154919.035000",
    "154921.035000",
    "154923.035000",
    "154925.035000",
    "154927.035000",
    "154929.035000",
    "154931.035000",
    "154933.035000",
    "154935.035000",
    "154937.035000",
    "154939.035000",
    "154941.035000",
    "154943.035000",
    "154945.035000",
    "154947.035000",
    "154949.035000",
    "154951.035000",
    "154953.035000",
    "154955.035000",
    "154957.035000",
    "154959.035000",
    "155001.035000",
    "155003.035000",
    "155005.035000",
    "155007.035000",
    "155009.035000",
    "155011.035000",
    "155013.035000",
    "155015.035000",
    "155017.035000",
    "155019.035000",
    "155021.035000",
    "155023.035000",
    "155025.035000",
    "155027.035000",
    "155029.035000",
    "155031.035000",
    "155033.035000",
    "155035.035000",
    "155037.035000",
    "155039.035000",
    "155041.035000",
    "155043.035000",
    "155045.035000",
    "155047.035000",
    "155049.035000",
    "155051.035000",
    "155053.035000",
    "155055.035000",
    "155057.035000",
    "155059.035000",
    "155101.035000",
    "155103.035000",
    "155105.035000",
    "155107.035000",
    "155109.035000",
    "155111.035000",
    "155113.035000",
    "155115.035000",
    "155117.035000",
    "155119.035000",
    "155121.035000",
    "155123.035000",
    "155125.035000",
    "155127.035000",
    "155129.035000",
    "155131.035000",
    "155133.035000",
    "155135.035000",
    "155137.035000",
    "155139.035000",
    "155141.035000",
    "155143.035000",
    "155145.035000",
    "155147.035000",
    "155149.035000",
    "155151.035000",
    "155153.035000",
    "155155.035000",
    "155157.035000",
    "155159.035000",
    "155201.035000",
    "155203.035000",
    "155205.035000",
    "155207.035000",
    "155209.035000",
    "155211.035000",
    "155213.035000",
    "155215.035000",
    "155217.035000",
    "155219.035000",
    "155221.035000",
    "155223.035000",
    "155225.035000",
    "155227.035000",
    "155229.035000",
    "155231.035000",
    "155233.035000",
    "155235.035000",
    "155237.035000",
    "155239.035000",
    "155241.035000",
    "155243.035000",
    "155245.035000",
    "155247.035000",
    "155249.035000",
    "155251.035000",
    "155253.035000",
    "155255.035000",
    "155257.035000",
    "155259.035000",
    "155301.035000",
    "155303.035000",
    "155305.035000",
    "155307.035000",
    "155309.035000",
    "155311.035000",
    "155313.035000",
    "155315.035000",
    "155317.035000",
    "155319.035000",
    "155321.035000",
    "155323.035000",
    "155325.035000",
    "155327.035000",
    "155329.035000",
    "155331.035000",
    "155333.035000",
    "155335.035000",
    "155337.035000",
    "155339.035000",
    "155341.035000",
    "155343.035000",
    "155345.035000",
    "155347.035000",
    "155349.035000",
    "155351.035000",
    "155353.035000",
    "155355.035000",
    "155357.035000",
    "155359.035000",
    "155401.035000",
    "155403.035000",
    "155405.035000",
    "155407.035000",
    "155409.035000",
    "155411.035000",
    "155413.035000",
    "155415.035000",
    "155417.035000",
    "155419.035000",
    "155421.035000",
    "155423.035000",
    "155425.035000",
    "155427.035000",
    "155429.035000",
    "155431.035000",
    "155433.035000",
    "155435.035000",
    "155437.035000",
    "155439.035000",
    "155441.035000",
    "155443.035000",
    "155445.035000",
    "155447.035000",
    "155449.035000",
    "155451.035000",
    "155453.035000",
    "155455.035000",
    "155457.035000",
    "155459.035000",
    "155501.035000",
    "155503.035000",
    "155505.035000",
    "155507.035000",
    "155509.035000",
    "155511.035000",
    "155513.035000",
    "155515.035000",
    "155517.035000",
    "155519.035000",
    "155521.035000",
    "155523.035000",
    "155525.035000",
    "155527.035000",
    "155529.035000",
    "155531.035000",
    "155533.035000",
    "155535.035000",
    "155537.035000",
    "155539.035000",
    "155541.035000",
    "155543.035000",
    "155545.035000",
    "155547.035000",
    "155549.035000",
    "155551.035000",
    "155553.035000",
    "155555.035000",
    "155557.035000",
    "155559.035000",
    "155601.035000",
    "155603.035000",
    "155605.035000",
    "155607.035000",
    "155609.035000"
   ],
   "ContentTime": [
    "154811.833000",
    "154813.328000",
    "154814.828000",
    "154817.329000",
    "154819.329000",
    "154820.828000",
    "154823.328000",
    "154824.828000",
    "154827.329000",
    "154829.329000",
    "154831.328000",
    "154833.328000",
    "154835.329000",
    "154837.329000",
    "154839.328000",
    "154841.328000",
    "154843.329000",
    "154845.328000",
    "154847.329000",
    "154848.828000",
    "154850.828000",
    "154853.329000",
    "154854.828000",
    "154857.328000",
    "154859.329000",
    "154901.329000",
    "154902.828000",
    "154905.328000",
    "154907.329000",
    "154908.828000",
    "154911.328000",
    "154913.328000",
    "154915.329000",
    "154917.329000",
    "154919.328000",
    "154921.329000",
    "154923.329000",
    "154924.828000",
    "154927.329000",
    "154929.328000",
    "154931.329000",
    "154932.828000",
    "154935.329000",
    "154937.328000",
    "154939.329000",
    "154941.329000",
    "154943.328000",
    "154945.328000",
    "154947.328000",
    "154949.329000",
    "154950.849000",
    "154952.829000",
    "154955.329000",
    "154957.328000",
    "154959.328000",
    "155000.827000",
    "155003.328000",
    "155005.328000",
    "155007.328000",
    "155009.329000",
    "155011.329000",
    "155013.329000",
    "155015.328000",
    "155017.329000",
    "155019.328000",
    "155021.329000",
    "155023.328000",
    "155025.328000",
    "155027.329000",
    "155029.328000",
    "155031.329000",
    "155032.829000",
    "155034.828000",
    "155037.328000",
    "155039.328000",
    "155041.329000",
    "155043.329000",
    "155045.328000",
    "155047.328000",
    "155049.329000",
    "155051.328000",
    "155052.829000",
    "155055.329000",
    "155057.328000",
    "155059.328000",
    "155101.328000",
    "155102.828000",
    "155105.328000",
    "155107.329000",
    "155109.329000",
    "155111.329000",
    "155113.329000",
    "155115.328000",
    "155117.328000",
    "155119.328000",
    "155121.329000",
    "155123.329000",
    "155124.829000",
    "155127.329000",
    "155129.329000",
    "155131.329000",
    "155133.328000",
    "155135.329000",
    "155137.329000",
    "155139.328000",
    "155141.329000",
    "155143.329000",
    "155145.329000",
    "155147.329000",
    "155149.328000",
    "155151.329000",
    "155153.328000",
    "155155.328000",
    "155157.328000",
    "155159.328000",
    "155201.329000",
    "155203.328000",
    "155205.328000",
    "155207.329000",
    "155209.329000",
    "155211.328000",
    "155213.328000",
    "155215.329000",
    "155217.328000",
    "155219.329000",
    "155221.328000",
    "155223.329000",
    "155225.329000",
    "155227.328000",
    "155229.328000",
    "155231.329000",
    "155233.329000",
    "155235.339000",
    "155237.329000",
    "155239.328000",
    "155241.329000",
    "155243.329000",
    "155245.329000",
    "155247.329000",
    "155249.328000",
    "155251.329000",
    "155253.329000",
    "155255.329000",
    "155257.329000",
    "155259.328000",
    "155301.328000",
    "155303.329000",
    "155305.328000",
    "155307.329000",
    "155308.829000",
    "155311.328000",
    "155313.328000",
    "155315.328000",
    "155317.328000",
    "155318.828000",
    "155321.329000",
    "155323.329000",
    "155325.329000",
    "155327.328000",
    "155329.328000",
    "155330.828000",
    "155333.329000",
    "155334.828000",
    "155337.328000",
    "155339.328000",
    "155341.329000",
    "155343.329000",
    "155344.828000",
    "155347.329000",
    "155349.329000",
    "155350.828000",
    "155353.329000",
    "155355.328000",
    "155357.329000",
    "155359.329000",
    "155401.329000",
    "155403.329000",
    "155404.829000",
    "155407.329000",
    "155409.329000",
    "155411.328000",
    "155413.328000",
    "155415.328000",
    "155417.329000",
    "155419.328000",
    "155421.328000",
    "155423.328000",
    "155425.329000",
    "155427.329000",
    "155429.329000",
    "155431.328000",
    "155433.329000",
    "155435.329000",
    "155437.329000",
    "155439.329000",
    "155440.827000",
    "155443.329000",
    "155445.329000",
    "155447.329000",
    "155449.329000",
    "155451.328000",
    "155453.329000",
    "155455.328000",
    "155457.329000",
    "155459.328000",
    "155501.329000",
    "155503.329000",
    "155505.329000",
    "155507.329000",
    "155509.329000",
    "155511.328000",
    "155513.329000",
    "155515.328000",
    "155517.328000",
    "155519.329000",
    "155521.329000",
    "155523.329000",
    "155525.329000",
    "155527.328000",
    "155529.329000",
    "155531.329000",
    "155533.328000",
    "155535.329000",
    "155537.329000",
    "155539.329000",
    "155540.828000",
    "155543.329000",
    "155545.330000",
    "155547.330000",
    "155549.330000",
    "155551.329000",
    "155553.329000",
    "155554.829000",
    "155556.829000",
    "155558.829000",
    "155600.828000",
    "155603.329000",
    "155605.328000",
    "155607.329000",
    "155608.829000",
    "155611.038000"
   ],
   "InstanceCreationTime": [
    "154811.833000",
    "154813.328000",
    "154814.828000",
    "154817.329000",
    "154819.329000",
    "154820.828000",
    "154823.328000",
    "154824.828000",
    "154827.329000",
    "154829.329000",
    "154831.328000",
    "154833.328000",
    "154835.329000",
    "154837.329000",
    "154839.328000",
    "154841.328000",
    "154843.329000",
    "154845.328000",
    "154847.329000",
    "154848.828000",
    "154850.828000",
    "154853.329000",
    "154854.828000",
    "154857.328000",
    "154859.329000",
    "154901.329000",
    "154902.828000",
    "154905.328000",
    "154907.329000",
    "154908.828000",
    "154911.328000",
    "154913.328000",
    "154915.329000",
    "154917.329000",
    "154919.328000",
    "154921.329000",
    "154923.329000",
    "154924.828000",
    "154927.329000",
    "154929.328000",
    "154931.329000",
    "154932.828000",
    "154935.329000",
    "154937.328000",
    "154939.329000",
    "154941.329000",
    "154943.328000",
    "154945.328000",
    "154947.328000",
    "154949.329000",
    "154950.849000",
    "154952.829000",
    "154955.329000",
    "154957.328000",
    "154959.328000",
    "155000.827000",
    "155003.328000",
    "155005.328000",
    "155007.328000",
    "155009.329000",
    "155011.329000",
    "155013.329000",
    "155015.328000",
    "155017.329000",
    "155019.328000",
    "155021.329000",
    "155023.328000",
    "155025.328000",
    "155027.329000",
    "155029.328000",
    "155031.329000",
    "155032.829000",
    "155034.828000",
    "155037.328000",
    "155039.328000",
    "155041.329000",
    "155043.329000",
    "155045.328000",
    "155047.328000",
    "155049.329000",
    "155051.328000",
    "155052.829000",
    "155055.329000",
    "155057.328000",
    "155059.328000",
    "155101.328000",
    "155102.828000",
    "155105.328000",
    "155107.329000",
    "155109.329000",
    "155111.329000",
    "155113.329000",
    "155115.328000",
    "155117.328000",
    "155119.328000",
    "155121.329000",
    "155123.329000",
    "155124.829000",
    "155127.329000",
    "155129.329000",
    "155131.329000",
    "155133.328000",
    "155135.329000",
    "155137.329000",
    "155139.328000",
    "155141.329000",
    "155143.329000",
    "155145.329000",
    "155147.329000",
    "155149.328000",
    "155151.329000",
    "155153.328000",
    "155155.328000",
    "155157.328000",
    "155159.328000",
    "155201.329000",
    "155203.328000",
    "155205.328000",
    "155207.329000",
    "155209.329000",
    "155211.328000",
    "155213.328000",
    "155215.329000",
    "155217.328000",
    "155219.329000",
    "155221.328000",
    "155223.329000",
    "155225.329000",
    "155227.328000",
    "155229.328000",
    "155231.329000",
    "155233.329000",
    "155235.339000",
    "155237.329000",
    "155239.328000",
    "155241.329000",
    "155243.329000",
    "155245.329000",
    "155247.329000",
    "155249.328000",
    "155251.329000",
    "155253.329000",
    "155255.329000",
    "155257.329000",
    "155259.328000",
    "155301.328000",
    "155303.329000",
    "155305.328000",
    "155307.329000",
    "155308.829000",
    "155311.328000",
    "155313.328000",
    "155315.328000",
    "155317.328000",
    "155318.828000",
    "155321.329000",
    "155323.329000",
    "155325.329000",
    "155327.328000",
    "155329.328000",
    "155330.828000",
    "155333.329000",
    "155334.828000",
    "155337.328000",
    "155339.328000",
    "155341.329000",
    "155343.329000",
    "155344.828000",
    "155347.329000",
    "155349.329000",
    "155350.828000",
    "155353.329000",
    "155355.328000",
    "155357.329000",
    "155359.329000",
    "155401.329000",
    "155403.329000",
    "155404.829000",
    "155407.329000",
    "155409.329000",
    "155411.328000",
    "155413.328000",
    "155415.328000",
    "155417.329000",
    "155419.328000",
    "155421.328000",
    "155423.328000",
    "155425.329000",
    "155427.329000",
    "155429.329000",
    "155431.328000",
    "155433.329000",
    "155435.329000",
    "155437.329000",
    "155439.329000",
    "155440.827000",
    "155443.329000",
    "155445.329000",
    "155447.329000",
    "155449.329000",
    "155451.328000",
    "155453.329000",
    "155455.328000",
    "155457.329000",
    "155459.328000",
    "155501.329000",
    "155503.329000",
    "155505.329000",
    "155507.329000",
    "155509.329000",
    "155511.328000",
    "155513.329000",
    "155515.328000",
    "155517.328000",
    "155519.329000",
    "155521.329000",
    "155523.329000",
    "155525.329000",
    "155527.328000",
    "155529.329000",
    "155531.329000",
    "155533.328000",
    "155535.329000",
    "155537.329000",
    "155539.329000",
    "155540.828000",
    "155543.329000",
    "155545.330000",
    "155547.330000",
    "155549.330000",
    "155551.329000",
    "155553.329000",
    "155554.829000",
    "155556.829000",
    "155558.829000",
    "155600.828000",
    "155603.329000",
    "155605.328000",
    "155607.329000",
    "155608.829000",
    "155611.038000"
   ],
   "InstanceNumber": [
    1,
    2,
    3,
    4,
    5,
    6,
    7,
    8,
    9,
    10,
    11,
    12,
    13,
    14,
    15,
    16,
    17,
    18,
    19,
    20,
    21,
    22,
    23,
    24,
    25,
    26,
    27,
    28,
    29,
    30,
    31,
    32,
    33,
    34,
    35,
    36,
    37,
    38,
    39,
    40,
    41,
    42,
    43,
    44,
    45,
    46,
    47,
    48,
    49,
    50,
    51,
    52,
    53,
    54,
    55,
    56,
    57,
    58,
    59,
    60,
    61,
    62,
    63,
    64,
    65,
    66,
    67,
    68,
    69,
    70,
    71,
    72,
    73,
    74,
    75,
    76,
    77,
    78,
    79,
    80,
    81,
    82,
    83,
    84,
    85,
    86,
    87,
    88,
    89,
    90,
    91,
    92,
    93,
    94,
    95,
    96,
    97,
    98,
    99,
    100,
    101,
    102,
    103,
    104,
    105,
    106,
    107,
    108,
    109,
    110,
    111,
    112,
    113,
    114,
    115,
    116,
    117,
    118,
    119,
    120,
    121,
    122,
    123,
    124,
    125,
    126,
    127,
    128,
    129,
    130,
    131,
    132,
    133,
    134,
    135,
    136,
    137,
    138,
    139,
    140,
    141,
    142,
    143,
    144,
    145,
    146,
    147,
    148,
    149,
    150,
    151,
    152,
    153,
    154,
    155,
    156,
    157,
    158,
    159,
    160,
    161,
    162,
    163,
    164,
    165,
    166,
    167,
    168,
    169,
    170,
    171,
    172,
    173,
    174,
    175,
    176,
    177,
    178,
    179,
    180,
    181,
    182,
    183,
    184,
    185,
    186,
    187,
    188,
    189,
    190,
    191,
    192,
    193,
    194,
    195,
    196,
    197,
    198,
    199,
    200,
    201,
    202,
    203,
    204,
    205,
    206,
    207,
    208,
    209,
    210,
    211,
    212,
    213,
    214,
    215,
    216,
    217,
    218,
    219,
    220,
    221,
    222,
    223,
    224,
    225,
    226,
    227,
    228,
    229,
    230,
    231,
    232,
    233,
    234,
    235,
    236,
    237,
    238,
    239,
    240,
    241
   ],
   "LargestImagePixelValue": [
    2791,
    2753,
    2788,
    2789,
    2772,
    2813,
    2792,
    2777,
    2787,
    2804,
    2768,
    2785,
    2773,
    2776,
    2749,
    2772,
    2788,
    2793,
    2764,
    2782,
    2785,
    2774,
    2802,
    2808,
    2747,
    2764,
    2772,
    2788,
    2752,
    2762,
    2759,
    2773,
    2810,
    2754,
    2742,
    2780,
    2763,
    2800,
    2788,
    2792,
    2810,
    2816,
    2801,
    2801,
    2791,
    2783,
    2769,
    2791,
    2735,
    2782,
    2812,
    2811,
    2769,
    2784,
    2791,
    2782,
    2796,
    2801,
    2776,
    2818,
    2814,
    2784,
    2750,
    2778,
    2817,
    2799,
    2797,
    2791,
    2818,
    2796,
    2858,
    2789,
    2791,
    2798,
    2799,
    2818,
    2803,
    2799,
    2808,
    2815,
    2803,
    2853,
    2841,
    2847,
    2859,
    2872,
    2881,
    2864,
    2889,
    2839,
    2806,
    2846,
    2835,
    2816,
    2800,
    2790,
    2807,
    2801,
    2788,
    2842,
    2848,
    2869,
    2822,
    2795,
    2856,
    2801,
    2804,
    2822,
    2851,
    2792,
    2815,
    2848,
    2817,
    2800,
    2814,
    2837,
    2870,
    2813,
    2790,
    2783,
    2775,
    2795,
    2855,
    2794,
    2821,
    2788,
    2823,
    2862,
    2801,
    2799,
    2820,
    2834,
    2817,
    2804,
    2785,
    2761,
    2821,
    2775,
    2786,
    2851,
    2822,
    2850,
    2808,
    2822,
    2824,
    2815,
    2795,
    2806,
    2770,
    2763,
    2761,
    2744,
    2756,
    2781,
    2744,
    2766,
    2743,
    2782,
    2746,
    2765,
    2738,
    2727,
    2750,
    2737,
    2754,
    2760,
    2753,
    2780,
    2748,
    2775,
    2777,
    2729,
    2756,
    2734,
    2743,
    2734,
    2750,
    2789,
    2755,
    2754,
    2742,
    2735,
    2759,
    2748,
    2777,
    2759,
    2763,
    2772,
    2762,
    2758,
    2795,
    2760,
    2755,
    2748,
    2739,
    2740,
    2750,
    2758,
    2773,
    2772,
    2742,
    2777,
    2742,
    2787,
    2761,
    2780,
    2745,
    2755,
    2766,
    2741,
    2771,
    2739,
    2725,
    2765,
    2758,
    2757,
    2762,
    2774,
    2733,
    2767,
    2746,
    2771,
    2761,
    2754,
    2749,
    2755,
    2759,
    2769,
    2779,
    2764,
    2758,
    2758,
    2723,
    2809,
    2748,
    2760,
    2738,
    2754,
    2732,
    2746,
    2759
   ],
   "WindowCenter": [
    734.0,
    733.0,
    734.0,
    733.0,
    733.0,
    733.0,
    732.0,
    733.0,
    732.0,
    733.0,
    734.0,
    734.0,
    733.0,
    734.0,
    733.0,
    734.0,
    733.0,
    734.0,
    735.0,
    734.0,
    733.0,
    732.0,
    731.0,
    732.0,
    732.0,
    733.0,
    734.0,
    734.0,
    734.0,
    734.0,
    733.0,
    733.0,
    734.0,
    733.0,
    734.0,
    734.0,
    733.0,
    734.0,
    734.0,
    734.0,
    735.0,
    734.0,
    734.0,
    734.0,
    735.0,
    735.0,
    735.0,
    735.0,
    733.0,
    733.0,
    734.0,
    735.0,
    734.0,
    734.0,
    734.0,
    733.0,
    733.0,
    734.0,
    733.0,
    734.0,
    735.0,
    734.0,
    734.0,
    734.0,
    734.0,
    734.0,
    734.0,
    734.0,
    734.0,
    735.0,
    734.0,
    735.0,
    736.0,
    735.0,
    735.0,
    734.0,
    733.0,
    734.0,
    735.0,
    735.0,
    735.0,
    735.0,
    736.0,
    735.0,
    735.0,
    734.0,
    734.0,
    734.0,
    734.0,
    735.0,
    734.0,
    734.0,
    734.0,
    734.0,
    734.0,
    734.0,
    734.0,
    736.0,
    735.0,
    735.0,
    734.0,
    734.0,
    734.0,
    734.0,
    735.0,
    735.0,
    734.0,
    734.0,
    735.0,
    734.0,
    734.0,
    734.0,
    734.0,
    734.0,
    735.0,
    734.0,
    734.0,
    735.0,
    734.0,
    734.0,
    733.0,
    734.0,
    734.0,
    734.0,
    734.0,
    734.0,
    735.0,
    735.0,
    733.0,
    733.0,
    735.0,
    736.0,
    735.0,
    734.0,
    735.0,
    736.0,
    737.0,
    736.0,
    735.0,
    736.0,
    735.0,
    735.0,
    736.0,
    736.0,
    736.0,
    734.0,
    734.0,
    736.0,
    736.0,
    736.0,
    734.0,
    733.0,
    733.0,
    733.0,
    734.0,
    734.0,
    735.0,
    734.0,
    734.0,
    734.0,
    733.0,
    733.0,
    734.0,
    734.0,
    735.0,
    734.0,
    735.0,
    734.0,
    734.0,
    735.0,
    734.0,
    734.0,
    733.0,
    733.0,
    733.0,
    733.0,
    734.0,
    734.0,
    735.0,
    734.0,
    734.0,
    734.0,
    733.0,
    734.0,
    733.0,
    734.0,
    734.0,
    734.0,
    733.0,
    733.0,
    734.0,
    733.0,
    733.0,
    733.0,
    734.0,
    734.0,
    734.0,
    734.0,
    734.0,
    735.0,
    734.0,
    734.0,
    734.0,
    734.0,
    735.0,
    734.0,
    734.0,
    734.0,
    734.0,
    734.0,
    734.0,
    734.0,
    734.0,
    733.0,
    734.0,
    733.0,
    734.0,
    734.0,
    734.0,
    733.0,
    733.0,
    733.0,
    733.0,
    733.0,
    733.0,
    733.0,
    734.0,
    733.0,
    733.0,
    733.0,
    733.0,
    734.0,
