{
 "AcquisitionMatrixPE": 100,
 "AcquisitionNumber": 1,
 "AcquisitionTime": "15:19:9.870000",
 "BandwidthPerPixelPhaseEncode": 18.519,
 "BaseResolution": 100,
 "BodyPartExamined": "BRAIN",
 "ConsistencyInfo": "N4_VE11C_LATEST_20160120",
 "ConversionSoftware": "dcm2niix",
 "ConversionSoftwareVersion": "v1.0.20180622 GCC4.9.2",
 "DerivedVendorReportedEchoSpacing": 0.000539986,
 "DeviceSerialNumber": "166078",
 "DwellTime": 2.1e-06,
 "EchoTime": 0.034,
 "EchoTrainLength": 100,
 "EffectiveEchoSpacing": 0.000539986,
 "FlipAngle": 90,
 "ImageOrientationPatientDICOM": [
  0.999627,
  0.0233493,
  -0.0141742,
  -0.0244304,
  0.996364,
  -0.0816166
 ],
 "ImageType": [
  "ORIGINAL",
  "PRIMARY",
  "M",
  "ND",
  "MOSAIC"
 ],
 "InPlanePhaseEncodingDirectionDICOM": "COL",
 "InstitutionAddress": "Street_StreetNo_Bei_Jing_District_CN_ZIP",
 "InstitutionName": "BeiJing_Normal_University",
 "InstitutionalDepartmentName": "Department",
 "MRAcquisitionType": "2D",
 "MagneticFieldStrength": 3,
 "Manufacturer": "Siemens",
 "ManufacturersModelName": "Prisma",
 "Modality": "MR",
 "MultibandAccelerationFactor": 3,
 "PartialFourier": 1,
 "PatientPosition": "HFS",
 "PercentPhaseFOV": 100,
 "PhaseEncodingDirection": "j-",
 "PhaseEncodingSteps": 100,
 "PhaseResolution": 1,
 "PixelBandwidth": 2380,
 "ProcedureStepDescription": "BNU_P2018_64CH_Zhen.ZongLei",
 "ProtocolName": "bold_100x100_s3_2x2x2_static_test_241",
 "PulseSequenceDetails": "%SiemensSeq%_ep2d_bold",
 "ReceiveCoilActiveElements": "HC1-7;NC1",
 "ReceiveCoilName": "HeadNeck_64",
 "ReconMatrixPE": 100,
 "RepetitionTime": 2,
 "SAR": 0.0747144,
 "ScanOptions": "FS",
 "ScanningSequence": "EP",
 "SequenceName": "_epfid2d1_100",
 "SequenceVariant": "SK",
 "SeriesDescription": "bold_100x100_s3_2x2x2_static_test_241",
 "SeriesNumber": 4,
 "ShimSetting": [
  -5468,
  -11530,
  -1293,
  550,
  34,
  -223,
  -130,
  6
 ],
 "SliceThickness": 2,
 "SliceTiming": [
  1.485,
  0,
  0.99,
  0.0825,
  1.0725,
  0.165,
  1.155,
  0.2475,
  1.2375,
  0.33,
  1.32,
  0.4125,
  1.4025,
  0.5775,
  1.5675,
  0.66,
  1.65,
  0.7425,
  1.7325,
  0.825,
  1.815,
  0.9075,
  1.8975,
  0.495,
  1.485,
  0,
  0.99,
  0.0825,
  1.0725,
  0.165,
  1.155,
  0.2475,
  1.2375,
  0.33,
  1.32,
  0.4125,
  1.4025,
  0.5775,
  1.5675,
  0.66,
  1.65,
  0.7425,
  1.7325,
  0.825,
  1.815,
  0.9075,
  1.8975,
  0.495,
  1.485,
  0,
  0.99,
  0.0825,
  1.0725,
  0.165,
  1.155,
  0.2475,
  1.2375,
  0.33,
  1.32,
  0.4125,
  1.4025,
  0.5775,
  1.5675,
  0.66,
  1.65,
  0.7425,
  1.7325,
  0.825,
  1.815,
  0.9075,
  1.8975,
  0.495
 ],
 "SoftwareVersions": "syngo_MR_E11",
 "SpacingBetweenSlices": 2,
 "StationName": "AWP166078",
 "TaskName": "coco",
 "TotalReadoutTime": 0.0534586,
 "TxRefAmp": 212.813,
 "dcmmeta_affine": [
  [
   -1.999253749847412,
   -0.048860739916563034,
   -0.02443399652838707,
   104.57366943359375
  ],
  [
   -0.046698588877916336,
   1.9927287101745605,
   -0.16386477649211884,
   -85.66024780273438
  ],
  [
   -0.028348440304398537,
   0.16323313117027283,
   1.9931260347366333,
   -70.2044448852539
  ],
  [
   0.0,
   0.0,
   0.0,
   1.0
  ]
 ],
 "dcmmeta_reorient_transform": [
  [
   0.0,
   -1.0,
   0.0,
   99.0
  ],
  [
   1.0,
   0.0,
   0.0,
   0.0
  ],
  [
   0.0,
   0.0,
   1.0,
   0.0
  ],
  [
   0.0,
   0.0,
   0.0,
   1.0
  ]
 ],
 "dcmmeta_shape": [
  100,
  100,
  72,
  241
 ],
 "dcmmeta_slice_dim": 2,
 "dcmmeta_version": 0.6,
 "global": {
  "const": {
   "AcquisitionMatrix": [
    100,
    0,
    0,
    100
   ],
   "AngioFlag": "N",
   "BitsAllocated": 16,
   "BitsStored": 12,
   "BodyPartExamined": "BRAIN",
   "Columns": 900,
   "EchoNumbers": 1,
   "EchoTime": 34.0,
   "EchoTrainLength": 100,
   "FlipAngle": 90.0,
   "HighBit": 11,
   "ImageOrientationPatient": [
    0.99962688136753,
    0.02334929400859,
    -0.014174220145,
    -0.0244303704077,
    0.9963643378911,
    -0.0816165619257
   ],
   "ImagePositionPatient": [
    -879.89366460666,
    -927.39079394776,
    22.588260260099
   ],
   "ImageType": [
    "ORIGINAL",
    "PRIMARY",
    "M",
    "ND",
    "MOSAIC"
   ],
   "ImagedNucleus": "1H",
   "ImagingFrequency": 123.257774,
   "InPlanePhaseEncodingDirection": "COL",
   "MRAcquisitionType": "2D",
   "MagneticFieldStrength": 3.0,
   "Manufacturer": "SIEMENS",
   "ManufacturerModelName": "Prisma",
   "Modality": "MR",
   "NumberOfAverages": 1.0,
   "NumberOfPhaseEncodingSteps": 100,
   "PercentPhaseFieldOfView": 100.0,
   "PercentSampling": 100.0,
   "PerformedProcedureStepStartTime": "150708.363000",
   "PhotometricInterpretation": "MONOCHROME2",
   "PixelBandwidth": 2380.0,
   "PixelRepresentation": 0,
   "PixelSpacing": [
    2.0,
    2.0
   ],
   "ProtocolName": "bold_100x100_s3_2x2x2_static_test_241",
   "RepetitionTime": 2000.0,
   "Rows": 900,
   "SAR": 0.07471435862482,
   "SamplesPerPixel": 1,
   "ScanOptions": "FS",
   "ScanningSequence": "EP",
   "SequenceName": "*epfid2d1_100",
   "SequenceVariant": "SK",
   "SeriesDescription": "bold_100x100_s3_2x2x2_static_test_241",
   "SeriesNumber": 4,
   "SeriesTime": "151912.339000",
   "SliceLocation": -64.222379756871,
   "SliceThickness": 2.0,
   "SmallestImagePixelValue": 0,
   "SoftwareVersions": "syngo MR E11",
   "SpacingBetweenSlices": 2.0000000081223,
   "SpecificCharacterSet": "ISO_IR 100",
   "StudyID": "1",
   "StudyTime": "150708.281000",
   "TransmitCoilName": "Body",
   "VariableFlipAngleFlag": "N",
   "WindowCenterWidthExplanation": "Algo1",
   "dBdt": 0.0
  },
  "slices": {}
 },
 "time": {
  "samples": {
   "AcquisitionNumber": [
    1,
    2,
    3,
    4,
    5,
    6,
    7,
    8,
    9,
    10,
    11,
    12,
    13,
    14,
    15,
    16,
    17,
    18,
    19,
    20,
    21,
    22,
    23,
    24,
    25,
    26,
    27,
    28,
    29,
    30,
    31,
    32,
    33,
    34,
    35,
    36,
    37,
    38,
    39,
    40,
    41,
    42,
    43,
    44,
    45,
    46,
    47,
    48,
    49,
    50,
    51,
    52,
    53,
    54,
    55,
    56,
    57,
    58,
    59,
    60,
    61,
    62,
    63,
    64,
    65,
    66,
    67,
    68,
    69,
    70,
    71,
    72,
    73,
    74,
    75,
    76,
    77,
    78,
    79,
    80,
    81,
    82,
    83,
    84,
    85,
    86,
    87,
    88,
    89,
    90,
    91,
    92,
    93,
    94,
    95,
    96,
    97,
    98,
    99,
    100,
    101,
    102,
    103,
    104,
    105,
    106,
    107,
    108,
    109,
    110,
    111,
    112,
    113,
    114,
    115,
    116,
    117,
    118,
    119,
    120,
    121,
    122,
    123,
    124,
    125,
    126,
    127,
    128,
    129,
    130,
    131,
    132,
    133,
    134,
    135,
    136,
    137,
    138,
    139,
    140,
    141,
    142,
    143,
    144,
    145,
    146,
    147,
    148,
    149,
    150,
    151,
    152,
    153,
    154,
    155,
    156,
    157,
    158,
    159,
    160,
    161,
    162,
    163,
    164,
    165,
    166,
    167,
    168,
    169,
    170,
    171,
    172,
    173,
    174,
    175,
    176,
    177,
    178,
    179,
    180,
    181,
    182,
    183,
    184,
    185,
    186,
    187,
    188,
    189,
    190,
    191,
    192,
    193,
    194,
    195,
    196,
    197,
    198,
    199,
    200,
    201,
    202,
    203,
    204,
    205,
    206,
    207,
    208,
    209,
    210,
    211,
    212,
    213,
    214,
    215,
    216,
    217,
    218,
    219,
    220,
    221,
    222,
    223,
    224,
    225,
    226,
    227,
    228,
    229,
    230,
    231,
    232,
    233,
    234,
    235,
    236,
    237,
    238,
    239,
    240,
    241
   ],
   "AcquisitionTime": [
    "151909.870000",
    "151911.870000",
    "151913.870000",
    "151915.870000",
    "151917.870000",
    "151919.870000",
    "151921.870000",
    "151923.870000",
    "151925.870000",
    "151927.870000",
    "151929.870000",
    "151931.870000",
    "151933.870000",
    "151935.870000",
    "151937.870000",
    "151939.870000",
    "151941.870000",
    "151943.870000",
    "151945.870000",
    "151947.870000",
    "151949.870000",
    "151951.870000",
    "151953.870000",
    "151955.870000",
    "151957.870000",
    "151959.870000",
    "152001.870000",
    "152003.870000",
    "152005.870000",
    "152007.870000",
    "152009.870000",
    "152011.870000",
    "152013.870000",
    "152015.870000",
    "152017.870000",
    "152019.870000",
    "152021.870000",
    "152023.870000",
    "152025.870000",
    "152027.870000",
    "152029.870000",
    "152031.870000",
    "152033.870000",
    "152035.870000",
    "152037.870000",
    "152039.870000",
    "152041.870000",
    "152043.870000",
    "152045.870000",
    "152047.870000",
    "152049.870000",
    "152051.870000",
    "152053.870000",
    "152055.870000",
    "152057.870000",
    "152059.870000",
    "152101.870000",
    "152103.870000",
    "152105.870000",
    "152107.870000",
    "152109.870000",
    "152111.870000",
    "152113.870000",
    "152115.870000",
    "152117.870000",
    "152119.870000",
    "152121.870000",
    "152123.870000",
    "152125.870000",
    "152127.870000",
    "152129.870000",
    "152131.870000",
    "152133.870000",
    "152135.870000",
    "152137.870000",
    "152139.870000",
    "152141.870000",
    "152143.870000",
    "152145.870000",
    "152147.870000",
    "152149.870000",
    "152151.870000",
    "152153.870000",
    "152155.870000",
    "152157.870000",
    "152159.870000",
    "152201.870000",
    "152203.870000",
    "152205.870000",
    "152207.870000",
    "152209.870000",
    "152211.870000",
    "152213.870000",
    "152215.870000",
    "152217.870000",
    "152219.870000",
    "152221.870000",
    "152223.870000",
    "152225.870000",
    "152227.870000",
    "152229.870000",
    "152231.870000",
    "152233.870000",
    "152235.870000",
    "152237.870000",
    "152239.870000",
    "152241.870000",
    "152243.870000",
    "152245.870000",
    "152247.870000",
    "152249.870000",
    "152251.870000",
    "152253.870000",
    "152255.870000",
    "152257.870000",
    "152259.870000",
    "152301.870000",
    "152303.870000",
    "152305.870000",
    "152307.870000",
    "152309.870000",
    "152311.870000",
    "152313.870000",
    "152315.870000",
    "152317.870000",
    "152319.870000",
    "152321.870000",
    "152323.870000",
    "152325.870000",
    "152327.870000",
    "152329.870000",
    "152331.870000",
    "152333.870000",
    "152335.870000",
    "152337.870000",
    "152339.870000",
    "152341.870000",
    "152343.870000",
    "152345.870000",
    "152347.870000",
    "152349.870000",
    "152351.870000",
    "152353.870000",
    "152355.870000",
    "152357.870000",
    "152359.870000",
    "152401.870000",
    "152403.870000",
    "152405.870000",
    "152407.870000",
    "152409.870000",
    "152411.870000",
    "152413.870000",
    "152415.870000",
    "152417.870000",
    "152419.870000",
    "152421.870000",
    "152423.870000",
    "152425.870000",
    "152427.870000",
    "152429.870000",
    "152431.870000",
    "152433.870000",
    "152435.870000",
    "152437.870000",
    "152439.870000",
    "152441.870000",
    "152443.870000",
    "152445.870000",
    "152447.870000",
    "152449.870000",
    "152451.870000",
    "152453.870000",
    "152455.870000",
    "152457.870000",
    "152459.870000",
    "152501.870000",
    "152503.870000",
    "152505.870000",
    "152507.870000",
    "152509.870000",
    "152511.870000",
    "152513.870000",
    "152515.870000",
    "152517.870000",
    "152519.870000",
    "152521.870000",
    "152523.870000",
    "152525.870000",
    "152527.870000",
    "152529.870000",
    "152531.870000",
    "152533.870000",
    "152535.870000",
    "152537.870000",
    "152539.870000",
    "152541.870000",
    "152543.870000",
    "152545.870000",
    "152547.870000",
    "152549.870000",
    "152551.870000",
    "152553.870000",
    "152555.870000",
    "152557.870000",
    "152559.870000",
    "152601.870000",
    "152603.870000",
    "152605.870000",
    "152607.870000",
    "152609.870000",
    "152611.870000",
    "152613.870000",
    "152615.870000",
    "152617.870000",
    "152619.870000",
    "152621.870000",
    "152623.870000",
    "152625.870000",
    "152627.870000",
    "152629.870000",
    "152631.870000",
    "152633.870000",
    "152635.870000",
    "152637.870000",
    "152639.870000",
    "152641.870000",
    "152643.870000",
    "152645.870000",
    "152647.870000",
    "152649.870000",
    "152651.870000",
    "152653.870000",
    "152655.870000",
    "152657.870000",
    "152659.870000",
    "152701.870000",
    "152703.870000",
    "152705.870000",
    "152707.870000",
    "152709.870000"
   ],
   "ContentTime": [
    "151912.343000",
    "151913.839000",
    "151915.839000",
    "151917.839000",
    "151919.838000",
    "151921.838000",
    "151923.837000",
    "151925.838000",
    "151927.838000",
    "151929.839000",
    "151931.838000",
    "151933.838000",
    "151935.839000",
    "151937.838000",
    "151939.838000",
    "151941.837000",
    "151943.838000",
    "151945.838000",
    "151947.839000",
    "151949.838000",
    "151951.838000",
    "151953.839000",
    "151955.838000",
    "151957.838000",
    "151959.837000",
    "152001.838000",
    "152003.839000",
    "152005.838000",
    "152007.839000",
    "152009.838000",
    "152011.839000",
    "152013.838000",
    "152015.837000",
    "152017.837000",
    "152019.838000",
    "152021.838000",
    "152023.838000",
    "152025.838000",
    "152027.838000",
    "152029.838000",
    "152031.838000",
    "152033.837000",
    "152035.838000",
    "152037.839000",
    "152039.838000",
    "152041.838000",
    "152043.839000",
    "152045.839000",
    "152047.838000",
    "152049.838000",
    "152051.837000",
    "152053.838000",
    "152055.839000",
    "152057.839000",
    "152059.838000",
    "152101.839000",
    "152103.838000",
    "152105.839000",
    "152107.837000",
    "152109.838000",
    "152111.838000",
    "152113.838000",
    "152115.838000",
    "152117.838000",
    "152119.838000",
    "152121.838000",
    "152123.838000",
    "152125.837000",
    "152127.837000",
    "152129.839000",
    "152131.838000",
    "152133.839000",
    "152135.838000",
    "152137.838000",
    "152139.838000",
    "152141.839000",
    "152143.838000",
    "152145.839000",
    "152147.838000",
    "152149.838000",
    "152151.839000",
    "152153.839000",
    "152155.839000",
    "152157.839000",
    "152159.838000",
    "152201.838000",
    "152203.838000",
    "152205.838000",
    "152207.839000",
    "152209.838000",
    "152211.838000",
    "152213.838000",
    "152215.839000",
    "152217.838000",
    "152219.837000",
    "152221.839000",
    "152223.838000",
    "152225.839000",
    "152227.839000",
    "152229.838000",
    "152231.839000",
    "152233.838000",
    "152235.837000",
    "152237.838000",
    "152239.838000",
    "152241.838000",
    "152243.838000",
    "152245.838000",
    "152247.838000",
    "152249.838000",
    "152251.838000",
    "152253.838000",
    "152255.838000",
    "152257.838000",
    "152259.838000",
    "152301.838000",
    "152303.838000",
    "152305.838000",
    "152307.839000",
    "152309.839000",
    "152311.837000",
    "152313.839000",
    "152315.838000",
    "152317.838000",
    "152319.838000",
    "152321.839000",
    "152323.838000",
    "152325.839000",
    "152327.837000",
    "152329.837000",
    "152331.838000",
    "152333.839000",
    "152335.850000",
    "152337.838000",
    "152339.839000",
    "152341.838000",
    "152343.839000",
    "152345.837000",
    "152347.838000",
    "152349.838000",
    "152351.838000",
    "152353.839000",
    "152355.839000",
    "152357.839000",
    "152359.838000",
    "152401.838000",
    "152403.837000",
    "152405.838000",
    "152407.838000",
    "152409.839000",
    "152411.839000",
    "152413.839000",
    "152415.839000",
    "152417.839000",
    "152419.838000",
    "152421.838000",
    "152423.838000",
    "152425.838000",
    "152427.838000",
    "152429.838000",
    "152431.838000",
    "152433.838000",
    "152435.839000",
    "152437.837000",
    "152439.837000",
    "152441.838000",
    "152443.839000",
    "152445.838000",
    "152447.839000",
    "152449.838000",
    "152451.839000",
    "152453.839000",
    "152455.838000",
    "152457.839000",
    "152459.838000",
    "152501.838000",
    "152503.839000",
    "152505.838000",
    "152507.839000",
    "152509.838000",
    "152511.839000",
    "152513.837000",
    "152515.838000",
    "152517.838000",
    "152519.838000",
    "152521.839000",
    "152523.838000",
    "152525.839000",
    "152527.838000",
    "152529.839000",
    "152531.838000",
    "152533.839000",
    "152535.839000",
    "152537.839000",
    "152539.839000",
    "152541.838000",
    "152543.839000",
    "152545.839000",
    "152547.838000",
    "152549.837000",
    "152551.839000",
    "152553.838000",
    "152555.838000",
    "152557.838000",
    "152559.839000",
    "152601.839000",
    "152603.838000",
    "152605.838000",
    "152607.838000",
    "152609.839000",
    "152611.840000",
    "152613.839000",
    "152615.839000",
    "152617.840000",
    "152619.839000",
    "152621.838000",
    "152623.838000",
    "152625.838000",
    "152627.838000",
    "152629.838000",
    "152631.838000",
    "152633.839000",
    "152635.838000",
    "152637.838000",
    "152639.839000",
    "152641.837000",
    "152643.838000",
    "152645.838000",
    "152647.838000",
    "152649.838000",
    "152651.839000",
    "152653.839000",
    "152655.839000",
    "152657.837000",
    "152659.838000",
    "152701.839000",
    "152703.839000",
    "152705.838000",
    "152707.838000",
    "152709.839000",
    "152711.660000"
   ],
   "InstanceCreationTime": [
    "151912.343000",
    "151913.839000",
    "151915.839000",
    "151917.839000",
    "151919.838000",
    "151921.838000",
    "151923.837000",
    "151925.838000",
    "151927.838000",
    "151929.839000",
    "151931.838000",
    "151933.838000",
    "151935.839000",
    "151937.838000",
    "151939.838000",
    "151941.837000",
    "151943.838000",
    "151945.838000",
    "151947.839000",
    "151949.838000",
    "151951.838000",
    "151953.839000",
    "151955.838000",
    "151957.838000",
    "151959.837000",
    "152001.838000",
    "152003.839000",
    "152005.838000",
    "152007.839000",
    "152009.838000",
    "152011.839000",
    "152013.838000",
    "152015.837000",
    "152017.837000",
    "152019.838000",
    "152021.838000",
    "152023.838000",
    "152025.838000",
    "152027.838000",
    "152029.838000",
    "152031.838000",
    "152033.837000",
    "152035.838000",
    "152037.839000",
    "152039.838000",
    "152041.838000",
    "152043.839000",
    "152045.839000",
    "152047.838000",
    "152049.838000",
    "152051.837000",
    "152053.838000",
    "152055.839000",
    "152057.839000",
    "152059.838000",
    "152101.839000",
    "152103.838000",
    "152105.839000",
    "152107.837000",
    "152109.838000",
    "152111.838000",
    "152113.838000",
    "152115.838000",
    "152117.838000",
    "152119.838000",
    "152121.838000",
    "152123.838000",
    "152125.837000",
    "152127.837000",
    "152129.839000",
    "152131.838000",
    "152133.839000",
    "152135.838000",
    "152137.838000",
    "152139.838000",
    "152141.839000",
    "152143.838000",
    "152145.839000",
    "152147.838000",
    "152149.838000",
    "152151.839000",
    "152153.839000",
    "152155.839000",
    "152157.839000",
    "152159.838000",
    "152201.838000",
    "152203.838000",
    "152205.838000",
    "152207.839000",
    "152209.838000",
    "152211.838000",
    "152213.838000",
    "152215.839000",
    "152217.838000",
    "152219.837000",
    "152221.839000",
    "152223.838000",
    "152225.839000",
    "152227.839000",
    "152229.838000",
    "152231.839000",
    "152233.838000",
    "152235.837000",
    "152237.838000",
    "152239.838000",
    "152241.838000",
    "152243.838000",
    "152245.838000",
    "152247.838000",
    "152249.838000",
    "152251.838000",
    "152253.838000",
    "152255.838000",
    "152257.838000",
    "152259.838000",
    "152301.838000",
    "152303.838000",
    "152305.838000",
    "152307.839000",
    "152309.839000",
    "152311.837000",
    "152313.839000",
    "152315.838000",
    "152317.838000",
    "152319.838000",
    "152321.839000",
    "152323.838000",
    "152325.839000",
    "152327.837000",
    "152329.837000",
    "152331.838000",
    "152333.839000",
    "152335.850000",
    "152337.838000",
    "152339.839000",
    "152341.838000",
    "152343.839000",
    "152345.837000",
    "152347.838000",
    "152349.838000",
    "152351.838000",
    "152353.839000",
    "152355.839000",
    "152357.839000",
    "152359.838000",
    "152401.838000",
    "152403.837000",
    "152405.838000",
    "152407.838000",
    "152409.839000",
    "152411.839000",
    "152413.839000",
    "152415.839000",
    "152417.839000",
    "152419.838000",
    "152421.838000",
    "152423.838000",
    "152425.838000",
    "152427.838000",
    "152429.838000",
    "152431.838000",
    "152433.838000",
    "152435.839000",
    "152437.837000",
    "152439.837000",
    "152441.838000",
    "152443.839000",
    "152445.838000",
    "152447.839000",
    "152449.838000",
    "152451.839000",
    "152453.839000",
    "152455.838000",
    "152457.839000",
    "152459.838000",
    "152501.838000",
    "152503.839000",
    "152505.838000",
    "152507.839000",
    "152509.838000",
    "152511.839000",
    "152513.837000",
    "152515.838000",
    "152517.838000",
    "152519.838000",
    "152521.839000",
    "152523.838000",
    "152525.839000",
    "152527.838000",
    "152529.839000",
    "152531.838000",
    "152533.839000",
    "152535.839000",
    "152537.839000",
    "152539.839000",
    "152541.838000",
    "152543.839000",
    "152545.839000",
    "152547.838000",
    "152549.837000",
    "152551.839000",
    "152553.838000",
    "152555.838000",
    "152557.838000",
    "152559.839000",
    "152601.839000",
    "152603.838000",
    "152605.838000",
    "152607.838000",
    "152609.839000",
    "152611.840000",
    "152613.839000",
    "152615.839000",
    "152617.840000",
    "152619.839000",
    "152621.838000",
    "152623.838000",
    "152625.838000",
    "152627.838000",
    "152629.838000",
    "152631.838000",
    "152633.839000",
    "152635.838000",
    "152637.838000",
    "152639.839000",
    "152641.837000",
    "152643.838000",
    "152645.838000",
    "152647.838000",
    "152649.838000",
    "152651.839000",
    "152653.839000",
    "152655.839000",
    "152657.837000",
    "152659.838000",
    "152701.839000",
    "152703.839000",
    "152705.838000",
    "152707.838000",
    "152709.839000",
    "152711.660000"
   ],
   "InstanceNumber": [
    1,
    2,
    3,
    4,
    5,
    6,
    7,
    8,
    9,
    10,
    11,
    12,
    13,
    14,
    15,
    16,
    17,
    18,
    19,
    20,
    21,
    22,
    23,
    24,
    25,
    26,
    27,
    28,
    29,
    30,
    31,
    32,
    33,
    34,
    35,
    36,
    37,
    38,
    39,
    40,
    41,
    42,
    43,
    44,
    45,
    46,
    47,
    48,
    49,
    50,
    51,
    52,
    53,
    54,
    55,
    56,
    57,
    58,
    59,
    60,
    61,
    62,
    63,
    64,
    65,
    66,
    67,
    68,
    69,
    70,
    71,
    72,
    73,
    74,
    75,
    76,
    77,
    78,
    79,
    80,
    81,
    82,
    83,
    84,
    85,
    86,
    87,
    88,
    89,
    90,
    91,
    92,
    93,
    94,
    95,
    96,
    97,
    98,
    99,
    100,
    101,
    102,
    103,
    104,
    105,
    106,
    107,
    108,
    109,
    110,
    111,
    112,
    113,
    114,
    115,
    116,
    117,
    118,
    119,
    120,
    121,
    122,
    123,
    124,
    125,
    126,
    127,
    128,
    129,
    130,
    131,
    132,
    133,
    134,
    135,
    136,
    137,
    138,
    139,
    140,
    141,
    142,
    143,
    144,
    145,
    146,
    147,
    148,
    149,
    150,
    151,
    152,
    153,
    154,
    155,
    156,
    157,
    158,
    159,
    160,
    161,
    162,
    163,
    164,
    165,
    166,
    167,
    168,
    169,
    170,
    171,
    172,
    173,
    174,
    175,
    176,
    177,
    178,
    179,
    180,
    181,
    182,
    183,
    184,
    185,
    186,
    187,
    188,
    189,
    190,
    191,
    192,
    193,
    194,
    195,
    196,
    197,
    198,
    199,
    200,
    201,
    202,
    203,
    204,
    205,
    206,
    207,
    208,
    209,
    210,
    211,
    212,
    213,
    214,
    215,
    216,
    217,
    218,
    219,
    220,
    221,
    222,
    223,
    224,
    225,
    226,
    227,
    228,
    229,
    230,
    231,
    232,
    233,
    234,
    235,
    236,
    237,
    238,
    239,
    240,
    241
   ],
   "LargestImagePixelValue": [
    2901,
    2857,
    2839,
    2843,
    2829,
    2833,
    2825,
    2809,
    2808,
    2831,
    2841,
    2803,
    2796,
    2823,
    2806,
    2808,
    2850,
    2823,
    2832,
    2829,
    2833,
    2822,
    2830,
    2847,
    2816,
    2814,
    2820,
    2816,
    2817,
    2826,
    2814,
    2823,
    2838,
    2805,
    2845,
    2833,
    2796,
    2805,
    2818,
    2822,
    2840,
    2802,
    2847,
    2831,
    2847,
    2823,
    2795,
    2836,
    2831,
    2793,
    2816,
    2794,
    2809,
    2803,
    2808,
    2801,
    2825,
    2788,
    2816,
    2823,
    2780,
    2815,
    2806,
    2831,
    2792,
    2824,
    2850,
    2828,
    2853,
    2808,
    2817,
    2803,
    2773,
    2805,
    2806,
    2811,
    2799,
    2816,
    2804,
    2811,
    2829,
    2810,
    2823,
    2845,
    2813,
    2805,
    2789,
    2822,
    2837,
    2836,
    2837,
    2824,
    2836,
    2835,
    2809,
    2826,
    2831,
    2817,
    2800,
    2817,
    2851,
    2803,
    2800,
    2808,
    2835,
    2833,
    2788,
    2805,
    2842,
    2823,
    2825,
    2807,
    2805,
    2809,
    2818,
    2791,
    2814,
    2850,
    2798,
    2829,
    2835,
    2845,
    2840,
    2831,
    2804,
    2829,
    2820,
    2807,
    2833,
    2829,
    2845,
    2819,
    2831,
    2805,
    2808,
    2810,
    2776,
    2785,
    2812,
    2789,
    2832,
    2812,
    2799,
    2824,
    2816,
    2816,
    2831,
    2821,
    2829,
    2804,
    2801,
    2810,
    2852,
    2852,
    2792,
    2840,
    2854,
    2832,
    2825,
    2801,
    2816,
    2816,
    2825,
    2803,
    2816,
    2830,
    2797,
    2794,
    2810,
    2830,
    2801,
    2780,
    2802,
    2819,
    2807,
    2809,
    2791,
    2790,
    2829,
    2837,
    2811,
    2878,
    2852,
    2825,
    2784,
    2825,
    2827,
    2830,
    2838,
    2857,
    2855,
    2824,
    2855,
    2887,
    2830,
    2847,
    2828,
    2870,
    2810,
    2837,
    2790,
    2785,
    2766,
    2809,
    2791,
    2779,
    2772,
    2780,
    2831,
    2806,
    2806,
    2784,
    2828,
    2791,
    2822,
    2832,
    2846,
    2824,
    2771,
    2834,
    2787,
    2790,
    2793,
    2848,
    2843,
    2815,
    2797,
    2787,
    2780,
    2789,
    2768,
    2825,
    2827,
    2812,
    2788,
    2802,
    2783,
    2790,
    2787,
    2811,
    2848
   ],
   "WindowCenter": [
    738.0,
    738.0,
    737.0,
    736.0,
    736.0,
    735.0,
    736.0,
    735.0,
    734.0,
    735.0,
    736.0,
    737.0,
    736.0,
    734.0,
    733.0,
    733.0,
    734.0,
    734.0,
    734.0,
    733.0,
    734.0,
    734.0,
    734.0,
    734.0,
    735.0,
    734.0,
    735.0,
    735.0,
    735.0,
    734.0,
    733.0,
    733.0,
    734.0,
    734.0,
    734.0,
    735.0,
    734.0,
    734.0,
    735.0,
    735.0,
    735.0,
    735.0,
    735.0,
    735.0,
    735.0,
    735.0,
    735.0,
    735.0,
    734.0,
    734.0,
    735.0,
    736.0,
    735.0,
    735.0,
    733.0,
    734.0,
    735.0,
    734.0,
    735.0,
    735.0,
    735.0,
    735.0,
    734.0,
    735.0,
    734.0,
    734.0,
    734.0,
    735.0,
    735.0,
    735.0,
    735.0,
    735.0,
    735.0,
    735.0,
    735.0,
    736.0,
    736.0,
    736.0,
    735.0,
    735.0,
    735.0,
    735.0,
    735.0,
    735.0,
    736.0,
    736.0,
    736.0,
    735.0,
    735.0,
    734.0,
    734.0,
    735.0,
    735.0,
    734.0,
    734.0,
    734.0,
    734.0,
    734.0,
    735.0,
    735.0,
    735.0,
    736.0,
    736.0,
    735.0,
    734.0,
    734.0,
    733.0,
    735.0,
    736.0,
    736.0,
    735.0,
    735.0,
    735.0,
    734.0,
    733.0,
    733.0,
    733.0,
    734.0,
    735.0,
    735.0,
    735.0,
    734.0,
    734.0,
    734.0,
    735.0,
    735.0,
    735.0,
    734.0,
    734.0,
    734.0,
    734.0,
    735.0,
    735.0,
    736.0,
    736.0,
    736.0,
    736.0,
    736.0,
    735.0,
    734.0,
    734.0,
    735.0,
    734.0,
    734.0,
    734.0,
    734.0,
    734.0,
    734.0,
    734.0,
    735.0,
    735.0,
    735.0,
    735.0,
    735.0,
    735.0,
    735.0,
    736.0,
    736.0,
    735.0,
    735.0,
    735.0,
    735.0,
    735.0,
    737.0,
    736.0,
    736.0,
    735.0,
    735.0,
    734.0,
    734.0,
    735.0,
    737.0,
    737.0,
    736.0,
    735.0,
    736.0,
    736.0,
    736.0,
    736.0,
    735.0,
    736.0,
    736.0,
    736.0,
    736.0,
    736.0,
    735.0,
    735.0,
    735.0,
    736.0,
    736.0,
    735.0,
    735.0,
    735.0,
    735.0,
    735.0,
    735.0,
    735.0,
    736.0,
    735.0,
    735.0,
    735.0,
    735.0,
    735.0,
    735.0,
    735.0,
    735.0,
    735.0,
    736.0,
    737.0,
    737.0,
    736.0,
    736.0,
    736.0,
    737.0,
    737.0,
    737.0,
    737.0,
    736.0,
    735.0,
    736.0,
    736.0,
    736.0,
    735.0,
    734.0,
    735.0,
    736.0,
    735.0,
    735.0,
    735.0,
    735.0,
    734.0,
    735.0,
