{
 "AcquisitionMatrixPE": 100,
 "AcquisitionNumber": 1,
 "AcquisitionTime": "15:28:2.485000",
 "BandwidthPerPixelPhaseEncode": 18.519,
 "BaseResolution": 100,
 "BodyPartExamined": "BRAIN",
 "ConsistencyInfo": "N4_VE11C_LATEST_20160120",
 "ConversionSoftware": "dcm2niix",
 "ConversionSoftwareVersion": "v1.0.20180622 GCC4.9.2",
 "DerivedVendorReportedEchoSpacing": 0.000539986,
 "DeviceSerialNumber": "166078",
 "DwellTime": 2.1e-06,
 "EchoTime": 0.034,
 "EchoTrainLength": 100,
 "EffectiveEchoSpacing": 0.000539986,
 "FlipAngle": 90,
 "ImageOrientationPatientDICOM": [
  0.999627,
  0.0233493,
  -0.0141742,
  -0.0244304,
  0.996364,
  -0.0816166
 ],
 "ImageType": [
  "ORIGINAL",
  "PRIMARY",
  "M",
  "ND",
  "MOSAIC"
 ],
 "InPlanePhaseEncodingDirectionDICOM": "COL",
 "InstitutionAddress": "Street_StreetNo_Bei_Jing_District_CN_ZIP",
 "InstitutionName": "BeiJing_Normal_University",
 "InstitutionalDepartmentName": "Department",
 "MRAcquisitionType": "2D",
 "MagneticFieldStrength": 3,
 "Manufacturer": "Siemens",
 "ManufacturersModelName": "Prisma",
 "Modality": "MR",
 "MultibandAccelerationFactor": 3,
 "PartialFourier": 1,
 "PatientPosition": "HFS",
 "PercentPhaseFOV": 100,
 "PhaseEncodingDirection": "j-",
 "PhaseEncodingSteps": 100,
 "PhaseResolution": 1,
 "PixelBandwidth": 2380,
 "ProcedureStepDescription": "BNU_P2018_64CH_Zhen.ZongLei",
 "ProtocolName": "bold_100x100_s3_2x2x2_static_test_241",
 "PulseSequenceDetails": "%SiemensSeq%_ep2d_bold",
 "ReceiveCoilActiveElements": "HC1-7;NC1",
 "ReceiveCoilName": "HeadNeck_64",
 "ReconMatrixPE": 100,
 "RepetitionTime": 2,
 "SAR": 0.0747144,
 "ScanOptions": "FS",
 "ScanningSequence": "EP",
 "SequenceName": "_epfid2d1_100",
 "SequenceVariant": "SK",
 "SeriesDescription": "bold_100x100_s3_2x2x2_static_test_241",
 "SeriesNumber": 5,
 "ShimSetting": [
  -5468,
  -11530,
  -1293,
  550,
  34,
  -223,
  -130,
  6
 ],
 "SliceThickness": 2,
 "SliceTiming": [
  1.485,
  0,
  0.99,
  0.0825,
  1.0725,
  0.165,
  1.155,
  0.2475,
  1.2375,
  0.33,
  1.32,
  0.4125,
  1.4025,
  0.5775,
  1.5675,
  0.66,
  1.65,
  0.7425,
  1.7325,
  0.825,
  1.815,
  0.9075,
  1.8975,
  0.495,
  1.485,
  0,
  0.99,
  0.0825,
  1.0725,
  0.165,
  1.155,
  0.2475,
  1.2375,
  0.33,
  1.32,
  0.4125,
  1.4025,
  0.5775,
  1.5675,
  0.66,
  1.65,
  0.7425,
  1.7325,
  0.825,
  1.815,
  0.9075,
  1.8975,
  0.495,
  1.485,
  0,
  0.99,
  0.0825,
  1.0725,
  0.165,
  1.155,
  0.2475,
  1.2375,
  0.33,
  1.32,
  0.4125,
  1.4025,
  0.5775,
  1.5675,
  0.66,
  1.65,
  0.7425,
  1.7325,
  0.825,
  1.815,
  0.9075,
  1.8975,
  0.495
 ],
 "SoftwareVersions": "syngo_MR_E11",
 "SpacingBetweenSlices": 2,
 "StationName": "AWP166078",
 "TaskName": "coco",
 "TotalReadoutTime": 0.0534586,
 "TxRefAmp": 212.813,
 "dcmmeta_affine": [
  [
   -1.999253749847412,
   -0.048860739916563034,
   -0.02443399652838707,
   104.57366943359375
  ],
  [
   -0.046698588877916336,
   1.9927287101745605,
   -0.16386477649211884,
   -85.66024780273438
  ],
  [
   -0.028348440304398537,
   0.16323313117027283,
   1.9931260347366333,
   -70.2044448852539
  ],
  [
   0.0,
   0.0,
   0.0,
   1.0
  ]
 ],
 "dcmmeta_reorient_transform": [
  [
   0.0,
   -1.0,
   0.0,
   99.0
  ],
  [
   1.0,
   0.0,
   0.0,
   0.0
  ],
  [
   0.0,
   0.0,
   1.0,
   0.0
  ],
  [
   0.0,
   0.0,
   0.0,
   1.0
  ]
 ],
 "dcmmeta_shape": [
  100,
  100,
  72,
  241
 ],
 "dcmmeta_slice_dim": 2,
 "dcmmeta_version": 0.6,
 "global": {
  "const": {
   "AcquisitionMatrix": [
    100,
    0,
    0,
    100
   ],
   "AngioFlag": "N",
   "BitsAllocated": 16,
   "BitsStored": 12,
   "BodyPartExamined": "BRAIN",
   "Columns": 900,
   "EchoNumbers": 1,
   "EchoTime": 34.0,
   "EchoTrainLength": 100,
   "FlipAngle": 90.0,
   "HighBit": 11,
   "ImageOrientationPatient": [
    0.99962688136753,
    0.02334929400859,
    -0.014174220145,
    -0.0244303704077,
    0.9963643378911,
    -0.0816165619257
   ],
   "ImagePositionPatient": [
    -879.89366460666,
    -927.39079394776,
    22.588260260099
   ],
   "ImageType": [
    "ORIGINAL",
    "PRIMARY",
    "M",
    "ND",
    "MOSAIC"
   ],
   "ImagedNucleus": "1H",
   "ImagingFrequency": 123.257777,
   "InPlanePhaseEncodingDirection": "COL",
   "MRAcquisitionType": "2D",
   "MagneticFieldStrength": 3.0,
   "Manufacturer": "SIEMENS",
   "ManufacturerModelName": "Prisma",
   "Modality": "MR",
   "NumberOfAverages": 1.0,
   "NumberOfPhaseEncodingSteps": 100,
   "PercentPhaseFieldOfView": 100.0,
   "PercentSampling": 100.0,
   "PerformedProcedureStepStartTime": "150708.363000",
   "PhotometricInterpretation": "MONOCHROME2",
   "PixelBandwidth": 2380.0,
   "PixelRepresentation": 0,
   "PixelSpacing": [
    2.0,
    2.0
   ],
   "ProtocolName": "bold_100x100_s3_2x2x2_static_test_241",
   "RepetitionTime": 2000.0,
   "Rows": 900,
   "SAR": 0.07471435862482,
   "SamplesPerPixel": 1,
   "ScanOptions": "FS",
   "ScanningSequence": "EP",
   "SequenceName": "*epfid2d1_100",
   "SequenceVariant": "SK",
   "SeriesDescription": "bold_100x100_s3_2x2x2_static_test_241",
   "SeriesNumber": 5,
   "SeriesTime": "152805.404000",
   "SliceLocation": -64.222379756871,
   "SliceThickness": 2.0,
   "SmallestImagePixelValue": 0,
   "SoftwareVersions": "syngo MR E11",
   "SpacingBetweenSlices": 2.0000000081223,
   "SpecificCharacterSet": "ISO_IR 100",
   "StudyID": "1",
   "StudyTime": "150708.281000",
   "TransmitCoilName": "Body",
   "VariableFlipAngleFlag": "N",
   "WindowCenterWidthExplanation": "Algo1",
   "dBdt": 0.0
  },
  "slices": {}
 },
 "time": {
  "samples": {
   "AcquisitionNumber": [
    1,
    2,
    3,
    4,
    5,
    6,
    7,
    8,
    9,
    10,
    11,
    12,
    13,
    14,
    15,
    16,
    17,
    18,
    19,
    20,
    21,
    22,
    23,
    24,
    25,
    26,
    27,
    28,
    29,
    30,
    31,
    32,
    33,
    34,
    35,
    36,
    37,
    38,
    39,
    40,
    41,
    42,
    43,
    44,
    45,
    46,
    47,
    48,
    49,
    50,
    51,
    52,
    53,
    54,
    55,
    56,
    57,
    58,
    59,
    60,
    61,
    62,
    63,
    64,
    65,
    66,
    67,
    68,
    69,
    70,
    71,
    72,
    73,
    74,
    75,
    76,
    77,
    78,
    79,
    80,
    81,
    82,
    83,
    84,
    85,
    86,
    87,
    88,
    89,
    90,
    91,
    92,
    93,
    94,
    95,
    96,
    97,
    98,
    99,
    100,
    101,
    102,
    103,
    104,
    105,
    106,
    107,
    108,
    109,
    110,
    111,
    112,
    113,
    114,
    115,
    116,
    117,
    118,
    119,
    120,
    121,
    122,
    123,
    124,
    125,
    126,
    127,
    128,
    129,
    130,
    131,
    132,
    133,
    134,
    135,
    136,
    137,
    138,
    139,
    140,
    141,
    142,
    143,
    144,
    145,
    146,
    147,
    148,
    149,
    150,
    151,
    152,
    153,
    154,
    155,
    156,
    157,
    158,
    159,
    160,
    161,
    162,
    163,
    164,
    165,
    166,
    167,
    168,
    169,
    170,
    171,
    172,
    173,
    174,
    175,
    176,
    177,
    178,
    179,
    180,
    181,
    182,
    183,
    184,
    185,
    186,
    187,
    188,
    189,
    190,
    191,
    192,
    193,
    194,
    195,
    196,
    197,
    198,
    199,
    200,
    201,
    202,
    203,
    204,
    205,
    206,
    207,
    208,
    209,
    210,
    211,
    212,
    213,
    214,
    215,
    216,
    217,
    218,
    219,
    220,
    221,
    222,
    223,
    224,
    225,
    226,
    227,
    228,
    229,
    230,
    231,
    232,
    233,
    234,
    235,
    236,
    237,
    238,
    239,
    240,
    241
   ],
   "AcquisitionTime": [
    "152802.485000",
    "152804.485000",
    "152806.485000",
    "152808.485000",
    "152810.485000",
    "152812.485000",
    "152814.485000",
    "152816.485000",
    "152818.485000",
    "152820.485000",
    "152822.485000",
    "152824.485000",
    "152826.485000",
    "152828.485000",
    "152830.485000",
    "152832.485000",
    "152834.485000",
    "152836.485000",
    "152838.485000",
    "152840.485000",
    "152842.485000",
    "152844.485000",
    "152846.485000",
    "152848.485000",
    "152850.485000",
    "152852.485000",
    "152854.485000",
    "152856.485000",
    "152858.485000",
    "152900.485000",
    "152902.485000",
    "152904.485000",
    "152906.485000",
    "152908.485000",
    "152910.485000",
    "152912.485000",
    "152914.485000",
    "152916.485000",
    "152918.485000",
    "152920.485000",
    "152922.485000",
    "152924.485000",
    "152926.485000",
    "152928.485000",
    "152930.485000",
    "152932.485000",
    "152934.485000",
    "152936.485000",
    "152938.485000",
    "152940.485000",
    "152942.485000",
    "152944.485000",
    "152946.485000",
    "152948.485000",
    "152950.485000",
    "152952.485000",
    "152954.485000",
    "152956.485000",
    "152958.485000",
    "153000.485000",
    "153002.485000",
    "153004.485000",
    "153006.485000",
    "153008.485000",
    "153010.485000",
    "153012.485000",
    "153014.485000",
    "153016.485000",
    "153018.485000",
    "153020.485000",
    "153022.485000",
    "153024.485000",
    "153026.485000",
    "153028.485000",
    "153030.485000",
    "153032.485000",
    "153034.485000",
    "153036.485000",
    "153038.485000",
    "153040.485000",
    "153042.485000",
    "153044.485000",
    "153046.485000",
    "153048.485000",
    "153050.485000",
    "153052.485000",
    "153054.485000",
    "153056.485000",
    "153058.485000",
    "153100.485000",
    "153102.485000",
    "153104.485000",
    "153106.485000",
    "153108.485000",
    "153110.485000",
    "153112.485000",
    "153114.485000",
    "153116.485000",
    "153118.485000",
    "153120.485000",
    "153122.485000",
    "153124.485000",
    "153126.485000",
    "153128.485000",
    "153130.485000",
    "153132.485000",
    "153134.485000",
    "153136.485000",
    "153138.485000",
    "153140.485000",
    "153142.485000",
    "153144.485000",
    "153146.485000",
    "153148.485000",
    "153150.485000",
    "153152.485000",
    "153154.485000",
    "153156.485000",
    "153158.485000",
    "153200.485000",
    "153202.485000",
    "153204.485000",
    "153206.485000",
    "153208.485000",
    "153210.485000",
    "153212.485000",
    "153214.485000",
    "153216.485000",
    "153218.485000",
    "153220.485000",
    "153222.485000",
    "153224.485000",
    "153226.485000",
    "153228.485000",
    "153230.485000",
    "153232.485000",
    "153234.485000",
    "153236.485000",
    "153238.485000",
    "153240.485000",
    "153242.485000",
    "153244.485000",
    "153246.485000",
    "153248.485000",
    "153250.485000",
    "153252.485000",
    "153254.485000",
    "153256.485000",
    "153258.485000",
    "153300.485000",
    "153302.485000",
    "153304.485000",
    "153306.485000",
    "153308.485000",
    "153310.485000",
    "153312.485000",
    "153314.485000",
    "153316.485000",
    "153318.485000",
    "153320.485000",
    "153322.485000",
    "153324.485000",
    "153326.485000",
    "153328.485000",
    "153330.485000",
    "153332.485000",
    "153334.485000",
    "153336.485000",
    "153338.485000",
    "153340.485000",
    "153342.485000",
    "153344.485000",
    "153346.485000",
    "153348.485000",
    "153350.485000",
    "153352.485000",
    "153354.485000",
    "153356.485000",
    "153358.485000",
    "153400.485000",
    "153402.485000",
    "153404.485000",
    "153406.485000",
    "153408.485000",
    "153410.485000",
    "153412.485000",
    "153414.485000",
    "153416.485000",
    "153418.485000",
    "153420.485000",
    "153422.485000",
    "153424.485000",
    "153426.485000",
    "153428.485000",
    "153430.485000",
    "153432.485000",
    "153434.485000",
    "153436.485000",
    "153438.485000",
    "153440.485000",
    "153442.485000",
    "153444.485000",
    "153446.485000",
    "153448.485000",
    "153450.485000",
    "153452.485000",
    "153454.485000",
    "153456.485000",
    "153458.485000",
    "153500.485000",
    "153502.485000",
    "153504.485000",
    "153506.485000",
    "153508.485000",
    "153510.485000",
    "153512.485000",
    "153514.485000",
    "153516.485000",
    "153518.485000",
    "153520.485000",
    "153522.485000",
    "153524.485000",
    "153526.485000",
    "153528.485000",
    "153530.485000",
    "153532.485000",
    "153534.485000",
    "153536.485000",
    "153538.485000",
    "153540.485000",
    "153542.485000",
    "153544.485000",
    "153546.485000",
    "153548.485000",
    "153550.485000",
    "153552.485000",
    "153554.485000",
    "153556.485000",
    "153558.485000",
    "153600.485000",
    "153602.485000"
   ],
   "ContentTime": [
    "152805.408000",
    "152806.402000",
    "152808.403000",
    "152810.404000",
    "152812.403000",
    "152814.404000",
    "152816.403000",
    "152818.403000",
    "152820.403000",
    "152822.904000",
    "152824.402000",
    "152826.403000",
    "152828.403000",
    "152830.903000",
    "152832.403000",
    "152834.403000",
    "152836.403000",
    "152838.403000",
    "152840.404000",
    "152842.403000",
    "152844.403000",
    "152846.403000",
    "152848.404000",
    "152850.404000",
    "152852.403000",
    "152854.404000",
    "152856.404000",
    "152858.403000",
    "152900.402000",
    "152902.402000",
    "152904.404000",
    "152906.404000",
    "152908.403000",
    "152910.903000",
    "152912.404000",
    "152914.403000",
    "152916.402000",
    "152918.902000",
    "152920.403000",
    "152922.403000",
    "152924.403000",
    "152926.403000",
    "152928.403000",
    "152930.404000",
    "152932.404000",
    "152934.403000",
    "152936.402000",
    "152938.403000",
    "152940.404000",
    "152942.403000",
    "152944.403000",
    "152946.404000",
    "152948.404000",
    "152950.403000",
    "152952.403000",
    "152954.402000",
    "152956.403000",
    "152958.403000",
    "153000.404000",
    "153002.403000",
    "153004.404000",
    "153006.403000",
    "153008.404000",
    "153010.402000",
    "153012.403000",
    "153014.403000",
    "153016.403000",
    "153018.403000",
    "153020.403000",
    "153022.403000",
    "153024.404000",
    "153026.403000",
    "153028.902000",
    "153030.403000",
    "153032.904000",
    "153034.903000",
    "153036.404000",
    "153038.403000",
    "153040.404000",
    "153042.903000",
    "153044.903000",
    "153046.402000",
    "153048.403000",
    "153050.403000",
    "153052.423000",
    "153054.403000",
    "153056.403000",
    "153058.404000",
    "153100.404000",
    "153102.403000",
    "153104.402000",
    "153106.903000",
    "153108.403000",
    "153110.423000",
    "153112.403000",
    "153114.403000",
    "153116.404000",
    "153118.403000",
    "153120.402000",
    "153122.404000",
    "153124.403000",
    "153126.403000",
    "153128.904000",
    "153130.403000",
    "153132.903000",
    "153134.903000",
    "153136.403000",
    "153138.402000",
    "153140.403000",
    "153142.903000",
    "153144.404000",
    "153146.404000",
    "153148.904000",
    "153150.903000",
    "153152.403000",
    "153154.403000",
    "153156.403000",
    "153158.903000",
    "153200.404000",
    "153202.403000",
    "153204.403000",
    "153206.403000",
    "153208.403000",
    "153210.403000",
    "153212.403000",
    "153214.903000",
    "153216.404000",
    "153218.404000",
    "153220.403000",
    "153222.404000",
    "153224.404000",
    "153226.403000",
    "153228.404000",
    "153230.402000",
    "153232.403000",
    "153234.404000",
    "153236.404000",
    "153238.404000",
    "153240.404000",
    "153242.404000",
    "153244.403000",
    "153246.403000",
    "153248.402000",
    "153250.403000",
    "153252.904000",
    "153254.403000",
    "153256.403000",
    "153258.903000",
    "153300.404000",
    "153302.403000",
    "153304.402000",
    "153306.403000",
    "153308.404000",
    "153310.903000",
    "153312.419000",
    "153314.403000",
    "153316.404000",
    "153318.404000",
    "153320.404000",
    "153322.403000",
    "153324.904000",
    "153326.404000",
    "153328.424000",
    "153330.404000",
    "153332.404000",
    "153334.403000",
    "153336.403000",
    "153338.404000",
    "153340.422000",
    "153342.403000",
    "153344.404000",
    "153346.904000",
    "153348.403000",
    "153350.403000",
    "153352.403000",
    "153354.404000",
    "153356.403000",
    "153358.403000",
    "153400.404000",
    "153402.404000",
    "153404.404000",
    "153406.403000",
    "153408.403000",
    "153410.403000",
    "153412.403000",
    "153414.402000",
    "153416.402000",
    "153418.403000",
    "153420.404000",
    "153422.405000",
    "153424.403000",
    "153426.403000",
    "153428.903000",
    "153430.404000",
    "153432.402000",
    "153434.402000",
    "153436.404000",
    "153438.403000",
    "153440.904000",
    "153442.404000",
    "153444.404000",
    "153446.403000",
    "153448.404000",
    "153450.403000",
    "153452.404000",
    "153454.403000",
    "153456.403000",
    "153458.403000",
    "153500.404000",
    "153502.403000",
    "153504.403000",
    "153506.402000",
    "153508.902000",
    "153510.404000",
    "153512.404000",
    "153514.404000",
    "153516.403000",
    "153518.404000",
    "153520.404000",
    "153522.404000",
    "153524.403000",
    "153526.903000",
    "153528.404000",
    "153530.404000",
    "153532.403000",
    "153534.404000",
    "153536.403000",
    "153538.403000",
    "153540.403000",
    "153542.403000",
    "153544.903000",
    "153546.403000",
    "153548.404000",
    "153550.904000",
    "153552.904000",
    "153554.404000",
    "153556.904000",
    "153558.404000",
    "153600.402000",
    "153602.404000",
    "153604.420000"
   ],
   "InstanceCreationTime": [
    "152805.408000",
    "152806.402000",
    "152808.403000",
    "152810.404000",
    "152812.403000",
    "152814.404000",
    "152816.403000",
    "152818.403000",
    "152820.403000",
    "152822.904000",
    "152824.402000",
    "152826.403000",
    "152828.403000",
    "152830.903000",
    "152832.403000",
    "152834.403000",
    "152836.403000",
    "152838.403000",
    "152840.404000",
    "152842.403000",
    "152844.403000",
    "152846.403000",
    "152848.404000",
    "152850.404000",
    "152852.403000",
    "152854.404000",
    "152856.404000",
    "152858.403000",
    "152900.402000",
    "152902.402000",
    "152904.404000",
    "152906.404000",
    "152908.403000",
    "152910.903000",
    "152912.404000",
    "152914.403000",
    "152916.402000",
    "152918.902000",
    "152920.403000",
    "152922.403000",
    "152924.403000",
    "152926.403000",
    "152928.403000",
    "152930.404000",
    "152932.404000",
    "152934.403000",
    "152936.402000",
    "152938.403000",
    "152940.404000",
    "152942.403000",
    "152944.403000",
    "152946.404000",
    "152948.404000",
    "152950.403000",
    "152952.403000",
    "152954.402000",
    "152956.403000",
    "152958.403000",
    "153000.404000",
    "153002.403000",
    "153004.404000",
    "153006.403000",
    "153008.404000",
    "153010.402000",
    "153012.403000",
    "153014.403000",
    "153016.403000",
    "153018.403000",
    "153020.403000",
    "153022.403000",
    "153024.404000",
    "153026.403000",
    "153028.902000",
    "153030.403000",
    "153032.904000",
    "153034.903000",
    "153036.404000",
    "153038.403000",
    "153040.404000",
    "153042.903000",
    "153044.903000",
    "153046.402000",
    "153048.403000",
    "153050.403000",
    "153052.423000",
    "153054.403000",
    "153056.403000",
    "153058.404000",
    "153100.404000",
    "153102.403000",
    "153104.402000",
    "153106.903000",
    "153108.403000",
    "153110.423000",
    "153112.403000",
    "153114.403000",
    "153116.404000",
    "153118.403000",
    "153120.402000",
    "153122.404000",
    "153124.403000",
    "153126.403000",
    "153128.904000",
    "153130.403000",
    "153132.903000",
    "153134.903000",
    "153136.403000",
    "153138.402000",
    "153140.403000",
    "153142.903000",
    "153144.404000",
    "153146.404000",
    "153148.904000",
    "153150.903000",
    "153152.403000",
    "153154.403000",
    "153156.403000",
    "153158.903000",
    "153200.404000",
    "153202.403000",
    "153204.403000",
    "153206.403000",
    "153208.403000",
    "153210.403000",
    "153212.403000",
    "153214.903000",
    "153216.404000",
    "153218.404000",
    "153220.403000",
    "153222.404000",
    "153224.404000",
    "153226.403000",
    "153228.404000",
    "153230.402000",
    "153232.403000",
    "153234.404000",
    "153236.404000",
    "153238.404000",
    "153240.404000",
    "153242.404000",
    "153244.403000",
    "153246.403000",
    "153248.402000",
    "153250.403000",
    "153252.904000",
    "153254.403000",
    "153256.403000",
    "153258.903000",
    "153300.404000",
    "153302.403000",
    "153304.402000",
    "153306.403000",
    "153308.404000",
    "153310.903000",
    "153312.419000",
    "153314.403000",
    "153316.404000",
    "153318.404000",
    "153320.404000",
    "153322.403000",
    "153324.904000",
    "153326.404000",
    "153328.424000",
    "153330.404000",
    "153332.404000",
    "153334.403000",
    "153336.403000",
    "153338.404000",
    "153340.422000",
    "153342.403000",
    "153344.404000",
    "153346.904000",
    "153348.403000",
    "153350.403000",
    "153352.403000",
    "153354.404000",
    "153356.403000",
    "153358.403000",
    "153400.404000",
    "153402.404000",
    "153404.404000",
    "153406.403000",
    "153408.403000",
    "153410.403000",
    "153412.403000",
    "153414.402000",
    "153416.402000",
    "153418.403000",
    "153420.404000",
    "153422.405000",
    "153424.403000",
    "153426.403000",
    "153428.903000",
    "153430.404000",
    "153432.402000",
    "153434.402000",
    "153436.404000",
    "153438.403000",
    "153440.904000",
    "153442.404000",
    "153444.404000",
    "153446.403000",
    "153448.404000",
    "153450.403000",
    "153452.404000",
    "153454.403000",
    "153456.403000",
    "153458.403000",
    "153500.404000",
    "153502.403000",
    "153504.403000",
    "153506.402000",
    "153508.902000",
    "153510.404000",
    "153512.404000",
    "153514.404000",
    "153516.403000",
    "153518.404000",
    "153520.404000",
    "153522.404000",
    "153524.403000",
    "153526.903000",
    "153528.404000",
    "153530.404000",
    "153532.403000",
    "153534.404000",
    "153536.403000",
    "153538.403000",
    "153540.403000",
    "153542.403000",
    "153544.903000",
    "153546.403000",
    "153548.404000",
    "153550.904000",
    "153552.904000",
    "153554.404000",
    "153556.904000",
    "153558.404000",
    "153600.402000",
    "153602.404000",
    "153604.420000"
   ],
   "InstanceNumber": [
    1,
    2,
    3,
    4,
    5,
    6,
    7,
    8,
    9,
    10,
    11,
    12,
    13,
    14,
    15,
    16,
    17,
    18,
    19,
    20,
    21,
    22,
    23,
    24,
    25,
    26,
    27,
    28,
    29,
    30,
    31,
    32,
    33,
    34,
    35,
    36,
    37,
    38,
    39,
    40,
    41,
    42,
    43,
    44,
    45,
    46,
    47,
    48,
    49,
    50,
    51,
    52,
    53,
    54,
    55,
    56,
    57,
    58,
    59,
    60,
    61,
    62,
    63,
    64,
    65,
    66,
    67,
    68,
    69,
    70,
    71,
    72,
    73,
    74,
    75,
    76,
    77,
    78,
    79,
    80,
    81,
    82,
    83,
    84,
    85,
    86,
    87,
    88,
    89,
    90,
    91,
    92,
    93,
    94,
    95,
    96,
    97,
    98,
    99,
    100,
    101,
    102,
    103,
    104,
    105,
    106,
    107,
    108,
    109,
    110,
    111,
    112,
    113,
    114,
    115,
    116,
    117,
    118,
    119,
    120,
    121,
    122,
    123,
    124,
    125,
    126,
    127,
    128,
    129,
    130,
    131,
    132,
    133,
    134,
    135,
    136,
    137,
    138,
    139,
    140,
    141,
    142,
    143,
    144,
    145,
    146,
    147,
    148,
    149,
    150,
    151,
    152,
    153,
    154,
    155,
    156,
    157,
    158,
    159,
    160,
    161,
    162,
    163,
    164,
    165,
    166,
    167,
    168,
    169,
    170,
    171,
    172,
    173,
    174,
    175,
    176,
    177,
    178,
    179,
    180,
    181,
    182,
    183,
    184,
    185,
    186,
    187,
    188,
    189,
    190,
    191,
    192,
    193,
    194,
    195,
    196,
    197,
    198,
    199,
    200,
    201,
    202,
    203,
    204,
    205,
    206,
    207,
    208,
    209,
    210,
    211,
    212,
    213,
    214,
    215,
    216,
    217,
    218,
    219,
    220,
    221,
    222,
    223,
    224,
    225,
    226,
    227,
    228,
    229,
    230,
    231,
    232,
    233,
    234,
    235,
    236,
    237,
    238,
    239,
    240,
    241
   ],
   "LargestImagePixelValue": [
    2707,
    2664,
    2660,
    2652,
    2677,
    2639,
    2671,
    2698,
    2712,
    2712,
    2712,
    2699,
    2688,
    2710,
    2709,
    2727,
    2685,
    2704,
    2699,
    2721,
    2711,
    2699,
    2699,
    2699,
    2706,
    2664,
    2706,
    2696,
    2712,
    2724,
    2734,
    2722,
    2699,
    2708,
    2749,
    2761,
    2763,
    2698,
    2710,
    2741,
    2729,
    2751,
    2709,
    2694,
    2701,
    2695,
    2711,
    2690,
    2681,
    2706,
    2695,
    2745,
    2783,
    2762,
    2713,
    2708,
    2690,
    2712,
    2709,
    2711,
    2695,
    2747,
    2700,
    2712,
    2688,
    2707,
    2730,
    2689,
    2716,
    2746,
    2772,
    2732,
    2731,
    2699,
    2702,
    2699,
    2716,
    2754,
    2780,
    2746,
    2732,
    2742,
    2736,
    2717,
    2738,
    2761,
    2723,
    2722,
    2724,
    2737,
    2773,
    2730,
    2749,
    2738,
    2717,
    2763,
    2754,
    2725,
    2756,
    2769,
    2774,
    2723,
    2733,
    2735,
    2764,
    2742,
    2728,
    2754,
    2678,
    2695,
    2663,
    2701,
    2742,
    2739,
    2729,
    2697,
    2708,
    2701,
    2709,
    2692,
    2645,
    2704,
    2683,
    2684,
    2707,
    2742,
    2762,
    2693,
    2661,
    2698,
    2709,
    2702,
    2689,
    2682,
    2677,
    2719,
    2698,
    2727,
    2704,
    2667,
    2719,
    2690,
    2719,
    2734,
    2698,
    2724,
    2706,
    2749,
    2681,
    2727,
    2688,
    2713,
    2704,
    2746,
    2687,
    2641,
    2699,
    2707,
    2710,
    2710,
    2718,
    2674,
    2704,
    2719,
    2680,
    2662,
    2655,
    2697,
    2691,
    2696,
    2675,
    2747,
    2699,
    2729,
    2645,
    2642,
    2625,
    2644,
    2672,
    2708,
    2689,
    2665,
    2644,
    2641,
    2632,
    2639,
    2608,
    2681,
    2697,
    2672,
    2680,
    2659,
    2692,
    2715,
    2678,
    2695,
    2693,
    2738,
    2685,
    2690,
    2671,
    2670,
    2653,
    2640,
    2654,
    2645,
    2677,
    2621,
    2670,
    2659,
    2670,
    2651,
    2704,
    2738,
    2732,
    2675,
    2732,
    2640,
    2663,
    2654,
    2655,
    2691,
    2648,
    2635,
    2667,
    2625,
    2679,
    2648,
    2651,
    2684,
    2726,
    2660,
    2718,
    2644,
    2694,
    2655,
    2618,
    2611,
    2643,
    2649,
    2720
   ],
   "WindowCenter": [
    734.0,
    733.0,
    733.0,
    734.0,
    733.0,
    732.0,
    731.0,
    732.0,
    733.0,
    733.0,
    734.0,
    733.0,
    732.0,
    733.0,
    733.0,
    734.0,
    733.0,
    733.0,
    734.0,
    733.0,
    734.0,
    734.0,
    733.0,
    732.0,
    731.0,
    731.0,
    732.0,
    733.0,
    733.0,
    733.0,
    734.0,
    732.0,
    732.0,
    731.0,
    732.0,
    733.0,
    733.0,
    733.0,
    734.0,
    734.0,
    733.0,
    734.0,
    734.0,
    733.0,
    732.0,
    732.0,
    733.0,
    732.0,
    732.0,
    731.0,
    732.0,
    732.0,
    732.0,
    733.0,
    733.0,
    733.0,
    732.0,
    733.0,
    732.0,
    733.0,
    732.0,
    732.0,
    732.0,
    731.0,
    731.0,
    733.0,
    733.0,
    732.0,
    732.0,
    732.0,
    733.0,
    732.0,
    731.0,
    732.0,
    733.0,
    735.0,
    735.0,
    734.0,
    733.0,
    732.0,
    732.0,
    733.0,
    733.0,
    733.0,
    735.0,
    734.0,
    734.0,
    733.0,
    733.0,
    734.0,
    734.0,
    735.0,
    734.0,
    733.0,
    733.0,
    734.0,
    735.0,
    735.0,
    735.0,
    734.0,
    734.0,
    734.0,
    733.0,
    733.0,
    733.0,
    733.0,
    734.0,
    735.0,
    734.0,
    734.0,
    734.0,
    734.0,
    734.0,
    734.0,
    733.0,
    734.0,
    734.0,
    734.0,
    734.0,
    733.0,
    733.0,
    733.0,
    733.0,
    734.0,
    734.0,
    735.0,
    735.0,
    733.0,
    733.0,
    734.0,
    735.0,
    734.0,
    734.0,
    733.0,
    735.0,
    735.0,
    735.0,
    733.0,
    732.0,
    732.0,
    732.0,
    733.0,
    734.0,
    734.0,
    733.0,
    732.0,
    731.0,
    732.0,
    732.0,
    733.0,
    733.0,
    733.0,
    733.0,
    733.0,
    732.0,
    733.0,
    733.0,
    733.0,
    733.0,
    732.0,
    733.0,
    732.0,
    732.0,
    733.0,
    732.0,
    733.0,
    732.0,
    734.0,
    733.0,
    733.0,
    733.0,
    733.0,
    733.0,
    732.0,
    732.0,
    732.0,
    733.0,
    733.0,
    733.0,
    732.0,
    732.0,
    733.0,
    733.0,
    733.0,
    732.0,
    731.0,
    732.0,
    734.0,
    735.0,
    733.0,
    732.0,
    732.0,
    732.0,
    732.0,
    732.0,
    733.0,
    733.0,
    733.0,
    733.0,
    734.0,
    734.0,
    733.0,
    733.0,
    733.0,
    733.0,
    733.0,
    733.0,
    732.0,
    733.0,
    733.0,
    733.0,
    733.0,
    732.0,
    734.0,
    733.0,
    733.0,
    732.0,
    731.0,
    731.0,
    733.0,
    735.0,
    735.0,
    732.0,
    731.0,
    731.0,
    731.0,
    731.0,
    732.0,
    732.0,
    732.0,
    732.0,
    732.0,
