{
 "AcquisitionMatrixPE": 100,
 "AcquisitionNumber": 1,
 "AcquisitionTime": "15:10:9.145000",
 "BandwidthPerPixelPhaseEncode": 18.519,
 "BaseResolution": 100,
 "BodyPartExamined": "BRAIN",
 "ConsistencyInfo": "N4_VE11C_LATEST_20160120",
 "ConversionSoftware": "dcm2niix",
 "ConversionSoftwareVersion": "v1.0.20180622 GCC4.9.2",
 "DerivedVendorReportedEchoSpacing": 0.000539986,
 "DeviceSerialNumber": "166078",
 "DwellTime": 2.1e-06,
 "EchoTime": 0.034,
 "EchoTrainLength": 100,
 "EffectiveEchoSpacing": 0.000539986,
 "FlipAngle": 90,
 "ImageOrientationPatientDICOM": [
  0.999627,
  0.0233493,
  -0.0141742,
  -0.0244304,
  0.996364,
  -0.0816166
 ],
 "ImageType": [
  "ORIGINAL",
  "PRIMARY",
  "M",
  "ND",
  "MOSAIC"
 ],
 "InPlanePhaseEncodingDirectionDICOM": "COL",
 "InstitutionAddress": "Street_StreetNo_Bei_Jing_District_CN_ZIP",
 "InstitutionName": "BeiJing_Normal_University",
 "InstitutionalDepartmentName": "Department",
 "MRAcquisitionType": "2D",
 "MagneticFieldStrength": 3,
 "Manufacturer": "Siemens",
 "ManufacturersModelName": "Prisma",
 "Modality": "MR",
 "MultibandAccelerationFactor": 3,
 "PartialFourier": 1,
 "PatientPosition": "HFS",
 "PercentPhaseFOV": 100,
 "PhaseEncodingDirection": "j-",
 "PhaseEncodingSteps": 100,
 "PhaseResolution": 1,
 "PixelBandwidth": 2380,
 "ProcedureStepDescription": "BNU_P2018_64CH_Zhen.ZongLei",
 "ProtocolName": "bold_100x100_s3_2x2x2_static_test_241",
 "PulseSequenceDetails": "%SiemensSeq%_ep2d_bold",
 "ReceiveCoilActiveElements": "HC1-7;NC1",
 "ReceiveCoilName": "HeadNeck_64",
 "ReconMatrixPE": 100,
 "RepetitionTime": 2,
 "SAR": 0.0747144,
 "ScanOptions": "FS",
 "ScanningSequence": "EP",
 "SequenceName": "_epfid2d1_100",
 "SequenceVariant": "SK",
 "SeriesDescription": "bold_100x100_s3_2x2x2_static_test_241",
 "SeriesNumber": 3,
 "ShimSetting": [
  -5468,
  -11530,
  -1293,
  550,
  34,
  -223,
  -130,
  6
 ],
 "SliceThickness": 2,
 "SliceTiming": [
  1.485,
  0,
  0.99,
  0.0825,
  1.0725,
  0.165,
  1.155,
  0.2475,
  1.2375,
  0.33,
  1.32,
  0.4125,
  1.4025,
  0.5775,
  1.5675,
  0.66,
  1.65,
  0.7425,
  1.7325,
  0.825,
  1.815,
  0.9075,
  1.8975,
  0.495,
  1.485,
  0,
  0.99,
  0.0825,
  1.0725,
  0.165,
  1.155,
  0.2475,
  1.2375,
  0.33,
  1.32,
  0.4125,
  1.4025,
  0.5775,
  1.5675,
  0.66,
  1.65,
  0.7425,
  1.7325,
  0.825,
  1.815,
  0.9075,
  1.8975,
  0.495,
  1.485,
  0,
  0.99,
  0.0825,
  1.0725,
  0.165,
  1.155,
  0.2475,
  1.2375,
  0.33,
  1.32,
  0.4125,
  1.4025,
  0.5775,
  1.5675,
  0.66,
  1.65,
  0.7425,
  1.7325,
  0.825,
  1.815,
  0.9075,
  1.8975,
  0.495
 ],
 "SoftwareVersions": "syngo_MR_E11",
 "SpacingBetweenSlices": 2,
 "StationName": "AWP166078",
 "TaskName": "coco",
 "TotalReadoutTime": 0.0534586,
 "TxRefAmp": 212.813,
 "dcmmeta_affine": [
  [
   -1.999253749847412,
   -0.048860739916563034,
   -0.02443399652838707,
   104.57366943359375
  ],
  [
   -0.046698588877916336,
   1.9927287101745605,
   -0.16386477649211884,
   -85.66024780273438
  ],
  [
   -0.028348440304398537,
   0.16323313117027283,
   1.9931260347366333,
   -70.2044448852539
  ],
  [
   0.0,
   0.0,
   0.0,
   1.0
  ]
 ],
 "dcmmeta_reorient_transform": [
  [
   0.0,
   -1.0,
   0.0,
   99.0
  ],
  [
   1.0,
   0.0,
   0.0,
   0.0
  ],
  [
   0.0,
   0.0,
   1.0,
   0.0
  ],
  [
   0.0,
   0.0,
   0.0,
   1.0
  ]
 ],
 "dcmmeta_shape": [
  100,
  100,
  72,
  241
 ],
 "dcmmeta_slice_dim": 2,
 "dcmmeta_version": 0.6,
 "global": {
  "const": {
   "AcquisitionMatrix": [
    100,
    0,
    0,
    100
   ],
   "AngioFlag": "N",
   "BitsAllocated": 16,
   "BitsStored": 12,
   "BodyPartExamined": "BRAIN",
   "Columns": 900,
   "EchoNumbers": 1,
   "EchoTime": 34.0,
   "EchoTrainLength": 100,
   "FlipAngle": 90.0,
   "HighBit": 11,
   "ImageOrientationPatient": [
    0.99962688136753,
    0.02334929400859,
    -0.014174220145,
    -0.0244303704077,
    0.9963643378911,
    -0.0816165619257
   ],
   "ImagePositionPatient": [
    -879.89366460666,
    -927.39079394776,
    22.588260260099
   ],
   "ImageType": [
    "ORIGINAL",
    "PRIMARY",
    "M",
    "ND",
    "MOSAIC"
   ],
   "ImagedNucleus": "1H",
   "ImagingFrequency": 123.25777,
   "InPlanePhaseEncodingDirection": "COL",
   "MRAcquisitionType": "2D",
   "MagneticFieldStrength": 3.0,
   "Manufacturer": "SIEMENS",
   "ManufacturerModelName": "Prisma",
   "Modality": "MR",
   "NumberOfAverages": 1.0,
   "NumberOfPhaseEncodingSteps": 100,
   "PercentPhaseFieldOfView": 100.0,
   "PercentSampling": 100.0,
   "PerformedProcedureStepStartTime": "150708.363000",
   "PhotometricInterpretation": "MONOCHROME2",
   "PixelBandwidth": 2380.0,
   "PixelRepresentation": 0,
   "PixelSpacing": [
    2.0,
    2.0
   ],
   "ProtocolName": "bold_100x100_s3_2x2x2_static_test_241",
   "RepetitionTime": 2000.0,
   "Rows": 900,
   "SAR": 0.07471435862482,
   "SamplesPerPixel": 1,
   "ScanOptions": "FS",
   "ScanningSequence": "EP",
   "SequenceName": "*epfid2d1_100",
   "SequenceVariant": "SK",
   "SeriesDescription": "bold_100x100_s3_2x2x2_static_test_241",
   "SeriesNumber": 3,
   "SeriesTime": "151011.105000",
   "SliceLocation": -64.222379756871,
   "SliceThickness": 2.0,
   "SmallestImagePixelValue": 0,
   "SoftwareVersions": "syngo MR E11",
   "SpacingBetweenSlices": 2.0000000081223,
   "SpecificCharacterSet": "ISO_IR 100",
   "StudyID": "1",
   "StudyTime": "150708.281000",
   "TransmitCoilName": "Body",
   "VariableFlipAngleFlag": "N",
   "WindowCenterWidthExplanation": "Algo1",
   "dBdt": 0.0
  },
  "slices": {}
 },
 "time": {
  "samples": {
   "AcquisitionNumber": [
    1,
    2,
    3,
    4,
    5,
    6,
    7,
    8,
    9,
    10,
    11,
    12,
    13,
    14,
    15,
    16,
    17,
    18,
    19,
    20,
    21,
    22,
    23,
    24,
    25,
    26,
    27,
    28,
    29,
    30,
    31,
    32,
    33,
    34,
    35,
    36,
    37,
    38,
    39,
    40,
    41,
    42,
    43,
    44,
    45,
    46,
    47,
    48,
    49,
    50,
    51,
    52,
    53,
    54,
    55,
    56,
    57,
    58,
    59,
    60,
    61,
    62,
    63,
    64,
    65,
    66,
    67,
    68,
    69,
    70,
    71,
    72,
    73,
    74,
    75,
    76,
    77,
    78,
    79,
    80,
    81,
    82,
    83,
    84,
    85,
    86,
    87,
    88,
    89,
    90,
    91,
    92,
    93,
    94,
    95,
    96,
    97,
    98,
    99,
    100,
    101,
    102,
    103,
    104,
    105,
    106,
    107,
    108,
    109,
    110,
    111,
    112,
    113,
    114,
    115,
    116,
    117,
    118,
    119,
    120,
    121,
    122,
    123,
    124,
    125,
    126,
    127,
    128,
    129,
    130,
    131,
    132,
    133,
    134,
    135,
    136,
    137,
    138,
    139,
    140,
    141,
    142,
    143,
    144,
    145,
    146,
    147,
    148,
    149,
    150,
    151,
    152,
    153,
    154,
    155,
    156,
    157,
    158,
    159,
    160,
    161,
    162,
    163,
    164,
    165,
    166,
    167,
    168,
    169,
    170,
    171,
    172,
    173,
    174,
    175,
    176,
    177,
    178,
    179,
    180,
    181,
    182,
    183,
    184,
    185,
    186,
    187,
    188,
    189,
    190,
    191,
    192,
    193,
    194,
    195,
    196,
    197,
    198,
    199,
    200,
    201,
    202,
    203,
    204,
    205,
    206,
    207,
    208,
    209,
    210,
    211,
    212,
    213,
    214,
    215,
    216,
    217,
    218,
    219,
    220,
    221,
    222,
    223,
    224,
    225,
    226,
    227,
    228,
    229,
    230,
    231,
    232,
    233,
    234,
    235,
    236,
    237,
    238,
    239,
    240,
    241
   ],
   "AcquisitionTime": [
    "151009.145000",
    "151011.145000",
    "151013.145000",
    "151015.145000",
    "151017.145000",
    "151019.145000",
    "151021.145000",
    "151023.145000",
    "151025.145000",
    "151027.145000",
    "151029.145000",
    "151031.145000",
    "151033.145000",
    "151035.145000",
    "151037.145000",
    "151039.145000",
    "151041.145000",
    "151043.145000",
    "151045.145000",
    "151047.145000",
    "151049.145000",
    "151051.145000",
    "151053.145000",
    "151055.145000",
    "151057.145000",
    "151059.145000",
    "151101.145000",
    "151103.145000",
    "151105.145000",
    "151107.145000",
    "151109.145000",
    "151111.145000",
    "151113.145000",
    "151115.145000",
    "151117.145000",
    "151119.145000",
    "151121.145000",
    "151123.145000",
    "151125.145000",
    "151127.145000",
    "151129.145000",
    "151131.145000",
    "151133.145000",
    "151135.145000",
    "151137.145000",
    "151139.145000",
    "151141.145000",
    "151143.145000",
    "151145.145000",
    "151147.145000",
    "151149.145000",
    "151151.145000",
    "151153.145000",
    "151155.145000",
    "151157.145000",
    "151159.145000",
    "151201.145000",
    "151203.145000",
    "151205.145000",
    "151207.145000",
    "151209.145000",
    "151211.145000",
    "151213.145000",
    "151215.145000",
    "151217.145000",
    "151219.145000",
    "151221.145000",
    "151223.145000",
    "151225.145000",
    "151227.145000",
    "151229.145000",
    "151231.145000",
    "151233.145000",
    "151235.145000",
    "151237.145000",
    "151239.145000",
    "151241.145000",
    "151243.145000",
    "151245.145000",
    "151247.145000",
    "151249.145000",
    "151251.145000",
    "151253.145000",
    "151255.145000",
    "151257.145000",
    "151259.145000",
    "151301.145000",
    "151303.145000",
    "151305.145000",
    "151307.145000",
    "151309.145000",
    "151311.145000",
    "151313.145000",
    "151315.145000",
    "151317.145000",
    "151319.145000",
    "151321.145000",
    "151323.145000",
    "151325.145000",
    "151327.145000",
    "151329.145000",
    "151331.145000",
    "151333.145000",
    "151335.145000",
    "151337.145000",
    "151339.145000",
    "151341.145000",
    "151343.145000",
    "151345.145000",
    "151347.145000",
    "151349.145000",
    "151351.145000",
    "151353.145000",
    "151355.145000",
    "151357.145000",
    "151359.145000",
    "151401.145000",
    "151403.145000",
    "151405.145000",
    "151407.145000",
    "151409.145000",
    "151411.145000",
    "151413.145000",
    "151415.145000",
    "151417.145000",
    "151419.145000",
    "151421.145000",
    "151423.145000",
    "151425.145000",
    "151427.145000",
    "151429.145000",
    "151431.145000",
    "151433.145000",
    "151435.145000",
    "151437.145000",
    "151439.145000",
    "151441.145000",
    "151443.145000",
    "151445.145000",
    "151447.145000",
    "151449.145000",
    "151451.145000",
    "151453.145000",
    "151455.145000",
    "151457.145000",
    "151459.145000",
    "151501.145000",
    "151503.145000",
    "151505.145000",
    "151507.145000",
    "151509.145000",
    "151511.145000",
    "151513.145000",
    "151515.145000",
    "151517.145000",
    "151519.145000",
    "151521.145000",
    "151523.145000",
    "151525.145000",
    "151527.145000",
    "151529.145000",
    "151531.145000",
    "151533.145000",
    "151535.145000",
    "151537.145000",
    "151539.145000",
    "151541.145000",
    "151543.145000",
    "151545.145000",
    "151547.145000",
    "151549.145000",
    "151551.145000",
    "151553.145000",
    "151555.145000",
    "151557.145000",
    "151559.145000",
    "151601.145000",
    "151603.145000",
    "151605.145000",
    "151607.145000",
    "151609.145000",
    "151611.145000",
    "151613.145000",
    "151615.145000",
    "151617.145000",
    "151619.145000",
    "151621.145000",
    "151623.145000",
    "151625.145000",
    "151627.145000",
    "151629.145000",
    "151631.145000",
    "151633.145000",
    "151635.145000",
    "151637.145000",
    "151639.145000",
    "151641.145000",
    "151643.145000",
    "151645.145000",
    "151647.145000",
    "151649.145000",
    "151651.145000",
    "151653.145000",
    "151655.145000",
    "151657.145000",
    "151659.145000",
    "151701.145000",
    "151703.145000",
    "151705.145000",
    "151707.145000",
    "151709.145000",
    "151711.145000",
    "151713.145000",
    "151715.145000",
    "151717.145000",
    "151719.145000",
    "151721.145000",
    "151723.145000",
    "151725.145000",
    "151727.145000",
    "151729.145000",
    "151731.145000",
    "151733.145000",
    "151735.145000",
    "151737.145000",
    "151739.145000",
    "151741.145000",
    "151743.145000",
    "151745.145000",
    "151747.145000",
    "151749.145000",
    "151751.145000",
    "151753.145000",
    "151755.145000",
    "151757.145000",
    "151759.145000",
    "151801.145000",
    "151803.145000",
    "151805.145000",
    "151807.145000",
    "151809.145000"
   ],
   "ContentTime": [
    "151011.108000",
    "151013.103000",
    "151015.103000",
    "151016.603000",
    "151018.603000",
    "151020.602000",
    "151023.102000",
    "151024.603000",
    "151027.103000",
    "151028.603000",
    "151031.103000",
    "151033.102000",
    "151034.602000",
    "151036.602000",
    "151038.603000",
    "151040.602000",
    "151042.604000",
    "151045.103000",
    "151047.103000",
    "151049.102000",
    "151051.103000",
    "151053.102000",
    "151055.102000",
    "151057.103000",
    "151059.103000",
    "151101.103000",
    "151102.604000",
    "151104.603000",
    "151107.102000",
    "151109.102000",
    "151111.102000",
    "151112.602000",
    "151115.102000",
    "151117.104000",
    "151119.103000",
    "151121.104000",
    "151123.103000",
    "151125.103000",
    "151127.102000",
    "151129.102000",
    "151131.102000",
    "151133.103000",
    "151135.104000",
    "151137.104000",
    "151139.103000",
    "151141.102000",
    "151143.102000",
    "151144.602000",
    "151146.602000",
    "151148.602000",
    "151151.104000",
    "151153.103000",
    "151154.603000",
    "151157.103000",
    "151159.103000",
    "151200.603000",
    "151203.102000",
    "151205.102000",
    "151207.102000",
    "151208.604000",
    "151210.603000",
    "151213.103000",
    "151215.104000",
    "151216.602000",
    "151219.102000",
    "151220.602000",
    "151222.602000",
    "151224.602000",
    "151227.103000",
    "151229.104000",
    "151231.103000",
    "151233.104000",
    "151234.602000",
    "151236.602000",
    "151239.103000",
    "151241.102000",
    "151243.102000",
    "151244.603000",
    "151246.603000",
    "151249.103000",
    "151251.103000",
    "151253.103000",
    "151255.102000",
    "151256.602000",
    "151259.102000",
    "151301.103000",
    "151303.103000",
    "151305.103000",
    "151306.606000",
    "151309.103000",
    "151310.602000",
    "151313.103000",
    "151315.103000",
    "151317.103000",
    "151318.604000",
    "151320.603000",
    "151323.103000",
    "151325.103000",
    "151327.102000",
    "151328.602000",
    "151331.103000",
    "151333.102000",
    "151335.103000",
    "151337.104000",
    "151339.104000",
    "151341.104000",
    "151343.103000",
    "151345.103000",
    "151346.603000",
    "151349.102000",
    "151351.103000",
    "151352.602000",
    "151355.103000",
    "151357.104000",
    "151359.104000",
    "151401.103000",
    "151403.103000",
    "151404.602000",
    "151407.103000",
    "151409.102000",
    "151411.103000",
    "151412.604000",
    "151414.603000",
    "151417.104000",
    "151419.103000",
    "151421.103000",
    "151423.103000",
    "151425.102000",
    "151426.602000",
    "151429.103000",
    "151431.104000",
    "151432.604000",
    "151435.103000",
    "151436.603000",
    "151439.103000",
    "151440.603000",
    "151443.102000",
    "151445.102000",
    "151446.603000",
    "151448.604000",
    "151450.604000",
    "151453.104000",
    "151455.103000",
    "151456.603000",
    "151459.102000",
    "151500.603000",
    "151503.103000",
    "151504.604000",
    "151507.104000",
    "151509.103000",
    "151511.103000",
    "151513.103000",
    "151515.102000",
    "151517.103000",
    "151519.103000",
    "151521.104000",
    "151523.103000",
    "151525.103000",
    "151527.104000",
    "151529.103000",
    "151530.602000",
    "151533.102000",
    "151534.602000",
    "151537.103000",
    "151539.103000",
    "151541.104000",
    "151543.104000",
    "151545.104000",
    "151547.102000",
    "151549.102000",
    "151550.602000",
    "151553.102000",
    "151554.602000",
    "151557.103000",
    "151559.103000",
    "151601.104000",
    "151603.104000",
    "151605.102000",
    "151606.602000",
    "151609.103000",
    "151611.102000",
    "151613.103000",
    "151615.103000",
    "151617.104000",
    "151618.603000",
    "151621.103000",
    "151622.603000",
    "151625.103000",
    "151626.603000",
    "151629.103000",
    "151631.103000",
    "151633.104000",
    "151635.104000",
    "151637.104000",
    "151639.103000",
    "151641.103000",
    "151643.102000",
    "151645.103000",
    "151646.602000",
    "151649.103000",
    "151651.104000",
    "151653.104000",
    "151655.103000",
    "151657.103000",
    "151659.102000",
    "151700.603000",
    "151703.103000",
    "151705.103000",
    "151706.603000",
    "151709.103000",
    "151711.104000",
    "151713.104000",
    "151714.602000",
    "151716.602000",
    "151719.102000",
    "151720.603000",
    "151723.103000",
    "151724.603000",
    "151726.603000",
    "151729.104000",
    "151731.103000",
    "151733.103000",
    "151735.103000",
    "151736.602000",
    "151739.103000",
    "151740.602000",
    "151742.603000",
    "151744.604000",
    "151747.104000",
    "151748.603000",
    "151750.602000",
    "151752.603000",
    "151754.602000",
    "151757.103000",
    "151758.604000",
    "151801.104000",
    "151803.104000",
    "151804.604000",
    "151807.103000",
    "151809.103000",
    "151810.591000"
   ],
   "InstanceCreationTime": [
    "151011.108000",
    "151013.103000",
    "151015.103000",
    "151016.603000",
    "151018.603000",
    "151020.602000",
    "151023.102000",
    "151024.603000",
    "151027.103000",
    "151028.603000",
    "151031.103000",
    "151033.102000",
    "151034.602000",
    "151036.602000",
    "151038.603000",
    "151040.602000",
    "151042.604000",
    "151045.103000",
    "151047.103000",
    "151049.102000",
    "151051.103000",
    "151053.102000",
    "151055.102000",
    "151057.103000",
    "151059.103000",
    "151101.103000",
    "151102.604000",
    "151104.603000",
    "151107.102000",
    "151109.102000",
    "151111.102000",
    "151112.602000",
    "151115.102000",
    "151117.104000",
    "151119.103000",
    "151121.104000",
    "151123.103000",
    "151125.103000",
    "151127.102000",
    "151129.102000",
    "151131.102000",
    "151133.103000",
    "151135.104000",
    "151137.104000",
    "151139.103000",
    "151141.102000",
    "151143.102000",
    "151144.602000",
    "151146.602000",
    "151148.602000",
    "151151.104000",
    "151153.103000",
    "151154.603000",
    "151157.103000",
    "151159.103000",
    "151200.603000",
    "151203.102000",
    "151205.102000",
    "151207.102000",
    "151208.604000",
    "151210.603000",
    "151213.103000",
    "151215.104000",
    "151216.602000",
    "151219.102000",
    "151220.602000",
    "151222.602000",
    "151224.602000",
    "151227.103000",
    "151229.104000",
    "151231.103000",
    "151233.104000",
    "151234.602000",
    "151236.602000",
    "151239.103000",
    "151241.102000",
    "151243.102000",
    "151244.603000",
    "151246.603000",
    "151249.103000",
    "151251.103000",
    "151253.103000",
    "151255.102000",
    "151256.602000",
    "151259.102000",
    "151301.103000",
    "151303.103000",
    "151305.103000",
    "151306.606000",
    "151309.103000",
    "151310.602000",
    "151313.103000",
    "151315.103000",
    "151317.103000",
    "151318.604000",
    "151320.603000",
    "151323.103000",
    "151325.103000",
    "151327.102000",
    "151328.602000",
    "151331.103000",
    "151333.102000",
    "151335.103000",
    "151337.104000",
    "151339.104000",
    "151341.104000",
    "151343.103000",
    "151345.103000",
    "151346.603000",
    "151349.102000",
    "151351.103000",
    "151352.602000",
    "151355.103000",
    "151357.104000",
    "151359.104000",
    "151401.103000",
    "151403.103000",
    "151404.602000",
    "151407.103000",
    "151409.102000",
    "151411.103000",
    "151412.604000",
    "151414.603000",
    "151417.104000",
    "151419.103000",
    "151421.103000",
    "151423.103000",
    "151425.102000",
    "151426.602000",
    "151429.103000",
    "151431.104000",
    "151432.604000",
    "151435.103000",
    "151436.603000",
    "151439.103000",
    "151440.603000",
    "151443.102000",
    "151445.102000",
    "151446.603000",
    "151448.604000",
    "151450.604000",
    "151453.104000",
    "151455.103000",
    "151456.603000",
    "151459.102000",
    "151500.603000",
    "151503.103000",
    "151504.604000",
    "151507.104000",
    "151509.103000",
    "151511.103000",
    "151513.103000",
    "151515.102000",
    "151517.103000",
    "151519.103000",
    "151521.104000",
    "151523.103000",
    "151525.103000",
    "151527.104000",
    "151529.103000",
    "151530.602000",
    "151533.102000",
    "151534.602000",
    "151537.103000",
    "151539.103000",
    "151541.104000",
    "151543.104000",
    "151545.104000",
    "151547.102000",
    "151549.102000",
    "151550.602000",
    "151553.102000",
    "151554.602000",
    "151557.103000",
    "151559.103000",
    "151601.104000",
    "151603.104000",
    "151605.102000",
    "151606.602000",
    "151609.103000",
    "151611.102000",
    "151613.103000",
    "151615.103000",
    "151617.104000",
    "151618.603000",
    "151621.103000",
    "151622.603000",
    "151625.103000",
    "151626.603000",
    "151629.103000",
    "151631.103000",
    "151633.104000",
    "151635.104000",
    "151637.104000",
    "151639.103000",
    "151641.103000",
    "151643.102000",
    "151645.103000",
    "151646.602000",
    "151649.103000",
    "151651.104000",
    "151653.104000",
    "151655.103000",
    "151657.103000",
    "151659.102000",
    "151700.603000",
    "151703.103000",
    "151705.103000",
    "151706.603000",
    "151709.103000",
    "151711.104000",
    "151713.104000",
    "151714.602000",
    "151716.602000",
    "151719.102000",
    "151720.603000",
    "151723.103000",
    "151724.603000",
    "151726.603000",
    "151729.104000",
    "151731.103000",
    "151733.103000",
    "151735.103000",
    "151736.602000",
    "151739.103000",
    "151740.602000",
    "151742.603000",
    "151744.604000",
    "151747.104000",
    "151748.603000",
    "151750.602000",
    "151752.603000",
    "151754.602000",
    "151757.103000",
    "151758.604000",
    "151801.104000",
    "151803.104000",
    "151804.604000",
    "151807.103000",
    "151809.103000",
    "151810.591000"
   ],
   "InstanceNumber": [
    1,
    2,
    3,
    4,
    5,
    6,
    7,
    8,
    9,
    10,
    11,
    12,
    13,
    14,
    15,
    16,
    17,
    18,
    19,
    20,
    21,
    22,
    23,
    24,
    25,
    26,
    27,
    28,
    29,
    30,
    31,
    32,
    33,
    34,
    35,
    36,
    37,
    38,
    39,
    40,
    41,
    42,
    43,
    44,
    45,
    46,
    47,
    48,
    49,
    50,
    51,
    52,
    53,
    54,
    55,
    56,
    57,
    58,
    59,
    60,
    61,
    62,
    63,
    64,
    65,
    66,
    67,
    68,
    69,
    70,
    71,
    72,
    73,
    74,
    75,
    76,
    77,
    78,
    79,
    80,
    81,
    82,
    83,
    84,
    85,
    86,
    87,
    88,
    89,
    90,
    91,
    92,
    93,
    94,
    95,
    96,
    97,
    98,
    99,
    100,
    101,
    102,
    103,
    104,
    105,
    106,
    107,
    108,
    109,
    110,
    111,
    112,
    113,
    114,
    115,
    116,
    117,
    118,
    119,
    120,
    121,
    122,
    123,
    124,
    125,
    126,
    127,
    128,
    129,
    130,
    131,
    132,
    133,
    134,
    135,
    136,
    137,
    138,
    139,
    140,
    141,
    142,
    143,
    144,
    145,
    146,
    147,
    148,
    149,
    150,
    151,
    152,
    153,
    154,
    155,
    156,
    157,
    158,
    159,
    160,
    161,
    162,
    163,
    164,
    165,
    166,
    167,
    168,
    169,
    170,
    171,
    172,
    173,
    174,
    175,
    176,
    177,
    178,
    179,
    180,
    181,
    182,
    183,
    184,
    185,
    186,
    187,
    188,
    189,
    190,
    191,
    192,
    193,
    194,
    195,
    196,
    197,
    198,
    199,
    200,
    201,
    202,
    203,
    204,
    205,
    206,
    207,
    208,
    209,
    210,
    211,
    212,
    213,
    214,
    215,
    216,
    217,
    218,
    219,
    220,
    221,
    222,
    223,
    224,
    225,
    226,
    227,
    228,
    229,
    230,
    231,
    232,
    233,
    234,
    235,
    236,
    237,
    238,
    239,
    240,
    241
   ],
   "LargestImagePixelValue": [
    2848,
    2841,
    2806,
    2811,
    2788,
    2801,
    2792,
    2821,
    2801,
    2870,
    2823,
    2851,
    2837,
    2799,
    2838,
    2852,
    2861,
    2814,
    2843,
    2823,
    2857,
    2843,
    2817,
    2820,
    2848,
    2823,
    2822,
    2806,
    2820,
    2819,
    2820,
    2810,
    2827,
    2816,
    2800,
    2819,
    2820,
    2805,
    2862,
    2818,
    2842,
    2833,
    2840,
    2841,
    2807,
    2833,
    2834,
    2856,
    2801,
    2852,
    2869,
    2852,
    2844,
    2841,
    2837,
    2821,
    2815,
    2822,
    2830,
    2824,
    2819,
    2826,
    2836,
    2858,
    2832,
    2846,
    2823,
    2841,
    2815,
    2828,
    2836,
    2826,
    2831,
    2822,
    2801,
    2815,
    2836,
    2828,
    2817,
    2849,
    2845,
    2851,
    2856,
    2847,
    2826,
    2879,
    2861,
    2838,
    2857,
    2847,
    2838,
    2843,
    2842,
    2830,
    2843,
    2854,
    2855,
    2852,
    2816,
    2841,
    2806,
    2846,
    2837,
    2824,
    2859,
    2838,
    2834,
    2845,
    2829,
    2861,
    2828,
    2853,
    2828,
    2848,
    2819,
    2853,
    2822,
    2844,
    2850,
    2828,
    2846,
    2859,
    2863,
    2865,
    2848,
    2858,
    2853,
    2868,
    2848,
    2854,
    2820,
    2866,
    2874,
    2851,
    2842,
    2859,
    2866,
    2825,
    2839,
    2812,
    2858,
    2826,
    2871,
    2846,
    2862,
    2839,
    2857,
    2859,
    2847,
    2841,
    2875,
    2837,
    2854,
    2842,
    2862,
    2850,
    2840,
    2853,
    2859,
    2896,
    2836,
    2849,
    2878,
    2874,
    2863,
    2859,
    2860,
    2827,
    2846,
    2839,
    2884,
    2871,
    2871,
    2850,
    2877,
    2845,
    2871,
    2856,
    2869,
    2861,
    2861,
    2866,
    2866,
    2871,
    2858,
    2860,
    2851,
    2869,
    2857,
    2833,
    2823,
    2840,
    2843,
    2859,
    2874,
    2851,
    2868,
    2850,
    2839,
    2869,
    2845,
    2838,
    2863,
    2854,
    2858,
    2866,
    2875,
    2883,
    2870,
    2847,
    2870,
    2804,
    2881,
    2845,
    2872,
    2879,
    2908,
    2858,
    2853,
    2873,
    2888,
    2849,
    2823,
    2847,
    2847,
    2845,
    2867,
    2857,
    2846,
    2846,
    2864,
    2853,
    2822,
    2832,
    2852,
    2853,
    2837,
    2859,
    2848,
    2859,
    2850
   ],
   "WindowCenter": [
    735.0,
    735.0,
    736.0,
    736.0,
    734.0,
    733.0,
    734.0,
    734.0,
    733.0,
    734.0,
    737.0,
    738.0,
    737.0,
    736.0,
    735.0,
    734.0,
    734.0,
    735.0,
    735.0,
    734.0,
    734.0,
    735.0,
    737.0,
    737.0,
    734.0,
    733.0,
    734.0,
    735.0,
    735.0,
    735.0,
    736.0,
    737.0,
    736.0,
    734.0,
    733.0,
    734.0,
    734.0,
    734.0,
    733.0,
    734.0,
    735.0,
    734.0,
    734.0,
    734.0,
    734.0,
    734.0,
    735.0,
    735.0,
    734.0,
    734.0,
    734.0,
    734.0,
    734.0,
    734.0,
    734.0,
    733.0,
    733.0,
    732.0,
    733.0,
    733.0,
    735.0,
    737.0,
    736.0,
    734.0,
    732.0,
    732.0,
    733.0,
    733.0,
    734.0,
    734.0,
    734.0,
    733.0,
    733.0,
    733.0,
    733.0,
    733.0,
    734.0,
    735.0,
    735.0,
    734.0,
    735.0,
    735.0,
    735.0,
    735.0,
    734.0,
    735.0,
    737.0,
    737.0,
    736.0,
    734.0,
    734.0,
    734.0,
    734.0,
    734.0,
    734.0,
    733.0,
    733.0,
    734.0,
    735.0,
    735.0,
    735.0,
    734.0,
    734.0,
    734.0,
    735.0,
    735.0,
    735.0,
    734.0,
    734.0,
    734.0,
    735.0,
    735.0,
    735.0,
    734.0,
    733.0,
    734.0,
    735.0,
    735.0,
    735.0,
    734.0,
    733.0,
    734.0,
    734.0,
    734.0,
    734.0,
    734.0,
    734.0,
    733.0,
    733.0,
    735.0,
    734.0,
    734.0,
    735.0,
    735.0,
    735.0,
    734.0,
    734.0,
    735.0,
    734.0,
    735.0,
    736.0,
    736.0,
    737.0,
    735.0,
    735.0,
    735.0,
    735.0,
    734.0,
    734.0,
    734.0,
    735.0,
    736.0,
    736.0,
    736.0,
    736.0,
    736.0,
    735.0,
    735.0,
    734.0,
    735.0,
    737.0,
    737.0,
    736.0,
    736.0,
    736.0,
    736.0,
    736.0,
    736.0,
    735.0,
    734.0,
    735.0,
    736.0,
    736.0,
    737.0,
    736.0,
    735.0,
    735.0,
    735.0,
    735.0,
    735.0,
    734.0,
    735.0,
    735.0,
    736.0,
    736.0,
    736.0,
    735.0,
    735.0,
    735.0,
    735.0,
    735.0,
    735.0,
    736.0,
    736.0,
    736.0,
    736.0,
    736.0,
    737.0,
    737.0,
    737.0,
    737.0,
    736.0,
    735.0,
    735.0,
    736.0,
    736.0,
    736.0,
    736.0,
    736.0,
    736.0,
    736.0,
    736.0,
    736.0,
    735.0,
    736.0,
    737.0,
    737.0,
    737.0,
    736.0,
    735.0,
    736.0,
    737.0,
    738.0,
    738.0,
    737.0,
    736.0,
    736.0,
    737.0,
    737.0,
    736.0,
    736.0,
    736.0,
