{
  "AcquisitionMatrixPE": 100,
  "AcquisitionNumber": 1,
  "AcquisitionTime": "16:09:36.742500",
  "BandwidthPerPixelPhaseEncode": 18.519,
  "BaseResolution": 100,
  "BodyPartExamined": "BRAIN",
  "ConsistencyInfo": "N4_VE11C_LATEST_20160120",
  "ConversionSoftware": "dcm2niix",
  "ConversionSoftwareVersion": "v1.0.20180622 GCC4.9.2",
  "DerivedVendorReportedEchoSpacing": 0.000539986,
  "DeviceSerialNumber": "166078",
  "DwellTime": 2.1e-06,
  "EchoTime": 0.034,
  "EchoTrainLength": 100,
  "EffectiveEchoSpacing": 0.000539986,
  "FlipAngle": 90,
  "ImageOrientationPatientDICOM": [0.999627, 0.0233493, -0.0141742, -0.0244304, 0.996364, -0.0816166],
  "ImageType": [
    "ORIGINAL",
    "PRIMARY",
    "M",
    "ND",
    "MOSAIC"
],
  "InPlanePhaseEncodingDirectionDICOM": "COL",
  "InstitutionAddress": "Street_StreetNo_Bei_Jing_District_CN_ZIP",
  "InstitutionName": "BeiJing_Normal_University",
  "InstitutionalDepartmentName": "Department",
  "MRAcquisitionType": "2D",
  "MagneticFieldStrength": 3,
  "Manufacturer": "Siemens",
  "ManufacturersModelName": "Prisma",
  "Modality": "MR",
  "MultibandAccelerationFactor": 3,
  "PartialFourier": 1,
  "PatientPosition": "HFS",
  "PercentPhaseFOV": 100,
  "PhaseEncodingDirection": "j-",
  "PhaseEncodingSteps": 100,
  "PhaseResolution": 1,
  "PixelBandwidth": 2380,
  "ProcedureStepDescription": "BNU_P2018_64CH_Zhen.ZongLei",
  "ProtocolName": "bold_100x100_s3_2x2x2_static_test_241",
  "PulseSequenceDetails": "%SiemensSeq%_ep2d_bold",
  "ReceiveCoilActiveElements": "HC1-7;NC1",
  "ReceiveCoilName": "HeadNeck_64",
  "ReconMatrixPE": 100,
  "RepetitionTime": 2,
  "SAR": 0.0747144,
  "ScanOptions": "FS",
  "ScanningSequence": "EP",
  "SequenceName": "_epfid2d1_100",
  "SequenceVariant": "SK",
  "SeriesDescription": "bold_100x100_s3_2x2x2_static_test_241",
  "SeriesNumber": 12,
  "ShimSetting": [-5468, -11530, -1293, 550, 34, -223, -130, 6],
  "SliceThickness": 2,
  "SliceTiming": [1.485, 0, 0.99, 0.0825, 1.0725, 0.165, 1.155, 0.2475, 1.2375, 0.33, 1.32, 0.4125, 1.4025, 0.5775, 1.5675, 0.66, 1.65, 0.7425, 1.7325, 0.825, 1.815, 0.9075, 1.8975, 0.495, 1.485, 0, 0.99, 0.0825, 1.0725, 0.165, 1.155, 0.2475, 1.2375, 0.33, 1.32, 0.4125, 1.4025, 0.5775, 1.5675, 0.66, 1.65, 0.7425, 1.7325, 0.825, 1.815, 0.9075, 1.8975, 0.495, 1.485, 0, 0.99, 0.0825, 1.0725, 0.165, 1.155, 0.2475, 1.2375, 0.33, 1.32, 0.4125, 1.4025, 0.5775, 1.5675, 0.66, 1.65, 0.7425, 1.7325, 0.825, 1.815, 0.9075, 1.8975, 0.495],
  "SoftwareVersions": "syngo_MR_E11",
  "SpacingBetweenSlices": 2,
  "StationName": "AWP166078",
  "TaskName": "naturalvision2",
  "TotalReadoutTime": 0.0534586,
  "TxRefAmp": 212.813,
  "dcmmeta_affine": [
    [-1.999253749847412, -0.048860739916563034, -0.02443399652838707, 104.57366943359375],
    [-0.046698588877916336, 1.9927287101745605, -0.16386477649211884, -85.66024780273438],
    [-0.028348440304398537, 0.16323313117027283, 1.9931260347366333, -70.2044448852539],
    [0.0, 0.0, 0.0, 1.0]
],
  "dcmmeta_reorient_transform": [
    [0.0, -1.0, 0.0, 99.0],
    [1.0, 0.0, 0.0, 0.0],
    [0.0, 0.0, 1.0, 0.0],
    [0.0, 0.0, 0.0, 1.0]
],
  "dcmmeta_shape": [100, 100, 72, 241],
  "dcmmeta_slice_dim": 2,
  "dcmmeta_version": 0.6,
  "global": {
    "const": {
      "AcquisitionMatrix": [100, 0, 0, 100],
      "AngioFlag": "N",
      "BitsAllocated": 16,
      "BitsStored": 12,
      "BodyPartExamined": "BRAIN",
      "Columns": 900,
      "EchoNumbers": 1,
      "EchoTime": 34.0,
      "EchoTrainLength": 100,
      "FlipAngle": 90.0,
      "HighBit": 11,
      "ImageOrientationPatient": [0.99962688136753, 0.02334929400859, -0.014174220145, -0.0244303704077, 0.9963643378911, -0.0816165619257],
      "ImagePositionPatient": [-879.89366460666, -927.39079394776, 22.588260260099],
      "ImageType": [
        "ORIGINAL",
        "PRIMARY",
        "M",
        "ND",
        "MOSAIC"
],
      "ImagedNucleus": "1H",
      "ImagingFrequency": 123.257776,
      "InPlanePhaseEncodingDirection": "COL",
      "MRAcquisitionType": "2D",
      "MagneticFieldStrength": 3.0,
      "Manufacturer": "SIEMENS",
      "ManufacturerModelName": "Prisma",
      "Modality": "MR",
      "NumberOfAverages": 1.0,
      "NumberOfPhaseEncodingSteps": 100,
      "PercentPhaseFieldOfView": 100.0,
      "PercentSampling": 100.0,
      "PerformedProcedureStepStartTime": "150708.363000",
      "PhotometricInterpretation": "MONOCHROME2",
      "PixelBandwidth": 2380.0,
      "PixelRepresentation": 0,
      "PixelSpacing": [2.0, 2.0],
      "ProtocolName": "bold_100x100_s3_2x2x2_static_test_241",
      "RepetitionTime": 2000.0,
      "Rows": 900,
      "SAR": 0.07471435862482,
      "SamplesPerPixel": 1,
      "ScanOptions": "FS",
      "ScanningSequence": "EP",
      "SequenceName": "*epfid2d1_100",
      "SequenceVariant": "SK",
      "SeriesDescription": "bold_100x100_s3_2x2x2_static_test_241",
      "SeriesNumber": 12,
      "SeriesTime": "160939.320000",
      "SliceLocation": -64.222379756871,
      "SliceThickness": 2.0,
      "SmallestImagePixelValue": 0,
      "SoftwareVersions": "syngo MR E11",
      "SpacingBetweenSlices": 2.0000000081223,
      "SpecificCharacterSet": "ISO_IR 100",
      "StudyID": "1",
      "StudyTime": "150708.281000",
      "TransmitCoilName": "Body",
      "VariableFlipAngleFlag": "N",
      "WindowCenterWidthExplanation": "Algo1",
      "dBdt": 0.0},
    "slices": {}
  },
  "time": {
    "samples": {
      "AcquisitionNumber": [1, 2, 3, 4, 5, 6, 7, 8, 9, 10, 11, 12, 13, 14, 15, 16, 17, 18, 19, 20, 21, 22, 23, 24, 25, 26, 27, 28, 29, 30, 31, 32, 33, 34, 35, 36, 37, 38, 39, 40, 41, 42, 43, 44, 45, 46, 47, 48, 49, 50, 51, 52, 53, 54, 55, 56, 57, 58, 59, 60, 61, 62, 63, 64, 65, 66, 67, 68, 69, 70, 71, 72, 73, 74, 75, 76, 77, 78, 79, 80, 81, 82, 83, 84, 85, 86, 87, 88, 89, 90, 91, 92, 93, 94, 95, 96, 97, 98, 99, 100, 101, 102, 103, 104, 105, 106, 107, 108, 109, 110, 111, 112, 113, 114, 115, 116, 117, 118, 119, 120, 121, 122, 123, 124, 125, 126, 127, 128, 129, 130, 131, 132, 133, 134, 135, 136, 137, 138, 139, 140, 141, 142, 143, 144, 145, 146, 147, 148, 149, 150, 151, 152, 153, 154, 155, 156, 157, 158, 159, 160, 161, 162, 163, 164, 165, 166, 167, 168, 169, 170, 171, 172, 173, 174, 175, 176, 177, 178, 179, 180, 181, 182, 183, 184, 185, 186, 187, 188, 189, 190, 191, 192, 193, 194, 195, 196, 197, 198, 199, 200, 201, 202, 203, 204, 205, 206, 207, 208, 209, 210, 211, 212, 213, 214, 215, 216, 217, 218, 219, 220, 221, 222, 223, 224, 225, 226, 227, 228, 229, 230, 231, 232, 233, 234, 235, 236, 237, 238, 239, 240, 241],
      "AcquisitionTime": ["160936.742500", "160938.742500", "160940.742500", "160942.742500", "160944.742500", "160946.742500", "160948.742500", "160950.742500", "160952.742500", "160954.742500", "160956.742500", "160958.742500", "161000.742500", "161002.742500", "161004.742500", "161006.742500", "161008.742500", "161010.742500", "161012.742500", "161014.742500", "161016.742500", "161018.742500", "161020.742500", "161022.742500", "161024.742500", "161026.742500", "161028.742500", "161030.742500", "161032.742500", "161034.742500", "161036.742500", "161038.742500", "161040.742500", "161042.742500", "161044.742500", "161046.742500", "161048.742500", "161050.742500", "161052.742500", "161054.742500", "161056.742500", "161058.742500", "161100.742500", "161102.742500", "161104.742500", "161106.742500", "161108.742500", "161110.742500", "161112.742500", "161114.742500", "161116.742500", "161118.742500", "161120.742500", "161122.742500", "161124.742500", "161126.742500", "161128.742500", "161130.742500", "161132.742500", "161134.742500", "161136.742500", "161138.742500", "161140.742500", "161142.742500", "161144.742500", "161146.742500", "161148.742500", "161150.742500", "161152.742500", "161154.742500", "161156.742500", "161158.742500", "161200.742500", "161202.742500", "161204.742500", "161206.742500", "161208.742500", "161210.742500", "161212.742500", "161214.742500", "161216.742500", "161218.742500", "161220.742500", "161222.742500", "161224.742500", "161226.742500", "161228.742500", "161230.742500", "161232.742500", "161234.742500", "161236.742500", "161238.742500", "161240.742500", "161242.742500", "161244.742500", "161246.742500", "161248.742500", "161250.742500", "161252.742500", "161254.742500", "161256.742500", "161258.742500", "161300.742500", "161302.742500", "161304.742500", "161306.742500", "161308.742500", "161310.742500", "161312.742500", "161314.742500", "161316.742500", "161318.742500", "161320.742500", "161322.742500", "161324.742500", "161326.742500", "161328.742500", "161330.742500", "161332.742500", "161334.742500", "161336.742500", "161338.742500", "161340.742500", "161342.742500", "161344.742500", "161346.742500", "161348.742500", "161350.742500", "161352.742500", "161354.742500", "161356.742500", "161358.742500", "161400.742500", "161402.742500", "161404.742500", "161406.742500", "161408.742500", "161410.742500", "161412.742500", "161414.742500", "161416.742500", "161418.742500", "161420.742500", "161422.742500", "161424.742500", "161426.742500", "161428.742500", "161430.742500", "161432.742500", "161434.742500", "161436.742500", "161438.742500", "161440.742500", "161442.742500", "161444.742500", "161446.742500", "161448.742500", "161450.742500", "161452.742500", "161454.742500", "161456.742500", "161458.742500", "161500.742500", "161502.742500", "161504.742500", "161506.742500", "161508.742500", "161510.742500", "161512.742500", "161514.742500", "161516.742500", "161518.742500", "161520.742500", "161522.742500", "161524.742500", "161526.742500", "161528.742500", "161530.742500", "161532.742500", "161534.742500", "161536.742500", "161538.742500", "161540.742500", "161542.742500", "161544.742500", "161546.742500", "161548.742500", "161550.742500", "161552.742500", "161554.742500", "161556.742500", "161558.742500", "161600.742500", "161602.742500", "161604.742500", "161606.742500", "161608.742500", "161610.742500", "161612.742500", "161614.742500", "161616.742500", "161618.742500", "161620.742500", "161622.742500", "161624.742500", "161626.742500", "161628.742500", "161630.742500", "161632.742500", "161634.742500", "161636.742500", "161638.742500", "161640.742500", "161642.742500", "161644.742500", "161646.742500", "161648.742500", "161650.742500", "161652.742500", "161654.742500", "161656.742500", "161658.742500", "161700.742500", "161702.742500", "161704.742500", "161706.742500", "161708.742500", "161710.742500", "161712.742500", "161714.742500", "161716.742500", "161718.742500", "161720.742500", "161722.742500", "161724.742500", "161726.742500", "161728.742500", "161730.742500", "161732.742500", "161734.742500", "161736.742500"],
      "ContentTime": ["160939.324000", "160940.820000", "160942.820000", "160944.818000", "160946.819000", "160948.819000", "160950.820000", "160952.820000", "160954.819000", "160956.820000", "160958.820000", "161000.819000", "161002.818000", "161004.819000", "161006.819000", "161008.819000", "161010.819000", "161012.819000", "161014.819000", "161016.820000", "161018.820000", "161020.819000", "161022.819000", "161024.818000", "161026.820000", "161028.820000", "161030.819000", "161032.820000", "161034.819000", "161036.820000", "161038.819000", "161040.818000", "161042.819000", "161044.819000", "161046.819000", "161048.820000", "161050.819000", "161052.819000", "161054.819000", "161056.818000", "161058.818000", "161100.820000", "161102.820000", "161104.819000", "161106.819000", "161108.819000", "161110.819000", "161112.818000", "161114.818000", "161116.818000", "161118.819000", "161120.819000", "161122.819000", "161124.819000", "161126.820000", "161128.819000", "161130.818000", "161132.818000", "161134.818000", "161136.819000", "161138.820000", "161140.820000", "161142.819000", "161144.819000", "161146.820000", "161148.818000", "161150.818000", "161152.819000", "161154.820000", "161156.820000", "161158.819000", "161200.819000", "161202.819000", "161204.818000", "161206.819000", "161208.818000", "161210.820000", "161212.820000", "161214.819000", "161216.820000", "161218.819000", "161220.820000", "161222.818000", "161224.818000", "161226.818000", "161228.820000", "161230.819000", "161232.820000", "161234.819000", "161236.819000", "161238.820000", "161240.818000", "161242.819000", "161244.818000", "161246.820000", "161248.819000", "161250.819000", "161252.820000", "161254.819000", "161256.820000", "161258.819000", "161300.819000", "161302.819000", "161304.819000", "161306.819000", "161308.819000", "161310.819000", "161312.820000", "161314.818000", "161316.818000", "161318.819000", "161320.819000", "161322.820000", "161324.820000", "161326.820000", "161328.819000", "161330.819000", "161332.818000", "161334.818000", "161336.818000", "161338.820000", "161340.819000", "161342.819000", "161344.820000", "161346.819000", "161348.819000", "161350.818000", "161352.818000", "161354.818000", "161356.820000", "161358.819000", "161400.819000", "161402.820000", "161404.819000", "161406.820000", "161408.819000", "161410.819000", "161412.819000", "161414.819000", "161416.819000", "161418.819000", "161420.819000", "161422.820000", "161424.818000", "161426.818000", "161428.819000", "161430.820000", "161432.820000", "161434.820000", "161436.819000", "161438.819000", "161440.820000", "161442.818000", "161444.819000", "161446.819000", "161448.819000", "161450.820000", "161452.820000", "161454.819000", "161456.819000", "161458.820000", "161500.819000", "161502.818000", "161504.819000", "161506.819000", "161508.819000", "161510.820000", "161512.819000", "161514.819000", "161516.819000", "161518.819000", "161520.818000", "161522.820000", "161524.819000", "161526.820000", "161528.820000", "161530.820000", "161532.820000", "161534.818000", "161536.818000", "161538.819000", "161540.819000", "161542.820000", "161544.820000", "161546.819000", "161548.820000", "161550.820000", "161552.819000", "161554.818000", "161556.818000", "161558.820000", "161600.819000", "161602.819000", "161604.819000", "161606.820000", "161608.819000", "161610.819000", "161612.818000", "161614.819000", "161616.819000", "161618.819000", "161620.820000", "161622.819000", "161624.819000", "161626.820000", "161628.819000", "161630.818000", "161632.820000", "161634.819000", "161636.819000", "161638.819000", "161640.819000", "161642.819000", "161644.818000", "161646.819000", "161648.818000", "161650.820000", "161652.819000", "161654.820000", "161656.819000", "161658.820000", "161700.820000", "161702.819000", "161704.818000", "161706.819000", "161708.819000", "161710.819000", "161712.819000", "161714.819000", "161716.820000", "161718.819000", "161720.819000", "161722.819000", "161724.820000", "161726.819000", "161728.820000", "161730.819000", "161732.820000", "161734.819000", "161736.818000", "161738.509000"],
      "InstanceCreationTime": ["160939.324000", "160940.820000", "160942.820000", "160944.818000", "160946.819000", "160948.819000", "160950.820000", "160952.820000", "160954.819000", "160956.820000", "160958.820000", "161000.819000", "161002.818000", "161004.819000", "161006.819000", "161008.819000", "161010.819000", "161012.819000", "161014.819000", "161016.820000", "161018.820000", "161020.819000", "161022.819000", "161024.818000", "161026.820000", "161028.820000", "161030.819000", "161032.820000", "161034.819000", "161036.820000", "161038.819000", "161040.818000", "161042.819000", "161044.819000", "161046.819000", "161048.820000", "161050.819000", "161052.819000", "161054.819000", "161056.818000", "161058.818000", "161100.820000", "161102.820000", "161104.819000", "161106.819000", "161108.819000", "161110.819000", "161112.818000", "161114.818000", "161116.818000", "161118.819000", "161120.819000", "161122.819000", "161124.819000", "161126.820000", "161128.819000", "161130.818000", "161132.818000", "161134.818000", "161136.819000", "161138.820000", "161140.820000", "161142.819000", "161144.819000", "161146.820000", "161148.818000", "161150.818000", "161152.819000", "161154.820000", "161156.820000", "161158.819000", "161200.819000", "161202.819000", "161204.818000", "161206.819000", "161208.818000", "161210.820000", "161212.820000", "161214.819000", "161216.820000", "161218.819000", "161220.820000", "161222.818000", "161224.818000", "161226.818000", "161228.820000", "161230.819000", "161232.820000", "161234.819000", "161236.819000", "161238.820000", "161240.818000", "161242.819000", "161244.818000", "161246.820000", "161248.819000", "161250.819000", "161252.820000", "161254.819000", "161256.820000", "161258.819000", "161300.819000", "161302.819000", "161304.819000", "161306.819000", "161308.819000", "161310.819000", "161312.820000", "161314.818000", "161316.818000", "161318.819000", "161320.819000", "161322.820000", "161324.820000", "161326.820000", "161328.819000", "161330.819000", "161332.818000", "161334.818000", "161336.818000", "161338.820000", "161340.819000", "161342.819000", "161344.820000", "161346.819000", "161348.819000", "161350.818000", "161352.818000", "161354.818000", "161356.820000", "161358.819000", "161400.819000", "161402.820000", "161404.819000", "161406.820000", "161408.819000", "161410.819000", "161412.819000", "161414.819000", "161416.819000", "161418.819000", "161420.819000", "161422.820000", "161424.818000", "161426.818000", "161428.819000", "161430.820000", "161432.820000", "161434.820000", "161436.819000", "161438.819000", "161440.820000", "161442.818000", "161444.819000", "161446.819000", "161448.819000", "161450.820000", "161452.820000", "161454.819000", "161456.819000", "161458.820000", "161500.819000", "161502.818000", "161504.819000", "161506.819000", "161508.819000", "161510.820000", "161512.819000", "161514.819000", "161516.819000", "161518.819000", "161520.818000", "161522.820000", "161524.819000", "161526.820000", "161528.820000", "161530.820000", "161532.820000", "161534.818000", "161536.818000", "161538.819000", "161540.819000", "161542.820000", "161544.820000", "161546.819000", "161548.820000", "161550.820000", "161552.819000", "161554.818000", "161556.818000", "161558.820000", "161600.819000", "161602.819000", "161604.819000", "161606.820000", "161608.819000", "161610.819000", "161612.818000", "161614.819000", "161616.819000", "161618.819000", "161620.820000", "161622.819000", "161624.819000", "161626.820000", "161628.819000", "161630.818000", "161632.820000", "161634.819000", "161636.819000", "161638.819000", "161640.819000", "161642.819000", "161644.818000", "161646.819000", "161648.818000", "161650.820000", "161652.819000", "161654.820000", "161656.819000", "161658.820000", "161700.820000", "161702.819000", "161704.818000", "161706.819000", "161708.819000", "161710.819000", "161712.819000", "161714.819000", "161716.820000", "161718.819000", "161720.819000", "161722.819000", "161724.820000", "161726.819000", "161728.820000", "161730.819000", "161732.820000", "161734.819000", "161736.818000", "161738.509000"],
      "InstanceNumber": [1, 2, 3, 4, 5, 6, 7, 8, 9, 10, 11, 12, 13, 14, 15, 16, 17, 18, 19, 20, 21, 22, 23, 24, 25, 26, 27, 28, 29, 30, 31, 32, 33, 34, 35, 36, 37, 38, 39, 40, 41, 42, 43, 44, 45, 46, 47, 48, 49, 50, 51, 52, 53, 54, 55, 56, 57, 58, 59, 60, 61, 62, 63, 64, 65, 66, 67, 68, 69, 70, 71, 72, 73, 74, 75, 76, 77, 78, 79, 80, 81, 82, 83, 84, 85, 86, 87, 88, 89, 90, 91, 92, 93, 94, 95, 96, 97, 98, 99, 100, 101, 102, 103, 104, 105, 106, 107, 108, 109, 110, 111, 112, 113, 114, 115, 116, 117, 118, 119, 120, 121, 122, 123, 124, 125, 126, 127, 128, 129, 130, 131, 132, 133, 134, 135, 136, 137, 138, 139, 140, 141, 142, 143, 144, 145, 146, 147, 148, 149, 150, 151, 152, 153, 154, 155, 156, 157, 158, 159, 160, 161, 162, 163, 164, 165, 166, 167, 168, 169, 170, 171, 172, 173, 174, 175, 176, 177, 178, 179, 180, 181, 182, 183, 184, 185, 186, 187, 188, 189, 190, 191, 192, 193, 194, 195, 196, 197, 198, 199, 200, 201, 202, 203, 204, 205, 206, 207, 208, 209, 210, 211, 212, 213, 214, 215, 216, 217, 218, 219, 220, 221, 222, 223, 224, 225, 226, 227, 228, 229, 230, 231, 232, 233, 234, 235, 236, 237, 238, 239, 240, 241],
      "LargestImagePixelValue": [2683, 2649, 2609, 2633, 2609, 2636, 2686, 2634, 2659, 2650, 2648, 2639, 2628, 2650, 2688, 2650, 2627, 2617, 2636, 2653, 2614, 2627, 2658, 2638, 2631, 2628, 2645, 2635, 2638, 2613, 2632, 2616, 2653, 2626, 2635, 2684, 2616, 2605, 2641, 2620, 2642, 2640, 2610, 2635, 2608, 2625, 2623, 2648, 2686, 2642, 2706, 2666, 2656, 2672, 2692, 2646, 2755, 2625, 2594, 2595, 2634, 2619, 2631, 2605, 2631, 2631, 2675, 2675, 2793, 2666, 2641, 2671, 2627, 2817, 2601, 2678, 2678, 2644, 2628, 2649, 2628, 2680, 2639, 2647, 2672, 2647, 2640, 2624, 2694, 2736, 2737, 2742, 2769, 2736, 2750, 2778, 2746, 2732, 2677, 2693, 2737, 2781, 2763, 2681, 2700, 2687, 2772, 2765, 2765, 2727, 2760, 2732, 2696, 2725, 2749, 2755, 2733, 2688, 2734, 2687, 2719, 2742, 2756, 2745, 2746, 2746, 2724, 2755, 2739, 3076, 2765, 2772, 2763, 2821, 2800, 2779, 2853, 2830, 2815, 2805, 2806, 2806, 2843, 2860, 2815, 2834, 2863, 2833, 2866, 2905, 2922, 2918, 2920, 2935, 2917, 2897, 2917, 2893, 2907, 2939, 2926, 2926, 2937, 2945, 2921, 2910, 2918, 2925, 2909, 2921, 2950, 2915, 2879, 2945, 2923, 2921, 2916, 2950, 2911, 2931, 2895, 2892, 2903, 2935, 2949, 2921, 2903, 2897, 2932, 2913, 2917, 2916, 2919, 2892, 2898, 2910, 2924, 2859, 2903, 2931, 2926, 2840, 2910, 2914, 2897, 2893, 2872, 2903, 2899, 2904, 2917, 2908, 2916, 2953, 2930, 2920, 2931, 2902, 2971, 2948, 2942, 2953, 2939, 2967, 2973, 2963, 2950, 2972, 2954, 2943, 2945, 2957, 2934, 2937, 2970, 2927, 2936, 2928, 2938, 2927, 3046],
      "WindowCenter": [731.0, 730.0, 729.0, 729.0, 729.0, 731.0, 732.0, 732.0, 731.0, 730.0, 730.0, 730.0, 731.0, 732.0, 731.0, 730.0, 728.0, 729.0, 730.0, 731.0, 729.0, 730.0, 732.0, 731.0, 729.0, 728.0, 729.0, 729.0, 731.0, 731.0, 731.0, 730.0, 730.0, 729.0, 730.0, 730.0, 729.0, 729.0, 730.0, 730.0, 730.0, 730.0, 731.0, 730.0, 730.0, 731.0, 730.0, 730.0, 730.0, 731.0, 731.0, 730.0, 730.0, 731.0, 731.0, 731.0, 732.0, 729.0, 730.0, 730.0, 730.0, 731.0, 731.0, 730.0, 730.0, 730.0, 731.0, 731.0, 732.0, 730.0, 731.0, 730.0, 729.0, 731.0, 729.0, 730.0, 731.0, 732.0, 731.0, 731.0, 731.0, 731.0, 732.0, 732.0, 731.0, 730.0, 730.0, 730.0, 732.0, 733.0, 733.0, 732.0, 732.0, 732.0, 733.0, 734.0, 733.0, 731.0, 730.0, 731.0, 732.0, 733.0, 731.0, 731.0, 732.0, 731.0, 731.0, 732.0, 732.0, 732.0, 732.0, 732.0, 731.0, 732.0, 733.0, 733.0, 733.0, 731.0, 731.0, 732.0, 733.0, 733.0, 733.0, 733.0, 733.0, 732.0, 732.0, 732.0, 732.0, 734.0, 731.0, 732.0, 732.0, 733.0, 732.0, 732.0, 733.0, 733.0, 733.0, 732.0, 733.0, 732.0, 733.0, 732.0, 731.0, 732.0, 733.0, 732.0, 733.0, 734.0, 733.0, 734.0, 733.0, 734.0, 733.0, 733.0, 735.0, 734.0, 733.0, 733.0, 733.0, 733.0, 734.0, 734.0, 733.0, 732.0, 732.0, 733.0, 733.0, 734.0, 734.0, 734.0, 734.0, 736.0, 734.0, 733.0, 734.0, 735.0, 734.0, 735.0, 734.0, 733.0, 734.0, 736.0, 736.0, 735.0, 733.0, 733.0, 734.0, 734.0, 733.0, 733.0, 733.0, 733.0, 733.0, 733.0, 732.0, 733.0, 735.0, 735.0, 733.0, 732.0, 732.0, 732.0, 733.0, 733.0, 732.0, 733.0, 734.0, 734.0, 733.0, 733.0, 734.0, 735.0, 734.0, 734.0, 734.0, 733.0, 734.0, 733.0, 733.0, 735.0, 735.0, 734.0, 734.0, 734.0, 735.0, 736.0, 735.0, 733.0, 734.0, 735.0, 736.0, 735.0, 734.0, 733.0, 733.0, 733.0, 734.0, 734.0, 735.0],
      "WindowWidth": [1574.0, 1570.0, 1569.0, 1568.0, 1567.0, 1572.0, 1576.0, 1575.0, 1572.0, 1570.0, 1570.0, 1571.0, 1575.0, 1575.0, 1572.0, 1570.0, 1566.0, 1567.0, 1571.0, 1572.0, 1569.0, 1570.0, 1576.0, 1574.0, 1569.0, 1566.0, 1568.0, 1569.0, 1572.0, 1574.0, 1573.0, 1572.0, 1569.0, 1569.0, 1571.0, 1570.0, 1569.0, 1568.0, 1570.0, 1571.0, 1570.0, 1571.0, 1572.0, 1572.0, 1572.0, 1572.0, 1571.0, 1570.0, 1571.0, 1572.0, 1574.0, 1572.0, 1571.0, 1574.0, 1574.0, 1574.0, 1574.0, 1569.0, 1570.0, 1571.0, 1571.0, 1573.0, 1573.0, 1571.0, 1571.0, 1570.0, 1572.0, 1574.0, 1576.0, 1571.0, 1572.0, 1571.0, 1568.0, 1573.0, 1568.0, 1571.0, 1572.0, 1575.0, 1574.0, 1573.0, 1573.0, 1572.0, 1575.0, 1575.0, 1573.0, 1570.0, 1569.0, 1571.0, 1576.0, 1577.0, 1578.0, 1576.0, 1576.0, 1575.0, 1578.0, 1579.0, 1577.0, 1573.0, 1570.0, 1573.0, 1576.0, 1577.0, 1574.0, 1573.0, 1574.0, 1573.0, 1573.0, 1575.0, 1576.0, 1576.0, 1575.0, 1574.0, 1573.0, 1574.0, 1579.0, 1578.0, 1577.0, 1574.0, 1573.0, 1576.0, 1578.0, 1577.0, 1579.0, 1579.0, 1578.0, 1574.0, 1574.0, 1575.0, 1575.0, 1581.0, 1573.0, 1576.0, 1576.0, 1579.0, 1574.0, 1575.0, 1578.0, 1578.0, 1578.0, 1576.0, 1577.0, 1575.0, 1577.0, 1575.0, 1573.0, 1574.0, 1578.0, 1576.0, 1577.0, 1579.0, 1579.0, 1580.0, 1578.0, 1579.0, 1578.0, 1579.0, 1582.0, 1579.0, 1577.0, 1576.0, 1577.0, 1577.0, 1579.0, 1579.0, 1577.0, 1576.0, 1576.0, 1576.0, 1578.0, 1581.0, 1581.0, 1580.0, 1581.0, 1585.0, 1581.0, 1579.0, 1580.0, 1582.0, 1580.0, 1582.0, 1579.0, 1577.0, 1579.0, 1585.0, 1585.0, 1583.0, 1578.0, 1578.0, 1581.0, 1580.0, 1579.0, 1577.0, 1577.0, 1577.0, 1577.0, 1578.0, 1576.0, 1577.0, 1582.0, 1584.0, 1578.0, 1574.0, 1574.0, 1576.0, 1578.0, 1578.0, 1576.0, 1578.0, 1579.0, 1579.0, 1577.0, 1577.0, 1581.0, 1582.0, 1580.0, 1580.0, 1581.0, 1578.0, 1579.0, 1577.0, 1578.0, 1582.0, 1583.0, 1580.0, 1579.0, 1580.0, 1584.0, 1585.0, 1582.0, 1579.0, 1581.0, 1584.0, 1584.0, 1583.0, 1580.0, 1577.0, 1577.0, 1577.0, 1579.0, 1579.0, 1584.0]
    },
    "slices": {}
  }
}