{
 "AcquisitionMatrixPE": 100,
 "AcquisitionNumber": 1,
 "AcquisitionTime": "16:46:21.395000",
 "BandwidthPerPixelPhaseEncode": 18.519,
 "BaseResolution": 100,
 "BodyPartExamined": "BRAIN",
 "ConsistencyInfo": "N4_VE11C_LATEST_20160120",
 "ConversionSoftware": "dcm2niix",
 "ConversionSoftwareVersion": "v1.0.20180622 GCC4.9.2",
 "DerivedVendorReportedEchoSpacing": 0.000539986,
 "DeviceSerialNumber": "166078",
 "DwellTime": 2.1e-06,
 "EchoTime": 0.034,
 "EchoTrainLength": 100,
 "EffectiveEchoSpacing": 0.000539986,
 "FlipAngle": 90,
 "ImageOrientationPatientDICOM": [
  0.999627,
  0.0233493,
  -0.0141742,
  -0.0244304,
  0.996364,
  -0.0816166
 ],
 "ImageType": [
  "ORIGINAL",
  "PRIMARY",
  "M",
  "ND",
  "MOSAIC"
 ],
 "InPlanePhaseEncodingDirectionDICOM": "COL",
 "InstitutionAddress": "Street_StreetNo_Bei_Jing_District_CN_ZIP",
 "InstitutionName": "BeiJing_Normal_University",
 "InstitutionalDepartmentName": "Department",
 "MRAcquisitionType": "2D",
 "MagneticFieldStrength": 3,
 "Manufacturer": "Siemens",
 "ManufacturersModelName": "Prisma",
 "Modality": "MR",
 "MultibandAccelerationFactor": 3,
 "PartialFourier": 1,
 "PatientPosition": "HFS",
 "PercentPhaseFOV": 100,
 "PhaseEncodingDirection": "j-",
 "PhaseEncodingSteps": 100,
 "PhaseResolution": 1,
 "PixelBandwidth": 2380,
 "ProcedureStepDescription": "BNU_P2018_64CH_Zhen.ZongLei",
 "ProtocolName": "bold_100x100_s3_2x2x2_static_test_241",
 "PulseSequenceDetails": "%SiemensSeq%_ep2d_bold",
 "ReceiveCoilActiveElements": "HC1-7;NC1",
 "ReceiveCoilName": "HeadNeck_64",
 "ReconMatrixPE": 100,
 "RepetitionTime": 2,
 "SAR": 0.0747144,
 "ScanOptions": "FS",
 "ScanningSequence": "EP",
 "SequenceName": "_epfid2d1_100",
 "SequenceVariant": "SK",
 "SeriesDescription": "bold_100x100_s3_2x2x2_static_test_241",
 "SeriesNumber": 16,
 "ShimSetting": [
  -5468,
  -11530,
  -1293,
  550,
  34,
  -223,
  -130,
  6
 ],
 "SliceThickness": 2,
 "SliceTiming": [
  1.485,
  0,
  0.99,
  0.0825,
  1.0725,
  0.165,
  1.155,
  0.2475,
  1.2375,
  0.33,
  1.32,
  0.4125,
  1.4025,
  0.5775,
  1.5675,
  0.66,
  1.65,
  0.7425,
  1.7325,
  0.825,
  1.815,
  0.9075,
  1.8975,
  0.495,
  1.485,
  0,
  0.99,
  0.0825,
  1.0725,
  0.165,
  1.155,
  0.2475,
  1.2375,
  0.33,
  1.32,
  0.4125,
  1.4025,
  0.5775,
  1.5675,
  0.66,
  1.65,
  0.7425,
  1.7325,
  0.825,
  1.815,
  0.9075,
  1.8975,
  0.495,
  1.485,
  0,
  0.99,
  0.0825,
  1.0725,
  0.165,
  1.155,
  0.2475,
  1.2375,
  0.33,
  1.32,
  0.4125,
  1.4025,
  0.5775,
  1.5675,
  0.66,
  1.65,
  0.7425,
  1.7325,
  0.825,
  1.815,
  0.9075,
  1.8975,
  0.495
 ],
 "SoftwareVersions": "syngo_MR_E11",
 "SpacingBetweenSlices": 2,
 "StationName": "AWP166078",
 "TaskName": "coco",
 "TotalReadoutTime": 0.0534586,
 "TxRefAmp": 212.813,
 "dcmmeta_affine": [
  [
   -1.999253749847412,
   -0.048860739916563034,
   -0.02443399652838707,
   104.57366943359375
  ],
  [
   -0.046698588877916336,
   1.9927287101745605,
   -0.16386477649211884,
   -85.66024780273438
  ],
  [
   -0.028348440304398537,
   0.16323313117027283,
   1.9931260347366333,
   -70.2044448852539
  ],
  [
   0.0,
   0.0,
   0.0,
   1.0
  ]
 ],
 "dcmmeta_reorient_transform": [
  [
   0.0,
   -1.0,
   0.0,
   99.0
  ],
  [
   1.0,
   0.0,
   0.0,
   0.0
  ],
  [
   0.0,
   0.0,
   1.0,
   0.0
  ],
  [
   0.0,
   0.0,
   0.0,
   1.0
  ]
 ],
 "dcmmeta_shape": [
  100,
  100,
  72,
  241
 ],
 "dcmmeta_slice_dim": 2,
 "dcmmeta_version": 0.6,
 "global": {
  "const": {
   "AcquisitionMatrix": [
    100,
    0,
    0,
    100
   ],
   "AngioFlag": "N",
   "BitsAllocated": 16,
   "BitsStored": 12,
   "BodyPartExamined": "BRAIN",
   "Columns": 900,
   "EchoNumbers": 1,
   "EchoTime": 34.0,
   "EchoTrainLength": 100,
   "FlipAngle": 90.0,
   "HighBit": 11,
   "ImageOrientationPatient": [
    0.99962688136753,
    0.02334929400859,
    -0.014174220145,
    -0.0244303704077,
    0.9963643378911,
    -0.0816165619257
   ],
   "ImagePositionPatient": [
    -879.89366460666,
    -927.39079394776,
    22.588260260099
   ],
   "ImageType": [
    "ORIGINAL",
    "PRIMARY",
    "M",
    "ND",
    "MOSAIC"
   ],
   "ImagedNucleus": "1H",
   "ImagingFrequency": 123.257781,
   "InPlanePhaseEncodingDirection": "COL",
   "MRAcquisitionType": "2D",
   "MagneticFieldStrength": 3.0,
   "Manufacturer": "SIEMENS",
   "ManufacturerModelName": "Prisma",
   "Modality": "MR",
   "NumberOfAverages": 1.0,
   "NumberOfPhaseEncodingSteps": 100,
   "PercentPhaseFieldOfView": 100.0,
   "PercentSampling": 100.0,
   "PerformedProcedureStepStartTime": "150708.363000",
   "PhotometricInterpretation": "MONOCHROME2",
   "PixelBandwidth": 2380.0,
   "PixelRepresentation": 0,
   "PixelSpacing": [
    2.0,
    2.0
   ],
   "ProtocolName": "bold_100x100_s3_2x2x2_static_test_241",
   "RepetitionTime": 2000.0,
   "Rows": 900,
   "SAR": 0.07471435862482,
   "SamplesPerPixel": 1,
   "ScanOptions": "FS",
   "ScanningSequence": "EP",
   "SequenceName": "*epfid2d1_100",
   "SequenceVariant": "SK",
   "SeriesDescription": "bold_100x100_s3_2x2x2_static_test_241",
   "SeriesNumber": 16,
   "SeriesTime": "164624.051000",
   "SliceLocation": -64.222379756871,
   "SliceThickness": 2.0,
   "SmallestImagePixelValue": 0,
   "SoftwareVersions": "syngo MR E11",
   "SpacingBetweenSlices": 2.0000000081223,
   "SpecificCharacterSet": "ISO_IR 100",
   "StudyID": "1",
   "StudyTime": "150708.281000",
   "TransmitCoilName": "Body",
   "VariableFlipAngleFlag": "N",
   "WindowCenterWidthExplanation": "Algo1",
   "dBdt": 0.0
  },
  "slices": {}
 },
 "time": {
  "samples": {
   "AcquisitionNumber": [
    1,
    2,
    3,
    4,
    5,
    6,
    7,
    8,
    9,
    10,
    11,
    12,
    13,
    14,
    15,
    16,
    17,
    18,
    19,
    20,
    21,
    22,
    23,
    24,
    25,
    26,
    27,
    28,
    29,
    30,
    31,
    32,
    33,
    34,
    35,
    36,
    37,
    38,
    39,
    40,
    41,
    42,
    43,
    44,
    45,
    46,
    47,
    48,
    49,
    50,
    51,
    52,
    53,
    54,
    55,
    56,
    57,
    58,
    59,
    60,
    61,
    62,
    63,
    64,
    65,
    66,
    67,
    68,
    69,
    70,
    71,
    72,
    73,
    74,
    75,
    76,
    77,
    78,
    79,
    80,
    81,
    82,
    83,
    84,
    85,
    86,
    87,
    88,
    89,
    90,
    91,
    92,
    93,
    94,
    95,
    96,
    97,
    98,
    99,
    100,
    101,
    102,
    103,
    104,
    105,
    106,
    107,
    108,
    109,
    110,
    111,
    112,
    113,
    114,
    115,
    116,
    117,
    118,
    119,
    120,
    121,
    122,
    123,
    124,
    125,
    126,
    127,
    128,
    129,
    130,
    131,
    132,
    133,
    134,
    135,
    136,
    137,
    138,
    139,
    140,
    141,
    142,
    143,
    144,
    145,
    146,
    147,
    148,
    149,
    150,
    151,
    152,
    153,
    154,
    155,
    156,
    157,
    158,
    159,
    160,
    161,
    162,
    163,
    164,
    165,
    166,
    167,
    168,
    169,
    170,
    171,
    172,
    173,
    174,
    175,
    176,
    177,
    178,
    179,
    180,
    181,
    182,
    183,
    184,
    185,
    186,
    187,
    188,
    189,
    190,
    191,
    192,
    193,
    194,
    195,
    196,
    197,
    198,
    199,
    200,
    201,
    202,
    203,
    204,
    205,
    206,
    207,
    208,
    209,
    210,
    211,
    212,
    213,
    214,
    215,
    216,
    217,
    218,
    219,
    220,
    221,
    222,
    223,
    224,
    225,
    226,
    227,
    228,
    229,
    230,
    231,
    232,
    233,
    234,
    235,
    236,
    237,
    238,
    239,
    240,
    241
   ],
   "AcquisitionTime": [
    "164621.395000",
    "164623.395000",
    "164625.395000",
    "164627.395000",
    "164629.395000",
    "164631.395000",
    "164633.395000",
    "164635.395000",
    "164637.395000",
    "164639.395000",
    "164641.395000",
    "164643.395000",
    "164645.395000",
    "164647.395000",
    "164649.395000",
    "164651.395000",
    "164653.395000",
    "164655.395000",
    "164657.395000",
    "164659.395000",
    "164701.395000",
    "164703.395000",
    "164705.395000",
    "164707.395000",
    "164709.395000",
    "164711.395000",
    "164713.395000",
    "164715.395000",
    "164717.395000",
    "164719.395000",
    "164721.395000",
    "164723.395000",
    "164725.395000",
    "164727.395000",
    "164729.395000",
    "164731.395000",
    "164733.395000",
    "164735.395000",
    "164737.395000",
    "164739.395000",
    "164741.395000",
    "164743.395000",
    "164745.395000",
    "164747.395000",
    "164749.395000",
    "164751.395000",
    "164753.395000",
    "164755.395000",
    "164757.395000",
    "164759.395000",
    "164801.395000",
    "164803.395000",
    "164805.395000",
    "164807.395000",
    "164809.395000",
    "164811.395000",
    "164813.395000",
    "164815.395000",
    "164817.395000",
    "164819.395000",
    "164821.395000",
    "164823.395000",
    "164825.395000",
    "164827.395000",
    "164829.395000",
    "164831.395000",
    "164833.395000",
    "164835.395000",
    "164837.395000",
    "164839.395000",
    "164841.395000",
    "164843.395000",
    "164845.395000",
    "164847.395000",
    "164849.395000",
    "164851.395000",
    "164853.395000",
    "164855.395000",
    "164857.395000",
    "164859.395000",
    "164901.395000",
    "164903.395000",
    "164905.395000",
    "164907.395000",
    "164909.395000",
    "164911.395000",
    "164913.395000",
    "164915.395000",
    "164917.395000",
    "164919.395000",
    "164921.395000",
    "164923.395000",
    "164925.395000",
    "164927.395000",
    "164929.395000",
    "164931.395000",
    "164933.395000",
    "164935.395000",
    "164937.395000",
    "164939.395000",
    "164941.395000",
    "164943.395000",
    "164945.395000",
    "164947.395000",
    "164949.395000",
    "164951.395000",
    "164953.395000",
    "164955.395000",
    "164957.395000",
    "164959.395000",
    "165001.395000",
    "165003.395000",
    "165005.395000",
    "165007.395000",
    "165009.395000",
    "165011.395000",
    "165013.395000",
    "165015.395000",
    "165017.395000",
    "165019.395000",
    "165021.395000",
    "165023.395000",
    "165025.395000",
    "165027.395000",
    "165029.395000",
    "165031.395000",
    "165033.395000",
    "165035.395000",
    "165037.395000",
    "165039.395000",
    "165041.395000",
    "165043.395000",
    "165045.395000",
    "165047.395000",
    "165049.395000",
    "165051.395000",
    "165053.395000",
    "165055.395000",
    "165057.395000",
    "165059.395000",
    "165101.395000",
    "165103.395000",
    "165105.395000",
    "165107.395000",
    "165109.395000",
    "165111.395000",
    "165113.395000",
    "165115.395000",
    "165117.395000",
    "165119.395000",
    "165121.395000",
    "165123.395000",
    "165125.395000",
    "165127.395000",
    "165129.395000",
    "165131.395000",
    "165133.395000",
    "165135.395000",
    "165137.395000",
    "165139.395000",
    "165141.395000",
    "165143.395000",
    "165145.395000",
    "165147.395000",
    "165149.395000",
    "165151.395000",
    "165153.395000",
    "165155.395000",
    "165157.395000",
    "165159.395000",
    "165201.395000",
    "165203.395000",
    "165205.395000",
    "165207.395000",
    "165209.395000",
    "165211.395000",
    "165213.395000",
    "165215.395000",
    "165217.395000",
    "165219.395000",
    "165221.395000",
    "165223.395000",
    "165225.395000",
    "165227.395000",
    "165229.395000",
    "165231.395000",
    "165233.395000",
    "165235.395000",
    "165237.395000",
    "165239.395000",
    "165241.395000",
    "165243.395000",
    "165245.395000",
    "165247.395000",
    "165249.395000",
    "165251.395000",
    "165253.395000",
    "165255.395000",
    "165257.395000",
    "165259.395000",
    "165301.395000",
    "165303.395000",
    "165305.395000",
    "165307.395000",
    "165309.395000",
    "165311.395000",
    "165313.395000",
    "165315.395000",
    "165317.395000",
    "165319.395000",
    "165321.395000",
    "165323.395000",
    "165325.395000",
    "165327.395000",
    "165329.395000",
    "165331.395000",
    "165333.395000",
    "165335.395000",
    "165337.395000",
    "165339.395000",
    "165341.395000",
    "165343.395000",
    "165345.395000",
    "165347.395000",
    "165349.395000",
    "165351.395000",
    "165353.395000",
    "165355.395000",
    "165357.395000",
    "165359.395000",
    "165401.395000",
    "165403.395000",
    "165405.395000",
    "165407.395000",
    "165409.395000",
    "165411.395000",
    "165413.395000",
    "165415.395000",
    "165417.395000",
    "165419.395000",
    "165421.395000"
   ],
   "ContentTime": [
    "164624.055000",
    "164625.549000",
    "164627.549000",
    "164629.549000",
    "164631.549000",
    "164633.550000",
    "164635.550000",
    "164637.550000",
    "164639.550000",
    "164641.550000",
    "164643.549000",
    "164645.549000",
    "164647.549000",
    "164649.550000",
    "164651.550000",
    "164653.550000",
    "164655.551000",
    "164657.550000",
    "164659.550000",
    "164701.550000",
    "164703.549000",
    "164705.550000",
    "164707.550000",
    "164709.550000",
    "164711.550000",
    "164713.550000",
    "164715.551000",
    "164717.551000",
    "164719.549000",
    "164721.549000",
    "164723.550000",
    "164725.550000",
    "164727.550000",
    "164729.550000",
    "164731.550000",
    "164733.551000",
    "164735.549000",
    "164737.549000",
    "164739.549000",
    "164741.550000",
    "164743.550000",
    "164745.550000",
    "164747.550000",
    "164749.550000",
    "164751.550000",
    "164753.550000",
    "164755.550000",
    "164757.549000",
    "164759.550000",
    "164801.551000",
    "164803.550000",
    "164805.551000",
    "164807.551000",
    "164809.550000",
    "164811.550000",
    "164813.550000",
    "164815.549000",
    "164817.550000",
    "164819.550000",
    "164821.551000",
    "164823.550000",
    "164825.550000",
    "164827.550000",
    "164829.549000",
    "164831.550000",
    "164833.549000",
    "164835.551000",
    "164837.550000",
    "164839.550000",
    "164841.550000",
    "164843.550000",
    "164845.550000",
    "164847.549000",
    "164849.550000",
    "164851.550000",
    "164853.550000",
    "164855.550000",
    "164857.550000",
    "164859.550000",
    "164901.550000",
    "164903.549000",
    "164905.549000",
    "164907.550000",
    "164909.550000",
    "164911.550000",
    "164913.550000",
    "164915.550000",
    "164917.550000",
    "164919.550000",
    "164921.550000",
    "164923.550000",
    "164925.549000",
    "164927.550000",
    "164929.551000",
    "164931.550000",
    "164933.550000",
    "164935.551000",
    "164937.551000",
    "164939.549000",
    "164941.549000",
    "164943.549000",
    "164945.551000",
    "164947.551000",
    "164949.551000",
    "164951.551000",
    "164953.551000",
    "164955.550000",
    "164957.549000",
    "164959.550000",
    "165001.550000",
    "165003.550000",
    "165005.550000",
    "165007.550000",
    "165009.551000",
    "165011.550000",
    "165013.550000",
    "165015.549000",
    "165017.549000",
    "165019.549000",
    "165021.550000",
    "165023.551000",
    "165025.550000",
    "165027.550000",
    "165029.551000",
    "165031.550000",
    "165033.550000",
    "165035.550000",
    "165037.550000",
    "165039.550000",
    "165041.550000",
    "165043.550000",
    "165045.550000",
    "165047.551000",
    "165049.550000",
    "165051.549000",
    "165053.550000",
    "165055.551000",
    "165057.551000",
    "165059.550000",
    "165101.551000",
    "165103.551000",
    "165105.549000",
    "165107.550000",
    "165109.550000",
    "165111.550000",
    "165113.550000",
    "165115.551000",
    "165117.550000",
    "165119.550000",
    "165121.551000",
    "165123.549000",
    "165125.549000",
    "165127.549000",
    "165129.549000",
    "165131.550000",
    "165133.551000",
    "165135.550000",
    "165137.550000",
    "165139.551000",
    "165141.550000",
    "165143.550000",
    "165145.550000",
    "165147.549000",
    "165149.552000",
    "165151.550000",
    "165153.550000",
    "165155.551000",
    "165157.551000",
    "165159.550000",
    "165201.550000",
    "165203.550000",
    "165205.550000",
    "165207.550000",
    "165209.551000",
    "165211.550000",
    "165213.551000",
    "165215.549000",
    "165217.549000",
    "165219.549000",
    "165221.549000",
    "165223.551000",
    "165225.551000",
    "165227.551000",
    "165229.550000",
    "165231.550000",
    "165233.550000",
    "165235.549000",
    "165237.564000",
    "165239.549000",
    "165241.551000",
    "165243.550000",
    "165245.550000",
    "165247.551000",
    "165249.551000",
    "165251.549000",
    "165253.550000",
    "165255.550000",
    "165257.550000",
    "165259.550000",
    "165301.551000",
    "165303.551000",
    "165305.551000",
    "165307.551000",
    "165309.549000",
    "165311.550000",
    "165313.549000",
    "165315.550000",
    "165317.550000",
    "165319.551000",
    "165321.551000",
    "165323.551000",
    "165325.550000",
    "165327.550000",
    "165329.549000",
    "165331.549000",
    "165333.551000",
    "165335.550000",
    "165337.551000",
    "165339.550000",
    "165341.551000",
    "165343.550000",
    "165345.549000",
    "165347.549000",
    "165349.549000",
    "165351.551000",
    "165353.551000",
    "165355.551000",
    "165357.550000",
    "165359.551000",
    "165401.550000",
    "165403.550000",
    "165405.550000",
    "165407.549000",
    "165409.550000",
    "165411.550000",
    "165413.550000",
    "165415.550000",
    "165417.550000",
    "165419.550000",
    "165421.550000",
    "165423.410000"
   ],
   "InstanceCreationTime": [
    "164624.055000",
    "164625.549000",
    "164627.549000",
    "164629.549000",
    "164631.549000",
    "164633.550000",
    "164635.550000",
    "164637.550000",
    "164639.550000",
    "164641.550000",
    "164643.549000",
    "164645.549000",
    "164647.549000",
    "164649.550000",
    "164651.550000",
    "164653.550000",
    "164655.551000",
    "164657.550000",
    "164659.550000",
    "164701.550000",
    "164703.549000",
    "164705.550000",
    "164707.550000",
    "164709.550000",
    "164711.550000",
    "164713.550000",
    "164715.551000",
    "164717.551000",
    "164719.549000",
    "164721.549000",
    "164723.550000",
    "164725.550000",
    "164727.550000",
    "164729.550000",
    "164731.550000",
    "164733.551000",
    "164735.549000",
    "164737.549000",
    "164739.549000",
    "164741.550000",
    "164743.550000",
    "164745.550000",
    "164747.550000",
    "164749.550000",
    "164751.550000",
    "164753.550000",
    "164755.550000",
    "164757.549000",
    "164759.550000",
    "164801.551000",
    "164803.550000",
    "164805.551000",
    "164807.551000",
    "164809.550000",
    "164811.550000",
    "164813.550000",
    "164815.549000",
    "164817.550000",
    "164819.550000",
    "164821.551000",
    "164823.550000",
    "164825.550000",
    "164827.550000",
    "164829.549000",
    "164831.550000",
    "164833.549000",
    "164835.551000",
    "164837.550000",
    "164839.550000",
    "164841.550000",
    "164843.550000",
    "164845.550000",
    "164847.549000",
    "164849.550000",
    "164851.550000",
    "164853.550000",
    "164855.550000",
    "164857.550000",
    "164859.550000",
    "164901.550000",
    "164903.549000",
    "164905.549000",
    "164907.550000",
    "164909.550000",
    "164911.550000",
    "164913.550000",
    "164915.550000",
    "164917.550000",
    "164919.550000",
    "164921.550000",
    "164923.550000",
    "164925.549000",
    "164927.550000",
    "164929.551000",
    "164931.550000",
    "164933.550000",
    "164935.551000",
    "164937.551000",
    "164939.549000",
    "164941.549000",
    "164943.549000",
    "164945.551000",
    "164947.551000",
    "164949.551000",
    "164951.551000",
    "164953.551000",
    "164955.550000",
    "164957.549000",
    "164959.550000",
    "165001.550000",
    "165003.550000",
    "165005.550000",
    "165007.550000",
    "165009.551000",
    "165011.550000",
    "165013.550000",
    "165015.549000",
    "165017.549000",
    "165019.549000",
    "165021.550000",
    "165023.551000",
    "165025.550000",
    "165027.550000",
    "165029.551000",
    "165031.550000",
    "165033.550000",
    "165035.550000",
    "165037.550000",
    "165039.550000",
    "165041.550000",
    "165043.550000",
    "165045.550000",
    "165047.551000",
    "165049.550000",
    "165051.549000",
    "165053.550000",
    "165055.551000",
    "165057.551000",
    "165059.550000",
    "165101.551000",
    "165103.551000",
    "165105.549000",
    "165107.550000",
    "165109.550000",
    "165111.550000",
    "165113.550000",
    "165115.551000",
    "165117.550000",
    "165119.550000",
    "165121.551000",
    "165123.549000",
    "165125.549000",
    "165127.549000",
    "165129.549000",
    "165131.550000",
    "165133.551000",
    "165135.550000",
    "165137.550000",
    "165139.551000",
    "165141.550000",
    "165143.550000",
    "165145.550000",
    "165147.549000",
    "165149.552000",
    "165151.550000",
    "165153.550000",
    "165155.551000",
    "165157.551000",
    "165159.550000",
    "165201.550000",
    "165203.550000",
    "165205.550000",
    "165207.550000",
    "165209.551000",
    "165211.550000",
    "165213.551000",
    "165215.549000",
    "165217.549000",
    "165219.549000",
    "165221.549000",
    "165223.551000",
    "165225.551000",
    "165227.551000",
    "165229.550000",
    "165231.550000",
    "165233.550000",
    "165235.549000",
    "165237.564000",
    "165239.549000",
    "165241.551000",
    "165243.550000",
    "165245.550000",
    "165247.551000",
    "165249.551000",
    "165251.549000",
    "165253.550000",
    "165255.550000",
    "165257.550000",
    "165259.550000",
    "165301.551000",
    "165303.551000",
    "165305.551000",
    "165307.551000",
    "165309.549000",
    "165311.550000",
    "165313.549000",
    "165315.550000",
    "165317.550000",
    "165319.551000",
    "165321.551000",
    "165323.551000",
    "165325.550000",
    "165327.550000",
    "165329.549000",
    "165331.549000",
    "165333.551000",
    "165335.550000",
    "165337.551000",
    "165339.550000",
    "165341.551000",
    "165343.550000",
    "165345.549000",
    "165347.549000",
    "165349.549000",
    "165351.551000",
    "165353.551000",
    "165355.551000",
    "165357.550000",
    "165359.551000",
    "165401.550000",
    "165403.550000",
    "165405.550000",
    "165407.549000",
    "165409.550000",
    "165411.550000",
    "165413.550000",
    "165415.550000",
    "165417.550000",
    "165419.550000",
    "165421.550000",
    "165423.410000"
   ],
   "InstanceNumber": [
    1,
    2,
    3,
    4,
    5,
    6,
    7,
    8,
    9,
    10,
    11,
    12,
    13,
    14,
    15,
    16,
    17,
    18,
    19,
    20,
    21,
    22,
    23,
    24,
    25,
    26,
    27,
    28,
    29,
    30,
    31,
    32,
    33,
    34,
    35,
    36,
    37,
    38,
    39,
    40,
    41,
    42,
    43,
    44,
    45,
    46,
    47,
    48,
    49,
    50,
    51,
    52,
    53,
    54,
    55,
    56,
    57,
    58,
    59,
    60,
    61,
    62,
    63,
    64,
    65,
    66,
    67,
    68,
    69,
    70,
    71,
    72,
    73,
    74,
    75,
    76,
    77,
    78,
    79,
    80,
    81,
    82,
    83,
    84,
    85,
    86,
    87,
    88,
    89,
    90,
    91,
    92,
    93,
    94,
    95,
    96,
    97,
    98,
    99,
    100,
    101,
    102,
    103,
    104,
    105,
    106,
    107,
    108,
    109,
    110,
    111,
    112,
    113,
    114,
    115,
    116,
    117,
    118,
    119,
    120,
    121,
    122,
    123,
    124,
    125,
    126,
    127,
    128,
    129,
    130,
    131,
    132,
    133,
    134,
    135,
    136,
    137,
    138,
    139,
    140,
    141,
    142,
    143,
    144,
    145,
    146,
    147,
    148,
    149,
    150,
    151,
    152,
    153,
    154,
    155,
    156,
    157,
    158,
    159,
    160,
    161,
    162,
    163,
    164,
    165,
    166,
    167,
    168,
    169,
    170,
    171,
    172,
    173,
    174,
    175,
    176,
    177,
    178,
    179,
    180,
    181,
    182,
    183,
    184,
    185,
    186,
    187,
    188,
    189,
    190,
    191,
    192,
    193,
    194,
    195,
    196,
    197,
    198,
    199,
    200,
    201,
    202,
    203,
    204,
    205,
    206,
    207,
    208,
    209,
    210,
    211,
    212,
    213,
    214,
    215,
    216,
    217,
    218,
    219,
    220,
    221,
    222,
    223,
    224,
    225,
    226,
    227,
    228,
    229,
    230,
    231,
    232,
    233,
    234,
    235,
    236,
    237,
    238,
    239,
    240,
    241
   ],
   "LargestImagePixelValue": [
    2747,
    2661,
    2660,
    2669,
    2674,
    2664,
    2686,
    2705,
    2676,
    2655,
    2688,
    2701,
    2679,
    2698,
    2703,
    2690,
    2679,
    2676,
    2670,
    2669,
    2674,
    2697,
    2708,
    2703,
    2725,
    2713,
    2694,
    2735,
    2703,
    2704,
    2684,
    2691,
    2691,
    2709,
    2702,
    2709,
    2685,
    2674,
    2691,
    2709,
    2701,
    2760,
    2729,
    2710,
    2711,
    2692,
    2689,
    2704,
    2685,
    2689,
    2691,
    2691,
    2709,
    2670,
    2691,
    2722,
    2689,
    2705,
    2705,
    2705,
    2687,
    2679,
    2673,
    2689,
    2690,
    2699,
    2710,
    2701,
    2725,
    2701,
    2706,
    2705,
    2681,
    2693,
    2683,
    2707,
    2717,
    2737,
    2701,
    2709,
    2695,
    2713,
    2704,
    2715,
    2700,
    2706,
    2707,
    2718,
    2719,
    2698,
    2719,
    2748,
    2734,
    2736,
    2709,
    2704,
    2756,
    2717,
    2700,
    2714,
    2710,
    2715,
    2702,
    2704,
    2697,
    2725,
    2694,
    2708,
    2711,
    2701,
    2683,
    2702,
    2720,
    2704,
    2724,
    2709,
    2699,
    2720,
    2725,
    2705,
    2708,
    2720,
    2718,
    2714,
    2686,
    2725,
    2704,
    2725,
    2728,
    2703,
    2700,
    2682,
    2679,
    2692,
    2690,
    2714,
    2683,
    2715,
    2690,
    2699,
    2709,
    2707,
    2706,
    2703,
    2689,
    2697,
    2695,
    2660,
    2672,
    2683,
    2697,
    2721,
    2707,
    2707,
    2721,
    2715,
    2704,
    2706,
    2709,
    2712,
    2672,
    2690,
    2722,
    2701,
    2684,
    2665,
    2694,
    2710,
    2699,
    2725,
    2689,
    2668,
    2683,
    2720,
    2687,
    2673,
    2695,
    2683,
    2662,
    2672,
    2683,
    2671,
    2679,
    2673,
    2834,
    2665,
    2658,
    2692,
    2690,
    2694,
    2657,
    2628,
    2665,
    2637,
    2646,
    2644,
    2673,
    2665,
    2676,
    2672,
    2660,
    2680,
    2672,
    2657,
    2636,
    2663,
    2684,
    2642,
    2645,
    2655,
    2619,
    2634,
    2676,
    2668,
    2634,
    2650,
    2666,
    2639,
    2672,
    2633,
    2648,
    2669,
    2675,
    2680,
    2653,
    2666,
    2665,
    2706,
    2664,
    2684,
    2693,
    2655,
    2672,
    2659,
    2669,
    2669,
    2652,
    2644,
    2651,
    2673,
    2657
   ],
   "WindowCenter": [
    735.0,
    732.0,
    732.0,
    732.0,
    733.0,
    733.0,
    732.0,
    732.0,
    732.0,
    733.0,
    733.0,
    734.0,
    733.0,
    733.0,
    733.0,
    733.0,
    732.0,
    731.0,
    731.0,
    730.0,
    731.0,
    731.0,
    731.0,
    731.0,
    731.0,
    731.0,
    731.0,
    732.0,
    731.0,
    731.0,
    730.0,
    730.0,
    731.0,
    732.0,
    731.0,
    730.0,
    730.0,
    730.0,
    730.0,
    730.0,
    730.0,
    731.0,
    732.0,
    731.0,
    732.0,
    731.0,
    731.0,
    731.0,
    730.0,
    730.0,
    730.0,
    730.0,
    731.0,
    731.0,
    731.0,
    731.0,
    731.0,
    731.0,
    731.0,
    730.0,
    731.0,
    731.0,
    731.0,
    731.0,
    732.0,
    732.0,
    731.0,
    731.0,
    731.0,
    730.0,
    729.0,
    729.0,
    729.0,
    730.0,
    730.0,
    730.0,
    729.0,
    731.0,
    731.0,
    731.0,
    731.0,
    731.0,
    730.0,
    729.0,
    730.0,
    731.0,
    731.0,
    731.0,
    732.0,
    731.0,
    730.0,
    730.0,
    731.0,
    732.0,
    730.0,
    731.0,
    732.0,
    731.0,
    730.0,
    730.0,
    730.0,
    729.0,
    729.0,
    729.0,
    730.0,
    731.0,
    730.0,
    731.0,
    731.0,
    730.0,
    731.0,
    731.0,
    732.0,
    731.0,
    731.0,
    731.0,
    733.0,
    734.0,
    733.0,
    730.0,
    730.0,
    731.0,
    732.0,
    732.0,
    731.0,
    732.0,
    733.0,
    733.0,
    732.0,
    731.0,
    730.0,
    731.0,
    731.0,
    731.0,
    733.0,
    732.0,
    731.0,
    731.0,
    732.0,
    732.0,
    732.0,
    731.0,
    730.0,
    731.0,
    731.0,
    731.0,
    731.0,
    731.0,
    732.0,
    732.0,
    732.0,
    732.0,
    733.0,
    732.0,
    732.0,
    733.0,
    732.0,
    731.0,
    732.0,
    733.0,
    733.0,
    733.0,
    732.0,
    731.0,
    731.0,
    730.0,
    731.0,
    732.0,
    732.0,
    731.0,
    730.0,
    730.0,
    730.0,
    731.0,
    731.0,
    730.0,
    731.0,
    731.0,
    731.0,
    731.0,
    730.0,
    729.0,
    729.0,
    729.0,
    731.0,
    729.0,
    730.0,
    731.0,
    731.0,
    731.0,
    730.0,
    730.0,
    731.0,
    731.0,
    731.0,
    731.0,
    731.0,
    730.0,
    730.0,
    731.0,
    731.0,
    731.0,
    731.0,
    730.0,
    730.0,
    730.0,
    730.0,
    729.0,
    729.0,
    729.0,
    729.0,
    731.0,
    731.0,
    730.0,
    729.0,
    730.0,
    731.0,
    731.0,
    731.0,
    731.0,
    730.0,
    731.0,
    733.0,
    732.0,
    731.0,
    730.0,
    731.0,
    733.0,
    732.0,
    730.0,
    730.0,
    729.0,
