{
  "AcquisitionMatrixPE": 100,
  "AcquisitionNumber": 1,
  "AcquisitionTime": "16:19:7.777500",
  "BandwidthPerPixelPhaseEncode": 18.519,
  "BaseResolution": 100,
  "BodyPartExamined": "BRAIN",
  "ConsistencyInfo": "N4_VE11C_LATEST_20160120",
  "ConversionSoftware": "dcm2niix",
  "ConversionSoftwareVersion": "v1.0.20180622 GCC4.9.2",
  "DerivedVendorReportedEchoSpacing": 0.000539986,
  "DeviceSerialNumber": "166078",
  "DwellTime": 2.1e-06,
  "EchoTime": 0.034,
  "EchoTrainLength": 100,
  "EffectiveEchoSpacing": 0.000539986,
  "FlipAngle": 90,
  "ImageOrientationPatientDICOM": [0.999627, 0.0233493, -0.0141742, -0.0244304, 0.996364, -0.0816166],
  "ImageType": [
    "ORIGINAL",
    "PRIMARY",
    "M",
    "ND",
    "MOSAIC"
],
  "InPlanePhaseEncodingDirectionDICOM": "COL",
  "InstitutionAddress": "Street_StreetNo_Bei_Jing_District_CN_ZIP",
  "InstitutionName": "BeiJing_Normal_University",
  "InstitutionalDepartmentName": "Department",
  "MRAcquisitionType": "2D",
  "MagneticFieldStrength": 3,
  "Manufacturer": "Siemens",
  "ManufacturersModelName": "Prisma",
  "Modality": "MR",
  "MultibandAccelerationFactor": 3,
  "PartialFourier": 1,
  "PatientPosition": "HFS",
  "PercentPhaseFOV": 100,
  "PhaseEncodingDirection": "j-",
  "PhaseEncodingSteps": 100,
  "PhaseResolution": 1,
  "PixelBandwidth": 2380,
  "ProcedureStepDescription": "BNU_P2018_64CH_Zhen.ZongLei",
  "ProtocolName": "bold_100x100_s3_2x2x2_static_test_241",
  "PulseSequenceDetails": "%SiemensSeq%_ep2d_bold",
  "ReceiveCoilActiveElements": "HC1-7;NC1",
  "ReceiveCoilName": "HeadNeck_64",
  "ReconMatrixPE": 100,
  "RepetitionTime": 2,
  "SAR": 0.0747144,
  "ScanOptions": "FS",
  "ScanningSequence": "EP",
  "SequenceName": "_epfid2d1_100",
  "SequenceVariant": "SK",
  "SeriesDescription": "bold_100x100_s3_2x2x2_static_test_241",
  "SeriesNumber": 13,
  "ShimSetting": [-5468, -11530, -1293, 550, 34, -223, -130, 6],
  "SliceThickness": 2,
  "SliceTiming": [1.485, 0, 0.99, 0.0825, 1.0725, 0.165, 1.155, 0.2475, 1.2375, 0.33, 1.32, 0.4125, 1.4025, 0.5775, 1.5675, 0.66, 1.65, 0.7425, 1.7325, 0.825, 1.815, 0.9075, 1.8975, 0.495, 1.485, 0, 0.99, 0.0825, 1.0725, 0.165, 1.155, 0.2475, 1.2375, 0.33, 1.32, 0.4125, 1.4025, 0.5775, 1.5675, 0.66, 1.65, 0.7425, 1.7325, 0.825, 1.815, 0.9075, 1.8975, 0.495, 1.485, 0, 0.99, 0.0825, 1.0725, 0.165, 1.155, 0.2475, 1.2375, 0.33, 1.32, 0.4125, 1.4025, 0.5775, 1.5675, 0.66, 1.65, 0.7425, 1.7325, 0.825, 1.815, 0.9075, 1.8975, 0.495],
  "SoftwareVersions": "syngo_MR_E11",
  "SpacingBetweenSlices": 2,
  "StationName": "AWP166078",
  "TaskName": "naturalvision2",
  "TotalReadoutTime": 0.0534586,
  "TxRefAmp": 212.813,
  "dcmmeta_affine": [
    [-1.999253749847412, -0.048860739916563034, -0.02443399652838707, 104.57366943359375],
    [-0.046698588877916336, 1.9927287101745605, -0.16386477649211884, -85.66024780273438],
    [-0.028348440304398537, 0.16323313117027283, 1.9931260347366333, -70.2044448852539],
    [0.0, 0.0, 0.0, 1.0]
],
  "dcmmeta_reorient_transform": [
    [0.0, -1.0, 0.0, 99.0],
    [1.0, 0.0, 0.0, 0.0],
    [0.0, 0.0, 1.0, 0.0],
    [0.0, 0.0, 0.0, 1.0]
],
  "dcmmeta_shape": [100, 100, 72, 241],
  "dcmmeta_slice_dim": 2,
  "dcmmeta_version": 0.6,
  "global": {
    "const": {
      "AcquisitionMatrix": [100, 0, 0, 100],
      "AngioFlag": "N",
      "BitsAllocated": 16,
      "BitsStored": 12,
      "BodyPartExamined": "BRAIN",
      "Columns": 900,
      "EchoNumbers": 1,
      "EchoTime": 34.0,
      "EchoTrainLength": 100,
      "FlipAngle": 90.0,
      "HighBit": 11,
      "ImageOrientationPatient": [0.99962688136753, 0.02334929400859, -0.014174220145, -0.0244303704077, 0.9963643378911, -0.0816165619257],
      "ImagePositionPatient": [-879.89366460666, -927.39079394776, 22.588260260099],
      "ImageType": [
        "ORIGINAL",
        "PRIMARY",
        "M",
        "ND",
        "MOSAIC"
],
      "ImagedNucleus": "1H",
      "ImagingFrequency": 123.257779,
      "InPlanePhaseEncodingDirection": "COL",
      "MRAcquisitionType": "2D",
      "MagneticFieldStrength": 3.0,
      "Manufacturer": "SIEMENS",
      "ManufacturerModelName": "Prisma",
      "Modality": "MR",
      "NumberOfAverages": 1.0,
      "NumberOfPhaseEncodingSteps": 100,
      "PercentPhaseFieldOfView": 100.0,
      "PercentSampling": 100.0,
      "PerformedProcedureStepStartTime": "150708.363000",
      "PhotometricInterpretation": "MONOCHROME2",
      "PixelBandwidth": 2380.0,
      "PixelRepresentation": 0,
      "PixelSpacing": [2.0, 2.0],
      "ProtocolName": "bold_100x100_s3_2x2x2_static_test_241",
      "RepetitionTime": 2000.0,
      "Rows": 900,
      "SAR": 0.07471435862482,
      "SamplesPerPixel": 1,
      "ScanOptions": "FS",
      "ScanningSequence": "EP",
      "SequenceName": "*epfid2d1_100",
      "SequenceVariant": "SK",
      "SeriesDescription": "bold_100x100_s3_2x2x2_static_test_241",
      "SeriesNumber": 13,
      "SeriesTime": "161910.346000",
      "SliceLocation": -64.222379756871,
      "SliceThickness": 2.0,
      "SmallestImagePixelValue": 0,
      "SoftwareVersions": "syngo MR E11",
      "SpacingBetweenSlices": 2.0000000081223,
      "SpecificCharacterSet": "ISO_IR 100",
      "StudyID": "1",
      "StudyTime": "150708.281000",
      "TransmitCoilName": "Body",
      "VariableFlipAngleFlag": "N",
      "WindowCenterWidthExplanation": "Algo1",
      "dBdt": 0.0},
    "slices": {}
  },
  "time": {
    "samples": {
      "AcquisitionNumber": [1, 2, 3, 4, 5, 6, 7, 8, 9, 10, 11, 12, 13, 14, 15, 16, 17, 18, 19, 20, 21, 22, 23, 24, 25, 26, 27, 28, 29, 30, 31, 32, 33, 34, 35, 36, 37, 38, 39, 40, 41, 42, 43, 44, 45, 46, 47, 48, 49, 50, 51, 52, 53, 54, 55, 56, 57, 58, 59, 60, 61, 62, 63, 64, 65, 66, 67, 68, 69, 70, 71, 72, 73, 74, 75, 76, 77, 78, 79, 80, 81, 82, 83, 84, 85, 86, 87, 88, 89, 90, 91, 92, 93, 94, 95, 96, 97, 98, 99, 100, 101, 102, 103, 104, 105, 106, 107, 108, 109, 110, 111, 112, 113, 114, 115, 116, 117, 118, 119, 120, 121, 122, 123, 124, 125, 126, 127, 128, 129, 130, 131, 132, 133, 134, 135, 136, 137, 138, 139, 140, 141, 142, 143, 144, 145, 146, 147, 148, 149, 150, 151, 152, 153, 154, 155, 156, 157, 158, 159, 160, 161, 162, 163, 164, 165, 166, 167, 168, 169, 170, 171, 172, 173, 174, 175, 176, 177, 178, 179, 180, 181, 182, 183, 184, 185, 186, 187, 188, 189, 190, 191, 192, 193, 194, 195, 196, 197, 198, 199, 200, 201, 202, 203, 204, 205, 206, 207, 208, 209, 210, 211, 212, 213, 214, 215, 216, 217, 218, 219, 220, 221, 222, 223, 224, 225, 226, 227, 228, 229, 230, 231, 232, 233, 234, 235, 236, 237, 238, 239, 240, 241],
      "AcquisitionTime": ["161907.777500", "161909.777500", "161911.777500", "161913.777500", "161915.777500", "161917.777500", "161919.777500", "161921.777500", "161923.777500", "161925.777500", "161927.777500", "161929.777500", "161931.777500", "161933.777500", "161935.777500", "161937.777500", "161939.777500", "161941.777500", "161943.777500", "161945.777500", "161947.777500", "161949.777500", "161951.777500", "161953.777500", "161955.777500", "161957.777500", "161959.777500", "162001.777500", "162003.777500", "162005.777500", "162007.777500", "162009.777500", "162011.777500", "162013.777500", "162015.777500", "162017.777500", "162019.777500", "162021.777500", "162023.777500", "162025.777500", "162027.777500", "162029.777500", "162031.777500", "162033.777500", "162035.777500", "162037.777500", "162039.777500", "162041.777500", "162043.777500", "162045.777500", "162047.777500", "162049.777500", "162051.777500", "162053.777500", "162055.777500", "162057.777500", "162059.777500", "162101.777500", "162103.777500", "162105.777500", "162107.777500", "162109.777500", "162111.777500", "162113.777500", "162115.777500", "162117.777500", "162119.777500", "162121.777500", "162123.777500", "162125.777500", "162127.777500", "162129.777500", "162131.777500", "162133.777500", "162135.777500", "162137.777500", "162139.777500", "162141.777500", "162143.777500", "162145.777500", "162147.777500", "162149.777500", "162151.777500", "162153.777500", "162155.777500", "162157.777500", "162159.777500", "162201.777500", "162203.777500", "162205.777500", "162207.777500", "162209.777500", "162211.777500", "162213.777500", "162215.777500", "162217.777500", "162219.777500", "162221.777500", "162223.777500", "162225.777500", "162227.777500", "162229.777500", "162231.777500", "162233.777500", "162235.777500", "162237.777500", "162239.777500", "162241.777500", "162243.777500", "162245.777500", "162247.777500", "162249.777500", "162251.777500", "162253.777500", "162255.777500", "162257.777500", "162259.777500", "162301.777500", "162303.777500", "162305.777500", "162307.777500", "162309.777500", "162311.777500", "162313.777500", "162315.777500", "162317.777500", "162319.777500", "162321.777500", "162323.777500", "162325.777500", "162327.777500", "162329.777500", "162331.777500", "162333.777500", "162335.777500", "162337.777500", "162339.777500", "162341.777500", "162343.777500", "162345.777500", "162347.777500", "162349.777500", "162351.777500", "162353.777500", "162355.777500", "162357.777500", "162359.777500", "162401.777500", "162403.777500", "162405.777500", "162407.777500", "162409.777500", "162411.777500", "162413.777500", "162415.777500", "162417.777500", "162419.777500", "162421.777500", "162423.777500", "162425.777500", "162427.777500", "162429.777500", "162431.777500", "162433.777500", "162435.777500", "162437.777500", "162439.777500", "162441.777500", "162443.777500", "162445.777500", "162447.777500", "162449.777500", "162451.777500", "162453.777500", "162455.777500", "162457.777500", "162459.777500", "162501.777500", "162503.777500", "162505.777500", "162507.777500", "162509.777500", "162511.777500", "162513.777500", "162515.777500", "162517.777500", "162519.777500", "162521.777500", "162523.777500", "162525.777500", "162527.777500", "162529.777500", "162531.777500", "162533.777500", "162535.777500", "162537.777500", "162539.777500", "162541.777500", "162543.777500", "162545.777500", "162547.777500", "162549.777500", "162551.777500", "162553.777500", "162555.777500", "162557.777500", "162559.777500", "162601.777500", "162603.777500", "162605.777500", "162607.777500", "162609.777500", "162611.777500", "162613.777500", "162615.777500", "162617.777500", "162619.777500", "162621.777500", "162623.777500", "162625.777500", "162627.777500", "162629.777500", "162631.777500", "162633.777500", "162635.777500", "162637.777500", "162639.777500", "162641.777500", "162643.777500", "162645.777500", "162647.777500", "162649.777500", "162651.777500", "162653.777500", "162655.777500", "162657.777500", "162659.777500", "162701.777500", "162703.777500", "162705.777500", "162707.777500"],
      "ContentTime": ["161910.350000", "161911.845000", "161913.845000", "161915.846000", "161917.846000", "161919.845000", "161921.845000", "161923.845000", "161925.845000", "161927.845000", "161929.846000", "161931.846000", "161933.846000", "161935.845000", "161937.845000", "161939.845000", "161941.845000", "161943.845000", "161945.845000", "161947.846000", "161949.846000", "161951.846000", "161953.846000", "161955.846000", "161957.846000", "161959.844000", "162001.844000", "162003.846000", "162005.846000", "162007.845000", "162009.846000", "162011.845000", "162013.846000", "162015.845000", "162017.844000", "162019.846000", "162021.846000", "162023.846000", "162025.846000", "162027.845000", "162029.845000", "162031.846000", "162033.846000", "162035.845000", "162037.846000", "162039.846000", "162041.846000", "162043.846000", "162045.846000", "162047.845000", "162049.846000", "162051.846000", "162053.845000", "162055.846000", "162057.846000", "162059.845000", "162101.845000", "162103.846000", "162105.846000", "162107.846000", "162109.844000", "162111.845000", "162113.846000", "162115.846000", "162117.846000", "162119.846000", "162121.846000", "162123.846000", "162125.846000", "162127.844000", "162129.846000", "162131.845000", "162133.846000", "162135.846000", "162137.846000", "162139.846000", "162141.846000", "162143.845000", "162145.844000", "162147.845000", "162149.846000", "162151.845000", "162153.846000", "162155.846000", "162157.845000", "162159.845000", "162201.845000", "162203.844000", "162205.846000", "162207.846000", "162209.846000", "162211.846000", "162213.846000", "162215.845000", "162217.845000", "162219.844000", "162221.845000", "162223.846000", "162225.846000", "162227.845000", "162229.846000", "162231.845000", "162233.845000", "162235.846000", "162237.845000", "162239.846000", "162241.845000", "162243.846000", "162245.846000", "162247.846000", "162249.846000", "162251.846000", "162253.845000", "162255.845000", "162257.846000", "162259.845000", "162301.846000", "162303.845000", "162305.846000", "162307.846000", "162309.846000", "162311.846000", "162313.844000", "162315.845000", "162317.846000", "162319.846000", "162321.846000", "162323.846000", "162325.846000", "162327.846000", "162329.845000", "162331.844000", "162333.846000", "162335.846000", "162337.846000", "162339.845000", "162341.846000", "162343.846000", "162345.848000", "162347.845000", "162349.845000", "162351.846000", "162353.846000", "162355.846000", "162357.846000", "162359.845000", "162401.845000", "162403.845000", "162405.845000", "162407.845000", "162409.846000", "162411.846000", "162413.845000", "162415.846000", "162417.858000", "162419.845000", "162421.846000", "162423.844000", "162425.846000", "162427.845000", "162429.845000", "162431.846000", "162433.845000", "162435.845000", "162437.846000", "162439.845000", "162441.846000", "162443.845000", "162445.846000", "162447.845000", "162449.846000", "162451.846000", "162453.846000", "162455.846000", "162457.844000", "162459.846000", "162501.846000", "162503.846000", "162505.846000", "162507.845000", "162509.846000", "162511.845000", "162513.846000", "162515.845000", "162517.845000", "162519.846000", "162521.846000", "162523.846000", "162525.845000", "162527.846000", "162529.846000", "162531.845000", "162533.845000", "162535.846000", "162537.845000", "162539.846000", "162541.846000", "162543.846000", "162545.846000", "162547.845000", "162549.845000", "162551.846000", "162553.846000", "162555.845000", "162557.845000", "162559.845000", "162601.846000", "162603.846000", "162605.846000", "162607.845000", "162609.846000", "162611.845000", "162613.846000", "162615.845000", "162617.845000", "162619.845000", "162621.846000", "162623.846000", "162625.844000", "162627.846000", "162629.845000", "162631.846000", "162633.846000", "162635.846000", "162637.845000", "162639.845000", "162641.844000", "162643.844000", "162645.845000", "162647.845000", "162649.846000", "162651.846000", "162653.846000", "162655.846000", "162657.846000", "162659.844000", "162701.845000", "162703.846000", "162705.845000", "162707.845000", "162709.578000"],
      "InstanceCreationTime": ["161910.350000", "161911.845000", "161913.845000", "161915.846000", "161917.846000", "161919.845000", "161921.845000", "161923.845000", "161925.845000", "161927.845000", "161929.846000", "161931.846000", "161933.846000", "161935.845000", "161937.845000", "161939.845000", "161941.845000", "161943.845000", "161945.845000", "161947.846000", "161949.846000", "161951.846000", "161953.846000", "161955.846000", "161957.846000", "161959.844000", "162001.844000", "162003.846000", "162005.846000", "162007.845000", "162009.846000", "162011.845000", "162013.846000", "162015.845000", "162017.844000", "162019.846000", "162021.846000", "162023.846000", "162025.846000", "162027.845000", "162029.845000", "162031.846000", "162033.846000", "162035.845000", "162037.846000", "162039.846000", "162041.846000", "162043.846000", "162045.846000", "162047.845000", "162049.846000", "162051.846000", "162053.845000", "162055.846000", "162057.846000", "162059.845000", "162101.845000", "162103.846000", "162105.846000", "162107.846000", "162109.844000", "162111.845000", "162113.846000", "162115.846000", "162117.846000", "162119.846000", "162121.846000", "162123.846000", "162125.846000", "162127.844000", "162129.846000", "162131.845000", "162133.846000", "162135.846000", "162137.846000", "162139.846000", "162141.846000", "162143.845000", "162145.844000", "162147.845000", "162149.846000", "162151.845000", "162153.846000", "162155.846000", "162157.845000", "162159.845000", "162201.845000", "162203.844000", "162205.846000", "162207.846000", "162209.846000", "162211.846000", "162213.846000", "162215.845000", "162217.845000", "162219.844000", "162221.845000", "162223.846000", "162225.846000", "162227.845000", "162229.846000", "162231.845000", "162233.845000", "162235.846000", "162237.845000", "162239.846000", "162241.845000", "162243.846000", "162245.846000", "162247.846000", "162249.846000", "162251.846000", "162253.845000", "162255.845000", "162257.846000", "162259.845000", "162301.846000", "162303.845000", "162305.846000", "162307.846000", "162309.846000", "162311.846000", "162313.844000", "162315.845000", "162317.846000", "162319.846000", "162321.846000", "162323.846000", "162325.846000", "162327.846000", "162329.845000", "162331.844000", "162333.846000", "162335.846000", "162337.846000", "162339.845000", "162341.846000", "162343.846000", "162345.848000", "162347.845000", "162349.845000", "162351.846000", "162353.846000", "162355.846000", "162357.846000", "162359.845000", "162401.845000", "162403.845000", "162405.845000", "162407.845000", "162409.846000", "162411.846000", "162413.845000", "162415.846000", "162417.858000", "162419.845000", "162421.846000", "162423.844000", "162425.846000", "162427.845000", "162429.845000", "162431.846000", "162433.845000", "162435.845000", "162437.846000", "162439.845000", "162441.846000", "162443.845000", "162445.846000", "162447.845000", "162449.846000", "162451.846000", "162453.846000", "162455.846000", "162457.844000", "162459.846000", "162501.846000", "162503.846000", "162505.846000", "162507.845000", "162509.846000", "162511.845000", "162513.846000", "162515.845000", "162517.845000", "162519.846000", "162521.846000", "162523.846000", "162525.845000", "162527.846000", "162529.846000", "162531.845000", "162533.845000", "162535.846000", "162537.845000", "162539.846000", "162541.846000", "162543.846000", "162545.846000", "162547.845000", "162549.845000", "162551.846000", "162553.846000", "162555.845000", "162557.845000", "162559.845000", "162601.846000", "162603.846000", "162605.846000", "162607.845000", "162609.846000", "162611.845000", "162613.846000", "162615.845000", "162617.845000", "162619.845000", "162621.846000", "162623.846000", "162625.844000", "162627.846000", "162629.845000", "162631.846000", "162633.846000", "162635.846000", "162637.845000", "162639.845000", "162641.844000", "162643.844000", "162645.845000", "162647.845000", "162649.846000", "162651.846000", "162653.846000", "162655.846000", "162657.846000", "162659.844000", "162701.845000", "162703.846000", "162705.845000", "162707.845000", "162709.578000"],
      "InstanceNumber": [1, 2, 3, 4, 5, 6, 7, 8, 9, 10, 11, 12, 13, 14, 15, 16, 17, 18, 19, 20, 21, 22, 23, 24, 25, 26, 27, 28, 29, 30, 31, 32, 33, 34, 35, 36, 37, 38, 39, 40, 41, 42, 43, 44, 45, 46, 47, 48, 49, 50, 51, 52, 53, 54, 55, 56, 57, 58, 59, 60, 61, 62, 63, 64, 65, 66, 67, 68, 69, 70, 71, 72, 73, 74, 75, 76, 77, 78, 79, 80, 81, 82, 83, 84, 85, 86, 87, 88, 89, 90, 91, 92, 93, 94, 95, 96, 97, 98, 99, 100, 101, 102, 103, 104, 105, 106, 107, 108, 109, 110, 111, 112, 113, 114, 115, 116, 117, 118, 119, 120, 121, 122, 123, 124, 125, 126, 127, 128, 129, 130, 131, 132, 133, 134, 135, 136, 137, 138, 139, 140, 141, 142, 143, 144, 145, 146, 147, 148, 149, 150, 151, 152, 153, 154, 155, 156, 157, 158, 159, 160, 161, 162, 163, 164, 165, 166, 167, 168, 169, 170, 171, 172, 173, 174, 175, 176, 177, 178, 179, 180, 181, 182, 183, 184, 185, 186, 187, 188, 189, 190, 191, 192, 193, 194, 195, 196, 197, 198, 199, 200, 201, 202, 203, 204, 205, 206, 207, 208, 209, 210, 211, 212, 213, 214, 215, 216, 217, 218, 219, 220, 221, 222, 223, 224, 225, 226, 227, 228, 229, 230, 231, 232, 233, 234, 235, 236, 237, 238, 239, 240, 241],
      "LargestImagePixelValue": [2784, 2673, 2674, 2615, 2602, 2636, 2609, 2645, 2639, 2647, 2662, 2650, 2636, 2643, 2627, 2661, 2672, 2663, 2667, 2673, 2645, 2640, 2628, 2638, 2679, 2650, 2634, 2631, 2668, 2653, 2644, 2655, 2658, 2651, 2650, 2676, 2645, 2643, 2643, 2668, 2660, 2649, 2663, 2640, 2665, 2676, 2660, 2673, 2663, 2653, 2645, 2656, 2683, 2674, 2650, 2648, 2658, 2656, 2648, 2648, 2650, 2666, 2618, 2662, 2632, 2657, 2645, 2648, 2683, 2666, 2640, 2654, 2671, 2668, 2669, 2659, 2651, 2684, 2669, 2659, 2681, 2664, 2675, 2662, 2667, 2668, 2678, 2701, 2685, 2689, 2674, 2700, 2680, 2670, 2696, 2657, 2679, 2677, 2677, 2691, 2673, 2689, 2683, 2679, 2658, 2665, 2687, 2680, 2688, 2664, 2666, 2782, 2682, 2717, 2658, 2702, 2684, 2678, 2656, 2676, 2693, 2681, 2683, 2680, 2679, 2671, 2680, 2670, 2671, 2671, 2664, 2666, 2692, 2681, 2695, 2675, 2684, 2703, 2658, 2694, 2689, 2671, 2668, 2654, 2690, 2689, 2685, 2681, 2686, 2688, 3042, 2674, 2710, 2655, 2730, 2711, 2677, 2695, 2687, 2695, 2663, 2675, 2694, 2665, 2687, 2682, 2728, 2690, 2691, 2689, 2709, 2696, 2674, 2704, 2697, 2696, 2703, 2730, 2704, 2700, 2660, 2705, 2663, 2739, 2689, 2746, 2691, 2712, 2714, 2703, 2702, 2728, 2704, 2724, 2708, 2742, 2738, 2696, 2704, 2693, 2768, 2696, 2730, 2705, 2705, 2725, 2733, 2710, 2716, 2706, 2696, 2707, 2681, 2672, 2717, 2690, 2687, 2690, 2666, 2699, 2699, 2711, 2681, 2690, 2688, 2688, 2675, 2679, 2674, 2716, 2680, 2688, 2658, 2683, 2684, 2682, 2695, 2703, 2818, 2687, 2659],
      "WindowCenter": [731.0, 730.0, 731.0, 730.0, 729.0, 730.0, 729.0, 730.0, 730.0, 730.0, 731.0, 730.0, 730.0, 729.0, 729.0, 730.0, 730.0, 730.0, 729.0, 729.0, 729.0, 729.0, 730.0, 729.0, 730.0, 729.0, 729.0, 730.0, 730.0, 731.0, 731.0, 731.0, 730.0, 730.0, 730.0, 730.0, 729.0, 729.0, 729.0, 730.0, 731.0, 730.0, 729.0, 729.0, 729.0, 730.0, 730.0, 729.0, 730.0, 730.0, 729.0, 729.0, 729.0, 730.0, 730.0, 730.0, 730.0, 729.0, 729.0, 729.0, 730.0, 731.0, 730.0, 731.0, 730.0, 731.0, 731.0, 731.0, 732.0, 731.0, 731.0, 730.0, 730.0, 730.0, 731.0, 731.0, 731.0, 731.0, 730.0, 729.0, 730.0, 730.0, 732.0, 733.0, 732.0, 731.0, 730.0, 730.0, 730.0, 730.0, 731.0, 731.0, 731.0, 731.0, 730.0, 730.0, 731.0, 730.0, 730.0, 731.0, 730.0, 730.0, 729.0, 730.0, 731.0, 731.0, 730.0, 730.0, 731.0, 731.0, 731.0, 732.0, 732.0, 732.0, 731.0, 730.0, 729.0, 730.0, 730.0, 730.0, 730.0, 731.0, 730.0, 730.0, 730.0, 730.0, 730.0, 730.0, 729.0, 729.0, 729.0, 730.0, 731.0, 730.0, 730.0, 731.0, 731.0, 731.0, 729.0, 729.0, 730.0, 730.0, 730.0, 730.0, 730.0, 730.0, 730.0, 731.0, 731.0, 731.0, 734.0, 730.0, 731.0, 731.0, 733.0, 732.0, 731.0, 730.0, 730.0, 732.0, 731.0, 731.0, 731.0, 730.0, 730.0, 730.0, 732.0, 733.0, 732.0, 731.0, 730.0, 731.0, 731.0, 732.0, 732.0, 732.0, 733.0, 734.0, 734.0, 732.0, 730.0, 731.0, 731.0, 733.0, 732.0, 732.0, 732.0, 732.0, 732.0, 731.0, 732.0, 733.0, 732.0, 732.0, 733.0, 734.0, 734.0, 732.0, 732.0, 731.0, 733.0, 732.0, 733.0, 733.0, 733.0, 733.0, 733.0, 732.0, 732.0, 732.0, 732.0, 732.0, 731.0, 731.0, 731.0, 732.0, 733.0, 732.0, 730.0, 731.0, 731.0, 731.0, 731.0, 732.0, 732.0, 731.0, 734.0, 735.0, 733.0, 731.0, 729.0, 730.0, 730.0, 731.0, 731.0, 730.0, 731.0, 732.0, 734.0, 730.0, 729.0],
      "WindowWidth": [1573.0, 1569.0, 1572.0, 1570.0, 1568.0, 1570.0, 1569.0, 1571.0, 1570.0, 1571.0, 1572.0, 1571.0, 1570.0, 1568.0, 1569.0, 1571.0, 1571.0, 1569.0, 1568.0, 1568.0, 1567.0, 1568.0, 1570.0, 1569.0, 1570.0, 1569.0, 1568.0, 1570.0, 1570.0, 1573.0, 1573.0, 1573.0, 1571.0, 1570.0, 1570.0, 1570.0, 1568.0, 1568.0, 1568.0, 1572.0, 1573.0, 1571.0, 1569.0, 1569.0, 1569.0, 1570.0, 1570.0, 1569.0, 1570.0, 1570.0, 1569.0, 1569.0, 1568.0, 1571.0, 1572.0, 1571.0, 1571.0, 1568.0, 1569.0, 1569.0, 1571.0, 1572.0, 1571.0, 1572.0, 1572.0, 1572.0, 1573.0, 1573.0, 1575.0, 1573.0, 1572.0, 1571.0, 1570.0, 1572.0, 1574.0, 1574.0, 1572.0, 1572.0, 1570.0, 1569.0, 1570.0, 1571.0, 1576.0, 1578.0, 1577.0, 1573.0, 1570.0, 1569.0, 1571.0, 1571.0, 1572.0, 1573.0, 1573.0, 1572.0, 1572.0, 1570.0, 1572.0, 1571.0, 1571.0, 1572.0, 1570.0, 1569.0, 1569.0, 1571.0, 1572.0, 1572.0, 1570.0, 1571.0, 1572.0, 1573.0, 1574.0, 1576.0, 1575.0, 1577.0, 1573.0, 1570.0, 1567.0, 1569.0, 1570.0, 1571.0, 1570.0, 1572.0, 1571.0, 1571.0, 1571.0, 1571.0, 1570.0, 1569.0, 1569.0, 1567.0, 1569.0, 1572.0, 1573.0, 1569.0, 1571.0, 1572.0, 1573.0, 1573.0, 1569.0, 1569.0, 1570.0, 1570.0, 1571.0, 1571.0, 1572.0, 1570.0, 1571.0, 1573.0, 1574.0, 1573.0, 1579.0, 1570.0, 1572.0, 1573.0, 1577.0, 1576.0, 1574.0, 1571.0, 1571.0, 1575.0, 1574.0, 1573.0, 1572.0, 1570.0, 1571.0, 1571.0, 1575.0, 1577.0, 1574.0, 1572.0, 1571.0, 1573.0, 1574.0, 1575.0, 1575.0, 1576.0, 1577.0, 1581.0, 1580.0, 1576.0, 1571.0, 1571.0, 1572.0, 1577.0, 1574.0, 1575.0, 1575.0, 1575.0, 1574.0, 1574.0, 1576.0, 1577.0, 1576.0, 1576.0, 1578.0, 1581.0, 1581.0, 1576.0, 1574.0, 1573.0, 1577.0, 1576.0, 1577.0, 1578.0, 1577.0, 1577.0, 1577.0, 1576.0, 1575.0, 1575.0, 1575.0, 1575.0, 1572.0, 1573.0, 1572.0, 1575.0, 1577.0, 1576.0, 1571.0, 1571.0, 1572.0, 1573.0, 1573.0, 1575.0, 1575.0, 1574.0, 1580.0, 1583.0, 1578.0, 1573.0, 1568.0, 1569.0, 1570.0, 1572.0, 1572.0, 1569.0, 1572.0, 1576.0, 1580.0, 1571.0, 1568.0]
    },
    "slices": {}
  }
}