{
  "AcquisitionMatrixPE": 100,
  "AcquisitionNumber": 1,
  "AcquisitionTime": "14:50:37.997500",
  "BandwidthPerPixelPhaseEncode": 18.519,
  "BaseResolution": 100,
  "BodyPartExamined": "BRAIN",
  "ConsistencyInfo": "N4_VE11C_LATEST_20160120",
  "ConversionSoftware": "dcm2niix",
  "ConversionSoftwareVersion": "v1.0.20180622 GCC4.9.2",
  "DerivedVendorReportedEchoSpacing": 0.000539986,
  "DeviceSerialNumber": "166078",
  "DwellTime": 2.1e-06,
  "EchoTime": 0.034,
  "EchoTrainLength": 100,
  "EffectiveEchoSpacing": 0.000539986,
  "FlipAngle": 90,
  "ImageOrientationPatientDICOM": [1, 0, 0, 0, 0.981627, -0.190809],
  "ImageType": [
    "ORIGINAL",
    "PRIMARY",
    "M",
    "ND",
    "MOSAIC"
],
  "InPlanePhaseEncodingDirectionDICOM": "COL",
  "InstitutionAddress": "Street_StreetNo_Bei_Jing_District_CN_ZIP",
  "InstitutionName": "BeiJing_Normal_University",
  "InstitutionalDepartmentName": "Department",
  "MRAcquisitionType": "2D",
  "MagneticFieldStrength": 3,
  "Manufacturer": "Siemens",
  "ManufacturersModelName": "Prisma",
  "Modality": "MR",
  "MultibandAccelerationFactor": 3,
  "PartialFourier": 1,
  "PatientPosition": "HFS",
  "PercentPhaseFOV": 100,
  "PhaseEncodingDirection": "j-",
  "PhaseEncodingSteps": 100,
  "PhaseResolution": 1,
  "PixelBandwidth": 2380,
  "ProcedureStepDescription": "BNU_P2018_64CH_Zhen.ZongLei",
  "ProtocolName": "bold_100x100_s3_2x2x2_cat_150",
  "PulseSequenceDetails": "%SiemensSeq%_ep2d_bold",
  "ReceiveCoilActiveElements": "HC1-7;NC1",
  "ReceiveCoilName": "HeadNeck_64",
  "ReconMatrixPE": 100,
  "RepetitionTime": 2,
  "SAR": 0.0878754,
  "ScanOptions": "FS",
  "ScanningSequence": "EP",
  "SequenceName": "_epfid2d1_100",
  "SequenceVariant": "SK",
  "SeriesDescription": "bold_100x100_s3_2x2x2_cat_150",
  "SeriesNumber": 13,
  "ShimSetting": [-5458, -11480, -1240, 394, -13, -172, -191, 72],
  "SliceThickness": 2,
  "SliceTiming": [1.485, 0, 0.99, 0.0825, 1.0725, 0.165, 1.155, 0.2475, 1.2375, 0.33, 1.32, 0.4125, 1.4025, 0.5775, 1.5675, 0.66, 1.65, 0.7425, 1.7325, 0.825, 1.8125, 0.9075, 1.895, 0.495, 1.485, 0, 0.99, 0.0825, 1.0725, 0.165, 1.155, 0.2475, 1.2375, 0.33, 1.32, 0.4125, 1.4025, 0.5775, 1.5675, 0.66, 1.65, 0.7425, 1.7325, 0.825, 1.8125, 0.9075, 1.895, 0.495, 1.485, 0, 0.99, 0.0825, 1.0725, 0.165, 1.155, 0.2475, 1.2375, 0.33, 1.32, 0.4125, 1.4025, 0.5775, 1.5675, 0.66, 1.65, 0.7425, 1.7325, 0.825, 1.8125, 0.9075, 1.895, 0.495],
  "SoftwareVersions": "syngo_MR_E11",
  "SpacingBetweenSlices": 2,
  "StationName": "AWP166078",
  "TaskName": "category",
  "TotalReadoutTime": 0.0534586,
  "TxRefAmp": 231.76,
  "dcmmeta_affine": [
    [-2.0, 0.0, 0.0, 101.34939575195312],
    [0.0, 1.9632543325424194, -0.3816179931163788, -83.92913055419922],
    [0.0, 0.3816179633140564, 1.963254451751709, -76.1924057006836],
    [0.0, 0.0, 0.0, 1.0]
],
  "dcmmeta_reorient_transform": [
    [0.0, -1.0, 0.0, 99.0],
    [1.0, 0.0, 0.0, 0.0],
    [0.0, 0.0, 1.0, 0.0],
    [0.0, 0.0, 0.0, 1.0]
],
  "dcmmeta_shape": [100, 100, 72, 150],
  "dcmmeta_slice_dim": 2,
  "dcmmeta_version": 0.6,
  "global": {
    "const": {
      "AcquisitionMatrix": [100, 0, 0, 100],
      "AngioFlag": "N",
      "BitsAllocated": 16,
      "BitsStored": 12,
      "BodyPartExamined": "BRAIN",
      "Columns": 900,
      "EchoNumbers": 1,
      "EchoTime": 34.0,
      "EchoTrainLength": 100,
      "FlipAngle": 90.0,
      "HighBit": 11,
      "ImageOrientationPatient": [1.0, 0.0, 0.0, 0.0, 0.98162718523795, -0.1908089861663],
      "ImagePositionPatient": [-901.34939754009, -895.73479714323, 114.23496544886],
      "ImageType": [
        "ORIGINAL",
        "PRIMARY",
        "M",
        "ND",
        "MOSAIC"
],
      "ImagedNucleus": "1H",
      "ImagingFrequency": 123.257759,
      "InPlanePhaseEncodingDirection": "COL",
      "MRAcquisitionType": "2D",
      "MagneticFieldStrength": 3.0,
      "Manufacturer": "SIEMENS",
      "ManufacturerModelName": "Prisma",
      "Modality": "MR",
      "NumberOfAverages": 1.0,
      "NumberOfPhaseEncodingSteps": 100,
      "PercentPhaseFieldOfView": 100.0,
      "PercentSampling": 100.0,
      "PerformedProcedureStepStartTime": "135813.353000",
      "PhotometricInterpretation": "MONOCHROME2",
      "PixelBandwidth": 2380.0,
      "PixelRepresentation": 0,
      "PixelSpacing": [2.0, 2.0],
      "ProtocolName": "bold_100x100_s3_2x2x2_cat_150",
      "RepetitionTime": 2000.0,
      "Rows": 900,
      "SAR": 0.08787537138614,
      "SamplesPerPixel": 1,
      "ScanOptions": "FS",
      "ScanningSequence": "EP",
      "SequenceName": "*epfid2d1_100",
      "SequenceVariant": "SK",
      "SeriesDescription": "bold_100x100_s3_2x2x2_cat_150",
      "SeriesNumber": 13,
      "SeriesTime": "145041.045000",
      "SliceLocation": -58.778100927478,
      "SliceThickness": 2.0,
      "SmallestImagePixelValue": 0,
      "SoftwareVersions": "syngo MR E11",
      "SpacingBetweenSlices": 2.0000000500643,
      "SpecificCharacterSet": "ISO_IR 100",
      "StudyID": "1",
      "StudyTime": "135813.261000",
      "TransmitCoilName": "Body",
      "VariableFlipAngleFlag": "N",
      "WindowCenterWidthExplanation": "Algo1",
      "dBdt": 0.0},
    "slices": {}
  },
  "time": {
    "samples": {
      "AcquisitionNumber": [1, 2, 3, 4, 5, 6, 7, 8, 9, 10, 11, 12, 13, 14, 15, 16, 17, 18, 19, 20, 21, 22, 23, 24, 25, 26, 27, 28, 29, 30, 31, 32, 33, 34, 35, 36, 37, 38, 39, 40, 41, 42, 43, 44, 45, 46, 47, 48, 49, 50, 51, 52, 53, 54, 55, 56, 57, 58, 59, 60, 61, 62, 63, 64, 65, 66, 67, 68, 69, 70, 71, 72, 73, 74, 75, 76, 77, 78, 79, 80, 81, 82, 83, 84, 85, 86, 87, 88, 89, 90, 91, 92, 93, 94, 95, 96, 97, 98, 99, 100, 101, 102, 103, 104, 105, 106, 107, 108, 109, 110, 111, 112, 113, 114, 115, 116, 117, 118, 119, 120, 121, 122, 123, 124, 125, 126, 127, 128, 129, 130, 131, 132, 133, 134, 135, 136, 137, 138, 139, 140, 141, 142, 143, 144, 145, 146, 147, 148, 149, 150],
      "AcquisitionTime": ["145037.997500", "145039.997500", "145041.997500", "145043.997500", "145045.997500", "145047.997500", "145049.997500", "145051.997500", "145053.997500", "145055.997500", "145057.997500", "145059.997500", "145101.997500", "145103.997500", "145105.997500", "145107.997500", "145109.997500", "145111.997500", "145113.997500", "145115.997500", "145117.997500", "145119.997500", "145121.997500", "145123.997500", "145125.997500", "145127.997500", "145129.997500", "145131.997500", "145133.997500", "145135.997500", "145137.997500", "145139.997500", "145141.997500", "145143.997500", "145145.997500", "145147.997500", "145149.997500", "145151.997500", "145153.997500", "145155.997500", "145157.997500", "145159.997500", "145201.997500", "145203.997500", "145205.997500", "145207.997500", "145209.997500", "145211.997500", "145213.997500", "145215.997500", "145217.997500", "145219.997500", "145221.997500", "145223.997500", "145225.997500", "145227.997500", "145229.997500", "145231.997500", "145233.997500", "145235.997500", "145237.997500", "145239.997500", "145241.997500", "145243.997500", "145245.997500", "145247.997500", "145249.997500", "145251.997500", "145253.997500", "145255.997500", "145257.997500", "145259.997500", "145301.997500", "145303.997500", "145305.997500", "145307.997500", "145309.997500", "145311.997500", "145313.997500", "145315.997500", "145317.997500", "145319.997500", "145321.997500", "145323.997500", "145325.997500", "145327.997500", "145329.997500", "145331.997500", "145333.997500", "145335.997500", "145337.997500", "145339.997500", "145341.997500", "145343.997500", "145345.997500", "145347.997500", "145349.997500", "145351.997500", "145353.997500", "145355.997500", "145357.997500", "145359.997500", "145401.997500", "145403.997500", "145405.997500", "145407.997500", "145409.997500", "145411.997500", "145413.997500", "145415.997500", "145417.997500", "145419.997500", "145421.997500", "145423.997500", "145425.997500", "145427.997500", "145429.997500", "145431.997500", "145433.997500", "145435.997500", "145437.997500", "145439.997500", "145441.997500", "145443.997500", "145445.997500", "145447.997500", "145449.997500", "145451.997500", "145453.997500", "145455.997500", "145457.997500", "145459.997500", "145501.997500", "145503.997500", "145505.997500", "145507.997500", "145509.997500", "145511.997500", "145513.997500", "145515.997500", "145517.997500", "145519.997500", "145521.997500", "145523.997500", "145525.997500", "145527.997500", "145529.997500", "145531.997500", "145533.997500", "145535.997500"],
      "ContentTime": ["145041.049000", "145042.536000", "145044.037000", "145046.537000", "145048.036000", "145050.036000", "145052.036000", "145054.538000", "145056.037000", "145058.536000", "145100.036000", "145102.036000", "145104.037000", "145106.036000", "145108.536000", "145110.036000", "145112.538000", "145114.038000", "145116.036000", "145118.037000", "145120.537000", "145122.037000", "145124.037000", "145126.036000", "145128.037000", "145130.037000", "145132.537000", "145134.536000", "145136.036000", "145138.037000", "145140.536000", "145142.036000", "145144.036000", "145146.037000", "145148.037000", "145150.037000", "145152.036000", "145154.536000", "145156.036000", "145158.037000", "145200.036000", "145202.036000", "145204.037000", "145206.037000", "145208.537000", "145210.037000", "145212.037000", "145214.037000", "145216.036000", "145218.537000", "145220.036000", "145222.537000", "145224.037000", "145226.036000", "145228.536000", "145230.036000", "145232.036000", "145234.036000", "145236.037000", "145238.538000", "145240.537000", "145242.038000", "145244.036000", "145246.036000", "145248.536000", "145250.036000", "145252.036000", "145254.036000", "145256.038000", "145258.037000", "145300.038000", "145302.036000", "145304.036000", "145306.036000", "145308.036000", "145310.037000", "145312.036000", "145314.537000", "145316.037000", "145318.036000", "145320.037000", "145322.037000", "145324.037000", "145326.036000", "145328.537000", "145330.036000", "145332.037000", "145334.037000", "145336.036000", "145338.036000", "145340.036000", "145342.036000", "145344.536000", "145346.037000", "145348.038000", "145350.537000", "145352.038000", "145354.536000", "145356.036000", "145358.036000", "145400.036000", "145402.036000", "145404.036000", "145406.537000", "145408.537000", "145410.536000", "145412.036000", "145414.036000", "145416.036000", "145418.037000", "145420.036000", "145422.037000", "145424.037000", "145426.038000", "145428.037000", "145430.537000", "145432.036000", "145434.536000", "145436.036000", "145438.537000", "145440.036000", "145442.038000", "145444.538000", "145446.036000", "145448.037000", "145450.036000", "145452.036000", "145454.037000", "145456.036000", "145458.538000", "145500.038000", "145502.037000", "145504.536000", "145506.036000", "145508.537000", "145510.036000", "145512.037000", "145514.037000", "145516.037000", "145518.038000", "145520.537000", "145522.036000", "145524.537000", "145526.536000", "145528.536000", "145530.037000", "145532.037000", "145534.537000", "145536.538000", "145538.033000"],
      "InstanceCreationTime": ["145041.049000", "145042.536000", "145044.037000", "145046.537000", "145048.036000", "145050.036000", "145052.036000", "145054.538000", "145056.037000", "145058.536000", "145100.036000", "145102.036000", "145104.037000", "145106.036000", "145108.536000", "145110.036000", "145112.538000", "145114.038000", "145116.036000", "145118.037000", "145120.537000", "145122.037000", "145124.037000", "145126.036000", "145128.037000", "145130.037000", "145132.537000", "145134.536000", "145136.036000", "145138.037000", "145140.536000", "145142.036000", "145144.036000", "145146.037000", "145148.037000", "145150.037000", "145152.036000", "145154.536000", "145156.036000", "145158.037000", "145200.036000", "145202.036000", "145204.037000", "145206.037000", "145208.537000", "145210.037000", "145212.037000", "145214.037000", "145216.036000", "145218.537000", "145220.036000", "145222.537000", "145224.037000", "145226.036000", "145228.536000", "145230.036000", "145232.036000", "145234.036000", "145236.037000", "145238.538000", "145240.537000", "145242.038000", "145244.036000", "145246.036000", "145248.536000", "145250.036000", "145252.036000", "145254.036000", "145256.038000", "145258.037000", "145300.038000", "145302.036000", "145304.036000", "145306.036000", "145308.036000", "145310.037000", "145312.036000", "145314.537000", "145316.037000", "145318.036000", "145320.037000", "145322.037000", "145324.037000", "145326.036000", "145328.537000", "145330.036000", "145332.037000", "145334.037000", "145336.036000", "145338.036000", "145340.036000", "145342.036000", "145344.536000", "145346.037000", "145348.038000", "145350.537000", "145352.038000", "145354.536000", "145356.036000", "145358.036000", "145400.036000", "145402.036000", "145404.036000", "145406.537000", "145408.537000", "145410.536000", "145412.036000", "145414.036000", "145416.036000", "145418.037000", "145420.036000", "145422.037000", "145424.037000", "145426.038000", "145428.037000", "145430.537000", "145432.036000", "145434.536000", "145436.036000", "145438.537000", "145440.036000", "145442.038000", "145444.538000", "145446.036000", "145448.037000", "145450.036000", "145452.036000", "145454.037000", "145456.036000", "145458.538000", "145500.038000", "145502.037000", "145504.536000", "145506.036000", "145508.537000", "145510.036000", "145512.037000", "145514.037000", "145516.037000", "145518.038000", "145520.537000", "145522.036000", "145524.537000", "145526.536000", "145528.536000", "145530.037000", "145532.037000", "145534.537000", "145536.538000", "145538.033000"],
      "InstanceNumber": [1, 2, 3, 4, 5, 6, 7, 8, 9, 10, 11, 12, 13, 14, 15, 16, 17, 18, 19, 20, 21, 22, 23, 24, 25, 26, 27, 28, 29, 30, 31, 32, 33, 34, 35, 36, 37, 38, 39, 40, 41, 42, 43, 44, 45, 46, 47, 48, 49, 50, 51, 52, 53, 54, 55, 56, 57, 58, 59, 60, 61, 62, 63, 64, 65, 66, 67, 68, 69, 70, 71, 72, 73, 74, 75, 76, 77, 78, 79, 80, 81, 82, 83, 84, 85, 86, 87, 88, 89, 90, 91, 92, 93, 94, 95, 96, 97, 98, 99, 100, 101, 102, 103, 104, 105, 106, 107, 108, 109, 110, 111, 112, 113, 114, 115, 116, 117, 118, 119, 120, 121, 122, 123, 124, 125, 126, 127, 128, 129, 130, 131, 132, 133, 134, 135, 136, 137, 138, 139, 140, 141, 142, 143, 144, 145, 146, 147, 148, 149, 150],
      "LargestImagePixelValue": [3824, 3780, 3794, 3815, 3828, 3868, 3817, 3852, 3830, 3840, 3856, 3835, 3854, 3831, 3859, 3860, 3870, 3793, 3836, 3866, 3868, 3816, 3841, 3836, 3824, 3838, 3869, 3855, 3884, 3872, 3870, 3911, 3895, 3842, 3876, 3888, 3879, 3889, 3891, 3895, 3907, 3876, 3914, 3936, 3892, 3918, 3875, 3886, 3891, 3902, 3931, 3899, 3911, 3856, 3870, 3868, 3874, 3847, 3846, 3875, 3869, 3860, 3849, 3829, 3860, 3840, 3880, 3857, 3882, 3837, 3872, 3903, 3887, 3879, 3863, 3915, 3923, 3835, 3848, 3861, 3906, 3951, 3883, 3947, 3948, 3996, 3972, 3949, 3932, 3929, 3997, 3993, 3938, 3932, 3926, 3938, 4007, 4013, 3994, 3996, 3977, 3988, 3979, 4005, 3984, 3995, 3986, 3993, 3972, 3979, 3960, 3967, 3978, 3961, 3983, 4008, 3959, 3977, 3987, 4035, 3988, 4022, 4052, 4020, 3982, 3963, 3930, 3971, 3970, 3909, 3940, 3958, 3928, 3927, 3924, 3983, 3980, 3995, 3990, 4014, 4028, 4023, 4021, 4029, 4038, 4038, 4019, 4009, 4022, 4023],
      "WindowCenter": [870.0, 868.0, 868.0, 868.0, 867.0, 867.0, 867.0, 867.0, 869.0, 869.0, 869.0, 869.0, 870.0, 871.0, 870.0, 870.0, 870.0, 870.0, 870.0, 869.0, 868.0, 868.0, 868.0, 868.0, 867.0, 867.0, 867.0, 869.0, 869.0, 868.0, 867.0, 868.0, 869.0, 870.0, 869.0, 868.0, 869.0, 869.0, 869.0, 868.0, 868.0, 867.0, 868.0, 869.0, 869.0, 868.0, 867.0, 867.0, 868.0, 869.0, 870.0, 869.0, 868.0, 867.0, 867.0, 868.0, 869.0, 869.0, 868.0, 868.0, 868.0, 867.0, 866.0, 866.0, 866.0, 866.0, 866.0, 866.0, 866.0, 865.0, 866.0, 866.0, 866.0, 865.0, 865.0, 865.0, 865.0, 863.0, 864.0, 865.0, 865.0, 865.0, 864.0, 864.0, 864.0, 865.0, 865.0, 864.0, 864.0, 865.0, 865.0, 865.0, 864.0, 863.0, 864.0, 865.0, 866.0, 866.0, 864.0, 864.0, 864.0, 866.0, 866.0, 865.0, 866.0, 866.0, 864.0, 863.0, 863.0, 863.0, 864.0, 865.0, 865.0, 865.0, 865.0, 864.0, 864.0, 864.0, 865.0, 865.0, 866.0, 866.0, 866.0, 865.0, 865.0, 865.0, 866.0, 866.0, 866.0, 865.0, 865.0, 865.0, 865.0, 864.0, 864.0, 865.0, 864.0, 865.0, 865.0, 867.0, 868.0, 868.0, 867.0, 866.0, 867.0, 868.0, 868.0, 867.0, 866.0, 865.0],
      "WindowWidth": [1884.0, 1880.0, 1879.0, 1877.0, 1876.0, 1876.0, 1875.0, 1876.0, 1881.0, 1881.0, 1881.0, 1882.0, 1886.0, 1887.0, 1887.0, 1885.0, 1885.0, 1885.0, 1885.0, 1883.0, 1880.0, 1878.0, 1878.0, 1879.0, 1878.0, 1876.0, 1878.0, 1882.0, 1883.0, 1880.0, 1878.0, 1880.0, 1883.0, 1886.0, 1884.0, 1880.0, 1882.0, 1883.0, 1881.0, 1881.0, 1880.0, 1878.0, 1880.0, 1884.0, 1884.0, 1880.0, 1878.0, 1878.0, 1880.0, 1881.0, 1886.0, 1883.0, 1881.0, 1877.0, 1877.0, 1879.0, 1882.0, 1882.0, 1880.0, 1880.0, 1880.0, 1877.0, 1875.0, 1874.0, 1875.0, 1874.0, 1875.0, 1874.0, 1873.0, 1872.0, 1875.0, 1875.0, 1874.0, 1872.0, 1871.0, 1872.0, 1870.0, 1867.0, 1868.0, 1871.0, 1871.0, 1870.0, 1868.0, 1869.0, 1868.0, 1872.0, 1872.0, 1869.0, 1869.0, 1871.0, 1872.0, 1871.0, 1868.0, 1867.0, 1869.0, 1873.0, 1875.0, 1874.0, 1870.0, 1869.0, 1870.0, 1873.0, 1873.0, 1872.0, 1873.0, 1873.0, 1869.0, 1866.0, 1865.0, 1867.0, 1869.0, 1870.0, 1871.0, 1871.0, 1870.0, 1868.0, 1868.0, 1869.0, 1869.0, 1872.0, 1873.0, 1873.0, 1873.0, 1872.0, 1870.0, 1872.0, 1873.0, 1874.0, 1873.0, 1870.0, 1871.0, 1871.0, 1869.0, 1868.0, 1869.0, 1870.0, 1870.0, 1871.0, 1872.0, 1876.0, 1879.0, 1880.0, 1876.0, 1875.0, 1877.0, 1879.0, 1880.0, 1877.0, 1874.0, 1873.0]
    },
    "slices": {}
  }
}