{
 "AcquisitionMatrixPE": 100,
 "AcquisitionNumber": 1,
 "AcquisitionTime": "10:36:41.137500",
 "BandwidthPerPixelPhaseEncode": 18.519,
 "BaseResolution": 100,
 "BodyPartExamined": "BRAIN",
 "ConsistencyInfo": "N4_VE11C_LATEST_20160120",
 "ConversionSoftware": "dcm2niix",
 "ConversionSoftwareVersion": "v1.0.20180622 GCC4.9.2",
 "DerivedVendorReportedEchoSpacing": 0.000539986,
 "DeviceSerialNumber": "166078",
 "DwellTime": 2.1e-06,
 "EchoTime": 0.034,
 "EchoTrainLength": 100,
 "EffectiveEchoSpacing": 0.000539986,
 "FlipAngle": 90,
 "ImageOrientationPatientDICOM": [
  1,
  0,
  0,
  0,
  0.982613,
  -0.185667
 ],
 "ImageType": [
  "ORIGINAL",
  "PRIMARY",
  "M",
  "ND",
  "MOSAIC"
 ],
 "InPlanePhaseEncodingDirectionDICOM": "COL",
 "InstitutionAddress": "Street_StreetNo_Bei_Jing_District_CN_ZIP",
 "InstitutionName": "BeiJing_Normal_University",
 "InstitutionalDepartmentName": "Department",
 "MRAcquisitionType": "2D",
 "MagneticFieldStrength": 3,
 "Manufacturer": "Siemens",
 "ManufacturersModelName": "Prisma",
 "Modality": "MR",
 "MultibandAccelerationFactor": 3,
 "PartialFourier": 1,
 "PatientPosition": "HFS",
 "PercentPhaseFOV": 100,
 "PhaseEncodingDirection": "j-",
 "PhaseEncodingSteps": 100,
 "PhaseResolution": 1,
 "PixelBandwidth": 2380,
 "ProcedureStepDescription": "BNU_P2018_64CH_Zhen.ZongLei",
 "ProtocolName": "bold_100x100_s3_2x2x2_retino_150",
 "PulseSequenceDetails": "%SiemensSeq%_ep2d_bold",
 "ReceiveCoilActiveElements": "HC1-7;NC1",
 "ReceiveCoilName": "HeadNeck_64",
 "ReconMatrixPE": 100,
 "RepetitionTime": 2,
 "SAR": 0.0600828,
 "ScanOptions": "FS",
 "ScanningSequence": "EP",
 "SequenceName": "_epfid2d1_100",
 "SequenceVariant": "SK",
 "SeriesDescription": "bold_100x100_s3_2x2x2_retino_150",
 "SeriesNumber": 17,
 "ShimSetting": [
  -5459,
  -11481,
  -1266,
  375,
  -10,
  -160,
  -174,
  40
 ],
 "SliceThickness": 2,
 "SliceTiming": [
  1.4825,
  0,
  0.9875,
  0.0825,
  1.07,
  0.165,
  1.1525,
  0.2475,
  1.235,
  0.33,
  1.3175,
  0.41,
  1.4,
  0.575,
  1.565,
  0.6575,
  1.6475,
  0.74,
  1.73,
  0.8225,
  1.8125,
  0.905,
  1.895,
  0.4925,
  1.4825,
  0,
  0.9875,
  0.0825,
  1.07,
  0.165,
  1.1525,
  0.2475,
  1.235,
  0.33,
  1.3175,
  0.41,
  1.4,
  0.575,
  1.565,
  0.6575,
  1.6475,
  0.74,
  1.73,
  0.8225,
  1.8125,
  0.905,
  1.895,
  0.4925,
  1.4825,
  0,
  0.9875,
  0.0825,
  1.07,
  0.165,
  1.1525,
  0.2475,
  1.235,
  0.33,
  1.3175,
  0.41,
  1.4,
  0.575,
  1.565,
  0.6575,
  1.6475,
  0.74,
  1.73,
  0.8225,
  1.8125,
  0.905,
  1.895,
  0.4925
 ],
 "SoftwareVersions": "syngo_MR_E11",
 "SpacingBetweenSlices": 2,
 "StationName": "AWP166078",
 "TaskName": "prf",
 "TotalReadoutTime": 0.0534586,
 "TxRefAmp": 203.919,
 "dcmmeta_affine": [
  [
   -2.0,
   0.0,
   0.0,
   100.67469787597656
  ],
  [
   0.0,
   1.9652255773544312,
   -0.37133321166038513,
   -82.88722229003906
  ],
  [
   0.0,
   0.37133321166038513,
   1.9652255773544312,
   -82.91023254394531
  ],
  [
   0.0,
   0.0,
   0.0,
   1.0
  ]
 ],
 "dcmmeta_reorient_transform": [
  [
   0.0,
   -1.0,
   0.0,
   99.0
  ],
  [
   1.0,
   0.0,
   0.0,
   0.0
  ],
  [
   0.0,
   0.0,
   1.0,
   0.0
  ],
  [
   0.0,
   0.0,
   0.0,
   1.0
  ]
 ],
 "dcmmeta_shape": [
  100,
  100,
  72,
  150
 ],
 "dcmmeta_slice_dim": 2,
 "dcmmeta_version": 0.6,
 "global": {
  "const": {
   "AcquisitionMatrix": [
    100,
    0,
    0,
    100
   ],
   "AngioFlag": "N",
   "BitsAllocated": 16,
   "BitsStored": 12,
   "BodyPartExamined": "BRAIN",
   "Columns": 900,
   "EchoNumbers": 1,
   "EchoTime": 34.0,
   "EchoTrainLength": 100,
   "FlipAngle": 90.0,
   "HighBit": 11,
   "ImageOrientationPatient": [
    1.0,
    0.0,
    0.0,
    0.0,
    0.9826127972607,
    -0.1856666115905
   ],
   "ImagePositionPatient": [
    -900.67469877005,
    -897.7603529457,
    102.38504564632
   ],
   "ImageType": [
    "ORIGINAL",
    "PRIMARY",
    "M",
    "ND",
    "MOSAIC"
   ],
   "ImagedNucleus": "1H",
   "ImagingFrequency": 123.257769,
   "InPlanePhaseEncodingDirection": "COL",
   "MRAcquisitionType": "2D",
   "MagneticFieldStrength": 3.0,
   "Manufacturer": "SIEMENS",
   "ManufacturerModelName": "Prisma",
   "Modality": "MR",
   "NumberOfAverages": 1.0,
   "NumberOfPhaseEncodingSteps": 100,
   "PercentPhaseFieldOfView": 100.0,
   "PercentSampling": 100.0,
   "PerformedProcedureStepStartTime": "090738.955000",
   "PhotometricInterpretation": "MONOCHROME2",
   "PixelBandwidth": 2380.0,
   "PixelRepresentation": 0,
   "PixelSpacing": [
    2.0,
    2.0
   ],
   "ProtocolName": "bold_100x100_s3_2x2x2_retino_150",
   "RepetitionTime": 2000.0,
   "Rows": 900,
   "SAR": 0.06008278792699,
   "SamplesPerPixel": 1,
   "ScanOptions": "FS",
   "ScanningSequence": "EP",
   "SequenceName": "*epfid2d1_100",
   "SequenceVariant": "SK",
   "SeriesDescription": "bold_100x100_s3_2x2x2_retino_150",
   "SeriesNumber": 17,
   "SeriesTime": "103643.342000",
   "SliceLocation": -66.079266651551,
   "SliceThickness": 2.0,
   "SmallestImagePixelValue": 0,
   "SoftwareVersions": "syngo MR E11",
   "SpacingBetweenSlices": 1.9999999496976,
   "SpecificCharacterSet": "ISO_IR 100",
   "StudyID": "1",
   "StudyTime": "090738.859000",
   "TransmitCoilName": "Body",
   "VariableFlipAngleFlag": "N",
   "WindowCenterWidthExplanation": "Algo1",
   "dBdt": 0.0
  },
  "slices": {}
 },
 "time": {
  "samples": {
   "AcquisitionNumber": [
    1,
    2,
    3,
    4,
    5,
    6,
    7,
    8,
    9,
    10,
    11,
    12,
    13,
    14,
    15,
    16,
    17,
    18,
    19,
    20,
    21,
    22,
    23,
    24,
    25,
    26,
    27,
    28,
    29,
    30,
    31,
    32,
    33,
    34,
    35,
    36,
    37,
    38,
    39,
    40,
    41,
    42,
    43,
    44,
    45,
    46,
    47,
    48,
    49,
    50,
    51,
    52,
    53,
    54,
    55,
    56,
    57,
    58,
    59,
    60,
    61,
    62,
    63,
    64,
    65,
    66,
    67,
    68,
    69,
    70,
    71,
    72,
    73,
    74,
    75,
    76,
    77,
    78,
    79,
    80,
    81,
    82,
    83,
    84,
    85,
    86,
    87,
    88,
    89,
    90,
    91,
    92,
    93,
    94,
    95,
    96,
    97,
    98,
    99,
    100,
    101,
    102,
    103,
    104,
    105,
    106,
    107,
    108,
    109,
    110,
    111,
    112,
    113,
    114,
    115,
    116,
    117,
    118,
    119,
    120,
    121,
    122,
    123,
    124,
    125,
    126,
    127,
    128,
    129,
    130,
    131,
    132,
    133,
    134,
    135,
    136,
    137,
    138,
    139,
    140,
    141,
    142,
    143,
    144,
    145,
    146,
    147,
    148,
    149,
    150
   ],
   "AcquisitionTime": [
    "103641.137500",
    "103643.137500",
    "103645.137500",
    "103647.137500",
    "103649.137500",
    "103651.137500",
    "103653.137500",
    "103655.137500",
    "103657.137500",
    "103659.137500",
    "103701.137500",
    "103703.137500",
    "103705.137500",
    "103707.137500",
    "103709.137500",
    "103711.137500",
    "103713.137500",
    "103715.137500",
    "103717.137500",
    "103719.137500",
    "103721.137500",
    "103723.137500",
    "103725.137500",
    "103727.137500",
    "103729.137500",
    "103731.137500",
    "103733.137500",
    "103735.137500",
    "103737.137500",
    "103739.137500",
    "103741.137500",
    "103743.137500",
    "103745.137500",
    "103747.137500",
    "103749.137500",
    "103751.137500",
    "103753.137500",
    "103755.137500",
    "103757.137500",
    "103759.137500",
    "103801.137500",
    "103803.137500",
    "103805.137500",
    "103807.137500",
    "103809.137500",
    "103811.137500",
    "103813.137500",
    "103815.137500",
    "103817.137500",
    "103819.137500",
    "103821.137500",
    "103823.137500",
    "103825.137500",
    "103827.137500",
    "103829.137500",
    "103831.137500",
    "103833.137500",
    "103835.137500",
    "103837.137500",
    "103839.137500",
    "103841.137500",
    "103843.137500",
    "103845.137500",
    "103847.137500",
    "103849.137500",
    "103851.137500",
    "103853.137500",
    "103855.137500",
    "103857.137500",
    "103859.137500",
    "103901.137500",
    "103903.137500",
    "103905.137500",
    "103907.137500",
    "103909.137500",
    "103911.137500",
    "103913.137500",
    "103915.137500",
    "103917.137500",
    "103919.137500",
    "103921.137500",
    "103923.137500",
    "103925.137500",
    "103927.137500",
    "103929.137500",
    "103931.137500",
    "103933.137500",
    "103935.137500",
    "103937.137500",
    "103939.137500",
    "103941.137500",
    "103943.137500",
    "103945.137500",
    "103947.137500",
    "103949.137500",
    "103951.137500",
    "103953.137500",
    "103955.137500",
    "103957.137500",
    "103959.137500",
    "104001.137500",
    "104003.137500",
    "104005.137500",
    "104007.137500",
    "104009.137500",
    "104011.137500",
    "104013.137500",
    "104015.137500",
    "104017.137500",
    "104019.137500",
    "104021.137500",
    "104023.137500",
    "104025.137500",
    "104027.137500",
    "104029.137500",
    "104031.137500",
    "104033.137500",
    "104035.137500",
    "104037.137500",
    "104039.137500",
    "104041.137500",
    "104043.137500",
    "104045.137500",
    "104047.137500",
    "104049.137500",
    "104051.137500",
    "104053.137500",
    "104055.137500",
    "104057.137500",
    "104059.137500",
    "104101.137500",
    "104103.137500",
    "104105.137500",
    "104107.137500",
    "104109.137500",
    "104111.137500",
    "104113.137500",
    "104115.137500",
    "104117.137500",
    "104119.137500",
    "104121.137500",
    "104123.137500",
    "104125.137500",
    "104127.137500",
    "104129.137500",
    "104131.137500",
    "104133.137500",
    "104135.137500",
    "104137.137500",
    "104139.137500"
   ],
   "ContentTime": [
    "103643.346000",
    "103644.829000",
    "103646.828000",
    "103648.830000",
    "103650.829000",
    "103652.830000",
    "103654.830000",
    "103656.830000",
    "103658.829000",
    "103700.830000",
    "103702.828000",
    "103704.829000",
    "103706.830000",
    "103708.830000",
    "103710.830000",
    "103712.829000",
    "103714.829000",
    "103716.829000",
    "103718.829000",
    "103720.829000",
    "103722.830000",
    "103724.830000",
    "103726.830000",
    "103728.830000",
    "103730.830000",
    "103732.830000",
    "103734.829000",
    "103736.828000",
    "103738.829000",
    "103740.829000",
    "103742.829000",
    "103744.830000",
    "103746.830000",
    "103748.830000",
    "103750.829000",
    "103752.830000",
    "103754.828000",
    "103756.828000",
    "103758.830000",
    "103800.829000",
    "103802.829000",
    "103804.829000",
    "103806.830000",
    "103808.830000",
    "103810.831000",
    "103812.830000",
    "103814.831000",
    "103816.829000",
    "103818.830000",
    "103820.829000",
    "103822.830000",
    "103824.830000",
    "103826.830000",
    "103828.829000",
    "103830.829000",
    "103832.830000",
    "103834.830000",
    "103836.829000",
    "103838.829000",
    "103840.830000",
    "103842.829000",
    "103844.829000",
    "103846.829000",
    "103848.829000",
    "103850.830000",
    "103852.830000",
    "103854.829000",
    "103856.829000",
    "103858.830000",
    "103900.829000",
    "103902.829000",
    "103904.828000",
    "103906.828000",
    "103908.829000",
    "103910.829000",
    "103912.830000",
    "103914.830000",
    "103916.830000",
    "103918.830000",
    "103920.829000",
    "103922.828000",
    "103924.830000",
    "103926.829000",
    "103928.830000",
    "103930.830000",
    "103932.829000",
    "103934.830000",
    "103936.829000",
    "103938.829000",
    "103940.828000",
    "103942.829000",
    "103944.830000",
    "103946.829000",
    "103948.830000",
    "103950.830000",
    "103952.830000",
    "103954.830000",
    "103956.829000",
    "103958.829000",
    "104000.830000",
    "104002.830000",
    "104004.829000",
    "104006.830000",
    "104008.830000",
    "104010.830000",
    "104012.829000",
    "104014.828000",
    "104016.828000",
    "104018.829000",
    "104020.830000",
    "104022.830000",
    "104024.830000",
    "104026.830000",
    "104028.830000",
    "104030.829000",
    "104032.829000",
    "104034.830000",
    "104036.830000",
    "104038.830000",
    "104040.830000",
    "104042.830000",
    "104044.829000",
    "104046.830000",
    "104048.828000",
    "104050.829000",
    "104052.830000",
    "104054.829000",
    "104056.829000",
    "104058.830000",
    "104100.830000",
    "104102.829000",
    "104104.830000",
    "104106.828000",
    "104108.828000",
    "104110.829000",
    "104112.829000",
    "104114.830000",
    "104116.830000",
    "104118.830000",
    "104120.830000",
    "104122.830000",
    "104124.828000",
    "104126.829000",
    "104128.829000",
    "104130.830000",
    "104132.830000",
    "104134.830000",
    "104136.830000",
    "104138.830000",
    "104140.475000"
   ],
   "InstanceCreationTime": [
    "103643.346000",
    "103644.829000",
    "103646.828000",
    "103648.830000",
    "103650.829000",
    "103652.830000",
    "103654.830000",
    "103656.830000",
    "103658.829000",
    "103700.830000",
    "103702.828000",
    "103704.829000",
    "103706.830000",
    "103708.830000",
    "103710.830000",
    "103712.829000",
    "103714.829000",
    "103716.829000",
    "103718.829000",
    "103720.829000",
    "103722.830000",
    "103724.830000",
    "103726.830000",
    "103728.830000",
    "103730.830000",
    "103732.830000",
    "103734.829000",
    "103736.828000",
    "103738.829000",
    "103740.829000",
    "103742.829000",
    "103744.830000",
    "103746.830000",
    "103748.830000",
    "103750.829000",
    "103752.830000",
    "103754.828000",
    "103756.828000",
    "103758.830000",
    "103800.829000",
    "103802.829000",
    "103804.829000",
    "103806.830000",
    "103808.830000",
    "103810.831000",
    "103812.830000",
    "103814.831000",
    "103816.829000",
    "103818.830000",
    "103820.829000",
    "103822.830000",
    "103824.830000",
    "103826.830000",
    "103828.829000",
    "103830.829000",
    "103832.830000",
    "103834.830000",
    "103836.829000",
    "103838.829000",
    "103840.830000",
    "103842.829000",
    "103844.829000",
    "103846.829000",
    "103848.829000",
    "103850.830000",
    "103852.830000",
    "103854.829000",
    "103856.829000",
    "103858.830000",
    "103900.829000",
    "103902.829000",
    "103904.828000",
    "103906.828000",
    "103908.829000",
    "103910.829000",
    "103912.830000",
    "103914.830000",
    "103916.830000",
    "103918.830000",
    "103920.829000",
    "103922.828000",
    "103924.830000",
    "103926.829000",
    "103928.830000",
    "103930.830000",
    "103932.829000",
    "103934.830000",
    "103936.829000",
    "103938.829000",
    "103940.828000",
    "103942.829000",
    "103944.830000",
    "103946.829000",
    "103948.830000",
    "103950.830000",
    "103952.830000",
    "103954.830000",
    "103956.829000",
    "103958.829000",
    "104000.830000",
    "104002.830000",
    "104004.829000",
    "104006.830000",
    "104008.830000",
    "104010.830000",
    "104012.829000",
    "104014.828000",
    "104016.828000",
    "104018.829000",
    "104020.830000",
    "104022.830000",
    "104024.830000",
    "104026.830000",
    "104028.830000",
    "104030.829000",
    "104032.829000",
    "104034.830000",
    "104036.830000",
    "104038.830000",
    "104040.830000",
    "104042.830000",
    "104044.829000",
    "104046.830000",
    "104048.828000",
    "104050.829000",
    "104052.830000",
    "104054.829000",
    "104056.829000",
    "104058.830000",
    "104100.830000",
    "104102.829000",
    "104104.830000",
    "104106.828000",
    "104108.828000",
    "104110.829000",
    "104112.829000",
    "104114.830000",
    "104116.830000",
    "104118.830000",
    "104120.830000",
    "104122.830000",
    "104124.828000",
    "104126.829000",
    "104128.829000",
    "104130.830000",
    "104132.830000",
    "104134.830000",
    "104136.830000",
    "104138.830000",
    "104140.475000"
   ],
   "InstanceNumber": [
    1,
    2,
    3,
    4,
    5,
    6,
    7,
    8,
    9,
    10,
    11,
    12,
    13,
    14,
    15,
    16,
    17,
    18,
    19,
    20,
    21,
    22,
    23,
    24,
    25,
    26,
    27,
    28,
    29,
    30,
    31,
    32,
    33,
    34,
    35,
    36,
    37,
    38,
    39,
    40,
    41,
    42,
    43,
    44,
    45,
    46,
    47,
    48,
    49,
    50,
    51,
    52,
    53,
    54,
    55,
    56,
    57,
    58,
    59,
    60,
    61,
    62,
    63,
    64,
    65,
    66,
    67,
    68,
    69,
    70,
    71,
    72,
    73,
    74,
    75,
    76,
    77,
    78,
    79,
    80,
    81,
    82,
    83,
    84,
    85,
    86,
    87,
    88,
    89,
    90,
    91,
    92,
    93,
    94,
    95,
    96,
    97,
    98,
    99,
    100,
    101,
    102,
    103,
    104,
    105,
    106,
    107,
    108,
    109,
    110,
    111,
    112,
    113,
    114,
    115,
    116,
    117,
    118,
    119,
    120,
    121,
    122,
    123,
    124,
    125,
    126,
    127,
    128,
    129,
    130,
    131,
    132,
    133,
    134,
    135,
    136,
    137,
    138,
    139,
    140,
    141,
    142,
    143,
    144,
    145,
    146,
    147,
    148,
    149,
    150
   ],
   "LargestImagePixelValue": [
    4095,
    4029,
    3949,
    3902,
    4090,
    3979,
    3905,
    3948,
    4026,
    4072,
    4095,
    4095,
    4095,
    4095,
    3895,
    3863,
    4095,
    3931,
    4095,
    3824,
    3870,
    3880,
    3834,
    3861,
    3872,
    3858,
    3850,
    3879,
    3926,
    3881,
    3805,
    4002,
    3899,
    4095,
    3911,
    4023,
    3908,
    3893,
    3865,
    3897,
    3858,
    3995,
    3951,
    3873,
    3956,
    3903,
    3910,
    3910,
    3879,
    3851,
    3924,
    3866,
    3964,
    3880,
    4037,
    4095,
    3925,
    3850,
    3942,
    3999,
    4046,
    4095,
    3984,
    3931,
    3915,
    3942,
    3901,
    3982,
    4023,
    4095,
    3835,
    3796,
    3783,
    3828,
    3865,
    3882,
    3881,
    3879,
    3832,
    3947,
    4035,
    3933,
    3811,
    3778,
    3765,
    3780,
    3855,
    3877,
    3909,
    3879,
    3858,
    3840,
    3957,
    3855,
    3810,
    3826,
    3987,
    4050,
    4061,
    3838,
    3818,
    3825,
    3789,
    3807,
    3836,
    3924,
    3739,
    3764,
    3826,
    3841,
    3889,
    3930,
    3871,
    3980,
    3921,
    3948,
    3791,
    3799,
    3767,
    3780,
    3823,
    3871,
    3877,
    3922,
    3863,
    3824,
    3759,
    3760,
    3842,
    3839,
    3811,
    3819,
    3876,
    3874,
    3918,
    3896,
    3930,
    3832,
    3866,
    3833,
    3920,
    3841,
    3940,
    3891,
    3800,
    3791,
    3812,
    3843,
    3792,
    3797
   ],
   "WindowCenter": [
    811.0,
    810.0,
    808.0,
    808.0,
    808.0,
    808.0,
    807.0,
    807.0,
    807.0,
    806.0,
    807.0,
    809.0,
    810.0,
    810.0,
    809.0,
    809.0,
    811.0,
    811.0,
    811.0,
    808.0,
    808.0,
    807.0,
    806.0,
    807.0,
    809.0,
    810.0,
    809.0,
    808.0,
    807.0,
    808.0,
    806.0,
    806.0,
    807.0,
    808.0,
    806.0,
    805.0,
    801.0,
    800.0,
    800.0,
    800.0,
    801.0,
    803.0,
    804.0,
    804.0,
    806.0,
    806.0,
    806.0,
    808.0,
    808.0,
    808.0,
    808.0,
    806.0,
    807.0,
    809.0,
    811.0,
    810.0,
    808.0,
    806.0,
    806.0,
    806.0,
    808.0,
    810.0,
    810.0,
    809.0,
    808.0,
    808.0,
    807.0,
    807.0,
    808.0,
    808.0,
    806.0,
    807.0,
    808.0,
    808.0,
    807.0,
    806.0,
    805.0,
    806.0,
    807.0,
    808.0,
    809.0,
    808.0,
    807.0,
    807.0,
    808.0,
    809.0,
    809.0,
    808.0,
    807.0,
    805.0,
    805.0,
    804.0,
    805.0,
    805.0,
    804.0,
    806.0,
    809.0,
    811.0,
    810.0,
    808.0,
    807.0,
    807.0,
    807.0,
    807.0,
    807.0,
    808.0,
    808.0,
    807.0,
    807.0,
    807.0,
    807.0,
    807.0,
    807.0,
    808.0,
    809.0,
    809.0,
    807.0,
    806.0,
    806.0,
    807.0,
    808.0,
    809.0,
    809.0,
    808.0,
    806.0,
    805.0,
    804.0,
    806.0,
    808.0,
    808.0,
    807.0,
    807.0,
    806.0,
    806.0,
    807.0,
    808.0,
    809.0,
    810.0,
    810.0,
    809.0,
    809.0,
    807.0,
    806.0,
    805.0,
    804.0,
    804.0,
    804.0,
    805.0,
    807.0,
    809.0
   ],
   "WindowWidth": [
    1772.0,
    1769.0,
    1765.0,
    1764.0,
    1765.0,
    1763.0,
    1762.0,
    1761.0,
    1760.0,
    1759.0,
    1762.0,
    1767.0,
    1770.0,
    1771.0,
    1766.0,
    1768.0,
    1775.0,
    1773.0,
    1772.0,
    1763.0,
    1763.0,
    1761.0,
    1759.0,
    1761.0,
    1765.0,
    1768.0,
    1767.0,
    1762.0,
    1761.0,
    1762.0,
    1757.0,
    1758.0,
    1761.0,
    1764.0,
    1757.0,
    1754.0,
    1744.0,
    1742.0,
    1741.0,
    1741.0,
    1744.0,
    1750.0,
    1753.0,
    1752.0,
    1757.0,
    1757.0,
    1758.0,
    1763.0,
    1765.0,
    1765.0,
    1763.0,
    1758.0,
    1761.0,
    1767.0,
    1772.0,
    1770.0,
    1763.0,
    1759.0,
    1758.0,
    1759.0,
    1766.0,
    1772.0,
    1771.0,
    1768.0,
    1764.0,
    1764.0,
    1761.0,
    1763.0,
    1764.0,
    1764.0,
    1759.0,
    1760.0,
    1762.0,
    1764.0,
    1760.0,
    1758.0,
    1756.0,
    1757.0,
    1762.0,
    1766.0,
    1767.0,
    1763.0,
    1761.0,
    1760.0,
    1763.0,
    1767.0,
    1768.0,
    1765.0,
    1760.0,
    1756.0,
    1755.0,
    1754.0,
    1756.0,
    1754.0,
    1753.0,
    1758.0,
    1768.0,
    1774.0,
    1771.0,
    1764.0,
    1760.0,
    1761.0,
    1759.0,
    1760.0,
    1760.0,
    1765.0,
    1763.0,
    1761.0,
    1761.0,
    1761.0,
    1761.0,
    1762.0,
    1761.0,
    1765.0,
    1767.0,
    1767.0,
    1761.0,
    1759.0,
    1758.0,
    1760.0,
    1763.0,
    1767.0,
    1768.0,
    1765.0,
    1759.0,
    1756.0,
    1753.0,
    1757.0,
    1764.0,
    1765.0,
    1761.0,
    1760.0,
    1758.0,
    1759.0,
    1762.0,
    1764.0,
    1768.0,
    1768.0,
    1769.0,
    1767.0,
    1766.0,
    1760.0,
    1759.0,
    1756.0,
    1753.0,
    1752.0,
    1752.0,
    1753.0,
    1760.0,
    1766.0
   ]
  },
  "slices": {}
 }
}