{
 "AcquisitionMatrixPE": 100,
 "AcquisitionNumber": 1,
 "AcquisitionTime": "14:21:34.340000",
 "BandwidthPerPixelPhaseEncode": 18.519,
 "BaseResolution": 100,
 "BodyPartExamined": "BRAIN",
 "ConsistencyInfo": "N4_VE11C_LATEST_20160120",
 "ConversionSoftware": "dcm2niix",
 "ConversionSoftwareVersion": "v1.0.20180622 GCC4.9.2",
 "DerivedVendorReportedEchoSpacing": 0.000539986,
 "DeviceSerialNumber": "166078",
 "DwellTime": 2.1e-06,
 "EchoTime": 0.034,
 "EchoTrainLength": 100,
 "EffectiveEchoSpacing": 0.000539986,
 "FlipAngle": 90,
 "ImageOrientationPatientDICOM": [
  1,
  0,
  0,
  0,
  0.988228,
  -0.152986
 ],
 "ImageType": [
  "ORIGINAL",
  "PRIMARY",
  "M",
  "ND",
  "MOSAIC"
 ],
 "InPlanePhaseEncodingDirectionDICOM": "COL",
 "InstitutionAddress": "Street_StreetNo_Bei_Jing_District_CN_ZIP",
 "InstitutionName": "BeiJing_Normal_University",
 "InstitutionalDepartmentName": "Department",
 "MRAcquisitionType": "2D",
 "MagneticFieldStrength": 3,
 "Manufacturer": "Siemens",
 "ManufacturersModelName": "Prisma",
 "Modality": "MR",
 "MultibandAccelerationFactor": 3,
 "PartialFourier": 1,
 "PatientPosition": "HFS",
 "PercentPhaseFOV": 100,
 "PhaseEncodingDirection": "j-",
 "PhaseEncodingSteps": 100,
 "PhaseResolution": 1,
 "PixelBandwidth": 2380,
 "ProcedureStepDescription": "BNU_P2018_64CH_Zhen.ZongLei",
 "ProtocolName": "bold_100x100_s3_2x2x2_static_256",
 "PulseSequenceDetails": "%SiemensSeq%_ep2d_bold",
 "ReceiveCoilActiveElements": "HC1-7;NC1",
 "ReceiveCoilName": "HeadNeck_64",
 "ReconMatrixPE": 100,
 "RepetitionTime": 2,
 "SAR": 0.073769,
 "ScanOptions": "FS",
 "ScanningSequence": "EP",
 "SequenceName": "_epfid2d1_100",
 "SequenceVariant": "SK",
 "SeriesDescription": "bold_100x100_s3_2x2x2_static_256",
 "SeriesNumber": 14,
 "ShimSetting": [
  -5449,
  -11493,
  -1257,
  267,
  -29,
  -269,
  -251,
  68
 ],
 "SliceThickness": 2,
 "SliceTiming": [
  1.485,
  0,
  0.99,
  0.0825,
  1.0725,
  0.165,
  1.155,
  0.2475,
  1.2375,
  0.33,
  1.32,
  0.4125,
  1.4025,
  0.5775,
  1.5675,
  0.66,
  1.65,
  0.7425,
  1.7325,
  0.825,
  1.815,
  0.9075,
  1.8975,
  0.495,
  1.485,
  0,
  0.99,
  0.0825,
  1.0725,
  0.165,
  1.155,
  0.2475,
  1.2375,
  0.33,
  1.32,
  0.4125,
  1.4025,
  0.5775,
  1.5675,
  0.66,
  1.65,
  0.7425,
  1.7325,
  0.825,
  1.815,
  0.9075,
  1.8975,
  0.495,
  1.485,
  0,
  0.99,
  0.0825,
  1.0725,
  0.165,
  1.155,
  0.2475,
  1.2375,
  0.33,
  1.32,
  0.4125,
  1.4025,
  0.5775,
  1.5675,
  0.66,
  1.65,
  0.7425,
  1.7325,
  0.825,
  1.815,
  0.9075,
  1.8975,
  0.495
 ],
 "SoftwareVersions": "syngo_MR_E11",
 "SpacingBetweenSlices": 2,
 "StationName": "AWP166078",
 "TaskName": "imagenet",
 "TotalReadoutTime": 0.0534586,
 "TxRefAmp": 220.938,
 "dcmmeta_affine": [
  [
   -2.0,
   0.0,
   0.0,
   102.69879150390625
  ],
  [
   0.0,
   1.9764567613601685,
   -0.3059716820716858,
   -85.02535247802734
  ],
  [
   0.0,
   0.3059716820716858,
   1.9764567613601685,
   -82.86285400390625
  ],
  [
   0.0,
   0.0,
   0.0,
   1.0
  ]
 ],
 "dcmmeta_reorient_transform": [
  [
   0.0,
   -1.0,
   0.0,
   99.0
  ],
  [
   1.0,
   0.0,
   0.0,
   0.0
  ],
  [
   0.0,
   0.0,
   1.0,
   0.0
  ],
  [
   0.0,
   0.0,
   0.0,
   1.0
  ]
 ],
 "dcmmeta_shape": [
  100,
  100,
  72,
  256
 ],
 "dcmmeta_slice_dim": 2,
 "dcmmeta_version": 0.6,
 "global": {
  "const": {
   "AcquisitionMatrix": [
    100,
    0,
    0,
    100
   ],
   "AngioFlag": "N",
   "BitsAllocated": 16,
   "BitsStored": 12,
   "BodyPartExamined": "BRAIN",
   "Columns": 900,
   "EchoNumbers": 1,
   "EchoTime": 34.0,
   "EchoTrainLength": 100,
   "FlipAngle": 90.0,
   "HighBit": 11,
   "ImageOrientationPatient": [
    1.0,
    0.0,
    0.0,
    0.0,
    0.9882283809914,
    -0.1529858392241
   ],
   "ImagePositionPatient": [
    -902.69879508018,
    -901.22657350902,
    69.817016043896
   ],
   "ImageType": [
    "ORIGINAL",
    "PRIMARY",
    "M",
    "ND",
    "MOSAIC"
   ],
   "ImagedNucleus": "1H",
   "ImagingFrequency": 123.257787,
   "InPlanePhaseEncodingDirection": "COL",
   "LargestImagePixelValue": 4095,
   "MRAcquisitionType": "2D",
   "MagneticFieldStrength": 3.0,
   "Manufacturer": "SIEMENS",
   "ManufacturerModelName": "Prisma",
   "Modality": "MR",
   "NumberOfAverages": 1.0,
   "NumberOfPhaseEncodingSteps": 100,
   "PercentPhaseFieldOfView": 100.0,
   "PercentSampling": 100.0,
   "PerformedProcedureStepStartTime": "124405.346000",
   "PhotometricInterpretation": "MONOCHROME2",
   "PixelBandwidth": 2380.0,
   "PixelRepresentation": 0,
   "PixelSpacing": [
    2.0,
    2.0
   ],
   "ProtocolName": "bold_100x100_s3_2x2x2_static_256",
   "RepetitionTime": 2000.0,
   "Rows": 900,
   "SAR": 0.07376897197904,
   "SamplesPerPixel": 1,
   "ScanOptions": "FS",
   "ScanningSequence": "EP",
   "SequenceName": "*epfid2d1_100",
   "SequenceVariant": "SK",
   "SeriesDescription": "bold_100x100_s3_2x2x2_static_256",
   "SeriesNumber": 14,
   "SeriesTime": "142136.898000",
   "SliceLocation": -68.879746948646,
   "SliceThickness": 2.0,
   "SmallestImagePixelValue": 0,
   "SoftwareVersions": "syngo MR E11",
   "SpacingBetweenSlices": 1.9999999996718,
   "SpecificCharacterSet": "ISO_IR 100",
   "StudyID": "1",
   "StudyTime": "124405.231000",
   "TransmitCoilName": "Body",
   "VariableFlipAngleFlag": "N",
   "WindowCenterWidthExplanation": "Algo1",
   "dBdt": 0.0
  },
  "slices": {}
 },
 "time": {
  "samples": {
   "AcquisitionNumber": [
    1,
    2,
    3,
    4,
    5,
    6,
    7,
    8,
    9,
    10,
    11,
    12,
    13,
    14,
    15,
    16,
    17,
    18,
    19,
    20,
    21,
    22,
    23,
    24,
    25,
    26,
    27,
    28,
    29,
    30,
    31,
    32,
    33,
    34,
    35,
    36,
    37,
    38,
    39,
    40,
    41,
    42,
    43,
    44,
    45,
    46,
    47,
    48,
    49,
    50,
    51,
    52,
    53,
    54,
    55,
    56,
    57,
    58,
    59,
    60,
    61,
    62,
    63,
    64,
    65,
    66,
    67,
    68,
    69,
    70,
    71,
    72,
    73,
    74,
    75,
    76,
    77,
    78,
    79,
    80,
    81,
    82,
    83,
    84,
    85,
    86,
    87,
    88,
    89,
    90,
    91,
    92,
    93,
    94,
    95,
    96,
    97,
    98,
    99,
    100,
    101,
    102,
    103,
    104,
    105,
    106,
    107,
    108,
    109,
    110,
    111,
    112,
    113,
    114,
    115,
    116,
    117,
    118,
    119,
    120,
    121,
    122,
    123,
    124,
    125,
    126,
    127,
    128,
    129,
    130,
    131,
    132,
    133,
    134,
    135,
    136,
    137,
    138,
    139,
    140,
    141,
    142,
    143,
    144,
    145,
    146,
    147,
    148,
    149,
    150,
    151,
    152,
    153,
    154,
    155,
    156,
    157,
    158,
    159,
    160,
    161,
    162,
    163,
    164,
    165,
    166,
    167,
    168,
    169,
    170,
    171,
    172,
    173,
    174,
    175,
    176,
    177,
    178,
    179,
    180,
    181,
    182,
    183,
    184,
    185,
    186,
    187,
    188,
    189,
    190,
    191,
    192,
    193,
    194,
    195,
    196,
    197,
    198,
    199,
    200,
    201,
    202,
    203,
    204,
    205,
    206,
    207,
    208,
    209,
    210,
    211,
    212,
    213,
    214,
    215,
    216,
    217,
    218,
    219,
    220,
    221,
    222,
    223,
    224,
    225,
    226,
    227,
    228,
    229,
    230,
    231,
    232,
    233,
    234,
    235,
    236,
    237,
    238,
    239,
    240,
    241,
    242,
    243,
    244,
    245,
    246,
    247,
    248,
    249,
    250,
    251,
    252,
    253,
    254,
    255,
    256
   ],
   "AcquisitionTime": [
    "142134.340000",
    "142136.340000",
    "142138.340000",
    "142140.340000",
    "142142.340000",
    "142144.340000",
    "142146.340000",
    "142148.340000",
    "142150.340000",
    "142152.340000",
    "142154.340000",
    "142156.340000",
    "142158.340000",
    "142200.340000",
    "142202.340000",
    "142204.340000",
    "142206.340000",
    "142208.340000",
    "142210.340000",
    "142212.340000",
    "142214.340000",
    "142216.340000",
    "142218.340000",
    "142220.340000",
    "142222.340000",
    "142224.340000",
    "142226.340000",
    "142228.340000",
    "142230.340000",
    "142232.340000",
    "142234.340000",
    "142236.340000",
    "142238.340000",
    "142240.340000",
    "142242.340000",
    "142244.340000",
    "142246.340000",
    "142248.340000",
    "142250.340000",
    "142252.340000",
    "142254.340000",
    "142256.340000",
    "142258.340000",
    "142300.340000",
    "142302.340000",
    "142304.340000",
    "142306.340000",
    "142308.340000",
    "142310.340000",
    "142312.340000",
    "142314.340000",
    "142316.340000",
    "142318.340000",
    "142320.340000",
    "142322.340000",
    "142324.340000",
    "142326.340000",
    "142328.340000",
    "142330.340000",
    "142332.340000",
    "142334.340000",
    "142336.340000",
    "142338.340000",
    "142340.340000",
    "142342.340000",
    "142344.340000",
    "142346.340000",
    "142348.340000",
    "142350.340000",
    "142352.340000",
    "142354.340000",
    "142356.340000",
    "142358.340000",
    "142400.340000",
    "142402.340000",
    "142404.340000",
    "142406.340000",
    "142408.340000",
    "142410.340000",
    "142412.340000",
    "142414.340000",
    "142416.340000",
    "142418.340000",
    "142420.340000",
    "142422.340000",
    "142424.340000",
    "142426.340000",
    "142428.340000",
    "142430.340000",
    "142432.340000",
    "142434.340000",
    "142436.340000",
    "142438.340000",
    "142440.340000",
    "142442.340000",
    "142444.340000",
    "142446.340000",
    "142448.340000",
    "142450.340000",
    "142452.340000",
    "142454.340000",
    "142456.340000",
    "142458.340000",
    "142500.340000",
    "142502.340000",
    "142504.340000",
    "142506.340000",
    "142508.340000",
    "142510.340000",
    "142512.340000",
    "142514.340000",
    "142516.340000",
    "142518.340000",
    "142520.340000",
    "142522.340000",
    "142524.340000",
    "142526.340000",
    "142528.340000",
    "142530.340000",
    "142532.340000",
    "142534.340000",
    "142536.340000",
    "142538.340000",
    "142540.340000",
    "142542.340000",
    "142544.340000",
    "142546.340000",
    "142548.340000",
    "142550.340000",
    "142552.340000",
    "142554.340000",
    "142556.340000",
    "142558.340000",
    "142600.340000",
    "142602.340000",
    "142604.340000",
    "142606.340000",
    "142608.340000",
    "142610.340000",
    "142612.340000",
    "142614.340000",
    "142616.340000",
    "142618.340000",
    "142620.340000",
    "142622.340000",
    "142624.340000",
    "142626.340000",
    "142628.340000",
    "142630.340000",
    "142632.340000",
    "142634.340000",
    "142636.340000",
    "142638.340000",
    "142640.340000",
    "142642.340000",
    "142644.340000",
    "142646.340000",
    "142648.340000",
    "142650.340000",
    "142652.340000",
    "142654.340000",
    "142656.340000",
    "142658.340000",
    "142700.340000",
    "142702.340000",
    "142704.340000",
    "142706.340000",
    "142708.340000",
    "142710.340000",
    "142712.340000",
    "142714.340000",
    "142716.340000",
    "142718.340000",
    "142720.340000",
    "142722.340000",
    "142724.340000",
    "142726.340000",
    "142728.340000",
    "142730.340000",
    "142732.340000",
    "142734.340000",
    "142736.340000",
    "142738.340000",
    "142740.340000",
    "142742.340000",
    "142744.340000",
    "142746.340000",
    "142748.340000",
    "142750.340000",
    "142752.340000",
    "142754.340000",
    "142756.340000",
    "142758.340000",
    "142800.340000",
    "142802.340000",
    "142804.340000",
    "142806.340000",
    "142808.340000",
    "142810.340000",
    "142812.340000",
    "142814.340000",
    "142816.340000",
    "142818.340000",
    "142820.340000",
    "142822.340000",
    "142824.340000",
    "142826.340000",
    "142828.340000",
    "142830.340000",
    "142832.340000",
    "142834.340000",
    "142836.340000",
    "142838.340000",
    "142840.340000",
    "142842.340000",
    "142844.340000",
    "142846.340000",
    "142848.340000",
    "142850.340000",
    "142852.340000",
    "142854.340000",
    "142856.340000",
    "142858.340000",
    "142900.340000",
    "142902.340000",
    "142904.340000",
    "142906.340000",
    "142908.340000",
    "142910.340000",
    "142912.340000",
    "142914.340000",
    "142916.340000",
    "142918.340000",
    "142920.340000",
    "142922.340000",
    "142924.340000",
    "142926.340000",
    "142928.340000",
    "142930.340000",
    "142932.340000",
    "142934.340000",
    "142936.340000",
    "142938.340000",
    "142940.340000",
    "142942.340000",
    "142944.340000",
    "142946.340000",
    "142948.340000",
    "142950.340000",
    "142952.340000",
    "142954.340000",
    "142956.340000",
    "142958.340000",
    "143000.340000",
    "143002.340000",
    "143004.340000"
   ],
   "ContentTime": [
    "142136.902000",
    "142138.397000",
    "142140.397000",
    "142142.397000",
    "142144.397000",
    "142146.398000",
    "142148.397000",
    "142150.397000",
    "142152.397000",
    "142154.397000",
    "142156.398000",
    "142158.397000",
    "142200.398000",
    "142202.398000",
    "142204.417000",
    "142206.397000",
    "142208.398000",
    "142210.397000",
    "142212.397000",
    "142214.397000",
    "142216.397000",
    "142218.397000",
    "142220.396000",
    "142222.398000",
    "142224.397000",
    "142226.397000",
    "142228.398000",
    "142230.398000",
    "142232.397000",
    "142234.398000",
    "142236.397000",
    "142238.398000",
    "142240.397000",
    "142242.398000",
    "142244.397000",
    "142246.397000",
    "142248.397000",
    "142250.397000",
    "142252.397000",
    "142254.398000",
    "142256.397000",
    "142258.398000",
    "142300.398000",
    "142302.398000",
    "142304.398000",
    "142306.397000",
    "142308.398000",
    "142310.397000",
    "142312.397000",
    "142314.397000",
    "142316.397000",
    "142318.397000",
    "142320.397000",
    "142322.397000",
    "142324.397000",
    "142326.397000",
    "142328.397000",
    "142330.396000",
    "142332.397000",
    "142334.398000",
    "142336.397000",
    "142338.398000",
    "142340.397000",
    "142342.397000",
    "142344.398000",
    "142346.398000",
    "142348.397000",
    "142350.397000",
    "142352.397000",
    "142354.397000",
    "142356.397000",
    "142358.397000",
    "142400.398000",
    "142402.397000",
    "142404.397000",
    "142406.397000",
    "142408.397000",
    "142410.397000",
    "142412.398000",
    "142414.398000",
    "142416.397000",
    "142418.398000",
    "142420.398000",
    "142422.397000",
    "142424.398000",
    "142426.398000",
    "142428.397000",
    "142430.398000",
    "142432.397000",
    "142434.397000",
    "142436.398000",
    "142438.398000",
    "142440.397000",
    "142442.398000",
    "142444.397000",
    "142446.397000",
    "142448.398000",
    "142450.397000",
    "142452.398000",
    "142454.397000",
    "142456.398000",
    "142458.398000",
    "142500.398000",
    "142502.397000",
    "142504.398000",
    "142506.397000",
    "142508.398000",
    "142510.398000",
    "142512.397000",
    "142514.398000",
    "142516.397000",
    "142518.397000",
    "142520.397000",
    "142522.397000",
    "142524.398000",
    "142526.398000",
    "142528.398000",
    "142530.398000",
    "142532.397000",
    "142534.398000",
    "142536.398000",
    "142538.398000",
    "142540.398000",
    "142542.397000",
    "142544.398000",
    "142546.397000",
    "142548.397000",
    "142550.396000",
    "142552.397000",
    "142554.397000",
    "142556.397000",
    "142558.397000",
    "142600.398000",
    "142602.397000",
    "142604.397000",
    "142606.398000",
    "142608.398000",
    "142610.397000",
    "142612.398000",
    "142614.397000",
    "142616.398000",
    "142618.397000",
    "142620.397000",
    "142622.415000",
    "142624.397000",
    "142626.398000",
    "142628.397000",
    "142630.398000",
    "142632.397000",
    "142634.398000",
    "142636.397000",
    "142638.397000",
    "142640.397000",
    "142642.398000",
    "142644.398000",
    "142646.398000",
    "142648.397000",
    "142650.397000",
    "142652.398000",
    "142654.398000",
    "142656.398000",
    "142658.398000",
    "142700.396000",
    "142702.398000",
    "142704.398000",
    "142706.397000",
    "142708.397000",
    "142710.397000",
    "142712.398000",
    "142714.398000",
    "142716.397000",
    "142718.397000",
    "142720.398000",
    "142722.398000",
    "142724.397000",
    "142726.398000",
    "142728.398000",
    "142730.397000",
    "142732.397000",
    "142734.397000",
    "142736.397000",
    "142738.397000",
    "142740.397000",
    "142742.398000",
    "142744.398000",
    "142746.398000",
    "142748.398000",
    "142750.397000",
    "142752.398000",
    "142754.397000",
    "142756.397000",
    "142758.398000",
    "142800.398000",
    "142802.397000",
    "142804.398000",
    "142806.397000",
    "142808.398000",
    "142810.397000",
    "142812.397000",
    "142814.397000",
    "142816.397000",
    "142818.397000",
    "142820.398000",
    "142822.397000",
    "142824.398000",
    "142826.398000",
    "142828.398000",
    "142830.397000",
    "142832.397000",
    "142834.397000",
    "142836.398000",
    "142838.397000",
    "142840.397000",
    "142842.398000",
    "142844.398000",
    "142846.398000",
    "142848.398000",
    "142850.398000",
    "142852.398000",
    "142854.398000",
    "142856.397000",
    "142858.398000",
    "142900.398000",
    "142902.397000",
    "142904.398000",
    "142906.397000",
    "142908.398000",
    "142910.397000",
    "142912.398000",
    "142914.398000",
    "142916.397000",
    "142918.397000",
    "142920.397000",
    "142922.397000",
    "142924.398000",
    "142926.398000",
    "142928.397000",
    "142930.398000",
    "142932.398000",
    "142934.398000",
    "142936.398000",
    "142938.398000",
    "142940.398000",
    "142942.398000",
    "142944.398000",
    "142946.397000",
    "142948.397000",
    "142950.397000",
    "142952.397000",
    "142954.397000",
    "142956.398000",
    "142958.398000",
    "143000.397000",
    "143002.397000",
    "143004.397000",
    "143006.208000"
   ],
   "InstanceCreationTime": [
    "142136.902000",
    "142138.397000",
    "142140.397000",
    "142142.397000",
    "142144.397000",
    "142146.398000",
    "142148.397000",
    "142150.397000",
    "142152.397000",
    "142154.397000",
    "142156.398000",
    "142158.397000",
    "142200.398000",
    "142202.398000",
    "142204.417000",
    "142206.397000",
    "142208.398000",
    "142210.397000",
    "142212.397000",
    "142214.397000",
    "142216.397000",
    "142218.397000",
    "142220.396000",
    "142222.398000",
    "142224.397000",
    "142226.397000",
    "142228.398000",
    "142230.398000",
    "142232.397000",
    "142234.398000",
    "142236.397000",
    "142238.398000",
    "142240.397000",
    "142242.398000",
    "142244.397000",
    "142246.397000",
    "142248.397000",
    "142250.397000",
    "142252.397000",
    "142254.398000",
    "142256.397000",
    "142258.398000",
    "142300.398000",
    "142302.398000",
    "142304.398000",
    "142306.397000",
    "142308.398000",
    "142310.397000",
    "142312.397000",
    "142314.397000",
    "142316.397000",
    "142318.397000",
    "142320.397000",
    "142322.397000",
    "142324.397000",
    "142326.397000",
    "142328.397000",
    "142330.396000",
    "142332.397000",
    "142334.398000",
    "142336.397000",
    "142338.398000",
    "142340.397000",
    "142342.397000",
    "142344.398000",
    "142346.398000",
    "142348.397000",
    "142350.397000",
    "142352.397000",
    "142354.397000",
    "142356.397000",
    "142358.397000",
    "142400.398000",
    "142402.397000",
    "142404.397000",
    "142406.397000",
    "142408.397000",
    "142410.397000",
    "142412.398000",
    "142414.398000",
    "142416.397000",
    "142418.398000",
    "142420.398000",
    "142422.397000",
    "142424.398000",
    "142426.398000",
    "142428.397000",
    "142430.398000",
    "142432.397000",
    "142434.397000",
    "142436.398000",
    "142438.398000",
    "142440.397000",
    "142442.398000",
    "142444.397000",
    "142446.397000",
    "142448.398000",
    "142450.397000",
    "142452.398000",
    "142454.397000",
    "142456.398000",
    "142458.398000",
    "142500.398000",
    "142502.397000",
    "142504.398000",
    "142506.397000",
    "142508.398000",
    "142510.398000",
    "142512.397000",
    "142514.398000",
    "142516.397000",
    "142518.397000",
    "142520.397000",
    "142522.397000",
    "142524.398000",
    "142526.398000",
    "142528.398000",
    "142530.398000",
    "142532.397000",
    "142534.398000",
    "142536.398000",
    "142538.398000",
    "142540.398000",
    "142542.397000",
    "142544.398000",
    "142546.397000",
    "142548.397000",
    "142550.396000",
    "142552.397000",
    "142554.397000",
    "142556.397000",
    "142558.397000",
    "142600.398000",
    "142602.397000",
    "142604.397000",
    "142606.398000",
    "142608.398000",
    "142610.397000",
    "142612.398000",
    "142614.397000",
    "142616.398000",
    "142618.397000",
    "142620.397000",
    "142622.415000",
    "142624.397000",
    "142626.398000",
    "142628.397000",
    "142630.398000",
    "142632.397000",
    "142634.398000",
    "142636.397000",
    "142638.397000",
    "142640.397000",
    "142642.398000",
    "142644.398000",
    "142646.398000",
    "142648.397000",
    "142650.397000",
    "142652.398000",
    "142654.398000",
    "142656.398000",
    "142658.398000",
    "142700.396000",
    "142702.398000",
    "142704.398000",
    "142706.397000",
    "142708.397000",
    "142710.397000",
    "142712.398000",
    "142714.398000",
    "142716.397000",
    "142718.397000",
    "142720.398000",
    "142722.398000",
    "142724.397000",
    "142726.398000",
    "142728.398000",
    "142730.397000",
    "142732.397000",
    "142734.397000",
    "142736.397000",
    "142738.397000",
    "142740.397000",
    "142742.398000",
    "142744.398000",
    "142746.398000",
    "142748.398000",
    "142750.397000",
    "142752.398000",
    "142754.397000",
    "142756.397000",
    "142758.398000",
    "142800.398000",
    "142802.397000",
    "142804.398000",
    "142806.397000",
    "142808.398000",
    "142810.397000",
    "142812.397000",
    "142814.397000",
    "142816.397000",
    "142818.397000",
    "142820.398000",
    "142822.397000",
    "142824.398000",
    "142826.398000",
    "142828.398000",
    "142830.397000",
    "142832.397000",
    "142834.397000",
    "142836.398000",
    "142838.397000",
    "142840.397000",
    "142842.398000",
    "142844.398000",
    "142846.398000",
    "142848.398000",
    "142850.398000",
    "142852.398000",
    "142854.398000",
    "142856.397000",
    "142858.398000",
    "142900.398000",
    "142902.397000",
    "142904.398000",
    "142906.397000",
    "142908.398000",
    "142910.397000",
    "142912.398000",
    "142914.398000",
    "142916.397000",
    "142918.397000",
    "142920.397000",
    "142922.397000",
    "142924.398000",
    "142926.398000",
    "142928.397000",
    "142930.398000",
    "142932.398000",
    "142934.398000",
    "142936.398000",
    "142938.398000",
    "142940.398000",
    "142942.398000",
    "142944.398000",
    "142946.397000",
    "142948.397000",
    "142950.397000",
    "142952.397000",
    "142954.397000",
    "142956.398000",
    "142958.398000",
    "143000.397000",
    "143002.397000",
    "143004.397000",
    "143006.208000"
   ],
   "InstanceNumber": [
    1,
    2,
    3,
    4,
    5,
    6,
    7,
    8,
    9,
    10,
    11,
    12,
    13,
    14,
    15,
    16,
    17,
    18,
    19,
    20,
    21,
    22,
    23,
    24,
    25,
    26,
    27,
    28,
    29,
    30,
    31,
    32,
    33,
    34,
    35,
    36,
    37,
    38,
    39,
    40,
    41,
    42,
    43,
    44,
    45,
    46,
    47,
    48,
    49,
    50,
    51,
    52,
    53,
    54,
    55,
    56,
    57,
    58,
    59,
    60,
    61,
    62,
    63,
    64,
    65,
    66,
    67,
    68,
    69,
    70,
    71,
    72,
    73,
    74,
    75,
    76,
    77,
    78,
    79,
    80,
    81,
    82,
    83,
    84,
    85,
    86,
    87,
    88,
    89,
    90,
    91,
    92,
    93,
    94,
    95,
    96,
    97,
    98,
    99,
    100,
    101,
    102,
    103,
    104,
    105,
    106,
    107,
    108,
    109,
    110,
    111,
    112,
    113,
    114,
    115,
    116,
    117,
    118,
    119,
    120,
    121,
    122,
    123,
    124,
    125,
    126,
    127,
    128,
    129,
    130,
    131,
    132,
    133,
    134,
    135,
    136,
    137,
    138,
    139,
    140,
    141,
    142,
    143,
    144,
    145,
    146,
    147,
    148,
    149,
    150,
    151,
    152,
    153,
    154,
    155,
    156,
    157,
    158,
    159,
    160,
    161,
    162,
    163,
    164,
    165,
    166,
    167,
    168,
    169,
    170,
    171,
    172,
    173,
    174,
    175,
    176,
    177,
    178,
    179,
    180,
    181,
    182,
    183,
    184,
    185,
    186,
    187,
    188,
    189,
    190,
    191,
    192,
    193,
    194,
    195,
    196,
    197,
    198,
    199,
    200,
    201,
    202,
    203,
    204,
    205,
    206,
    207,
    208,
    209,
    210,
    211,
    212,
    213,
    214,
    215,
    216,
    217,
    218,
    219,
    220,
    221,
    222,
    223,
    224,
    225,
    226,
    227,
    228,
    229,
    230,
    231,
    232,
    233,
    234,
    235,
    236,
    237,
    238,
    239,
    240,
    241,
    242,
    243,
    244,
    245,
    246,
    247,
    248,
    249,
    250,
    251,
    252,
    253,
    254,
    255,
    256
   ],
   "WindowCenter": [
    831.0,
    830.0,
    830.0,
    829.0,
    829.0,
    828.0,
    826.0,
    826.0,
    825.0,
    827.0,
    828.0,
    829.0,
    829.0,
    829.0,
    829.0,
    829.0,
    830.0,
    831.0,
    831.0,
    830.0,
    828.0,
    827.0,
    826.0,
    827.0,
    827.0,
    828.0,
    827.0,
    826.0,
    825.0,
    824.0,
    824.0,
    824.0,
    823.0,
    823.0,
    824.0,
    824.0,
    823.0,
    823.0,
    823.0,
    824.0,
    824.0,
    823.0,
    822.0,
    823.0,
    822.0,
    823.0,
    824.0,
    824.0,
    823.0,
    824.0,
    824.0,
    825.0,
    824.0,
    823.0,
    822.0,
    824.0,
    825.0,
    825.0,
    825.0,
    825.0,
    825.0,
    826.0,
    826.0,
    826.0,
    827.0,
    827.0,
    827.0,
    826.0,
    825.0,
    824.0,
    825.0,
    826.0,
    826.0,
    827.0,
    825.0,
    825.0,
    825.0,
    826.0,
    826.0,
    824.0,
    823.0,
    823.0,
    824.0,
    825.0,
    825.0,
    825.0,
    826.0,
    824.0,
    824.0,
    824.0,
    825.0,
    825.0,
    824.0,
    825.0,
    825.0,
    825.0,
    823.0,
    824.0,
    825.0,
    826.0,
    827.0,
    827.0,
    826.0,
    825.0,
    824.0,
    823.0,
    825.0,
    826.0,
    826.0,
    824.0,
    824.0,
    824.0,
    825.0,
    825.0,
    826.0,
    826.0,
    826.0,
    826.0,
    826.0,
    827.0,
    827.0,
    827.0,
    827.0,
    827.0,
    827.0,
    826.0,
    826.0,
    826.0,
    825.0,
    824.0,
    824.0,
    826.0,
    826.0,
    827.0,
    827.0,
    827.0,
    827.0,
    826.0,
    826.0,
    825.0,
    826.0,
    826.0,
    827.0,
    826.0,
    825.0,
    825.0,
    825.0,
    826.0,
    827.0,
    827.0,
    826.0,
    825.0,
    823.0,
    823.0,
    823.0,
    825.0,
    826.0,
    825.0,
    825.0,
    824.0,
    824.0,
    824.0,
    825.0,
    826.0,
    825.0,
    825.0,
    824.0,
    825.0,
    825.0,
    825.0,
    825.0,
    825.0,
    826.0,
    827.0,
    827.0,
    828.0,
    827.0,
    825.0,
    826.0,
    825.0,
    826.0,
    826.0,
    825.0,
    825.0,
    826.0,
    827.0,
    826.0,
    825.0,
    824.0,
    825.0,
    825.0,
    825.0,
    825.0,
    825.0,
    825.0,
    825.0,
    825.0,
    826.0,
    826.0,
    826.0,
    826.0,
    826.0,
    826.0,
    826.0,
    826.0,
    825.0,
    826.0,
    826.0,
    826.0,
    827.0,
    828.0,
    827.0,
    826.0,
    825.0,
    827.0,
    827.0,
    827.0,
    826.0,
    825.0,
    824.0,
    824.0,
    824.0,
    826.0,
    825.0,
    825.0,
    823.0,
    825.0,
    826.0,
    826.0,
    826.0,
    825.0,
    824.0,
    825.0,
    825.0,
    826.0,
    825.0,
    824.0,
    825.0,
    826.0,
    828.0,
    828.0,
    827.0,
    826.0,
    825.0,
    825.0,
    825.0,
    826.0,
    825.0,
    825.0,
    825.0,
    826.0,
    828.0,
    828.0,
    827.0,
    826.0,
    828.0
   ],
   "WindowWidth": [
    1816.0,
    1813.0,
    1811.0,
    1808.0,
    1807.0,
    1805.0,
    1801.0,
    1800.0,
    1798.0,
    1803.0,
    1806.0,
    1808.0,
    1810.0,
    1808.0,
    1809.0,
    1808.0,
    1811.0,
    1814.0,
    1814.0,
    1811.0,
    1806.0,
    1803.0,
    1802.0,
    1804.0,
    1803.0,
    1806.0,
    1803.0,
    1801.0,
    1797.0,
    1795.0,
    1795.0,
    1795.0,
    1791.0,
    1792.0,
    1795.0,
    1795.0,
    1793.0,
    1792.0,
    1792.0,
    1794.0,
    1795.0,
    1794.0,
    1790.0,
    1792.0,
    1791.0,
    1793.0,
    1795.0,
    1794.0,
    1792.0,
    1795.0,
    1796.0,
    1798.0,
    1794.0,
    1792.0,
    1790.0,
    1795.0,
    1798.0,
    1798.0,
    1798.0,
    1797.0,
    1799.0,
    1800.0,
    1801.0,
    1801.0,
    1803.0,
    1803.0,
    1802.0,
    1802.0,
    1799.0,
    1797.0,
    1798.0,
    1800.0,
    1802.0,
    1802.0,
    1799.0,
    1797.0,
    1799.0,
    1800.0,
    1800.0,
    1795.0,
    1792.0,
    1792.0,
    1796.0,
    1797.0,
    1798.0,
    1797.0,
    1800.0,
    1796.0,
    1796.0,
    1796.0,
    1798.0,
