{
 "AcquisitionMatrixPE": 100,
 "AcquisitionNumber": 1,
 "AcquisitionTime": "13:00:25.930000",
 "BandwidthPerPixelPhaseEncode": 18.519,
 "BaseResolution": 100,
 "BodyPartExamined": "BRAIN",
 "ConsistencyInfo": "N4_VE11C_LATEST_20160120",
 "ConversionSoftware": "dcm2niix",
 "ConversionSoftwareVersion": "v1.0.20180622 GCC4.9.2",
 "DerivedVendorReportedEchoSpacing": 0.000539986,
 "DeviceSerialNumber": "166078",
 "DwellTime": 2.1e-06,
 "EchoTime": 0.034,
 "EchoTrainLength": 100,
 "EffectiveEchoSpacing": 0.000539986,
 "FlipAngle": 90,
 "ImageOrientationPatientDICOM": [
  1,
  0,
  0,
  0,
  0.988228,
  -0.152986
 ],
 "ImageType": [
  "ORIGINAL",
  "PRIMARY",
  "M",
  "ND",
  "MOSAIC"
 ],
 "InPlanePhaseEncodingDirectionDICOM": "COL",
 "InstitutionAddress": "Street_StreetNo_Bei_Jing_District_CN_ZIP",
 "InstitutionName": "BeiJing_Normal_University",
 "InstitutionalDepartmentName": "Department",
 "MRAcquisitionType": "2D",
 "MagneticFieldStrength": 3,
 "Manufacturer": "Siemens",
 "ManufacturersModelName": "Prisma",
 "Modality": "MR",
 "MultibandAccelerationFactor": 3,
 "PartialFourier": 1,
 "PatientPosition": "HFS",
 "PercentPhaseFOV": 100,
 "PhaseEncodingDirection": "j-",
 "PhaseEncodingSteps": 100,
 "PhaseResolution": 1,
 "PixelBandwidth": 2380,
 "ProcedureStepDescription": "BNU_P2018_64CH_Zhen.ZongLei",
 "ProtocolName": "bold_100x100_s3_2x2x2_static_256",
 "PulseSequenceDetails": "%SiemensSeq%_ep2d_bold",
 "ReceiveCoilActiveElements": "HC1-7;NC1",
 "ReceiveCoilName": "HeadNeck_64",
 "ReconMatrixPE": 100,
 "RepetitionTime": 2,
 "SAR": 0.073769,
 "ScanOptions": "FS",
 "ScanningSequence": "EP",
 "SequenceName": "_epfid2d1_100",
 "SequenceVariant": "SK",
 "SeriesDescription": "bold_100x100_s3_2x2x2_static_256",
 "SeriesNumber": 4,
 "ShimSetting": [
  -5449,
  -11493,
  -1257,
  267,
  -29,
  -269,
  -251,
  68
 ],
 "SliceThickness": 2,
 "SliceTiming": [
  1.485,
  0,
  0.99,
  0.0825,
  1.0725,
  0.165,
  1.155,
  0.2475,
  1.2375,
  0.33,
  1.32,
  0.4125,
  1.4025,
  0.5775,
  1.5675,
  0.66,
  1.65,
  0.7425,
  1.7325,
  0.825,
  1.815,
  0.9075,
  1.8975,
  0.495,
  1.485,
  0,
  0.99,
  0.0825,
  1.0725,
  0.165,
  1.155,
  0.2475,
  1.2375,
  0.33,
  1.32,
  0.4125,
  1.4025,
  0.5775,
  1.5675,
  0.66,
  1.65,
  0.7425,
  1.7325,
  0.825,
  1.815,
  0.9075,
  1.8975,
  0.495,
  1.485,
  0,
  0.99,
  0.0825,
  1.0725,
  0.165,
  1.155,
  0.2475,
  1.2375,
  0.33,
  1.32,
  0.4125,
  1.4025,
  0.5775,
  1.5675,
  0.66,
  1.65,
  0.7425,
  1.7325,
  0.825,
  1.815,
  0.9075,
  1.8975,
  0.495
 ],
 "SoftwareVersions": "syngo_MR_E11",
 "SpacingBetweenSlices": 2,
 "StationName": "AWP166078",
 "TaskName": "imagenet",
 "TotalReadoutTime": 0.0534586,
 "TxRefAmp": 220.938,
 "dcmmeta_affine": [
  [
   -2.0,
   0.0,
   0.0,
   102.69879150390625
  ],
  [
   0.0,
   1.9764567613601685,
   -0.3059716820716858,
   -85.02535247802734
  ],
  [
   0.0,
   0.3059716820716858,
   1.9764567613601685,
   -82.86285400390625
  ],
  [
   0.0,
   0.0,
   0.0,
   1.0
  ]
 ],
 "dcmmeta_reorient_transform": [
  [
   0.0,
   -1.0,
   0.0,
   99.0
  ],
  [
   1.0,
   0.0,
   0.0,
   0.0
  ],
  [
   0.0,
   0.0,
   1.0,
   0.0
  ],
  [
   0.0,
   0.0,
   0.0,
   1.0
  ]
 ],
 "dcmmeta_shape": [
  100,
  100,
  72,
  256
 ],
 "dcmmeta_slice_dim": 2,
 "dcmmeta_version": 0.6,
 "global": {
  "const": {
   "AcquisitionMatrix": [
    100,
    0,
    0,
    100
   ],
   "AngioFlag": "N",
   "BitsAllocated": 16,
   "BitsStored": 12,
   "BodyPartExamined": "BRAIN",
   "Columns": 900,
   "EchoNumbers": 1,
   "EchoTime": 34.0,
   "EchoTrainLength": 100,
   "FlipAngle": 90.0,
   "HighBit": 11,
   "ImageOrientationPatient": [
    1.0,
    0.0,
    0.0,
    0.0,
    0.9882283809914,
    -0.1529858392241
   ],
   "ImagePositionPatient": [
    -902.69879508018,
    -901.22657350902,
    69.817016043896
   ],
   "ImageType": [
    "ORIGINAL",
    "PRIMARY",
    "M",
    "ND",
    "MOSAIC"
   ],
   "ImagedNucleus": "1H",
   "ImagingFrequency": 123.257773,
   "InPlanePhaseEncodingDirection": "COL",
   "MRAcquisitionType": "2D",
   "MagneticFieldStrength": 3.0,
   "Manufacturer": "SIEMENS",
   "ManufacturerModelName": "Prisma",
   "Modality": "MR",
   "NumberOfAverages": 1.0,
   "NumberOfPhaseEncodingSteps": 100,
   "PercentPhaseFieldOfView": 100.0,
   "PercentSampling": 100.0,
   "PerformedProcedureStepStartTime": "124405.346000",
   "PhotometricInterpretation": "MONOCHROME2",
   "PixelBandwidth": 2380.0,
   "PixelRepresentation": 0,
   "PixelSpacing": [
    2.0,
    2.0
   ],
   "ProtocolName": "bold_100x100_s3_2x2x2_static_256",
   "RepetitionTime": 2000.0,
   "Rows": 900,
   "SAR": 0.07376897197904,
   "SamplesPerPixel": 1,
   "ScanOptions": "FS",
   "ScanningSequence": "EP",
   "SequenceName": "*epfid2d1_100",
   "SequenceVariant": "SK",
   "SeriesDescription": "bold_100x100_s3_2x2x2_static_256",
   "SeriesNumber": 4,
   "SeriesTime": "130028.143000",
   "SliceLocation": -68.879746948646,
   "SliceThickness": 2.0,
   "SmallestImagePixelValue": 0,
   "SoftwareVersions": "syngo MR E11",
   "SpacingBetweenSlices": 1.9999999996718,
   "SpecificCharacterSet": "ISO_IR 100",
   "StudyID": "1",
   "StudyTime": "124405.231000",
   "TransmitCoilName": "Body",
   "VariableFlipAngleFlag": "N",
   "WindowCenterWidthExplanation": "Algo1",
   "dBdt": 0.0
  },
  "slices": {}
 },
 "time": {
  "samples": {
   "AcquisitionNumber": [
    1,
    2,
    3,
    4,
    5,
    6,
    7,
    8,
    9,
    10,
    11,
    12,
    13,
    14,
    15,
    16,
    17,
    18,
    19,
    20,
    21,
    22,
    23,
    24,
    25,
    26,
    27,
    28,
    29,
    30,
    31,
    32,
    33,
    34,
    35,
    36,
    37,
    38,
    39,
    40,
    41,
    42,
    43,
    44,
    45,
    46,
    47,
    48,
    49,
    50,
    51,
    52,
    53,
    54,
    55,
    56,
    57,
    58,
    59,
    60,
    61,
    62,
    63,
    64,
    65,
    66,
    67,
    68,
    69,
    70,
    71,
    72,
    73,
    74,
    75,
    76,
    77,
    78,
    79,
    80,
    81,
    82,
    83,
    84,
    85,
    86,
    87,
    88,
    89,
    90,
    91,
    92,
    93,
    94,
    95,
    96,
    97,
    98,
    99,
    100,
    101,
    102,
    103,
    104,
    105,
    106,
    107,
    108,
    109,
    110,
    111,
    112,
    113,
    114,
    115,
    116,
    117,
    118,
    119,
    120,
    121,
    122,
    123,
    124,
    125,
    126,
    127,
    128,
    129,
    130,
    131,
    132,
    133,
    134,
    135,
    136,
    137,
    138,
    139,
    140,
    141,
    142,
    143,
    144,
    145,
    146,
    147,
    148,
    149,
    150,
    151,
    152,
    153,
    154,
    155,
    156,
    157,
    158,
    159,
    160,
    161,
    162,
    163,
    164,
    165,
    166,
    167,
    168,
    169,
    170,
    171,
    172,
    173,
    174,
    175,
    176,
    177,
    178,
    179,
    180,
    181,
    182,
    183,
    184,
    185,
    186,
    187,
    188,
    189,
    190,
    191,
    192,
    193,
    194,
    195,
    196,
    197,
    198,
    199,
    200,
    201,
    202,
    203,
    204,
    205,
    206,
    207,
    208,
    209,
    210,
    211,
    212,
    213,
    214,
    215,
    216,
    217,
    218,
    219,
    220,
    221,
    222,
    223,
    224,
    225,
    226,
    227,
    228,
    229,
    230,
    231,
    232,
    233,
    234,
    235,
    236,
    237,
    238,
    239,
    240,
    241,
    242,
    243,
    244,
    245,
    246,
    247,
    248,
    249,
    250,
    251,
    252,
    253,
    254,
    255,
    256
   ],
   "AcquisitionTime": [
    "130025.930000",
    "130027.930000",
    "130029.930000",
    "130031.930000",
    "130033.930000",
    "130035.930000",
    "130037.930000",
    "130039.930000",
    "130041.930000",
    "130043.930000",
    "130045.930000",
    "130047.930000",
    "130049.930000",
    "130051.930000",
    "130053.930000",
    "130055.930000",
    "130057.930000",
    "130059.930000",
    "130101.930000",
    "130103.930000",
    "130105.930000",
    "130107.930000",
    "130109.930000",
    "130111.930000",
    "130113.930000",
    "130115.930000",
    "130117.930000",
    "130119.930000",
    "130121.930000",
    "130123.930000",
    "130125.930000",
    "130127.930000",
    "130129.930000",
    "130131.930000",
    "130133.930000",
    "130135.930000",
    "130137.930000",
    "130139.930000",
    "130141.930000",
    "130143.930000",
    "130145.930000",
    "130147.930000",
    "130149.930000",
    "130151.930000",
    "130153.930000",
    "130155.930000",
    "130157.930000",
    "130159.930000",
    "130201.930000",
    "130203.930000",
    "130205.930000",
    "130207.930000",
    "130209.930000",
    "130211.930000",
    "130213.930000",
    "130215.930000",
    "130217.930000",
    "130219.930000",
    "130221.930000",
    "130223.930000",
    "130225.930000",
    "130227.930000",
    "130229.930000",
    "130231.930000",
    "130233.930000",
    "130235.930000",
    "130237.930000",
    "130239.930000",
    "130241.930000",
    "130243.930000",
    "130245.930000",
    "130247.930000",
    "130249.930000",
    "130251.930000",
    "130253.930000",
    "130255.930000",
    "130257.930000",
    "130259.930000",
    "130301.930000",
    "130303.930000",
    "130305.930000",
    "130307.930000",
    "130309.930000",
    "130311.930000",
    "130313.930000",
    "130315.930000",
    "130317.930000",
    "130319.930000",
    "130321.930000",
    "130323.930000",
    "130325.930000",
    "130327.930000",
    "130329.930000",
    "130331.930000",
    "130333.930000",
    "130335.930000",
    "130337.930000",
    "130339.930000",
    "130341.930000",
    "130343.930000",
    "130345.930000",
    "130347.930000",
    "130349.930000",
    "130351.930000",
    "130353.930000",
    "130355.930000",
    "130357.930000",
    "130359.930000",
    "130401.930000",
    "130403.930000",
    "130405.930000",
    "130407.930000",
    "130409.930000",
    "130411.930000",
    "130413.930000",
    "130415.930000",
    "130417.930000",
    "130419.930000",
    "130421.930000",
    "130423.930000",
    "130425.930000",
    "130427.930000",
    "130429.930000",
    "130431.930000",
    "130433.930000",
    "130435.930000",
    "130437.930000",
    "130439.930000",
    "130441.930000",
    "130443.930000",
    "130445.930000",
    "130447.930000",
    "130449.930000",
    "130451.930000",
    "130453.930000",
    "130455.930000",
    "130457.930000",
    "130459.930000",
    "130501.930000",
    "130503.930000",
    "130505.930000",
    "130507.930000",
    "130509.930000",
    "130511.930000",
    "130513.930000",
    "130515.930000",
    "130517.930000",
    "130519.930000",
    "130521.930000",
    "130523.930000",
    "130525.930000",
    "130527.930000",
    "130529.930000",
    "130531.930000",
    "130533.930000",
    "130535.930000",
    "130537.930000",
    "130539.930000",
    "130541.930000",
    "130543.930000",
    "130545.930000",
    "130547.930000",
    "130549.930000",
    "130551.930000",
    "130553.930000",
    "130555.930000",
    "130557.930000",
    "130559.930000",
    "130601.930000",
    "130603.930000",
    "130605.930000",
    "130607.930000",
    "130609.930000",
    "130611.930000",
    "130613.930000",
    "130615.930000",
    "130617.930000",
    "130619.930000",
    "130621.930000",
    "130623.930000",
    "130625.930000",
    "130627.930000",
    "130629.930000",
    "130631.930000",
    "130633.930000",
    "130635.930000",
    "130637.930000",
    "130639.930000",
    "130641.930000",
    "130643.930000",
    "130645.930000",
    "130647.930000",
    "130649.930000",
    "130651.930000",
    "130653.930000",
    "130655.930000",
    "130657.930000",
    "130659.930000",
    "130701.930000",
    "130703.930000",
    "130705.930000",
    "130707.930000",
    "130709.930000",
    "130711.930000",
    "130713.930000",
    "130715.930000",
    "130717.930000",
    "130719.930000",
    "130721.930000",
    "130723.930000",
    "130725.930000",
    "130727.930000",
    "130729.930000",
    "130731.930000",
    "130733.930000",
    "130735.930000",
    "130737.930000",
    "130739.930000",
    "130741.930000",
    "130743.930000",
    "130745.930000",
    "130747.930000",
    "130749.930000",
    "130751.930000",
    "130753.930000",
    "130755.930000",
    "130757.930000",
    "130759.930000",
    "130801.930000",
    "130803.930000",
    "130805.930000",
    "130807.930000",
    "130809.930000",
    "130811.930000",
    "130813.930000",
    "130815.930000",
    "130817.930000",
    "130819.930000",
    "130821.930000",
    "130823.930000",
    "130825.930000",
    "130827.930000",
    "130829.930000",
    "130831.930000",
    "130833.930000",
    "130835.930000",
    "130837.930000",
    "130839.930000",
    "130841.930000",
    "130843.930000",
    "130845.930000",
    "130847.930000",
    "130849.930000",
    "130851.930000",
    "130853.930000",
    "130855.930000"
   ],
   "ContentTime": [
    "130028.146000",
    "130029.642000",
    "130031.642000",
    "130033.641000",
    "130035.640000",
    "130037.641000",
    "130039.640000",
    "130041.640000",
    "130043.640000",
    "130045.642000",
    "130047.641000",
    "130049.641000",
    "130051.641000",
    "130053.641000",
    "130055.640000",
    "130057.640000",
    "130059.640000",
    "130101.640000",
    "130103.641000",
    "130105.641000",
    "130107.641000",
    "130109.642000",
    "130111.640000",
    "130113.640000",
    "130115.641000",
    "130117.640000",
    "130119.641000",
    "130121.641000",
    "130123.642000",
    "130125.641000",
    "130127.640000",
    "130129.640000",
    "130131.640000",
    "130133.641000",
    "130135.641000",
    "130137.641000",
    "130139.641000",
    "130141.642000",
    "130143.641000",
    "130145.640000",
    "130147.640000",
    "130149.640000",
    "130151.641000",
    "130153.641000",
    "130155.641000",
    "130157.641000",
    "130159.642000",
    "130201.642000",
    "130203.641000",
    "130205.641000",
    "130207.641000",
    "130209.640000",
    "130211.641000",
    "130213.642000",
    "130215.642000",
    "130217.642000",
    "130219.641000",
    "130221.641000",
    "130223.643000",
    "130225.641000",
    "130227.641000",
    "130229.640000",
    "130231.642000",
    "130233.642000",
    "130235.642000",
    "130237.640000",
    "130239.640000",
    "130241.641000",
    "130243.640000",
    "130245.640000",
    "130247.641000",
    "130249.641000",
    "130251.641000",
    "130253.641000",
    "130255.640000",
    "130257.640000",
    "130259.640000",
    "130301.641000",
    "130303.641000",
    "130305.641000",
    "130307.641000",
    "130309.642000",
    "130311.642000",
    "130313.640000",
    "130315.640000",
    "130317.640000",
    "130319.640000",
    "130321.640000",
    "130323.642000",
    "130325.642000",
    "130327.642000",
    "130329.642000",
    "130332.141000",
    "130333.640000",
    "130335.641000",
    "130337.641000",
    "130339.641000",
    "130341.641000",
    "130343.641000",
    "130345.641000",
    "130347.641000",
    "130349.641000",
    "130351.641000",
    "130353.640000",
    "130355.640000",
    "130357.640000",
    "130359.641000",
    "130401.642000",
    "130403.641000",
    "130405.641000",
    "130407.640000",
    "130409.641000",
    "130411.640000",
    "130413.640000",
    "130415.642000",
    "130417.641000",
    "130419.642000",
    "130421.641000",
    "130423.640000",
    "130425.640000",
    "130427.641000",
    "130429.640000",
    "130431.641000",
    "130433.642000",
    "130435.642000",
    "130437.642000",
    "130439.642000",
    "130441.640000",
    "130443.641000",
    "130445.641000",
    "130447.640000",
    "130449.640000",
    "130451.642000",
    "130453.641000",
    "130455.641000",
    "130457.641000",
    "130459.641000",
    "130501.640000",
    "130503.640000",
    "130505.641000",
    "130507.640000",
    "130509.642000",
    "130511.641000",
    "130513.660000",
    "130515.640000",
    "130517.641000",
    "130519.641000",
    "130521.641000",
    "130523.640000",
    "130525.642000",
    "130527.642000",
    "130529.642000",
    "130531.641000",
    "130533.640000",
    "130535.641000",
    "130537.640000",
    "130539.640000",
    "130541.640000",
    "130543.641000",
    "130545.641000",
    "130547.642000",
    "130549.642000",
    "130551.641000",
    "130553.641000",
    "130555.641000",
    "130557.640000",
    "130559.641000",
    "130601.642000",
    "130603.641000",
    "130605.642000",
    "130607.641000",
    "130609.641000",
    "130611.640000",
    "130613.641000",
    "130615.641000",
    "130617.642000",
    "130619.641000",
    "130621.642000",
    "130623.641000",
    "130625.640000",
    "130627.641000",
    "130629.640000",
    "130631.641000",
    "130633.640000",
    "130635.642000",
    "130637.641000",
    "130639.641000",
    "130641.641000",
    "130643.641000",
    "130645.641000",
    "130647.641000",
    "130649.641000",
    "130651.641000",
    "130653.642000",
    "130655.641000",
    "130657.641000",
    "130659.641000",
    "130701.640000",
    "130703.640000",
    "130705.641000",
    "130707.641000",
    "130709.641000",
    "130711.642000",
    "130713.642000",
    "130715.642000",
    "130717.641000",
    "130719.640000",
    "130721.641000",
    "130723.641000",
    "130725.640000",
    "130727.641000",
    "130729.641000",
    "130731.642000",
    "130733.642000",
    "130735.640000",
    "130737.641000",
    "130739.640000",
    "130741.641000",
    "130743.641000",
    "130745.642000",
    "130747.642000",
    "130749.641000",
    "130752.142000",
    "130753.640000",
    "130755.641000",
    "130757.641000",
    "130759.640000",
    "130801.641000",
    "130803.642000",
    "130805.642000",
    "130807.642000",
    "130809.642000",
    "130811.641000",
    "130813.640000",
    "130815.641000",
    "130817.640000",
    "130819.640000",
    "130821.641000",
    "130823.641000",
    "130825.641000",
    "130827.641000",
    "130829.641000",
    "130831.641000",
    "130834.140000",
    "130835.641000",
    "130837.641000",
    "130839.641000",
    "130841.641000",
    "130843.642000",
    "130845.640000",
    "130847.640000",
    "130849.640000",
    "130851.640000",
    "130853.641000",
    "130855.642000",
    "130857.496000"
   ],
   "InstanceCreationTime": [
    "130028.146000",
    "130029.642000",
    "130031.642000",
    "130033.641000",
    "130035.640000",
    "130037.641000",
    "130039.640000",
    "130041.640000",
    "130043.640000",
    "130045.642000",
    "130047.641000",
    "130049.641000",
    "130051.641000",
    "130053.641000",
    "130055.640000",
    "130057.640000",
    "130059.640000",
    "130101.640000",
    "130103.641000",
    "130105.641000",
    "130107.641000",
    "130109.642000",
    "130111.640000",
    "130113.640000",
    "130115.641000",
    "130117.640000",
    "130119.641000",
    "130121.641000",
    "130123.642000",
    "130125.641000",
    "130127.640000",
    "130129.640000",
    "130131.640000",
    "130133.641000",
    "130135.641000",
    "130137.641000",
    "130139.641000",
    "130141.642000",
    "130143.641000",
    "130145.640000",
    "130147.640000",
    "130149.640000",
    "130151.641000",
    "130153.641000",
    "130155.641000",
    "130157.641000",
    "130159.642000",
    "130201.642000",
    "130203.641000",
    "130205.641000",
    "130207.641000",
    "130209.640000",
    "130211.641000",
    "130213.642000",
    "130215.642000",
    "130217.642000",
    "130219.641000",
    "130221.641000",
    "130223.643000",
    "130225.641000",
    "130227.641000",
    "130229.640000",
    "130231.642000",
    "130233.642000",
    "130235.642000",
    "130237.640000",
    "130239.640000",
    "130241.641000",
    "130243.640000",
    "130245.640000",
    "130247.641000",
    "130249.641000",
    "130251.641000",
    "130253.641000",
    "130255.640000",
    "130257.640000",
    "130259.640000",
    "130301.641000",
    "130303.641000",
    "130305.641000",
    "130307.641000",
    "130309.642000",
    "130311.642000",
    "130313.640000",
    "130315.640000",
    "130317.640000",
    "130319.640000",
    "130321.640000",
    "130323.642000",
    "130325.642000",
    "130327.642000",
    "130329.642000",
    "130332.141000",
    "130333.640000",
    "130335.641000",
    "130337.641000",
    "130339.641000",
    "130341.641000",
    "130343.641000",
    "130345.641000",
    "130347.641000",
    "130349.641000",
    "130351.641000",
    "130353.640000",
    "130355.640000",
    "130357.640000",
    "130359.641000",
    "130401.642000",
    "130403.641000",
    "130405.641000",
    "130407.640000",
    "130409.641000",
    "130411.640000",
    "130413.640000",
    "130415.642000",
    "130417.641000",
    "130419.642000",
    "130421.641000",
    "130423.640000",
    "130425.640000",
    "130427.641000",
    "130429.640000",
    "130431.641000",
    "130433.642000",
    "130435.642000",
    "130437.642000",
    "130439.642000",
    "130441.640000",
    "130443.641000",
    "130445.641000",
    "130447.640000",
    "130449.640000",
    "130451.642000",
    "130453.641000",
    "130455.641000",
    "130457.641000",
    "130459.641000",
    "130501.640000",
    "130503.640000",
    "130505.641000",
    "130507.640000",
    "130509.642000",
    "130511.641000",
    "130513.660000",
    "130515.640000",
    "130517.641000",
    "130519.641000",
    "130521.641000",
    "130523.640000",
    "130525.642000",
    "130527.642000",
    "130529.642000",
    "130531.641000",
    "130533.640000",
    "130535.641000",
    "130537.640000",
    "130539.640000",
    "130541.640000",
    "130543.641000",
    "130545.641000",
    "130547.642000",
    "130549.642000",
    "130551.641000",
    "130553.641000",
    "130555.641000",
    "130557.640000",
    "130559.641000",
    "130601.642000",
    "130603.641000",
    "130605.642000",
    "130607.641000",
    "130609.641000",
    "130611.640000",
    "130613.641000",
    "130615.641000",
    "130617.642000",
    "130619.641000",
    "130621.642000",
    "130623.641000",
    "130625.640000",
    "130627.641000",
    "130629.640000",
    "130631.641000",
    "130633.640000",
    "130635.642000",
    "130637.641000",
    "130639.641000",
    "130641.641000",
    "130643.641000",
    "130645.641000",
    "130647.641000",
    "130649.641000",
    "130651.641000",
    "130653.642000",
    "130655.641000",
    "130657.641000",
    "130659.641000",
    "130701.640000",
    "130703.640000",
    "130705.641000",
    "130707.641000",
    "130709.641000",
    "130711.642000",
    "130713.642000",
    "130715.642000",
    "130717.641000",
    "130719.640000",
    "130721.641000",
    "130723.641000",
    "130725.640000",
    "130727.641000",
    "130729.641000",
    "130731.642000",
    "130733.642000",
    "130735.640000",
    "130737.641000",
    "130739.640000",
    "130741.641000",
    "130743.641000",
    "130745.642000",
    "130747.642000",
    "130749.641000",
    "130752.142000",
    "130753.640000",
    "130755.641000",
    "130757.641000",
    "130759.640000",
    "130801.641000",
    "130803.642000",
    "130805.642000",
    "130807.642000",
    "130809.642000",
    "130811.641000",
    "130813.640000",
    "130815.641000",
    "130817.640000",
    "130819.640000",
    "130821.641000",
    "130823.641000",
    "130825.641000",
    "130827.641000",
    "130829.641000",
    "130831.641000",
    "130834.140000",
    "130835.641000",
    "130837.641000",
    "130839.641000",
    "130841.641000",
    "130843.642000",
    "130845.640000",
    "130847.640000",
    "130849.640000",
    "130851.640000",
    "130853.641000",
    "130855.642000",
    "130857.496000"
   ],
   "InstanceNumber": [
    1,
    2,
    3,
    4,
    5,
    6,
    7,
    8,
    9,
    10,
    11,
    12,
    13,
    14,
    15,
    16,
    17,
    18,
    19,
    20,
    21,
    22,
    23,
    24,
    25,
    26,
    27,
    28,
    29,
    30,
    31,
    32,
    33,
    34,
    35,
    36,
    37,
    38,
    39,
    40,
    41,
    42,
    43,
    44,
    45,
    46,
    47,
    48,
    49,
    50,
    51,
    52,
    53,
    54,
    55,
    56,
    57,
    58,
    59,
    60,
    61,
    62,
    63,
    64,
    65,
    66,
    67,
    68,
    69,
    70,
    71,
    72,
    73,
    74,
    75,
    76,
    77,
    78,
    79,
    80,
    81,
    82,
    83,
    84,
    85,
    86,
    87,
    88,
    89,
    90,
    91,
    92,
    93,
    94,
    95,
    96,
    97,
    98,
    99,
    100,
    101,
    102,
    103,
    104,
    105,
    106,
    107,
    108,
    109,
    110,
    111,
    112,
    113,
    114,
    115,
    116,
    117,
    118,
    119,
    120,
    121,
    122,
    123,
    124,
    125,
    126,
    127,
    128,
    129,
    130,
    131,
    132,
    133,
    134,
    135,
    136,
    137,
    138,
    139,
    140,
    141,
    142,
    143,
    144,
    145,
    146,
    147,
    148,
    149,
    150,
    151,
    152,
    153,
    154,
    155,
    156,
    157,
    158,
    159,
    160,
    161,
    162,
    163,
    164,
    165,
    166,
    167,
    168,
    169,
    170,
    171,
    172,
    173,
    174,
    175,
    176,
    177,
    178,
    179,
    180,
    181,
    182,
    183,
    184,
    185,
    186,
    187,
    188,
    189,
    190,
    191,
    192,
    193,
    194,
    195,
    196,
    197,
    198,
    199,
    200,
    201,
    202,
    203,
    204,
    205,
    206,
    207,
    208,
    209,
    210,
    211,
    212,
    213,
    214,
    215,
    216,
    217,
    218,
    219,
    220,
    221,
    222,
    223,
    224,
    225,
    226,
    227,
    228,
    229,
    230,
    231,
    232,
    233,
    234,
    235,
    236,
    237,
    238,
    239,
    240,
    241,
    242,
    243,
    244,
    245,
    246,
    247,
    248,
    249,
    250,
    251,
    252,
    253,
    254,
    255,
    256
   ],
   "LargestImagePixelValue": [
    4095,
    4095,
    4095,
    4095,
    4089,
    4095,
    4095,
    4095,
    4095,
    4095,
    4095,
    4095,
    4095,
    4095,
    4093,
    4095,
    4095,
    4095,
    4095,
    4085,
    4086,
    4095,
    4095,
    4087,
    4089,
    4095,
    4094,
    4088,
    4095,
    4074,
    4095,
    4095,
    4095,
    4095,
    4095,
    4095,
    4095,
    4095,
    4095,
    4095,
    4095,
    4095,
    4095,
    4095,
    4095,
    4079,
    4095,
    4095,
    4095,
    4095,
    4095,
    4095,
    4095,
    4095,
    4095,
    4095,
    4095,
    4095,
    4095,
    4075,
    4095,
    4095,
    4095,
    4095,
    4095,
    4095,
    4095,
    4095,
    4095,
    4084,
    4095,
    4095,
    4095,
    4085,
    4095,
    4095,
    4095,
    4095,
    4095,
    4095,
    4095,
    4084,
    4095,
    4095,
    4095,
    4095,
    4095,
    4095,
    4092,
    4095,
    4095,
    4095,
    4077,
    4095,
    4095,
    4095,
    4095,
    4095,
    4095,
    4095,
    4091,
    4093,
    4087,
    4085,
    4095,
    4095,
    4095,
    4095,
    4095,
    4095,
    4095,
    4095,
    4095,
    4094,
    4095,
    4095,
    4085,
    4095,
    4095,
    4095,
    4095,
    4095,
    4095,
    4095,
    4095,
    4095,
    4095,
    4095,
    4095,
    4095,
    4095,
    4095,
    4095,
    4095,
    4095,
    4095,
    4095,
    4095,
    4095,
    4095,
    4095,
    4095,
    4095,
    4095,
    4095,
    4095,
    4095,
    4095,
    4095,
    4095,
    4095,
    4095,
    4095,
    4095,
    4095,
    4095,
    4095,
    4095,
    4095,
    4095,
    4095,
    4095,
    4095,
    4095,
    4095,
    4095,
    4095,
    4095,
    4095,
    4095,
    4095,
    4095,
    4095,
    4095,
    4095,
    4095,
    4095,
    4095,
    4095,
    4095,
    4095,
    4095,
    4095,
    4095,
    4095,
    4095,
    4095,
    4095,
    4095,
    4095,
    4095,
    4095,
    4095,
    4095,
    4095,
    4095,
    4095,
    4095,
    4095,
    4095,
    4095,
    4095,
    4095,
    4095,
    4095,
    4095,
    4095,
    4095,
    4095,
    4095,
    4095,
    4095,
    4095,
    4095,
    4095,
    4095,
    4095,
    4095,
    4095,
    4095,
    4095,
    4095,
    4095,
    4095,
    4095,
    4095,
    4095,
    4095,
    4095,
    4095,
    4095,
    4095,
    4095,
    4095,
    4095,
    4095,
    4095,
    4095,
    4095,
    4095,
    4095,
    4095,
    4095,
    4095,
    4095,
    4095,
    4095,
    4095,
    4095,
    4095,
    4095,
    4095,
    4095,
    4095,
    4095,
    4095
   ],
   "WindowCenter": [
    829.0,
    828.0,
    827.0,
    827.0,
    826.0,
    826.0,
    825.0,
    825.0,
    824.0,
    825.0,
    826.0,
    827.0,
    826.0,
    826.0,
    826.0,
    825.0,
    825.0,
    824.0,
    824.0,
    825.0,
    824.0,
    824.0,
    824.0,
    823.0,
    825.0,
    825.0,
    824.0,
    823.0,
    823.0,
    822.0,
    823.0,
    823.0,
    823.0,
    823.0,
    823.0,
    824.0,
    823.0,
    824.0,
    823.0,
    823.0,
    823.0,
    824.0,
    824.0,
    824.0,
    824.0,
    823.0,
    824.0,
    823.0,
    823.0,
    824.0,
    824.0,
    823.0,
    823.0,
    822.0,
    823.0,
    822.0,
    823.0,
    823.0,
    823.0,
    824.0,
    823.0,
    823.0,
    823.0,
    823.0,
    823.0,
    823.0,
    823.0,
    822.0,
    822.0,
    821.0,
    823.0,
    824.0,
    824.0,
    824.0,
    824.0,
    824.0,
    824.0,
    825.0,
    825.0,
    825.0,
    824.0,
    825.0,
    826.0,
    827.0,
    826.0,
    825.0,
    823.0,
    823.0,
    823.0,
    823.0,
    825.0,
    824.0,
    823.0,
    822.0,
    822.0,
    823.0,
    823.0,
    825.0,
    825.0,
    825.0,
    823.0,
    822.0,
    824.0,
    824.0,
    824.0,
    826.0,
    827.0,
    827.0,
    825.0,
    825.0,
    824.0,
    825.0,
    825.0,
    826.0,
    825.0,
    824.0,
    823.0,
    824.0,
    826.0,
    826.0,
    826.0,
    824.0,
    825.0,
    824.0,
    825.0,
