{
  "AcquisitionMatrixPE": 100,
  "AcquisitionNumber": 1,
  "AcquisitionTime": "13:43:11.075000",
  "BandwidthPerPixelPhaseEncode": 18.519,
  "BaseResolution": 100,
  "BodyPartExamined": "BRAIN",
  "ConsistencyInfo": "N4_VE11C_LATEST_20160120",
  "ConversionSoftware": "dcm2niix",
  "ConversionSoftwareVersion": "v1.0.20180622 GCC4.9.2",
  "DerivedVendorReportedEchoSpacing": 0.000539986,
  "DeviceSerialNumber": "166078",
  "DwellTime": 2.1e-06,
  "EchoTime": 0.034,
  "EchoTrainLength": 100,
  "EffectiveEchoSpacing": 0.000539986,
  "FlipAngle": 90,
  "ImageOrientationPatientDICOM": [1, 0, 0, 0, 0.988228, -0.152986],
  "ImageType": [
    "ORIGINAL",
    "PRIMARY",
    "M",
    "ND",
    "MOSAIC"
],
  "InPlanePhaseEncodingDirectionDICOM": "COL",
  "InstitutionAddress": "Street_StreetNo_Bei_Jing_District_CN_ZIP",
  "InstitutionName": "BeiJing_Normal_University",
  "InstitutionalDepartmentName": "Department",
  "MRAcquisitionType": "2D",
  "MagneticFieldStrength": 3,
  "Manufacturer": "Siemens",
  "ManufacturersModelName": "Prisma",
  "Modality": "MR",
  "MultibandAccelerationFactor": 3,
  "PartialFourier": 1,
  "PatientPosition": "HFS",
  "PercentPhaseFOV": 100,
  "PhaseEncodingDirection": "j-",
  "PhaseEncodingSteps": 100,
  "PhaseResolution": 1,
  "PixelBandwidth": 2380,
  "ProcedureStepDescription": "BNU_P2018_64CH_Zhen.ZongLei",
  "ProtocolName": "bold_100x100_s3_2x2x2_static_256",
  "PulseSequenceDetails": "%SiemensSeq%_ep2d_bold",
  "ReceiveCoilActiveElements": "HC1-7;NC1",
  "ReceiveCoilName": "HeadNeck_64",
  "ReconMatrixPE": 100,
  "RepetitionTime": 2,
  "SAR": 0.073769,
  "ScanOptions": "FS",
  "ScanningSequence": "EP",
  "SequenceName": "_epfid2d1_100",
  "SequenceVariant": "SK",
  "SeriesDescription": "bold_100x100_s3_2x2x2_static_256",
  "SeriesNumber": 10,
  "ShimSetting": [-5449, -11493, -1257, 267, -29, -269, -251, 68],
  "SliceThickness": 2,
  "SliceTiming": [1.485, 0, 0.99, 0.0825, 1.0725, 0.165, 1.155, 0.2475, 1.2375, 0.33, 1.32, 0.4125, 1.4025, 0.5775, 1.5675, 0.66, 1.65, 0.7425, 1.7325, 0.825, 1.815, 0.9075, 1.8975, 0.495, 1.485, 0, 0.99, 0.0825, 1.0725, 0.165, 1.155, 0.2475, 1.2375, 0.33, 1.32, 0.4125, 1.4025, 0.5775, 1.5675, 0.66, 1.65, 0.7425, 1.7325, 0.825, 1.815, 0.9075, 1.8975, 0.495, 1.485, 0, 0.99, 0.0825, 1.0725, 0.165, 1.155, 0.2475, 1.2375, 0.33, 1.32, 0.4125, 1.4025, 0.5775, 1.5675, 0.66, 1.65, 0.7425, 1.7325, 0.825, 1.815, 0.9075, 1.8975, 0.495],
  "SoftwareVersions": "syngo_MR_E11",
  "SpacingBetweenSlices": 2,
  "StationName": "AWP166078",
  "TaskName": "naturalvision",
  "TotalReadoutTime": 0.0534586,
  "TxRefAmp": 220.938,
  "dcmmeta_affine": [
    [-2.0, 0.0, 0.0, 102.69879150390625],
    [0.0, 1.9764567613601685, -0.3059716820716858, -85.02535247802734],
    [0.0, 0.3059716820716858, 1.9764567613601685, -82.86285400390625],
    [0.0, 0.0, 0.0, 1.0]
],
  "dcmmeta_reorient_transform": [
    [0.0, -1.0, 0.0, 99.0],
    [1.0, 0.0, 0.0, 0.0],
    [0.0, 0.0, 1.0, 0.0],
    [0.0, 0.0, 0.0, 1.0]
],
  "dcmmeta_shape": [100, 100, 72, 256],
  "dcmmeta_slice_dim": 2,
  "dcmmeta_version": 0.6,
  "global": {
    "const": {
      "AcquisitionMatrix": [100, 0, 0, 100],
      "AngioFlag": "N",
      "BitsAllocated": 16,
      "BitsStored": 12,
      "BodyPartExamined": "BRAIN",
      "Columns": 900,
      "EchoNumbers": 1,
      "EchoTime": 34.0,
      "EchoTrainLength": 100,
      "FlipAngle": 90.0,
      "HighBit": 11,
      "ImageOrientationPatient": [1.0, 0.0, 0.0, 0.0, 0.9882283809914, -0.1529858392241],
      "ImagePositionPatient": [-902.69879508018, -901.22657350902, 69.817016043896],
      "ImageType": [
        "ORIGINAL",
        "PRIMARY",
        "M",
        "ND",
        "MOSAIC"
],
      "ImagedNucleus": "1H",
      "ImagingFrequency": 123.257776,
      "InPlanePhaseEncodingDirection": "COL",
      "MRAcquisitionType": "2D",
      "MagneticFieldStrength": 3.0,
      "Manufacturer": "SIEMENS",
      "ManufacturerModelName": "Prisma",
      "Modality": "MR",
      "NumberOfAverages": 1.0,
      "NumberOfPhaseEncodingSteps": 100,
      "PercentPhaseFieldOfView": 100.0,
      "PercentSampling": 100.0,
      "PerformedProcedureStepStartTime": "124405.346000",
      "PhotometricInterpretation": "MONOCHROME2",
      "PixelBandwidth": 2380.0,
      "PixelRepresentation": 0,
      "PixelSpacing": [2.0, 2.0],
      "ProtocolName": "bold_100x100_s3_2x2x2_static_256",
      "RepetitionTime": 2000.0,
      "Rows": 900,
      "SAR": 0.07376897197904,
      "SamplesPerPixel": 1,
      "ScanOptions": "FS",
      "ScanningSequence": "EP",
      "SequenceName": "*epfid2d1_100",
      "SequenceVariant": "SK",
      "SeriesDescription": "bold_100x100_s3_2x2x2_static_256",
      "SeriesNumber": 10,
      "SeriesTime": "134313.804000",
      "SliceLocation": -68.879746948646,
      "SliceThickness": 2.0,
      "SmallestImagePixelValue": 0,
      "SoftwareVersions": "syngo MR E11",
      "SpacingBetweenSlices": 1.9999999996718,
      "SpecificCharacterSet": "ISO_IR 100",
      "StudyID": "1",
      "StudyTime": "124405.231000",
      "TransmitCoilName": "Body",
      "VariableFlipAngleFlag": "N",
      "WindowCenterWidthExplanation": "Algo1",
      "dBdt": 0.0},
    "slices": {}
  },
  "time": {
    "samples": {
      "AcquisitionNumber": [1, 2, 3, 4, 5, 6, 7, 8, 9, 10, 11, 12, 13, 14, 15, 16, 17, 18, 19, 20, 21, 22, 23, 24, 25, 26, 27, 28, 29, 30, 31, 32, 33, 34, 35, 36, 37, 38, 39, 40, 41, 42, 43, 44, 45, 46, 47, 48, 49, 50, 51, 52, 53, 54, 55, 56, 57, 58, 59, 60, 61, 62, 63, 64, 65, 66, 67, 68, 69, 70, 71, 72, 73, 74, 75, 76, 77, 78, 79, 80, 81, 82, 83, 84, 85, 86, 87, 88, 89, 90, 91, 92, 93, 94, 95, 96, 97, 98, 99, 100, 101, 102, 103, 104, 105, 106, 107, 108, 109, 110, 111, 112, 113, 114, 115, 116, 117, 118, 119, 120, 121, 122, 123, 124, 125, 126, 127, 128, 129, 130, 131, 132, 133, 134, 135, 136, 137, 138, 139, 140, 141, 142, 143, 144, 145, 146, 147, 148, 149, 150, 151, 152, 153, 154, 155, 156, 157, 158, 159, 160, 161, 162, 163, 164, 165, 166, 167, 168, 169, 170, 171, 172, 173, 174, 175, 176, 177, 178, 179, 180, 181, 182, 183, 184, 185, 186, 187, 188, 189, 190, 191, 192, 193, 194, 195, 196, 197, 198, 199, 200, 201, 202, 203, 204, 205, 206, 207, 208, 209, 210, 211, 212, 213, 214, 215, 216, 217, 218, 219, 220, 221, 222, 223, 224, 225, 226, 227, 228, 229, 230, 231, 232, 233, 234, 235, 236, 237, 238, 239, 240, 241, 242, 243, 244, 245, 246, 247, 248, 249, 250, 251, 252, 253, 254, 255, 256],
      "AcquisitionTime": ["134311.075000", "134313.075000", "134315.075000", "134317.075000", "134319.075000", "134321.075000", "134323.075000", "134325.075000", "134327.075000", "134329.075000", "134331.075000", "134333.075000", "134335.075000", "134337.075000", "134339.075000", "134341.075000", "134343.075000", "134345.075000", "134347.075000", "134349.075000", "134351.075000", "134353.075000", "134355.075000", "134357.075000", "134359.075000", "134401.075000", "134403.075000", "134405.075000", "134407.075000", "134409.075000", "134411.075000", "134413.075000", "134415.075000", "134417.075000", "134419.075000", "134421.075000", "134423.075000", "134425.075000", "134427.075000", "134429.075000", "134431.075000", "134433.075000", "134435.075000", "134437.075000", "134439.075000", "134441.075000", "134443.075000", "134445.075000", "134447.075000", "134449.075000", "134451.075000", "134453.075000", "134455.075000", "134457.075000", "134459.075000", "134501.075000", "134503.075000", "134505.075000", "134507.075000", "134509.075000", "134511.075000", "134513.075000", "134515.075000", "134517.075000", "134519.075000", "134521.075000", "134523.075000", "134525.075000", "134527.075000", "134529.075000", "134531.075000", "134533.075000", "134535.075000", "134537.075000", "134539.075000", "134541.075000", "134543.075000", "134545.075000", "134547.075000", "134549.075000", "134551.075000", "134553.075000", "134555.075000", "134557.075000", "134559.075000", "134601.075000", "134603.075000", "134605.075000", "134607.075000", "134609.075000", "134611.075000", "134613.075000", "134615.075000", "134617.075000", "134619.075000", "134621.075000", "134623.075000", "134625.075000", "134627.075000", "134629.075000", "134631.075000", "134633.075000", "134635.075000", "134637.075000", "134639.075000", "134641.075000", "134643.075000", "134645.075000", "134647.075000", "134649.075000", "134651.075000", "134653.075000", "134655.075000", "134657.075000", "134659.075000", "134701.075000", "134703.075000", "134705.075000", "134707.075000", "134709.075000", "134711.075000", "134713.075000", "134715.075000", "134717.075000", "134719.075000", "134721.075000", "134723.075000", "134725.075000", "134727.075000", "134729.075000", "134731.075000", "134733.075000", "134735.075000", "134737.075000", "134739.075000", "134741.075000", "134743.075000", "134745.075000", "134747.075000", "134749.075000", "134751.075000", "134753.075000", "134755.075000", "134757.075000", "134759.075000", "134801.075000", "134803.075000", "134805.075000", "134807.075000", "134809.075000", "134811.075000", "134813.075000", "134815.075000", "134817.075000", "134819.075000", "134821.075000", "134823.075000", "134825.075000", "134827.075000", "134829.075000", "134831.075000", "134833.075000", "134835.075000", "134837.075000", "134839.075000", "134841.075000", "134843.075000", "134845.075000", "134847.075000", "134849.075000", "134851.075000", "134853.075000", "134855.075000", "134857.075000", "134859.075000", "134901.075000", "134903.075000", "134905.075000", "134907.075000", "134909.075000", "134911.075000", "134913.075000", "134915.075000", "134917.075000", "134919.075000", "134921.075000", "134923.075000", "134925.075000", "134927.075000", "134929.075000", "134931.075000", "134933.075000", "134935.075000", "134937.075000", "134939.075000", "134941.075000", "134943.075000", "134945.075000", "134947.075000", "134949.075000", "134951.075000", "134953.075000", "134955.075000", "134957.075000", "134959.075000", "135001.075000", "135003.075000", "135005.075000", "135007.075000", "135009.075000", "135011.075000", "135013.075000", "135015.075000", "135017.075000", "135019.075000", "135021.075000", "135023.075000", "135025.075000", "135027.075000", "135029.075000", "135031.075000", "135033.075000", "135035.075000", "135037.075000", "135039.075000", "135041.075000", "135043.075000", "135045.075000", "135047.075000", "135049.075000", "135051.075000", "135053.075000", "135055.075000", "135057.075000", "135059.075000", "135101.075000", "135103.075000", "135105.075000", "135107.075000", "135109.075000", "135111.075000", "135113.075000", "135115.075000", "135117.075000", "135119.075000", "135121.075000", "135123.075000", "135125.075000", "135127.075000", "135129.075000", "135131.075000", "135133.075000", "135135.075000", "135137.075000", "135139.075000", "135141.075000"],
      "ContentTime": ["134313.808000", "134315.803000", "134317.804000", "134319.804000", "134321.805000", "134323.824000", "134325.805000", "134327.805000", "134329.803000", "134331.803000", "134333.804000", "134335.805000", "134337.804000", "134339.804000", "134341.805000", "134343.805000", "134345.804000", "134347.804000", "134349.804000", "134351.823000", "134353.804000", "134355.804000", "134357.804000", "134359.804000", "134401.805000", "134403.803000", "134405.804000", "134407.803000", "134409.303000", "134411.804000", "134413.805000", "134415.805000", "134417.805000", "134419.805000", "134421.804000", "134423.804000", "134425.804000", "134427.804000", "134429.805000", "134431.805000", "134433.805000", "134435.805000", "134437.304000", "134439.804000", "134441.804000", "134443.804000", "134445.804000", "134447.804000", "134449.305000", "134451.804000", "134453.304000", "134455.804000", "134457.304000", "134459.804000", "134501.803000", "134503.805000", "134505.805000", "134507.804000", "134509.805000", "134511.804000", "134513.803000", "134515.803000", "134517.804000", "134519.803000", "134521.805000", "134523.804000", "134525.805000", "134527.804000", "134529.805000", "134531.805000", "134533.804000", "134535.304000", "134537.804000", "134539.804000", "134541.805000", "134543.805000", "134545.805000", "134547.805000", "134549.804000", "134551.803000", "134553.803000", "134555.304000", "134557.805000", "134559.804000", "134601.804000", "134603.804000", "134605.804000", "134607.804000", "134609.804000", "134611.803000", "134613.804000", "134615.805000", "134617.804000", "134619.804000", "134621.805000", "134623.803000", "134625.804000", "134627.804000", "134629.804000", "134631.805000", "134633.804000", "134635.805000", "134637.805000", "134639.804000", "134641.803000", "134643.803000", "134645.804000", "134647.803000", "134649.804000", "134651.804000", "134653.805000", "134655.804000", "134657.804000", "134659.804000", "134701.804000", "134703.303000", "134705.805000", "134707.804000", "134709.805000", "134711.804000", "134713.805000", "134715.804000", "134717.804000", "134719.803000", "134721.804000", "134723.805000", "134725.805000", "134727.805000", "134729.805000", "134731.805000", "134733.804000", "134735.803000", "134737.804000", "134739.804000", "134741.805000", "134743.805000", "134745.804000", "134747.804000", "134749.805000", "134751.804000", "134753.804000", "134755.803000", "134757.805000", "134759.805000", "134801.804000", "134803.804000", "134805.805000", "134807.805000", "134809.804000", "134811.804000", "134813.804000", "134815.805000", "134817.804000", "134819.805000", "134821.804000", "134823.805000", "134825.804000", "134827.804000", "134829.804000", "134831.804000", "134833.805000", "134835.804000", "134837.805000", "134839.804000", "134841.804000", "134843.803000", "134845.804000", "134847.824000", "134849.803000", "134851.805000", "134853.804000", "134855.805000", "134857.804000", "134859.804000", "134901.823000", "134903.804000", "134905.804000", "134907.805000", "134909.804000", "134911.804000", "134913.805000", "134915.804000", "134917.805000", "134919.804000", "134921.804000", "134923.804000", "134925.804000", "134927.805000", "134929.805000", "134931.805000", "134933.804000", "134935.804000", "134937.804000", "134939.803000", "134941.803000", "134943.805000", "134945.804000", "134947.805000", "134949.804000", "134951.804000", "134953.804000", "134955.804000", "134957.804000", "134959.803000", "135001.805000", "135003.805000", "135005.805000", "135007.805000", "135009.805000", "135011.803000", "135013.803000", "135015.803000", "135017.804000", "135019.805000", "135021.805000", "135023.804000", "135025.305000", "135027.804000", "135029.804000", "135031.804000", "135033.803000", "135035.805000", "135037.804000", "135039.805000", "135041.804000", "135043.804000", "135045.803000", "135047.803000", "135049.804000", "135051.805000", "135053.805000", "135055.805000", "135057.804000", "135059.805000", "135101.806000", "135103.803000", "135105.803000", "135107.804000", "135109.803000", "135111.804000", "135113.805000", "135115.805000", "135117.805000", "135119.804000", "135121.804000", "135123.804000", "135125.804000", "135127.805000", "135129.804000", "135131.805000", "135133.805000", "135135.805000", "135137.803000", "135139.815000", "135141.804000", "135143.339000"],
      "InstanceCreationTime": ["134313.808000", "134315.803000", "134317.804000", "134319.804000", "134321.805000", "134323.824000", "134325.805000", "134327.805000", "134329.803000", "134331.803000", "134333.804000", "134335.805000", "134337.804000", "134339.804000", "134341.805000", "134343.805000", "134345.804000", "134347.804000", "134349.804000", "134351.823000", "134353.804000", "134355.804000", "134357.804000", "134359.804000", "134401.805000", "134403.803000", "134405.804000", "134407.803000", "134409.303000", "134411.804000", "134413.805000", "134415.805000", "134417.805000", "134419.805000", "134421.804000", "134423.804000", "134425.804000", "134427.804000", "134429.805000", "134431.805000", "134433.805000", "134435.805000", "134437.304000", "134439.804000", "134441.804000", "134443.804000", "134445.804000", "134447.804000", "134449.305000", "134451.804000", "134453.304000", "134455.804000", "134457.304000", "134459.804000", "134501.803000", "134503.805000", "134505.805000", "134507.804000", "134509.805000", "134511.804000", "134513.803000", "134515.803000", "134517.804000", "134519.803000", "134521.805000", "134523.804000", "134525.805000", "134527.804000", "134529.805000", "134531.805000", "134533.804000", "134535.304000", "134537.804000", "134539.804000", "134541.805000", "134543.805000", "134545.805000", "134547.805000", "134549.804000", "134551.803000", "134553.803000", "134555.304000", "134557.805000", "134559.804000", "134601.804000", "134603.804000", "134605.804000", "134607.804000", "134609.804000", "134611.803000", "134613.804000", "134615.805000", "134617.804000", "134619.804000", "134621.805000", "134623.803000", "134625.804000", "134627.804000", "134629.804000", "134631.805000", "134633.804000", "134635.805000", "134637.805000", "134639.804000", "134641.803000", "134643.803000", "134645.804000", "134647.803000", "134649.804000", "134651.804000", "134653.805000", "134655.804000", "134657.804000", "134659.804000", "134701.804000", "134703.303000", "134705.805000", "134707.804000", "134709.805000", "134711.804000", "134713.805000", "134715.804000", "134717.804000", "134719.803000", "134721.804000", "134723.805000", "134725.805000", "134727.805000", "134729.805000", "134731.805000", "134733.804000", "134735.803000", "134737.804000", "134739.804000", "134741.805000", "134743.805000", "134745.804000", "134747.804000", "134749.805000", "134751.804000", "134753.804000", "134755.803000", "134757.805000", "134759.805000", "134801.804000", "134803.804000", "134805.805000", "134807.805000", "134809.804000", "134811.804000", "134813.804000", "134815.805000", "134817.804000", "134819.805000", "134821.804000", "134823.805000", "134825.804000", "134827.804000", "134829.804000", "134831.804000", "134833.805000", "134835.804000", "134837.805000", "134839.804000", "134841.804000", "134843.803000", "134845.804000", "134847.824000", "134849.803000", "134851.805000", "134853.804000", "134855.805000", "134857.804000", "134859.804000", "134901.823000", "134903.804000", "134905.804000", "134907.805000", "134909.804000", "134911.804000", "134913.805000", "134915.804000", "134917.805000", "134919.804000", "134921.804000", "134923.804000", "134925.804000", "134927.805000", "134929.805000", "134931.805000", "134933.804000", "134935.804000", "134937.804000", "134939.803000", "134941.803000", "134943.805000", "134945.804000", "134947.805000", "134949.804000", "134951.804000", "134953.804000", "134955.804000", "134957.804000", "134959.803000", "135001.805000", "135003.805000", "135005.805000", "135007.805000", "135009.805000", "135011.803000", "135013.803000", "135015.803000", "135017.804000", "135019.805000", "135021.805000", "135023.804000", "135025.305000", "135027.804000", "135029.804000", "135031.804000", "135033.803000", "135035.805000", "135037.804000", "135039.805000", "135041.804000", "135043.804000", "135045.803000", "135047.803000", "135049.804000", "135051.805000", "135053.805000", "135055.805000", "135057.804000", "135059.805000", "135101.806000", "135103.803000", "135105.803000", "135107.804000", "135109.803000", "135111.804000", "135113.805000", "135115.805000", "135117.805000", "135119.804000", "135121.804000", "135123.804000", "135125.804000", "135127.805000", "135129.804000", "135131.805000", "135133.805000", "135135.805000", "135137.803000", "135139.815000", "135141.804000", "135143.339000"],
      "InstanceNumber": [1, 2, 3, 4, 5, 6, 7, 8, 9, 10, 11, 12, 13, 14, 15, 16, 17, 18, 19, 20, 21, 22, 23, 24, 25, 26, 27, 28, 29, 30, 31, 32, 33, 34, 35, 36, 37, 38, 39, 40, 41, 42, 43, 44, 45, 46, 47, 48, 49, 50, 51, 52, 53, 54, 55, 56, 57, 58, 59, 60, 61, 62, 63, 64, 65, 66, 67, 68, 69, 70, 71, 72, 73, 74, 75, 76, 77, 78, 79, 80, 81, 82, 83, 84, 85, 86, 87, 88, 89, 90, 91, 92, 93, 94, 95, 96, 97, 98, 99, 100, 101, 102, 103, 104, 105, 106, 107, 108, 109, 110, 111, 112, 113, 114, 115, 116, 117, 118, 119, 120, 121, 122, 123, 124, 125, 126, 127, 128, 129, 130, 131, 132, 133, 134, 135, 136, 137, 138, 139, 140, 141, 142, 143, 144, 145, 146, 147, 148, 149, 150, 151, 152, 153, 154, 155, 156, 157, 158, 159, 160, 161, 162, 163, 164, 165, 166, 167, 168, 169, 170, 171, 172, 173, 174, 175, 176, 177, 178, 179, 180, 181, 182, 183, 184, 185, 186, 187, 188, 189, 190, 191, 192, 193, 194, 195, 196, 197, 198, 199, 200, 201, 202, 203, 204, 205, 206, 207, 208, 209, 210, 211, 212, 213, 214, 215, 216, 217, 218, 219, 220, 221, 222, 223, 224, 225, 226, 227, 228, 229, 230, 231, 232, 233, 234, 235, 236, 237, 238, 239, 240, 241, 242, 243, 244, 245, 246, 247, 248, 249, 250, 251, 252, 253, 254, 255, 256],
      "LargestImagePixelValue": [4095, 4095, 4095, 4095, 4095, 4095, 4095, 4095, 4095, 4095, 4095, 4095, 4095, 4095, 4095, 4091, 4095, 4095, 4095, 4095, 4087, 4095, 4095, 4095, 4095, 4095, 4095, 4095, 4095, 4095, 4095, 4095, 4095, 4095, 4095, 4095, 4095, 4095, 4095, 4095, 4095, 4095, 4095, 4095, 4095, 4095, 4095, 4095, 4095, 4095, 4095, 4095, 4095, 4095, 4095, 4095, 4095, 4095, 4095, 4095, 4095, 4095, 4095, 4095, 4095, 4095, 4095, 4095, 4095, 4095, 4095, 4095, 4095, 4095, 4095, 4095, 4095, 4095, 4095, 4095, 4095, 4095, 4095, 4095, 4095, 4095, 4095, 4095, 4095, 4095, 4095, 4095, 4095, 4095, 4095, 4095, 4095, 4095, 4095, 4095, 4095, 4095, 4095, 4095, 4095, 4095, 4095, 4095, 4095, 4095, 4095, 4095, 4095, 4095, 4095, 4095, 4095, 4095, 4095, 4095, 4095, 4095, 4095, 4095, 4095, 4095, 4095, 4095, 4095, 4095, 4095, 4095, 4095, 4095, 4095, 4095, 4095, 4095, 4095, 4095, 4095, 4095, 4095, 4095, 4095, 4095, 4095, 4095, 4095, 4095, 4095, 4095, 4095, 4095, 4095, 4095, 4095, 4095, 4095, 4095, 4095, 4095, 4095, 4095, 4095, 4095, 4095, 4095, 4095, 4095, 4095, 4095, 4095, 4095, 4095, 4095, 4095, 4095, 4095, 4095, 4095, 4095, 4095, 4095, 4095, 4095, 4095, 4095, 4095, 4095, 4095, 4095, 4095, 4095, 4095, 4095, 4095, 4095, 4095, 4095, 4095, 4095, 4095, 4095, 4095, 4095, 4095, 4095, 4095, 4095, 4095, 4095, 4095, 4095, 4095, 4095, 4095, 4095, 4095, 4095, 4095, 4095, 4095, 4095, 4095, 4095, 4095, 4095, 4095, 4095, 4095, 4095, 4095, 4095, 4095, 4095, 4095, 4095, 4095, 4095, 4095, 4095, 4095, 4095, 4095, 4095, 4095, 4095, 4095, 4095, 4095, 4095, 4095, 4095, 4095, 4095],
      "WindowCenter": [830.0, 827.0, 827.0, 826.0, 826.0, 826.0, 826.0, 826.0, 826.0, 825.0, 826.0, 827.0, 827.0, 825.0, 824.0, 824.0, 825.0, 825.0, 825.0, 823.0, 822.0, 823.0, 824.0, 824.0, 824.0, 824.0, 825.0, 825.0, 826.0, 824.0, 824.0, 825.0, 825.0, 824.0, 824.0, 824.0, 825.0, 824.0, 824.0, 824.0, 825.0, 825.0, 824.0, 824.0, 824.0, 823.0, 824.0, 824.0, 825.0, 824.0, 824.0, 824.0, 825.0, 826.0, 827.0, 826.0, 824.0, 824.0, 824.0, 825.0, 825.0, 826.0, 826.0, 826.0, 825.0, 825.0, 825.0, 824.0, 824.0, 824.0, 825.0, 824.0, 825.0, 825.0, 826.0, 826.0, 825.0, 825.0, 826.0, 825.0, 825.0, 825.0, 827.0, 827.0, 827.0, 825.0, 825.0, 826.0, 826.0, 826.0, 826.0, 826.0, 826.0, 826.0, 826.0, 826.0, 827.0, 827.0, 826.0, 825.0, 826.0, 826.0, 827.0, 827.0, 826.0, 825.0, 826.0, 827.0, 827.0, 828.0, 826.0, 826.0, 825.0, 826.0, 826.0, 825.0, 825.0, 824.0, 825.0, 825.0, 826.0, 826.0, 826.0, 825.0, 824.0, 824.0, 825.0, 826.0, 825.0, 824.0, 824.0, 825.0, 824.0, 825.0, 825.0, 825.0, 825.0, 824.0, 826.0, 827.0, 827.0, 826.0, 826.0, 827.0, 827.0, 826.0, 825.0, 826.0, 827.0, 826.0, 826.0, 824.0, 823.0, 823.0, 825.0, 825.0, 825.0, 825.0, 826.0, 825.0, 824.0, 825.0, 825.0, 824.0, 823.0, 823.0, 823.0, 825.0, 825.0, 826.0, 825.0, 826.0, 826.0, 826.0, 825.0, 825.0, 824.0, 823.0, 824.0, 824.0, 824.0, 824.0, 824.0, 824.0, 823.0, 824.0, 824.0, 823.0, 822.0, 822.0, 824.0, 825.0, 825.0, 825.0, 824.0, 825.0, 826.0, 826.0, 827.0, 826.0, 825.0, 824.0, 826.0, 826.0, 826.0, 826.0, 826.0, 826.0, 826.0, 826.0, 826.0, 826.0, 825.0, 825.0, 824.0, 827.0, 827.0, 826.0, 825.0, 823.0, 823.0, 824.0, 824.0, 823.0, 823.0, 824.0, 826.0, 827.0, 827.0, 827.0, 827.0, 827.0, 828.0, 827.0, 826.0, 825.0, 826.0, 825.0, 826.0, 826.0, 827.0, 826.0, 826.0, 825.0, 825.0, 827.0, 827.0, 826.0, 825.0, 824.0, 824.0, 827.0, 827.0, 827.0, 826.0, 826.0],
      "WindowWidth": [1814.0, 1805.0, 1804.0, 1801.0, 1802.0, 1801.0, 1802.0, 1802.0, 1801.0, 1800.0, 1803.0, 1805.0, 1805.0, 1800.0, 1798.0, 1796.0, 1799.0, 1801.0, 1799.0, 1794.0, 1793.0, 1793.0, 1797.0, 1797.0, 1798.0, 1797.0, 1801.0, 1801.0, 1802.0, 1798.0, 1798.0, 1799.0, 1799.0, 1797.0, 1798.0, 1798.0, 1799.0, 1797.0, 1799.0, 1797.0, 1799.0, 1798.0, 1798.0, 1797.0, 1796.0, 1795.0, 1797.0, 1798.0, 1798.0, 1798.0, 1798.0, 1798.0, 1800.0, 1803.0, 1805.0, 1803.0, 1797.0, 1796.0, 1797.0, 1800.0, 1800.0, 1802.0, 1801.0, 1802.0, 1800.0, 1800.0, 1799.0, 1797.0, 1796.0, 1798.0, 1799.0, 1798.0, 1799.0, 1801.0, 1803.0, 1804.0, 1801.0, 1801.0, 1801.0, 1800.0, 1799.0, 1800.0, 1805.0, 1806.0, 1804.0, 1801.0, 1799.0, 1802.0, 1803.0, 1803.0, 1802.0, 1803.0, 1802.0, 1802.0, 1803.0, 1803.0, 1804.0, 1803.0, 1801.0, 1800.0, 1802.0, 1802.0, 1806.0, 1805.0, 1801.0, 1799.0, 1801.0, 1805.0, 1806.0, 1806.0, 1802.0, 1801.0, 1800.0, 1801.0, 1801.0, 1799.0, 1798.0, 1797.0, 1800.0, 1799.0, 1801.0, 1802.0, 1802.0, 1798.0, 1797.0, 1798.0, 1801.0, 1801.0, 1799.0, 1796.0, 1797.0, 1799.0, 1797.0, 1799.0, 1800.0, 1800.0, 1798.0, 1795.0, 1802.0, 1806.0, 1806.0, 1802.0, 1803.0, 1804.0, 1804.0, 1801.0, 1801.0, 1803.0, 1805.0, 1803.0, 1802.0, 1797.0, 1794.0, 1795.0, 1798.0, 1798.0, 1799.0, 1800.0, 1802.0, 1798.0, 1796.0, 1798.0, 1799.0, 1796.0, 1793.0, 1793.0, 1794.0, 1798.0, 1798.0, 1800.0, 1799.0, 1802.0, 1802.0, 1803.0, 1800.0, 1799.0, 1797.0, 1795.0, 1798.0, 1796.0, 1797.0, 1795.0, 1796.0, 1797.0, 1794.0, 1797.0, 1795.0, 1793.0, 1791.0, 1790.0, 1796.0, 1800.0, 1799.0, 1800.0, 1798.0, 1799.0, 1801.0, 1803.0, 1805.0, 1801.0, 1799.0, 1797.0, 1801.0, 1802.0, 1803.0, 1802.0, 1802.0, 1802.0, 1802.0, 1801.0, 1801.0, 1801.0, 1800.0, 1798.0, 1798.0, 1804.0, 1805.0, 1802.0, 1798.0, 1794.0, 1794.0, 1795.0, 1795.0, 1794.0, 1794.0, 1795.0, 1803.0, 1805.0, 1806.0, 1804.0, 1805.0, 1806.0, 1807.0, 1804.0, 1803.0, 1800.0, 1801.0, 1799.0, 1802.0, 1802.0, 1804.0, 1801.0, 1801.0, 1798.0, 1800.0, 1803.0, 1805.0, 1801.0, 1798.0, 1795.0, 1797.0, 1804.0, 1805.0, 1804.0, 1801.0, 1802.0]
    },
    "slices": {}
  }
}