{
  "AcquisitionMatrixPE": 100,
  "AcquisitionNumber": 1,
  "AcquisitionTime": "13:52:34.502500",
  "BandwidthPerPixelPhaseEncode": 18.519,
  "BaseResolution": 100,
  "BodyPartExamined": "BRAIN",
  "ConsistencyInfo": "N4_VE11C_LATEST_20160120",
  "ConversionSoftware": "dcm2niix",
  "ConversionSoftwareVersion": "v1.0.20180622 GCC4.9.2",
  "DerivedVendorReportedEchoSpacing": 0.000539986,
  "DeviceSerialNumber": "166078",
  "DwellTime": 2.1e-06,
  "EchoTime": 0.034,
  "EchoTrainLength": 100,
  "EffectiveEchoSpacing": 0.000539986,
  "FlipAngle": 90,
  "ImageOrientationPatientDICOM": [1, 0, 0, 0, 0.988228, -0.152986],
  "ImageType": [
    "ORIGINAL",
    "PRIMARY",
    "M",
    "ND",
    "MOSAIC"
],
  "InPlanePhaseEncodingDirectionDICOM": "COL",
  "InstitutionAddress": "Street_StreetNo_Bei_Jing_District_CN_ZIP",
  "InstitutionName": "BeiJing_Normal_University",
  "InstitutionalDepartmentName": "Department",
  "MRAcquisitionType": "2D",
  "MagneticFieldStrength": 3,
  "Manufacturer": "Siemens",
  "ManufacturersModelName": "Prisma",
  "Modality": "MR",
  "MultibandAccelerationFactor": 3,
  "PartialFourier": 1,
  "PatientPosition": "HFS",
  "PercentPhaseFOV": 100,
  "PhaseEncodingDirection": "j-",
  "PhaseEncodingSteps": 100,
  "PhaseResolution": 1,
  "PixelBandwidth": 2380,
  "ProcedureStepDescription": "BNU_P2018_64CH_Zhen.ZongLei",
  "ProtocolName": "bold_100x100_s3_2x2x2_static_256",
  "PulseSequenceDetails": "%SiemensSeq%_ep2d_bold",
  "ReceiveCoilActiveElements": "HC1-7;NC1",
  "ReceiveCoilName": "HeadNeck_64",
  "ReconMatrixPE": 100,
  "RepetitionTime": 2,
  "SAR": 0.073769,
  "ScanOptions": "FS",
  "ScanningSequence": "EP",
  "SequenceName": "_epfid2d1_100",
  "SequenceVariant": "SK",
  "SeriesDescription": "bold_100x100_s3_2x2x2_static_256",
  "SeriesNumber": 11,
  "ShimSetting": [-5449, -11493, -1257, 267, -29, -269, -251, 68],
  "SliceThickness": 2,
  "SliceTiming": [1.485, 0, 0.99, 0.0825, 1.0725, 0.165, 1.155, 0.2475, 1.2375, 0.33, 1.32, 0.4125, 1.4025, 0.5775, 1.5675, 0.66, 1.65, 0.7425, 1.7325, 0.825, 1.815, 0.9075, 1.8975, 0.495, 1.485, 0, 0.99, 0.0825, 1.0725, 0.165, 1.155, 0.2475, 1.2375, 0.33, 1.32, 0.4125, 1.4025, 0.5775, 1.5675, 0.66, 1.65, 0.7425, 1.7325, 0.825, 1.815, 0.9075, 1.8975, 0.495, 1.485, 0, 0.99, 0.0825, 1.0725, 0.165, 1.155, 0.2475, 1.2375, 0.33, 1.32, 0.4125, 1.4025, 0.5775, 1.5675, 0.66, 1.65, 0.7425, 1.7325, 0.825, 1.815, 0.9075, 1.8975, 0.495],
  "SoftwareVersions": "syngo_MR_E11",
  "SpacingBetweenSlices": 2,
  "StationName": "AWP166078",
  "TaskName": "naturalvision",
  "TotalReadoutTime": 0.0534586,
  "TxRefAmp": 220.938,
  "dcmmeta_affine": [
    [-2.0, 0.0, 0.0, 102.69879150390625],
    [0.0, 1.9764567613601685, -0.3059716820716858, -85.02535247802734],
    [0.0, 0.3059716820716858, 1.9764567613601685, -82.86285400390625],
    [0.0, 0.0, 0.0, 1.0]
],
  "dcmmeta_reorient_transform": [
    [0.0, -1.0, 0.0, 99.0],
    [1.0, 0.0, 0.0, 0.0],
    [0.0, 0.0, 1.0, 0.0],
    [0.0, 0.0, 0.0, 1.0]
],
  "dcmmeta_shape": [100, 100, 72, 256],
  "dcmmeta_slice_dim": 2,
  "dcmmeta_version": 0.6,
  "global": {
    "const": {
      "AcquisitionMatrix": [100, 0, 0, 100],
      "AngioFlag": "N",
      "BitsAllocated": 16,
      "BitsStored": 12,
      "BodyPartExamined": "BRAIN",
      "Columns": 900,
      "EchoNumbers": 1,
      "EchoTime": 34.0,
      "EchoTrainLength": 100,
      "FlipAngle": 90.0,
      "HighBit": 11,
      "ImageOrientationPatient": [1.0, 0.0, 0.0, 0.0, 0.9882283809914, -0.1529858392241],
      "ImagePositionPatient": [-902.69879508018, -901.22657350902, 69.817016043896],
      "ImageType": [
        "ORIGINAL",
        "PRIMARY",
        "M",
        "ND",
        "MOSAIC"
],
      "ImagedNucleus": "1H",
      "ImagingFrequency": 123.257781,
      "InPlanePhaseEncodingDirection": "COL",
      "LargestImagePixelValue": 4095,
      "MRAcquisitionType": "2D",
      "MagneticFieldStrength": 3.0,
      "Manufacturer": "SIEMENS",
      "ManufacturerModelName": "Prisma",
      "Modality": "MR",
      "NumberOfAverages": 1.0,
      "NumberOfPhaseEncodingSteps": 100,
      "PercentPhaseFieldOfView": 100.0,
      "PercentSampling": 100.0,
      "PerformedProcedureStepStartTime": "124405.346000",
      "PhotometricInterpretation": "MONOCHROME2",
      "PixelBandwidth": 2380.0,
      "PixelRepresentation": 0,
      "PixelSpacing": [2.0, 2.0],
      "ProtocolName": "bold_100x100_s3_2x2x2_static_256",
      "RepetitionTime": 2000.0,
      "Rows": 900,
      "SAR": 0.07376897197904,
      "SamplesPerPixel": 1,
      "ScanOptions": "FS",
      "ScanningSequence": "EP",
      "SequenceName": "*epfid2d1_100",
      "SequenceVariant": "SK",
      "SeriesDescription": "bold_100x100_s3_2x2x2_static_256",
      "SeriesNumber": 11,
      "SeriesTime": "135236.526000",
      "SliceLocation": -68.879746948646,
      "SliceThickness": 2.0,
      "SmallestImagePixelValue": 0,
      "SoftwareVersions": "syngo MR E11",
      "SpacingBetweenSlices": 1.9999999996718,
      "SpecificCharacterSet": "ISO_IR 100",
      "StudyID": "1",
      "StudyTime": "124405.231000",
      "TransmitCoilName": "Body",
      "VariableFlipAngleFlag": "N",
      "WindowCenterWidthExplanation": "Algo1",
      "dBdt": 0.0},
    "slices": {}
  },
  "time": {
    "samples": {
      "AcquisitionNumber": [1, 2, 3, 4, 5, 6, 7, 8, 9, 10, 11, 12, 13, 14, 15, 16, 17, 18, 19, 20, 21, 22, 23, 24, 25, 26, 27, 28, 29, 30, 31, 32, 33, 34, 35, 36, 37, 38, 39, 40, 41, 42, 43, 44, 45, 46, 47, 48, 49, 50, 51, 52, 53, 54, 55, 56, 57, 58, 59, 60, 61, 62, 63, 64, 65, 66, 67, 68, 69, 70, 71, 72, 73, 74, 75, 76, 77, 78, 79, 80, 81, 82, 83, 84, 85, 86, 87, 88, 89, 90, 91, 92, 93, 94, 95, 96, 97, 98, 99, 100, 101, 102, 103, 104, 105, 106, 107, 108, 109, 110, 111, 112, 113, 114, 115, 116, 117, 118, 119, 120, 121, 122, 123, 124, 125, 126, 127, 128, 129, 130, 131, 132, 133, 134, 135, 136, 137, 138, 139, 140, 141, 142, 143, 144, 145, 146, 147, 148, 149, 150, 151, 152, 153, 154, 155, 156, 157, 158, 159, 160, 161, 162, 163, 164, 165, 166, 167, 168, 169, 170, 171, 172, 173, 174, 175, 176, 177, 178, 179, 180, 181, 182, 183, 184, 185, 186, 187, 188, 189, 190, 191, 192, 193, 194, 195, 196, 197, 198, 199, 200, 201, 202, 203, 204, 205, 206, 207, 208, 209, 210, 211, 212, 213, 214, 215, 216, 217, 218, 219, 220, 221, 222, 223, 224, 225, 226, 227, 228, 229, 230, 231, 232, 233, 234, 235, 236, 237, 238, 239, 240, 241, 242, 243, 244, 245, 246, 247, 248, 249, 250, 251, 252, 253, 254, 255, 256],
      "AcquisitionTime": ["135234.502500", "135236.502500", "135238.502500", "135240.502500", "135242.502500", "135244.502500", "135246.502500", "135248.502500", "135250.502500", "135252.502500", "135254.502500", "135256.502500", "135258.502500", "135300.502500", "135302.502500", "135304.502500", "135306.502500", "135308.502500", "135310.502500", "135312.502500", "135314.502500", "135316.502500", "135318.502500", "135320.502500", "135322.502500", "135324.502500", "135326.502500", "135328.502500", "135330.502500", "135332.502500", "135334.502500", "135336.502500", "135338.502500", "135340.502500", "135342.502500", "135344.502500", "135346.502500", "135348.502500", "135350.502500", "135352.502500", "135354.502500", "135356.502500", "135358.502500", "135400.502500", "135402.502500", "135404.502500", "135406.502500", "135408.502500", "135410.502500", "135412.502500", "135414.502500", "135416.502500", "135418.502500", "135420.502500", "135422.502500", "135424.502500", "135426.502500", "135428.502500", "135430.502500", "135432.502500", "135434.502500", "135436.502500", "135438.502500", "135440.502500", "135442.502500", "135444.502500", "135446.502500", "135448.502500", "135450.502500", "135452.502500", "135454.502500", "135456.502500", "135458.502500", "135500.502500", "135502.502500", "135504.502500", "135506.502500", "135508.502500", "135510.502500", "135512.502500", "135514.502500", "135516.502500", "135518.502500", "135520.502500", "135522.502500", "135524.502500", "135526.502500", "135528.502500", "135530.502500", "135532.502500", "135534.502500", "135536.502500", "135538.502500", "135540.502500", "135542.502500", "135544.502500", "135546.502500", "135548.502500", "135550.502500", "135552.502500", "135554.502500", "135556.502500", "135558.502500", "135600.502500", "135602.502500", "135604.502500", "135606.502500", "135608.502500", "135610.502500", "135612.502500", "135614.502500", "135616.502500", "135618.502500", "135620.502500", "135622.502500", "135624.502500", "135626.502500", "135628.502500", "135630.502500", "135632.502500", "135634.502500", "135636.502500", "135638.502500", "135640.502500", "135642.502500", "135644.502500", "135646.502500", "135648.502500", "135650.502500", "135652.502500", "135654.502500", "135656.502500", "135658.502500", "135700.502500", "135702.502500", "135704.502500", "135706.502500", "135708.502500", "135710.502500", "135712.502500", "135714.502500", "135716.502500", "135718.502500", "135720.502500", "135722.502500", "135724.502500", "135726.502500", "135728.502500", "135730.502500", "135732.502500", "135734.502500", "135736.502500", "135738.502500", "135740.502500", "135742.502500", "135744.502500", "135746.502500", "135748.502500", "135750.502500", "135752.502500", "135754.502500", "135756.502500", "135758.502500", "135800.502500", "135802.502500", "135804.502500", "135806.502500", "135808.502500", "135810.502500", "135812.502500", "135814.502500", "135816.502500", "135818.502500", "135820.502500", "135822.502500", "135824.502500", "135826.502500", "135828.502500", "135830.502500", "135832.502500", "135834.502500", "135836.502500", "135838.502500", "135840.502500", "135842.502500", "135844.502500", "135846.502500", "135848.502500", "135850.502500", "135852.502500", "135854.502500", "135856.502500", "135858.502500", "135900.502500", "135902.502500", "135904.502500", "135906.502500", "135908.502500", "135910.502500", "135912.502500", "135914.502500", "135916.502500", "135918.502500", "135920.502500", "135922.502500", "135924.502500", "135926.502500", "135928.502500", "135930.502500", "135932.502500", "135934.502500", "135936.502500", "135938.502500", "135940.502500", "135942.502500", "135944.502500", "135946.502500", "135948.502500", "135950.502500", "135952.502500", "135954.502500", "135956.502500", "135958.502500", "140000.502500", "140002.502500", "140004.502500", "140006.502500", "140008.502500", "140010.502500", "140012.502500", "140014.502500", "140016.502500", "140018.502500", "140020.502500", "140022.502500", "140024.502500", "140026.502500", "140028.502500", "140030.502500", "140032.502500", "140034.502500", "140036.502500", "140038.502500", "140040.502500", "140042.502500", "140044.502500", "140046.502500", "140048.502500", "140050.502500", "140052.502500", "140054.502500", "140056.502500", "140058.502500", "140100.502500", "140102.502500", "140104.502500"],
      "ContentTime": ["135236.530000", "135238.525000", "135240.525000", "135242.526000", "135244.025000", "135246.025000", "135248.525000", "135250.025000", "135252.525000", "135254.025000", "135256.025000", "135258.525000", "135300.025000", "135302.025000", "135304.525000", "135306.525000", "135308.025000", "135310.026000", "135312.527000", "135314.525000", "135316.025000", "135318.025000", "135320.525000", "135322.025000", "135324.025000", "135326.025000", "135328.526000", "135330.026000", "135332.025000", "135334.025000", "135336.026000", "135338.025000", "135340.026000", "135342.025000", "135344.025000", "135346.525000", "135348.525000", "135350.525000", "135352.026000", "135354.526000", "135356.025000", "135358.025000", "135400.525000", "135402.525000", "135404.025000", "135406.025000", "135408.025000", "135410.525000", "135412.025000", "135414.526000", "135416.026000", "135418.025000", "135420.025000", "135422.526000", "135424.026000", "135426.025000", "135428.525000", "135430.525000", "135432.525000", "135434.525000", "135436.025000", "135438.025000", "135440.026000", "135442.025000", "135444.525000", "135446.526000", "135448.025000", "135450.025000", "135452.025000", "135454.025000", "135456.525000", "135458.526000", "135500.526000", "135502.526000", "135504.526000", "135506.026000", "135508.026000", "135510.025000", "135512.025000", "135514.526000", "135516.525000", "135518.525000", "135520.025000", "135522.025000", "135524.025000", "135526.026000", "135528.025000", "135530.525000", "135532.526000", "135534.026000", "135536.526000", "135538.525000", "135540.526000", "135542.525000", "135544.526000", "135546.526000", "135548.526000", "135550.026000", "135552.525000", "135554.525000", "135556.526000", "135558.026000", "135600.526000", "135602.526000", "135604.526000", "135606.025000", "135608.025000", "135610.025000", "135612.526000", "135614.526000", "135616.526000", "135618.526000", "135620.026000", "135622.025000", "135624.526000", "135626.526000", "135628.025000", "135630.025000", "135632.025000", "135634.025000", "135636.526000", "135638.526000", "135640.525000", "135642.046000", "135644.526000", "135646.525000", "135648.525000", "135650.026000", "135652.025000", "135654.526000", "135656.526000", "135658.526000", "135700.525000", "135702.526000", "135704.526000", "135706.526000", "135708.025000", "135710.025000", "135712.526000", "135714.526000", "135716.026000", "135718.525000", "135720.525000", "135722.026000", "135724.025000", "135726.026000", "135728.026000", "135730.526000", "135732.025000", "135734.025000", "135736.026000", "135738.525000", "135740.025000", "135742.025000", "135744.025000", "135746.025000", "135748.526000", "135750.026000", "135752.526000", "135754.026000", "135756.025000", "135758.525000", "135800.526000", "135802.526000", "135804.026000", "135806.025000", "135808.525000", "135810.026000", "135812.025000", "135814.525000", "135816.525000", "135818.526000", "135820.026000", "135822.026000", "135824.026000", "135826.025000", "135828.526000", "135830.026000", "135832.026000", "135834.525000", "135836.525000", "135838.026000", "135840.526000", "135842.025000", "135844.026000", "135846.525000", "135848.025000", "135850.526000", "135852.526000", "135854.025000", "135856.526000", "135858.526000", "135900.525000", "135902.526000", "135904.525000", "135906.525000", "135908.525000", "135910.025000", "135912.526000", "135914.526000", "135916.526000", "135918.025000", "135920.526000", "135922.526000", "135924.526000", "135926.025000", "135928.525000", "135930.526000", "135932.025000", "135934.025000", "135936.526000", "135938.525000", "135940.526000", "135942.526000", "135944.525000", "135946.525000", "135948.025000", "135950.526000", "135952.025000", "135954.526000", "135956.526000", "135958.525000", "140000.026000", "140002.026000", "140004.526000", "140006.526000", "140008.026000", "140010.025000", "140012.026000", "140014.025000", "140016.025000", "140018.526000", "140020.025000", "140022.526000", "140024.026000", "140026.025000", "140028.025000", "140030.026000", "140032.025000", "140034.526000", "140036.025000", "140038.026000", "140040.026000", "140042.526000", "140044.025000", "140046.025000", "140048.526000", "140050.526000", "140052.526000", "140054.026000", "140056.525000", "140058.026000", "140100.026000", "140102.026000", "140104.025000", "140106.025000"],
      "InstanceCreationTime": ["135236.530000", "135238.525000", "135240.525000", "135242.526000", "135244.025000", "135246.025000", "135248.525000", "135250.025000", "135252.525000", "135254.025000", "135256.025000", "135258.525000", "135300.025000", "135302.025000", "135304.525000", "135306.525000", "135308.025000", "135310.026000", "135312.527000", "135314.525000", "135316.025000", "135318.025000", "135320.525000", "135322.025000", "135324.025000", "135326.025000", "135328.526000", "135330.026000", "135332.025000", "135334.025000", "135336.026000", "135338.025000", "135340.026000", "135342.025000", "135344.025000", "135346.525000", "135348.525000", "135350.525000", "135352.026000", "135354.526000", "135356.025000", "135358.025000", "135400.525000", "135402.525000", "135404.025000", "135406.025000", "135408.025000", "135410.525000", "135412.025000", "135414.526000", "135416.026000", "135418.025000", "135420.025000", "135422.526000", "135424.026000", "135426.025000", "135428.525000", "135430.525000", "135432.525000", "135434.525000", "135436.025000", "135438.025000", "135440.026000", "135442.025000", "135444.525000", "135446.526000", "135448.025000", "135450.025000", "135452.025000", "135454.025000", "135456.525000", "135458.526000", "135500.526000", "135502.526000", "135504.526000", "135506.026000", "135508.026000", "135510.025000", "135512.025000", "135514.526000", "135516.525000", "135518.525000", "135520.025000", "135522.025000", "135524.025000", "135526.026000", "135528.025000", "135530.525000", "135532.526000", "135534.026000", "135536.526000", "135538.525000", "135540.526000", "135542.525000", "135544.526000", "135546.526000", "135548.526000", "135550.026000", "135552.525000", "135554.525000", "135556.526000", "135558.026000", "135600.526000", "135602.526000", "135604.526000", "135606.025000", "135608.025000", "135610.025000", "135612.526000", "135614.526000", "135616.526000", "135618.526000", "135620.026000", "135622.025000", "135624.526000", "135626.526000", "135628.025000", "135630.025000", "135632.025000", "135634.025000", "135636.526000", "135638.526000", "135640.525000", "135642.046000", "135644.526000", "135646.525000", "135648.525000", "135650.026000", "135652.025000", "135654.526000", "135656.526000", "135658.526000", "135700.525000", "135702.526000", "135704.526000", "135706.526000", "135708.025000", "135710.025000", "135712.526000", "135714.526000", "135716.026000", "135718.525000", "135720.525000", "135722.026000", "135724.025000", "135726.026000", "135728.026000", "135730.526000", "135732.025000", "135734.025000", "135736.026000", "135738.525000", "135740.025000", "135742.025000", "135744.025000", "135746.025000", "135748.526000", "135750.026000", "135752.526000", "135754.026000", "135756.025000", "135758.525000", "135800.526000", "135802.526000", "135804.026000", "135806.025000", "135808.525000", "135810.026000", "135812.025000", "135814.525000", "135816.525000", "135818.526000", "135820.026000", "135822.026000", "135824.026000", "135826.025000", "135828.526000", "135830.026000", "135832.026000", "135834.525000", "135836.525000", "135838.026000", "135840.526000", "135842.025000", "135844.026000", "135846.525000", "135848.025000", "135850.526000", "135852.526000", "135854.025000", "135856.526000", "135858.526000", "135900.525000", "135902.526000", "135904.525000", "135906.525000", "135908.525000", "135910.025000", "135912.526000", "135914.526000", "135916.526000", "135918.025000", "135920.526000", "135922.526000", "135924.526000", "135926.025000", "135928.525000", "135930.526000", "135932.025000", "135934.025000", "135936.526000", "135938.525000", "135940.526000", "135942.526000", "135944.525000", "135946.525000", "135948.025000", "135950.526000", "135952.025000", "135954.526000", "135956.526000", "135958.525000", "140000.026000", "140002.026000", "140004.526000", "140006.526000", "140008.026000", "140010.025000", "140012.026000", "140014.025000", "140016.025000", "140018.526000", "140020.025000", "140022.526000", "140024.026000", "140026.025000", "140028.025000", "140030.026000", "140032.025000", "140034.526000", "140036.025000", "140038.026000", "140040.026000", "140042.526000", "140044.025000", "140046.025000", "140048.526000", "140050.526000", "140052.526000", "140054.026000", "140056.525000", "140058.026000", "140100.026000", "140102.026000", "140104.025000", "140106.025000"],
      "InstanceNumber": [1, 2, 3, 4, 5, 6, 7, 8, 9, 10, 11, 12, 13, 14, 15, 16, 17, 18, 19, 20, 21, 22, 23, 24, 25, 26, 27, 28, 29, 30, 31, 32, 33, 34, 35, 36, 37, 38, 39, 40, 41, 42, 43, 44, 45, 46, 47, 48, 49, 50, 51, 52, 53, 54, 55, 56, 57, 58, 59, 60, 61, 62, 63, 64, 65, 66, 67, 68, 69, 70, 71, 72, 73, 74, 75, 76, 77, 78, 79, 80, 81, 82, 83, 84, 85, 86, 87, 88, 89, 90, 91, 92, 93, 94, 95, 96, 97, 98, 99, 100, 101, 102, 103, 104, 105, 106, 107, 108, 109, 110, 111, 112, 113, 114, 115, 116, 117, 118, 119, 120, 121, 122, 123, 124, 125, 126, 127, 128, 129, 130, 131, 132, 133, 134, 135, 136, 137, 138, 139, 140, 141, 142, 143, 144, 145, 146, 147, 148, 149, 150, 151, 152, 153, 154, 155, 156, 157, 158, 159, 160, 161, 162, 163, 164, 165, 166, 167, 168, 169, 170, 171, 172, 173, 174, 175, 176, 177, 178, 179, 180, 181, 182, 183, 184, 185, 186, 187, 188, 189, 190, 191, 192, 193, 194, 195, 196, 197, 198, 199, 200, 201, 202, 203, 204, 205, 206, 207, 208, 209, 210, 211, 212, 213, 214, 215, 216, 217, 218, 219, 220, 221, 222, 223, 224, 225, 226, 227, 228, 229, 230, 231, 232, 233, 234, 235, 236, 237, 238, 239, 240, 241, 242, 243, 244, 245, 246, 247, 248, 249, 250, 251, 252, 253, 254, 255, 256],
      "WindowCenter": [836.0, 834.0, 832.0, 830.0, 829.0, 830.0, 830.0, 830.0, 829.0, 830.0, 830.0, 831.0, 830.0, 829.0, 828.0, 828.0, 828.0, 828.0, 827.0, 826.0, 826.0, 827.0, 829.0, 828.0, 828.0, 827.0, 828.0, 828.0, 829.0, 827.0, 828.0, 828.0, 828.0, 826.0, 826.0, 826.0, 827.0, 827.0, 827.0, 825.0, 825.0, 825.0, 826.0, 826.0, 826.0, 825.0, 826.0, 826.0, 827.0, 826.0, 826.0, 827.0, 827.0, 827.0, 828.0, 829.0, 828.0, 827.0, 827.0, 828.0, 830.0, 830.0, 828.0, 827.0, 826.0, 827.0, 829.0, 829.0, 829.0, 828.0, 829.0, 829.0, 829.0, 830.0, 830.0, 829.0, 829.0, 829.0, 829.0, 828.0, 828.0, 828.0, 828.0, 828.0, 828.0, 828.0, 828.0, 828.0, 827.0, 829.0, 828.0, 828.0, 826.0, 826.0, 827.0, 828.0, 828.0, 827.0, 828.0, 827.0, 826.0, 826.0, 826.0, 827.0, 828.0, 829.0, 829.0, 828.0, 827.0, 827.0, 827.0, 827.0, 827.0, 828.0, 827.0, 827.0, 827.0, 829.0, 831.0, 831.0, 830.0, 828.0, 828.0, 828.0, 828.0, 829.0, 830.0, 829.0, 828.0, 828.0, 828.0, 826.0, 827.0, 828.0, 828.0, 828.0, 827.0, 829.0, 829.0, 829.0, 828.0, 827.0, 829.0, 828.0, 829.0, 828.0, 828.0, 828.0, 828.0, 827.0, 827.0, 827.0, 827.0, 826.0, 828.0, 829.0, 829.0, 829.0, 828.0, 827.0, 827.0, 828.0, 828.0, 827.0, 825.0, 825.0, 827.0, 828.0, 830.0, 830.0, 829.0, 828.0, 826.0, 826.0, 826.0, 827.0, 826.0, 826.0, 829.0, 829.0, 830.0, 828.0, 829.0, 828.0, 829.0, 828.0, 828.0, 827.0, 826.0, 826.0, 828.0, 829.0, 829.0, 827.0, 827.0, 828.0, 829.0, 829.0, 830.0, 830.0, 828.0, 828.0, 828.0, 828.0, 828.0, 830.0, 829.0, 830.0, 830.0, 829.0, 829.0, 828.0, 828.0, 829.0, 830.0, 829.0, 829.0, 829.0, 830.0, 830.0, 830.0, 828.0, 828.0, 827.0, 827.0, 827.0, 828.0, 828.0, 828.0, 828.0, 828.0, 827.0, 828.0, 829.0, 829.0, 828.0, 826.0, 826.0, 827.0, 827.0, 828.0, 827.0, 828.0, 828.0, 828.0, 828.0, 829.0, 828.0, 827.0, 827.0, 828.0, 830.0, 831.0, 831.0, 829.0, 827.0],
      "WindowWidth": [1828.0, 1822.0, 1817.0, 1812.0, 1810.0, 1811.0, 1812.0, 1812.0, 1810.0, 1811.0, 1811.0, 1815.0, 1813.0, 1811.0, 1807.0, 1808.0, 1808.0, 1806.0, 1804.0, 1803.0, 1803.0, 1806.0, 1809.0, 1808.0, 1807.0, 1805.0, 1806.0, 1808.0, 1809.0, 1805.0, 1807.0, 1807.0, 1807.0, 1801.0, 1801.0, 1802.0, 1804.0, 1804.0, 1805.0, 1800.0, 1800.0, 1799.0, 1802.0, 1803.0, 1803.0, 1799.0, 1802.0, 1802.0, 1804.0, 1803.0, 1803.0, 1803.0, 1805.0, 1805.0, 1808.0, 1809.0, 1806.0, 1804.0, 1806.0, 1808.0, 1813.0, 1813.0, 1807.0, 1803.0, 1801.0, 1805.0, 1810.0, 1810.0, 1809.0, 1807.0, 1810.0, 1809.0, 1811.0, 1813.0, 1813.0, 1811.0, 1811.0, 1809.0, 1810.0, 1808.0, 1808.0, 1806.0, 1806.0, 1807.0, 1806.0, 1808.0, 1808.0, 1807.0, 1805.0, 1809.0, 1808.0, 1806.0, 1801.0, 1801.0, 1805.0, 1807.0, 1807.0, 1805.0, 1807.0, 1804.0, 1802.0, 1801.0, 1803.0, 1805.0, 1807.0, 1811.0, 1810.0, 1808.0, 1805.0, 1804.0, 1804.0, 1805.0, 1806.0, 1806.0, 1804.0, 1805.0, 1804.0, 1809.0, 1815.0, 1814.0, 1812.0, 1808.0, 1807.0, 1807.0, 1807.0, 1809.0, 1812.0, 1809.0, 1807.0, 1806.0, 1806.0, 1802.0, 1804.0, 1807.0, 1806.0, 1806.0, 1805.0, 1810.0, 1811.0, 1811.0, 1807.0, 1805.0, 1809.0, 1808.0, 1810.0, 1806.0, 1808.0, 1807.0, 1807.0, 1803.0, 1803.0, 1803.0, 1805.0, 1803.0, 1807.0, 1810.0, 1811.0, 1809.0, 1806.0, 1802.0, 1804.0, 1806.0, 1807.0, 1803.0, 1799.0, 1799.0, 1803.0, 1807.0, 1812.0, 1813.0, 1811.0, 1806.0, 1800.0, 1800.0, 1802.0, 1803.0, 1801.0, 1802.0, 1809.0, 1811.0, 1812.0, 1808.0, 1809.0, 1807.0, 1809.0, 1807.0, 1806.0, 1803.0, 1801.0, 1802.0, 1807.0, 1809.0, 1811.0, 1806.0, 1806.0, 1806.0, 1809.0, 1810.0, 1812.0, 1812.0, 1807.0, 1807.0, 1806.0, 1808.0, 1808.0, 1812.0, 1810.0, 1813.0, 1812.0, 1811.0, 1809.0, 1807.0, 1808.0, 1810.0, 1813.0, 1811.0, 1811.0, 1810.0, 1811.0, 1812.0, 1811.0, 1808.0, 1806.0, 1804.0, 1805.0, 1803.0, 1807.0, 1807.0, 1807.0, 1805.0, 1805.0, 1805.0, 1808.0, 1809.0, 1810.0, 1806.0, 1802.0, 1801.0, 1804.0, 1805.0, 1806.0, 1805.0, 1807.0, 1805.0, 1807.0, 1807.0, 1810.0, 1805.0, 1803.0, 1803.0, 1808.0, 1812.0, 1815.0, 1815.0, 1810.0, 1803.0]
    },
    "slices": {}
  }
}