{
 "AcquisitionMatrixPE": 100,
 "AcquisitionNumber": 1,
 "AcquisitionTime": "12:51:10.027500",
 "BandwidthPerPixelPhaseEncode": 18.519,
 "BaseResolution": 100,
 "BodyPartExamined": "BRAIN",
 "ConsistencyInfo": "N4_VE11C_LATEST_20160120",
 "ConversionSoftware": "dcm2niix",
 "ConversionSoftwareVersion": "v1.0.20180622 GCC4.9.2",
 "DerivedVendorReportedEchoSpacing": 0.000539986,
 "DeviceSerialNumber": "166078",
 "DwellTime": 2.1e-06,
 "EchoTime": 0.034,
 "EchoTrainLength": 100,
 "EffectiveEchoSpacing": 0.000539986,
 "FlipAngle": 90,
 "ImageOrientationPatientDICOM": [
  1,
  0,
  0,
  0,
  0.988228,
  -0.152986
 ],
 "ImageType": [
  "ORIGINAL",
  "PRIMARY",
  "M",
  "ND",
  "MOSAIC"
 ],
 "InPlanePhaseEncodingDirectionDICOM": "COL",
 "InstitutionAddress": "Street_StreetNo_Bei_Jing_District_CN_ZIP",
 "InstitutionName": "BeiJing_Normal_University",
 "InstitutionalDepartmentName": "Department",
 "MRAcquisitionType": "2D",
 "MagneticFieldStrength": 3,
 "Manufacturer": "Siemens",
 "ManufacturersModelName": "Prisma",
 "Modality": "MR",
 "MultibandAccelerationFactor": 3,
 "PartialFourier": 1,
 "PatientPosition": "HFS",
 "PercentPhaseFOV": 100,
 "PhaseEncodingDirection": "j-",
 "PhaseEncodingSteps": 100,
 "PhaseResolution": 1,
 "PixelBandwidth": 2380,
 "ProcedureStepDescription": "BNU_P2018_64CH_Zhen.ZongLei",
 "ProtocolName": "bold_100x100_s3_2x2x2_static_256",
 "PulseSequenceDetails": "%SiemensSeq%_ep2d_bold",
 "ReceiveCoilActiveElements": "HC1-7;NC1",
 "ReceiveCoilName": "HeadNeck_64",
 "ReconMatrixPE": 100,
 "RepetitionTime": 2,
 "SAR": 0.073769,
 "ScanOptions": "FS",
 "ScanningSequence": "EP",
 "SequenceName": "_epfid2d1_100",
 "SequenceVariant": "SK",
 "SeriesDescription": "bold_100x100_s3_2x2x2_static_256",
 "SeriesNumber": 3,
 "ShimSetting": [
  -5449,
  -11493,
  -1257,
  267,
  -29,
  -269,
  -251,
  68
 ],
 "SliceThickness": 2,
 "SliceTiming": [
  1.485,
  0,
  0.99,
  0.0825,
  1.0725,
  0.165,
  1.155,
  0.2475,
  1.2375,
  0.33,
  1.32,
  0.4125,
  1.4025,
  0.5775,
  1.5675,
  0.66,
  1.65,
  0.7425,
  1.7325,
  0.825,
  1.815,
  0.9075,
  1.8975,
  0.495,
  1.485,
  0,
  0.99,
  0.0825,
  1.0725,
  0.165,
  1.155,
  0.2475,
  1.2375,
  0.33,
  1.32,
  0.4125,
  1.4025,
  0.5775,
  1.5675,
  0.66,
  1.65,
  0.7425,
  1.7325,
  0.825,
  1.815,
  0.9075,
  1.8975,
  0.495,
  1.485,
  0,
  0.99,
  0.0825,
  1.0725,
  0.165,
  1.155,
  0.2475,
  1.2375,
  0.33,
  1.32,
  0.4125,
  1.4025,
  0.5775,
  1.5675,
  0.66,
  1.65,
  0.7425,
  1.7325,
  0.825,
  1.815,
  0.9075,
  1.8975,
  0.495
 ],
 "SoftwareVersions": "syngo_MR_E11",
 "SpacingBetweenSlices": 2,
 "StationName": "AWP166078",
 "TaskName": "imagenet",
 "TotalReadoutTime": 0.0534586,
 "TxRefAmp": 220.938,
 "dcmmeta_affine": [
  [
   -2.0,
   0.0,
   0.0,
   102.69879150390625
  ],
  [
   0.0,
   1.9764567613601685,
   -0.3059716820716858,
   -85.02535247802734
  ],
  [
   0.0,
   0.3059716820716858,
   1.9764567613601685,
   -82.86285400390625
  ],
  [
   0.0,
   0.0,
   0.0,
   1.0
  ]
 ],
 "dcmmeta_reorient_transform": [
  [
   0.0,
   -1.0,
   0.0,
   99.0
  ],
  [
   1.0,
   0.0,
   0.0,
   0.0
  ],
  [
   0.0,
   0.0,
   1.0,
   0.0
  ],
  [
   0.0,
   0.0,
   0.0,
   1.0
  ]
 ],
 "dcmmeta_shape": [
  100,
  100,
  72,
  256
 ],
 "dcmmeta_slice_dim": 2,
 "dcmmeta_version": 0.6,
 "global": {
  "const": {
   "AcquisitionMatrix": [
    100,
    0,
    0,
    100
   ],
   "AngioFlag": "N",
   "BitsAllocated": 16,
   "BitsStored": 12,
   "BodyPartExamined": "BRAIN",
   "Columns": 900,
   "EchoNumbers": 1,
   "EchoTime": 34.0,
   "EchoTrainLength": 100,
   "FlipAngle": 90.0,
   "HighBit": 11,
   "ImageOrientationPatient": [
    1.0,
    0.0,
    0.0,
    0.0,
    0.9882283809914,
    -0.1529858392241
   ],
   "ImagePositionPatient": [
    -902.69879508018,
    -901.22657350902,
    69.817016043896
   ],
   "ImageType": [
    "ORIGINAL",
    "PRIMARY",
    "M",
    "ND",
    "MOSAIC"
   ],
   "ImagedNucleus": "1H",
   "ImagingFrequency": 123.257765,
   "InPlanePhaseEncodingDirection": "COL",
   "LargestImagePixelValue": 4095,
   "MRAcquisitionType": "2D",
   "MagneticFieldStrength": 3.0,
   "Manufacturer": "SIEMENS",
   "ManufacturerModelName": "Prisma",
   "Modality": "MR",
   "NumberOfAverages": 1.0,
   "NumberOfPhaseEncodingSteps": 100,
   "PercentPhaseFieldOfView": 100.0,
   "PercentSampling": 100.0,
   "PerformedProcedureStepStartTime": "124405.346000",
   "PhotometricInterpretation": "MONOCHROME2",
   "PixelBandwidth": 2380.0,
   "PixelRepresentation": 0,
   "PixelSpacing": [
    2.0,
    2.0
   ],
   "ProtocolName": "bold_100x100_s3_2x2x2_static_256",
   "RepetitionTime": 2000.0,
   "Rows": 900,
   "SAR": 0.07376897197904,
   "SamplesPerPixel": 1,
   "ScanOptions": "FS",
   "ScanningSequence": "EP",
   "SequenceName": "*epfid2d1_100",
   "SequenceVariant": "SK",
   "SeriesDescription": "bold_100x100_s3_2x2x2_static_256",
   "SeriesNumber": 3,
   "SeriesTime": "125111.913000",
   "SliceLocation": -68.879746948646,
   "SliceThickness": 2.0,
   "SmallestImagePixelValue": 0,
   "SoftwareVersions": "syngo MR E11",
   "SpacingBetweenSlices": 1.9999999996718,
   "SpecificCharacterSet": "ISO_IR 100",
   "StudyID": "1",
   "StudyTime": "124405.231000",
   "TransmitCoilName": "Body",
   "VariableFlipAngleFlag": "N",
   "WindowCenterWidthExplanation": "Algo1",
   "dBdt": 0.0
  },
  "slices": {}
 },
 "time": {
  "samples": {
   "AcquisitionNumber": [
    1,
    2,
    3,
    4,
    5,
    6,
    7,
    8,
    9,
    10,
    11,
    12,
    13,
    14,
    15,
    16,
    17,
    18,
    19,
    20,
    21,
    22,
    23,
    24,
    25,
    26,
    27,
    28,
    29,
    30,
    31,
    32,
    33,
    34,
    35,
    36,
    37,
    38,
    39,
    40,
    41,
    42,
    43,
    44,
    45,
    46,
    47,
    48,
    49,
    50,
    51,
    52,
    53,
    54,
    55,
    56,
    57,
    58,
    59,
    60,
    61,
    62,
    63,
    64,
    65,
    66,
    67,
    68,
    69,
    70,
    71,
    72,
    73,
    74,
    75,
    76,
    77,
    78,
    79,
    80,
    81,
    82,
    83,
    84,
    85,
    86,
    87,
    88,
    89,
    90,
    91,
    92,
    93,
    94,
    95,
    96,
    97,
    98,
    99,
    100,
    101,
    102,
    103,
    104,
    105,
    106,
    107,
    108,
    109,
    110,
    111,
    112,
    113,
    114,
    115,
    116,
    117,
    118,
    119,
    120,
    121,
    122,
    123,
    124,
    125,
    126,
    127,
    128,
    129,
    130,
    131,
    132,
    133,
    134,
    135,
    136,
    137,
    138,
    139,
    140,
    141,
    142,
    143,
    144,
    145,
    146,
    147,
    148,
    149,
    150,
    151,
    152,
    153,
    154,
    155,
    156,
    157,
    158,
    159,
    160,
    161,
    162,
    163,
    164,
    165,
    166,
    167,
    168,
    169,
    170,
    171,
    172,
    173,
    174,
    175,
    176,
    177,
    178,
    179,
    180,
    181,
    182,
    183,
    184,
    185,
    186,
    187,
    188,
    189,
    190,
    191,
    192,
    193,
    194,
    195,
    196,
    197,
    198,
    199,
    200,
    201,
    202,
    203,
    204,
    205,
    206,
    207,
    208,
    209,
    210,
    211,
    212,
    213,
    214,
    215,
    216,
    217,
    218,
    219,
    220,
    221,
    222,
    223,
    224,
    225,
    226,
    227,
    228,
    229,
    230,
    231,
    232,
    233,
    234,
    235,
    236,
    237,
    238,
    239,
    240,
    241,
    242,
    243,
    244,
    245,
    246,
    247,
    248,
    249,
    250,
    251,
    252,
    253,
    254,
    255,
    256
   ],
   "AcquisitionTime": [
    "125110.027500",
    "125112.027500",
    "125114.027500",
    "125116.027500",
    "125118.027500",
    "125120.027500",
    "125122.027500",
    "125124.027500",
    "125126.027500",
    "125128.027500",
    "125130.027500",
    "125132.027500",
    "125134.027500",
    "125136.027500",
    "125138.027500",
    "125140.027500",
    "125142.027500",
    "125144.027500",
    "125146.027500",
    "125148.027500",
    "125150.027500",
    "125152.027500",
    "125154.027500",
    "125156.027500",
    "125158.027500",
    "125200.027500",
    "125202.027500",
    "125204.027500",
    "125206.027500",
    "125208.027500",
    "125210.027500",
    "125212.027500",
    "125214.027500",
    "125216.027500",
    "125218.027500",
    "125220.027500",
    "125222.027500",
    "125224.027500",
    "125226.027500",
    "125228.027500",
    "125230.027500",
    "125232.027500",
    "125234.027500",
    "125236.027500",
    "125238.027500",
    "125240.027500",
    "125242.027500",
    "125244.027500",
    "125246.027500",
    "125248.027500",
    "125250.027500",
    "125252.027500",
    "125254.027500",
    "125256.027500",
    "125258.027500",
    "125300.027500",
    "125302.027500",
    "125304.027500",
    "125306.027500",
    "125308.027500",
    "125310.027500",
    "125312.027500",
    "125314.027500",
    "125316.027500",
    "125318.027500",
    "125320.027500",
    "125322.027500",
    "125324.027500",
    "125326.027500",
    "125328.027500",
    "125330.027500",
    "125332.027500",
    "125334.027500",
    "125336.027500",
    "125338.027500",
    "125340.027500",
    "125342.027500",
    "125344.027500",
    "125346.027500",
    "125348.027500",
    "125350.027500",
    "125352.027500",
    "125354.027500",
    "125356.027500",
    "125358.027500",
    "125400.027500",
    "125402.027500",
    "125404.027500",
    "125406.027500",
    "125408.027500",
    "125410.027500",
    "125412.027500",
    "125414.027500",
    "125416.027500",
    "125418.027500",
    "125420.027500",
    "125422.027500",
    "125424.027500",
    "125426.027500",
    "125428.027500",
    "125430.027500",
    "125432.027500",
    "125434.027500",
    "125436.027500",
    "125438.027500",
    "125440.027500",
    "125442.027500",
    "125444.027500",
    "125446.027500",
    "125448.027500",
    "125450.027500",
    "125452.027500",
    "125454.027500",
    "125456.027500",
    "125458.027500",
    "125500.027500",
    "125502.027500",
    "125504.027500",
    "125506.027500",
    "125508.027500",
    "125510.027500",
    "125512.027500",
    "125514.027500",
    "125516.027500",
    "125518.027500",
    "125520.027500",
    "125522.027500",
    "125524.027500",
    "125526.027500",
    "125528.027500",
    "125530.027500",
    "125532.027500",
    "125534.027500",
    "125536.027500",
    "125538.027500",
    "125540.027500",
    "125542.027500",
    "125544.027500",
    "125546.027500",
    "125548.027500",
    "125550.027500",
    "125552.027500",
    "125554.027500",
    "125556.027500",
    "125558.027500",
    "125600.027500",
    "125602.027500",
    "125604.027500",
    "125606.027500",
    "125608.027500",
    "125610.027500",
    "125612.027500",
    "125614.027500",
    "125616.027500",
    "125618.027500",
    "125620.027500",
    "125622.027500",
    "125624.027500",
    "125626.027500",
    "125628.027500",
    "125630.027500",
    "125632.027500",
    "125634.027500",
    "125636.027500",
    "125638.027500",
    "125640.027500",
    "125642.027500",
    "125644.027500",
    "125646.027500",
    "125648.027500",
    "125650.027500",
    "125652.027500",
    "125654.027500",
    "125656.027500",
    "125658.027500",
    "125700.027500",
    "125702.027500",
    "125704.027500",
    "125706.027500",
    "125708.027500",
    "125710.027500",
    "125712.027500",
    "125714.027500",
    "125716.027500",
    "125718.027500",
    "125720.027500",
    "125722.027500",
    "125724.027500",
    "125726.027500",
    "125728.027500",
    "125730.027500",
    "125732.027500",
    "125734.027500",
    "125736.027500",
    "125738.027500",
    "125740.027500",
    "125742.027500",
    "125744.027500",
    "125746.027500",
    "125748.027500",
    "125750.027500",
    "125752.027500",
    "125754.027500",
    "125756.027500",
    "125758.027500",
    "125800.027500",
    "125802.027500",
    "125804.027500",
    "125806.027500",
    "125808.027500",
    "125810.027500",
    "125812.027500",
    "125814.027500",
    "125816.027500",
    "125818.027500",
    "125820.027500",
    "125822.027500",
    "125824.027500",
    "125826.027500",
    "125828.027500",
    "125830.027500",
    "125832.027500",
    "125834.027500",
    "125836.027500",
    "125838.027500",
    "125840.027500",
    "125842.027500",
    "125844.027500",
    "125846.027500",
    "125848.027500",
    "125850.027500",
    "125852.027500",
    "125854.027500",
    "125856.027500",
    "125858.027500",
    "125900.027500",
    "125902.027500",
    "125904.027500",
    "125906.027500",
    "125908.027500",
    "125910.027500",
    "125912.027500",
    "125914.027500",
    "125916.027500",
    "125918.027500",
    "125920.027500",
    "125922.027500",
    "125924.027500",
    "125926.027500",
    "125928.027500",
    "125930.027500",
    "125932.027500",
    "125934.027500",
    "125936.027500",
    "125938.027500",
    "125940.027500"
   ],
   "ContentTime": [
    "125111.916000",
    "125113.412000",
    "125115.411000",
    "125117.412000",
    "125119.410000",
    "125121.411000",
    "125123.910000",
    "125125.411000",
    "125127.411000",
    "125129.412000",
    "125131.412000",
    "125133.411000",
    "125135.412000",
    "125137.411000",
    "125139.410000",
    "125141.410000",
    "125143.410000",
    "125145.412000",
    "125147.412000",
    "125149.411000",
    "125151.411000",
    "125153.412000",
    "125155.410000",
    "125157.410000",
    "125159.410000",
    "125201.411000",
    "125203.412000",
    "125205.411000",
    "125207.911000",
    "125209.912000",
    "125211.411000",
    "125213.410000",
    "125215.410000",
    "125217.410000",
    "125219.411000",
    "125221.912000",
    "125223.412000",
    "125225.411000",
    "125227.411000",
    "125229.410000",
    "125231.411000",
    "125233.410000",
    "125235.410000",
    "125237.412000",
    "125239.411000",
    "125241.412000",
    "125243.412000",
    "125245.412000",
    "125247.410000",
    "125249.410000",
    "125251.410000",
    "125253.411000",
    "125255.412000",
    "125257.411000",
    "125259.411000",
    "125301.412000",
    "125303.411000",
    "125305.410000",
    "125307.410000",
    "125309.411000",
    "125311.411000",
    "125313.411000",
    "125315.911000",
    "125317.411000",
    "125319.411000",
    "125321.410000",
    "125323.411000",
    "125325.410000",
    "125327.410000",
    "125329.411000",
    "125331.411000",
    "125333.411000",
    "125335.412000",
    "125337.411000",
    "125339.410000",
    "125341.411000",
    "125343.411000",
    "125345.411000",
    "125347.412000",
    "125349.411000",
    "125351.412000",
    "125353.411000",
    "125355.411000",
    "125357.410000",
    "125359.410000",
    "125401.410000",
    "125403.411000",
    "125405.412000",
    "125407.411000",
    "125409.412000",
    "125411.411000",
    "125413.415000",
    "125415.410000",
    "125417.411000",
    "125419.411000",
    "125421.411000",
    "125423.412000",
    "125425.912000",
    "125427.412000",
    "125429.412000",
    "125431.411000",
    "125433.410000",
    "125435.410000",
    "125437.911000",
    "125439.411000",
    "125441.411000",
    "125443.412000",
    "125445.411000",
    "125447.411000",
    "125449.410000",
    "125451.411000",
    "125453.411000",
    "125455.410000",
    "125457.411000",
    "125459.411000",
    "125501.411000",
    "125503.411000",
    "125505.411000",
    "125507.411000",
    "125509.410000",
    "125511.410000",
    "125513.411000",
    "125515.412000",
    "125517.411000",
    "125519.911000",
    "125521.911000",
    "125523.412000",
    "125525.411000",
    "125527.410000",
    "125529.410000",
    "125531.411000",
    "125533.411000",
    "125535.920000",
    "125537.411000",
    "125539.412000",
    "125541.411000",
    "125543.410000",
    "125545.410000",
    "125547.910000",
    "125549.411000",
    "125551.411000",
    "125553.411000",
    "125555.412000",
    "125557.411000",
    "125559.411000",
    "125601.410000",
    "125603.411000",
    "125605.410000",
    "125607.412000",
    "125609.412000",
    "125611.411000",
    "125613.412000",
    "125615.411000",
    "125617.411000",
    "125619.411000",
    "125621.410000",
    "125623.412000",
    "125625.911000",
    "125627.411000",
    "125629.411000",
    "125631.411000",
    "125633.411000",
    "125635.410000",
    "125637.411000",
    "125639.411000",
    "125641.411000",
    "125643.412000",
    "125645.411000",
    "125647.411000",
    "125649.411000",
    "125651.411000",
    "125653.410000",
    "125655.911000",
    "125657.410000",
    "125659.412000",
    "125701.412000",
    "125703.411000",
    "125705.412000",
    "125707.412000",
    "125709.411000",
    "125711.410000",
    "125713.911000",
    "125715.410000",
    "125717.411000",
    "125719.411000",
    "125721.411000",
    "125723.411000",
    "125725.411000",
    "125727.410000",
    "125729.410000",
    "125731.411000",
    "125733.411000",
    "125735.412000",
    "125737.911000",
    "125739.411000",
    "125741.411000",
    "125743.412000",
    "125745.410000",
    "125747.411000",
    "125749.410000",
    "125751.412000",
    "125753.411000",
    "125755.911000",
    "125757.412000",
    "125759.412000",
    "125801.410000",
    "125803.410000",
    "125805.411000",
    "125807.410000",
    "125809.411000",
    "125811.411000",
    "125813.411000",
    "125815.412000",
    "125817.911000",
    "125819.410000",
    "125821.411000",
    "125823.911000",
    "125825.912000",
    "125827.412000",
    "125829.411000",
    "125831.412000",
    "125833.412000",
    "125835.412000",
    "125837.411000",
    "125839.411000",
    "125841.410000",
    "125843.411000",
    "125845.412000",
    "125847.412000",
    "125849.411000",
    "125851.413000",
    "125853.911000",
    "125855.411000",
    "125857.410000",
    "125859.910000",
    "125901.912000",
    "125903.912000",
    "125905.911000",
    "125907.412000",
    "125909.412000",
    "125911.411000",
    "125913.410000",
    "125915.411000",
    "125917.413000",
    "125919.412000",
    "125921.411000",
    "125923.411000",
    "125925.411000",
    "125927.412000",
    "125929.911000",
    "125931.411000",
    "125933.411000",
    "125935.410000",
    "125937.412000",
    "125939.413000",
    "125941.329000"
   ],
   "InstanceCreationTime": [
    "125111.916000",
    "125113.412000",
    "125115.411000",
    "125117.412000",
    "125119.410000",
    "125121.411000",
    "125123.910000",
    "125125.411000",
    "125127.411000",
    "125129.412000",
    "125131.412000",
    "125133.411000",
    "125135.412000",
    "125137.411000",
    "125139.410000",
    "125141.410000",
    "125143.410000",
    "125145.412000",
    "125147.412000",
    "125149.411000",
    "125151.411000",
    "125153.412000",
    "125155.410000",
    "125157.410000",
    "125159.410000",
    "125201.411000",
    "125203.412000",
    "125205.411000",
    "125207.911000",
    "125209.912000",
    "125211.411000",
    "125213.410000",
    "125215.410000",
    "125217.410000",
    "125219.411000",
    "125221.912000",
    "125223.412000",
    "125225.411000",
    "125227.411000",
    "125229.410000",
    "125231.411000",
    "125233.410000",
    "125235.410000",
    "125237.412000",
    "125239.411000",
    "125241.412000",
    "125243.412000",
    "125245.412000",
    "125247.410000",
    "125249.410000",
    "125251.410000",
    "125253.411000",
    "125255.412000",
    "125257.411000",
    "125259.411000",
    "125301.412000",
    "125303.411000",
    "125305.410000",
    "125307.410000",
    "125309.411000",
    "125311.411000",
    "125313.411000",
    "125315.911000",
    "125317.411000",
    "125319.411000",
    "125321.410000",
    "125323.411000",
    "125325.410000",
    "125327.410000",
    "125329.411000",
    "125331.411000",
    "125333.411000",
    "125335.412000",
    "125337.411000",
    "125339.410000",
    "125341.411000",
    "125343.411000",
    "125345.411000",
    "125347.412000",
    "125349.411000",
    "125351.412000",
    "125353.411000",
    "125355.411000",
    "125357.410000",
    "125359.410000",
    "125401.410000",
    "125403.411000",
    "125405.412000",
    "125407.411000",
    "125409.412000",
    "125411.411000",
    "125413.415000",
    "125415.410000",
    "125417.411000",
    "125419.411000",
    "125421.411000",
    "125423.412000",
    "125425.912000",
    "125427.412000",
    "125429.412000",
    "125431.411000",
    "125433.410000",
    "125435.410000",
    "125437.911000",
    "125439.411000",
    "125441.411000",
    "125443.412000",
    "125445.411000",
    "125447.411000",
    "125449.410000",
    "125451.411000",
    "125453.411000",
    "125455.410000",
    "125457.411000",
    "125459.411000",
    "125501.411000",
    "125503.411000",
    "125505.411000",
    "125507.411000",
    "125509.410000",
    "125511.410000",
    "125513.411000",
    "125515.412000",
    "125517.411000",
    "125519.911000",
    "125521.911000",
    "125523.412000",
    "125525.411000",
    "125527.410000",
    "125529.410000",
    "125531.411000",
    "125533.411000",
    "125535.920000",
    "125537.411000",
    "125539.412000",
    "125541.411000",
    "125543.410000",
    "125545.410000",
    "125547.910000",
    "125549.411000",
    "125551.411000",
    "125553.411000",
    "125555.412000",
    "125557.411000",
    "125559.411000",
    "125601.410000",
    "125603.411000",
    "125605.410000",
    "125607.412000",
    "125609.412000",
    "125611.411000",
    "125613.412000",
    "125615.411000",
    "125617.411000",
    "125619.411000",
    "125621.410000",
    "125623.412000",
    "125625.911000",
    "125627.411000",
    "125629.411000",
    "125631.411000",
    "125633.411000",
    "125635.410000",
    "125637.411000",
    "125639.411000",
    "125641.411000",
    "125643.412000",
    "125645.411000",
    "125647.411000",
    "125649.411000",
    "125651.411000",
    "125653.410000",
    "125655.911000",
    "125657.410000",
    "125659.412000",
    "125701.412000",
    "125703.411000",
    "125705.412000",
    "125707.412000",
    "125709.411000",
    "125711.410000",
    "125713.911000",
    "125715.410000",
    "125717.411000",
    "125719.411000",
    "125721.411000",
    "125723.411000",
    "125725.411000",
    "125727.410000",
    "125729.410000",
    "125731.411000",
    "125733.411000",
    "125735.412000",
    "125737.911000",
    "125739.411000",
    "125741.411000",
    "125743.412000",
    "125745.410000",
    "125747.411000",
    "125749.410000",
    "125751.412000",
    "125753.411000",
    "125755.911000",
    "125757.412000",
    "125759.412000",
    "125801.410000",
    "125803.410000",
    "125805.411000",
    "125807.410000",
    "125809.411000",
    "125811.411000",
    "125813.411000",
    "125815.412000",
    "125817.911000",
    "125819.410000",
    "125821.411000",
    "125823.911000",
    "125825.912000",
    "125827.412000",
    "125829.411000",
    "125831.412000",
    "125833.412000",
    "125835.412000",
    "125837.411000",
    "125839.411000",
    "125841.410000",
    "125843.411000",
    "125845.412000",
    "125847.412000",
    "125849.411000",
    "125851.413000",
    "125853.911000",
    "125855.411000",
    "125857.410000",
    "125859.910000",
    "125901.912000",
    "125903.912000",
    "125905.911000",
    "125907.412000",
    "125909.412000",
    "125911.411000",
    "125913.410000",
    "125915.411000",
    "125917.413000",
    "125919.412000",
    "125921.411000",
    "125923.411000",
    "125925.411000",
    "125927.412000",
    "125929.911000",
    "125931.411000",
    "125933.411000",
    "125935.410000",
    "125937.412000",
    "125939.413000",
    "125941.329000"
   ],
   "InstanceNumber": [
    1,
    2,
    3,
    4,
    5,
    6,
    7,
    8,
    9,
    10,
    11,
    12,
    13,
    14,
    15,
    16,
    17,
    18,
    19,
    20,
    21,
    22,
    23,
    24,
    25,
    26,
    27,
    28,
    29,
    30,
    31,
    32,
    33,
    34,
    35,
    36,
    37,
    38,
    39,
    40,
    41,
    42,
    43,
    44,
    45,
    46,
    47,
    48,
    49,
    50,
    51,
    52,
    53,
    54,
    55,
    56,
    57,
    58,
    59,
    60,
    61,
    62,
    63,
    64,
    65,
    66,
    67,
    68,
    69,
    70,
    71,
    72,
    73,
    74,
    75,
    76,
    77,
    78,
    79,
    80,
    81,
    82,
    83,
    84,
    85,
    86,
    87,
    88,
    89,
    90,
    91,
    92,
    93,
    94,
    95,
    96,
    97,
    98,
    99,
    100,
    101,
    102,
    103,
    104,
    105,
    106,
    107,
    108,
    109,
    110,
    111,
    112,
    113,
    114,
    115,
    116,
    117,
    118,
    119,
    120,
    121,
    122,
    123,
    124,
    125,
    126,
    127,
    128,
    129,
    130,
    131,
    132,
    133,
    134,
    135,
    136,
    137,
    138,
    139,
    140,
    141,
    142,
    143,
    144,
    145,
    146,
    147,
    148,
    149,
    150,
    151,
    152,
    153,
    154,
    155,
    156,
    157,
    158,
    159,
    160,
    161,
    162,
    163,
    164,
    165,
    166,
    167,
    168,
    169,
    170,
    171,
    172,
    173,
    174,
    175,
    176,
    177,
    178,
    179,
    180,
    181,
    182,
    183,
    184,
    185,
    186,
    187,
    188,
    189,
    190,
    191,
    192,
    193,
    194,
    195,
    196,
    197,
    198,
    199,
    200,
    201,
    202,
    203,
    204,
    205,
    206,
    207,
    208,
    209,
    210,
    211,
    212,
    213,
    214,
    215,
    216,
    217,
    218,
    219,
    220,
    221,
    222,
    223,
    224,
    225,
    226,
    227,
    228,
    229,
    230,
    231,
    232,
    233,
    234,
    235,
    236,
    237,
    238,
    239,
    240,
    241,
    242,
    243,
    244,
    245,
    246,
    247,
    248,
    249,
    250,
    251,
    252,
    253,
    254,
    255,
    256
   ],
   "WindowCenter": [
    828.0,
    827.0,
    827.0,
    827.0,
    827.0,
    826.0,
    826.0,
    826.0,
    826.0,
    826.0,
    827.0,
    828.0,
    827.0,
    826.0,
    825.0,
    825.0,
    825.0,
    824.0,
    825.0,
    825.0,
    825.0,
    824.0,
    824.0,
    824.0,
    824.0,
    823.0,
    824.0,
    824.0,
    824.0,
    824.0,
    825.0,
    825.0,
    825.0,
    824.0,
    824.0,
    824.0,
    825.0,
    824.0,
    824.0,
    824.0,
    825.0,
    825.0,
    825.0,
    824.0,
    824.0,
    824.0,
    825.0,
    825.0,
    826.0,
    826.0,
    827.0,
    826.0,
    826.0,
    825.0,
    825.0,
    824.0,
    824.0,
    824.0,
    825.0,
    826.0,
    826.0,
    827.0,
    826.0,
    827.0,
    826.0,
    826.0,
    827.0,
    827.0,
    826.0,
    825.0,
    827.0,
    828.0,
    828.0,
    827.0,
    826.0,
    826.0,
    826.0,
    825.0,
    825.0,
    826.0,
    826.0,
    826.0,
    828.0,
    827.0,
    828.0,
    828.0,
    828.0,
    827.0,
    827.0,
    826.0,
    826.0,
    826.0,
    827.0,
    826.0,
    828.0,
    828.0,
    828.0,
    828.0,
    828.0,
    828.0,
    829.0,
    828.0,
    828.0,
    827.0,
    827.0,
    826.0,
    827.0,
    828.0,
    828.0,
    828.0,
    827.0,
    829.0,
    829.0,
    829.0,
    828.0,
    828.0,
    828.0,
    827.0,
    827.0,
    826.0,
    827.0,
    827.0,
    827.0,
    827.0,
    827.0,
    826.0,
    826.0,
    826.0,
    826.0,
    827.0,
    827.0,
    828.0,
    829.0,
    829.0,
    828.0,
    829.0,
    828.0,
    829.0,
    828.0,
    828.0,
    827.0,
    827.0,
    828.0,
    829.0,
    827.0,
    827.0,
    826.0,
    826.0,
    825.0,
    826.0,
    826.0,
    825.0,
    825.0,
    825.0,
    825.0,
    825.0,
    826.0,
    826.0,
    826.0,
    826.0,
    827.0,
    827.0,
    829.0,
    828.0,
    828.0,
    827.0,
    828.0,
    827.0,
    827.0,
    827.0,
    827.0,
    828.0,
    828.0,
    830.0,
    830.0,
    829.0,
    828.0,
    827.0,
    827.0,
    828.0,
    829.0,
    828.0,
    827.0,
    827.0,
    827.0,
    828.0,
    828.0,
    828.0,
    827.0,
    827.0,
    828.0,
    827.0,
    827.0,
    828.0,
    829.0,
    829.0,
    828.0,
    826.0,
    826.0,
    826.0,
    827.0,
    827.0,
    827.0,
    826.0,
    826.0,
    825.0,
    825.0,
    825.0,
    826.0,
    827.0,
    827.0,
    828.0,
    827.0,
    827.0,
    827.0,
    826.0,
    827.0,
    826.0,
    826.0,
    826.0,
    827.0,
    827.0,
    829.0,
    828.0,
    827.0,
    826.0,
    827.0,
    827.0,
    827.0,
    827.0,
    827.0,
    829.0,
    828.0,
    828.0,
    827.0,
    826.0,
    826.0,
    826.0,
    827.0,
    827.0,
    827.0,
    826.0,
    826.0,
    828.0,
    828.0,
    828.0,
    827.0,
    827.0,
    826.0,
    827.0,
    828.0,
    828.0,
    828.0,
    828.0,
    828.0,
    828.0
   ],
   "WindowWidth": [
    1816.0,
    1811.0,
    1811.0,
    1812.0,
    1811.0,
    1810.0,
    1810.0,
    1811.0,
    1809.0,
    1809.0,
    1812.0,
    1814.0,
    1811.0,
    1809.0,
    1806.0,
    1805.0,
    1805.0,
    1804.0,
    1806.0,
    1806.0,
    1806.0,
    1803.0,
    1805.0,
    1804.0,
    1805.0,
    1802.0,
    1803.0,
    1803.0,
    1805.0,
    1804.0,
    1806.0,
    1806.0,
    1805.0,
    1804.0,
    1804.0,
    1804.0,
    1805.0,
    1802.0,
    1802.0,
    1803.0,
    1805.0,
    1804.0,
    1805.0,
    1804.0,
    1804.0,
    1803.0,
    1805.0,
    1807.0,
    1810.0,
    1810.0,
    1812.0,
    1810.0,
    1809.0,
    1807.0,
    1807.0,
    1803.0,
    1803.0,
    1804.0,
    1807.0,
    1809.0,
    1809.0,
    1811.0,
    1809.0,
    1810.0,
    1808.0,
    1809.0,
    1811.0,
    1811.0,
    1809.0,
    1807.0,
    1812.0,
    1814.0,
    1815.0,
    1810.0,
    1809.0,
    1807.0,
    1807.0,
    1807.0,
    1807.0,
    1808.0,
    1807.0,
    1809.0,
    1813.0,
    1812.0,
    1814.0,
    1813.0,
    1813.0,
    1811.0,
    1809.0,
    1807.0,
    1808.0,
