{
  "AcquisitionMatrixPE": 100,
  "AcquisitionNumber": 1,
  "AcquisitionTime": "16:07:28.747500",
  "BandwidthPerPixelPhaseEncode": 18.519,
  "BaseResolution": 100,
  "BodyPartExamined": "BRAIN",
  "ConsistencyInfo": "N4_VE11C_LATEST_20160120",
  "ConversionSoftware": "dcm2niix",
  "ConversionSoftwareVersion": "v1.0.20180622 GCC4.9.2",
  "DerivedVendorReportedEchoSpacing": 0.000539986,
  "DeviceSerialNumber": "166078",
  "DwellTime": 2.1e-06,
  "EchoTime": 0.034,
  "EchoTrainLength": 100,
  "EffectiveEchoSpacing": 0.000539986,
  "FlipAngle": 90,
  "ImageOrientationPatientDICOM": [1, 0, 0, 0, 0.984503, -0.175367],
  "ImageType": [
    "ORIGINAL",
    "PRIMARY",
    "M",
    "ND",
    "MOSAIC"
],
  "InPlanePhaseEncodingDirectionDICOM": "COL",
  "InstitutionAddress": "Street_StreetNo_Bei_Jing_District_CN_ZIP",
  "InstitutionName": "BeiJing_Normal_University",
  "InstitutionalDepartmentName": "Department",
  "MRAcquisitionType": "2D",
  "MagneticFieldStrength": 3,
  "Manufacturer": "Siemens",
  "ManufacturersModelName": "Prisma",
  "Modality": "MR",
  "MultibandAccelerationFactor": 3,
  "PartialFourier": 1,
  "PatientPosition": "HFS",
  "PercentPhaseFOV": 100,
  "PhaseEncodingDirection": "j-",
  "PhaseEncodingSteps": 100,
  "PhaseResolution": 1,
  "PixelBandwidth": 2380,
  "ProcedureStepDescription": "BNU_P2018_64CH_Zhen.ZongLei",
  "ProtocolName": "bold_100x100_s3_2x2x2_static_256",
  "PulseSequenceDetails": "%SiemensSeq%_ep2d_bold",
  "ReceiveCoilActiveElements": "HC1-7;NC1",
  "ReceiveCoilName": "HeadNeck_64",
  "ReconMatrixPE": 100,
  "RepetitionTime": 2,
  "SAR": 0.0827032,
  "ScanOptions": "FS",
  "ScanningSequence": "EP",
  "SequenceName": "_epfid2d1_100",
  "SequenceVariant": "SK",
  "SeriesDescription": "bold_100x100_s3_2x2x2_static_256",
  "SeriesNumber": 7,
  "ShimSetting": [-5460, -11523, -1298, 523, -63, -248, 32, 27],
  "SliceThickness": 2,
  "SliceTiming": [1.4825, 0, 0.9875, 0.0825, 1.07, 0.165, 1.1525, 0.2475, 1.235, 0.3275, 1.3175, 0.41, 1.4, 0.575, 1.565, 0.6575, 1.6475, 0.74, 1.73, 0.8225, 1.8125, 0.905, 1.895, 0.4925, 1.4825, 0, 0.9875, 0.0825, 1.07, 0.165, 1.1525, 0.2475, 1.235, 0.3275, 1.3175, 0.41, 1.4, 0.575, 1.565, 0.6575, 1.6475, 0.74, 1.73, 0.8225, 1.8125, 0.905, 1.895, 0.4925, 1.4825, 0, 0.9875, 0.0825, 1.07, 0.165, 1.1525, 0.2475, 1.235, 0.3275, 1.3175, 0.41, 1.4, 0.575, 1.565, 0.6575, 1.6475, 0.74, 1.73, 0.8225, 1.8125, 0.905, 1.895, 0.4925],
  "SoftwareVersions": "syngo_MR_E11",
  "SpacingBetweenSlices": 2,
  "StationName": "AWP166078",
  "TaskName": "naturalvision",
  "TotalReadoutTime": 0.0534586,
  "TxRefAmp": 233.216,
  "dcmmeta_affine": [
    [-2.0, 0.0, 0.0, 100.0],
    [0.0, 1.9690064191818237, -0.3507334589958191, -79.95763397216797],
    [0.0, 0.3507334589958191, 1.9690064191818237, -94.60140228271484],
    [0.0, 0.0, 0.0, 1.0]
],
  "dcmmeta_reorient_transform": [
    [0.0, -1.0, 0.0, 99.0],
    [1.0, 0.0, 0.0, 0.0],
    [0.0, 0.0, 1.0, 0.0],
    [0.0, 0.0, 0.0, 1.0]
],
  "dcmmeta_shape": [100, 100, 72, 256],
  "dcmmeta_slice_dim": 2,
  "dcmmeta_version": 0.6,
  "global": {
    "const": {
      "AcquisitionMatrix": [100, 0, 0, 100],
      "AngioFlag": "N",
      "BitsAllocated": 16,
      "BitsStored": 12,
      "BodyPartExamined": "BRAIN",
      "Columns": 900,
      "EchoNumbers": 1,
      "EchoTime": 34.0,
      "EchoTrainLength": 100,
      "FlipAngle": 90.0,
      "HighBit": 11,
      "ImageOrientationPatient": [1.0, 0.0, 0.0, 0.0, 0.98450318022485, -0.1753667246862],
      "ImagePositionPatient": [-900.0, -902.57653812094, 80.414585908977],
      "ImageType": [
        "ORIGINAL",
        "PRIMARY",
        "M",
        "ND",
        "MOSAIC"
],
      "ImagedNucleus": "1H",
      "ImagingFrequency": 123.257735,
      "InPlanePhaseEncodingDirection": "COL",
      "MRAcquisitionType": "2D",
      "MagneticFieldStrength": 3.0,
      "Manufacturer": "SIEMENS",
      "ManufacturerModelName": "Prisma",
      "Modality": "MR",
      "NumberOfAverages": 1.0,
      "NumberOfPhaseEncodingSteps": 100,
      "PercentPhaseFieldOfView": 100.0,
      "PercentSampling": 100.0,
      "PerformedProcedureStepStartTime": "151825.186000",
      "PhotometricInterpretation": "MONOCHROME2",
      "PixelBandwidth": 2380.0,
      "PixelRepresentation": 0,
      "PixelSpacing": [2.0, 2.0],
      "ProtocolName": "bold_100x100_s3_2x2x2_static_256",
      "RepetitionTime": 2000.0,
      "Rows": 900,
      "SAR": 0.08270318131158,
      "SamplesPerPixel": 1,
      "ScanOptions": "FS",
      "ScanningSequence": "EP",
      "SequenceName": "*epfid2d1_100",
      "SequenceVariant": "SK",
      "SeriesDescription": "bold_100x100_s3_2x2x2_static_256",
      "SeriesNumber": 7,
      "SeriesTime": "160731.353000",
      "SliceLocation": -79.113475705017,
      "SliceThickness": 2.0,
      "SmallestImagePixelValue": 0,
      "SoftwareVersions": "syngo MR E11",
      "SpacingBetweenSlices": 2.0000000271395,
      "SpecificCharacterSet": "ISO_IR 100",
      "StudyID": "1",
      "StudyTime": "151825.122000",
      "TransmitCoilName": "Body",
      "VariableFlipAngleFlag": "N",
      "WindowCenterWidthExplanation": "Algo1",
      "dBdt": 0.0},
    "slices": {}
  },
  "time": {
    "samples": {
      "AcquisitionNumber": [1, 2, 3, 4, 5, 6, 7, 8, 9, 10, 11, 12, 13, 14, 15, 16, 17, 18, 19, 20, 21, 22, 23, 24, 25, 26, 27, 28, 29, 30, 31, 32, 33, 34, 35, 36, 37, 38, 39, 40, 41, 42, 43, 44, 45, 46, 47, 48, 49, 50, 51, 52, 53, 54, 55, 56, 57, 58, 59, 60, 61, 62, 63, 64, 65, 66, 67, 68, 69, 70, 71, 72, 73, 74, 75, 76, 77, 78, 79, 80, 81, 82, 83, 84, 85, 86, 87, 88, 89, 90, 91, 92, 93, 94, 95, 96, 97, 98, 99, 100, 101, 102, 103, 104, 105, 106, 107, 108, 109, 110, 111, 112, 113, 114, 115, 116, 117, 118, 119, 120, 121, 122, 123, 124, 125, 126, 127, 128, 129, 130, 131, 132, 133, 134, 135, 136, 137, 138, 139, 140, 141, 142, 143, 144, 145, 146, 147, 148, 149, 150, 151, 152, 153, 154, 155, 156, 157, 158, 159, 160, 161, 162, 163, 164, 165, 166, 167, 168, 169, 170, 171, 172, 173, 174, 175, 176, 177, 178, 179, 180, 181, 182, 183, 184, 185, 186, 187, 188, 189, 190, 191, 192, 193, 194, 195, 196, 197, 198, 199, 200, 201, 202, 203, 204, 205, 206, 207, 208, 209, 210, 211, 212, 213, 214, 215, 216, 217, 218, 219, 220, 221, 222, 223, 224, 225, 226, 227, 228, 229, 230, 231, 232, 233, 234, 235, 236, 237, 238, 239, 240, 241, 242, 243, 244, 245, 246, 247, 248, 249, 250, 251, 252, 253, 254, 255, 256],
      "AcquisitionTime": ["160728.747500", "160730.747500", "160732.747500", "160734.747500", "160736.747500", "160738.747500", "160740.747500", "160742.747500", "160744.747500", "160746.747500", "160748.747500", "160750.747500", "160752.747500", "160754.747500", "160756.747500", "160758.747500", "160800.747500", "160802.747500", "160804.747500", "160806.747500", "160808.747500", "160810.747500", "160812.747500", "160814.747500", "160816.747500", "160818.747500", "160820.747500", "160822.747500", "160824.747500", "160826.747500", "160828.747500", "160830.747500", "160832.747500", "160834.747500", "160836.747500", "160838.747500", "160840.747500", "160842.747500", "160844.747500", "160846.747500", "160848.747500", "160850.747500", "160852.747500", "160854.747500", "160856.747500", "160858.747500", "160900.747500", "160902.747500", "160904.747500", "160906.747500", "160908.747500", "160910.747500", "160912.747500", "160914.747500", "160916.747500", "160918.747500", "160920.747500", "160922.747500", "160924.747500", "160926.747500", "160928.747500", "160930.747500", "160932.747500", "160934.747500", "160936.747500", "160938.747500", "160940.747500", "160942.747500", "160944.747500", "160946.747500", "160948.747500", "160950.747500", "160952.747500", "160954.747500", "160956.747500", "160958.747500", "161000.747500", "161002.747500", "161004.747500", "161006.747500", "161008.747500", "161010.747500", "161012.747500", "161014.747500", "161016.747500", "161018.747500", "161020.747500", "161022.747500", "161024.747500", "161026.747500", "161028.747500", "161030.747500", "161032.747500", "161034.747500", "161036.747500", "161038.747500", "161040.747500", "161042.747500", "161044.747500", "161046.747500", "161048.747500", "161050.747500", "161052.747500", "161054.747500", "161056.747500", "161058.747500", "161100.747500", "161102.747500", "161104.747500", "161106.747500", "161108.747500", "161110.747500", "161112.747500", "161114.747500", "161116.747500", "161118.747500", "161120.747500", "161122.747500", "161124.747500", "161126.747500", "161128.747500", "161130.747500", "161132.747500", "161134.747500", "161136.747500", "161138.747500", "161140.747500", "161142.747500", "161144.747500", "161146.747500", "161148.747500", "161150.747500", "161152.747500", "161154.747500", "161156.747500", "161158.747500", "161200.747500", "161202.747500", "161204.747500", "161206.747500", "161208.747500", "161210.747500", "161212.747500", "161214.747500", "161216.747500", "161218.747500", "161220.747500", "161222.747500", "161224.747500", "161226.747500", "161228.747500", "161230.747500", "161232.747500", "161234.747500", "161236.747500", "161238.747500", "161240.747500", "161242.747500", "161244.747500", "161246.747500", "161248.747500", "161250.747500", "161252.747500", "161254.747500", "161256.747500", "161258.747500", "161300.747500", "161302.747500", "161304.747500", "161306.747500", "161308.747500", "161310.747500", "161312.747500", "161314.747500", "161316.747500", "161318.747500", "161320.747500", "161322.747500", "161324.747500", "161326.747500", "161328.747500", "161330.747500", "161332.747500", "161334.747500", "161336.747500", "161338.747500", "161340.747500", "161342.747500", "161344.747500", "161346.747500", "161348.747500", "161350.747500", "161352.747500", "161354.747500", "161356.747500", "161358.747500", "161400.747500", "161402.747500", "161404.747500", "161406.747500", "161408.747500", "161410.747500", "161412.747500", "161414.747500", "161416.747500", "161418.747500", "161420.747500", "161422.747500", "161424.747500", "161426.747500", "161428.747500", "161430.747500", "161432.747500", "161434.747500", "161436.747500", "161438.747500", "161440.747500", "161442.747500", "161444.747500", "161446.747500", "161448.747500", "161450.747500", "161452.747500", "161454.747500", "161456.747500", "161458.747500", "161500.747500", "161502.747500", "161504.747500", "161506.747500", "161508.747500", "161510.747500", "161512.747500", "161514.747500", "161516.747500", "161518.747500", "161520.747500", "161522.747500", "161524.747500", "161526.747500", "161528.747500", "161530.747500", "161532.747500", "161534.747500", "161536.747500", "161538.747500", "161540.747500", "161542.747500", "161544.747500", "161546.747500", "161548.747500", "161550.747500", "161552.747500", "161554.747500", "161556.747500", "161558.747500"],
      "ContentTime": ["160731.356000", "160732.852000", "160734.851000", "160736.852000", "160738.852000", "160740.852000", "160742.851000", "160744.852000", "160746.852000", "160748.852000", "160750.852000", "160752.852000", "160754.852000", "160756.852000", "160758.852000", "160800.851000", "160802.852000", "160804.852000", "160806.852000", "160808.851000", "160810.851000", "160812.852000", "160814.851000", "160816.852000", "160818.851000", "160820.851000", "160822.852000", "160824.851000", "160826.852000", "160828.851000", "160830.852000", "160832.852000", "160834.852000", "160836.851000", "160838.851000", "160840.851000", "160842.851000", "160844.851000", "160846.851000", "160848.851000", "160850.852000", "160852.851000", "160854.851000", "160856.852000", "160858.851000", "160900.851000", "160902.852000", "160904.852000", "160906.852000", "160908.852000", "160910.852000", "160912.852000", "160914.852000", "160916.852000", "160918.852000", "160920.852000", "160922.851000", "160924.852000", "160926.852000", "160928.851000", "160930.851000", "160932.851000", "160934.852000", "160936.851000", "160938.852000", "160940.852000", "160942.852000", "160944.851000", "160946.851000", "160948.852000", "160950.852000", "160952.851000", "160954.851000", "160956.852000", "160958.851000", "161000.852000", "161002.851000", "161004.852000", "161006.852000", "161008.851000", "161010.852000", "161012.852000", "161014.851000", "161016.852000", "161018.852000", "161020.852000", "161022.851000", "161024.852000", "161026.852000", "161028.852000", "161030.851000", "161032.852000", "161034.852000", "161036.851000", "161038.851000", "161040.852000", "161042.851000", "161044.852000", "161046.851000", "161048.852000", "161050.851000", "161052.852000", "161054.852000", "161056.851000", "161058.852000", "161100.852000", "161102.851000", "161104.852000", "161106.852000", "161108.852000", "161110.852000", "161112.852000", "161114.852000", "161116.852000", "161118.851000", "161120.852000", "161122.852000", "161124.852000", "161126.852000", "161128.851000", "161130.852000", "161132.852000", "161134.852000", "161136.852000", "161138.852000", "161140.851000", "161142.852000", "161144.852000", "161146.851000", "161148.851000", "161150.851000", "161152.852000", "161154.851000", "161156.851000", "161158.851000", "161200.851000", "161202.852000", "161204.852000", "161206.851000", "161208.852000", "161210.852000", "161212.851000", "161214.851000", "161216.851000", "161218.851000", "161220.852000", "161222.851000", "161224.852000", "161226.851000", "161228.852000", "161230.852000", "161232.851000", "161234.851000", "161236.852000", "161238.851000", "161240.852000", "161242.851000", "161244.851000", "161246.851000", "161248.852000", "161250.851000", "161252.851000", "161254.852000", "161256.852000", "161258.852000", "161300.852000", "161302.851000", "161304.851000", "161306.851000", "161308.852000", "161310.852000", "161312.852000", "161314.852000", "161316.851000", "161318.852000", "161320.852000", "161322.852000", "161324.851000", "161326.852000", "161328.852000", "161330.852000", "161332.851000", "161334.851000", "161336.851000", "161338.852000", "161340.852000", "161342.852000", "161344.852000", "161346.852000", "161348.852000", "161350.852000", "161352.851000", "161354.851000", "161356.852000", "161358.852000", "161400.851000", "161402.851000", "161404.852000", "161406.866000", "161408.851000", "161410.851000", "161412.852000", "161414.851000", "161416.852000", "161418.852000", "161420.851000", "161422.852000", "161424.852000", "161426.852000", "161428.852000", "161430.852000", "161432.852000", "161434.852000", "161436.852000", "161438.852000", "161440.851000", "161442.852000", "161444.852000", "161446.852000", "161448.851000", "161450.852000", "161452.851000", "161454.851000", "161456.851000", "161458.851000", "161500.851000", "161502.852000", "161504.851000", "161506.851000", "161508.851000", "161510.851000", "161512.852000", "161514.852000", "161516.852000", "161518.853000", "161520.852000", "161522.852000", "161524.852000", "161526.852000", "161528.852000", "161530.852000", "161532.852000", "161534.852000", "161536.852000", "161538.852000", "161540.852000", "161542.852000", "161544.851000", "161546.852000", "161548.852000", "161550.851000", "161552.851000", "161554.852000", "161556.852000", "161558.852000", "161600.550000"],
      "InstanceCreationTime": ["160731.356000", "160732.852000", "160734.851000", "160736.852000", "160738.852000", "160740.852000", "160742.851000", "160744.852000", "160746.852000", "160748.852000", "160750.852000", "160752.852000", "160754.852000", "160756.852000", "160758.852000", "160800.851000", "160802.852000", "160804.852000", "160806.852000", "160808.851000", "160810.851000", "160812.852000", "160814.851000", "160816.852000", "160818.851000", "160820.851000", "160822.852000", "160824.851000", "160826.852000", "160828.851000", "160830.852000", "160832.852000", "160834.852000", "160836.851000", "160838.851000", "160840.851000", "160842.851000", "160844.851000", "160846.851000", "160848.851000", "160850.852000", "160852.851000", "160854.851000", "160856.852000", "160858.851000", "160900.851000", "160902.852000", "160904.852000", "160906.852000", "160908.852000", "160910.852000", "160912.852000", "160914.852000", "160916.852000", "160918.852000", "160920.852000", "160922.851000", "160924.852000", "160926.852000", "160928.851000", "160930.851000", "160932.851000", "160934.852000", "160936.851000", "160938.852000", "160940.852000", "160942.852000", "160944.851000", "160946.851000", "160948.852000", "160950.852000", "160952.851000", "160954.851000", "160956.852000", "160958.851000", "161000.852000", "161002.851000", "161004.852000", "161006.852000", "161008.851000", "161010.852000", "161012.852000", "161014.851000", "161016.852000", "161018.852000", "161020.852000", "161022.851000", "161024.852000", "161026.852000", "161028.852000", "161030.851000", "161032.852000", "161034.852000", "161036.851000", "161038.851000", "161040.852000", "161042.851000", "161044.852000", "161046.851000", "161048.852000", "161050.851000", "161052.852000", "161054.852000", "161056.851000", "161058.852000", "161100.852000", "161102.851000", "161104.852000", "161106.852000", "161108.852000", "161110.852000", "161112.852000", "161114.852000", "161116.852000", "161118.851000", "161120.852000", "161122.852000", "161124.852000", "161126.852000", "161128.851000", "161130.852000", "161132.852000", "161134.852000", "161136.852000", "161138.852000", "161140.851000", "161142.852000", "161144.852000", "161146.851000", "161148.851000", "161150.851000", "161152.852000", "161154.851000", "161156.851000", "161158.851000", "161200.851000", "161202.852000", "161204.852000", "161206.851000", "161208.852000", "161210.852000", "161212.851000", "161214.851000", "161216.851000", "161218.851000", "161220.852000", "161222.851000", "161224.852000", "161226.851000", "161228.852000", "161230.852000", "161232.851000", "161234.851000", "161236.852000", "161238.851000", "161240.852000", "161242.851000", "161244.851000", "161246.851000", "161248.852000", "161250.851000", "161252.851000", "161254.852000", "161256.852000", "161258.852000", "161300.852000", "161302.851000", "161304.851000", "161306.851000", "161308.852000", "161310.852000", "161312.852000", "161314.852000", "161316.851000", "161318.852000", "161320.852000", "161322.852000", "161324.851000", "161326.852000", "161328.852000", "161330.852000", "161332.851000", "161334.851000", "161336.851000", "161338.852000", "161340.852000", "161342.852000", "161344.852000", "161346.852000", "161348.852000", "161350.852000", "161352.851000", "161354.851000", "161356.852000", "161358.852000", "161400.851000", "161402.851000", "161404.852000", "161406.866000", "161408.851000", "161410.851000", "161412.852000", "161414.851000", "161416.852000", "161418.852000", "161420.851000", "161422.852000", "161424.852000", "161426.852000", "161428.852000", "161430.852000", "161432.852000", "161434.852000", "161436.852000", "161438.852000", "161440.851000", "161442.852000", "161444.852000", "161446.852000", "161448.851000", "161450.852000", "161452.851000", "161454.851000", "161456.851000", "161458.851000", "161500.851000", "161502.852000", "161504.851000", "161506.851000", "161508.851000", "161510.851000", "161512.852000", "161514.852000", "161516.852000", "161518.853000", "161520.852000", "161522.852000", "161524.852000", "161526.852000", "161528.852000", "161530.852000", "161532.852000", "161534.852000", "161536.852000", "161538.852000", "161540.852000", "161542.852000", "161544.851000", "161546.852000", "161548.852000", "161550.851000", "161552.851000", "161554.852000", "161556.852000", "161558.852000", "161600.550000"],
      "InstanceNumber": [1, 2, 3, 4, 5, 6, 7, 8, 9, 10, 11, 12, 13, 14, 15, 16, 17, 18, 19, 20, 21, 22, 23, 24, 25, 26, 27, 28, 29, 30, 31, 32, 33, 34, 35, 36, 37, 38, 39, 40, 41, 42, 43, 44, 45, 46, 47, 48, 49, 50, 51, 52, 53, 54, 55, 56, 57, 58, 59, 60, 61, 62, 63, 64, 65, 66, 67, 68, 69, 70, 71, 72, 73, 74, 75, 76, 77, 78, 79, 80, 81, 82, 83, 84, 85, 86, 87, 88, 89, 90, 91, 92, 93, 94, 95, 96, 97, 98, 99, 100, 101, 102, 103, 104, 105, 106, 107, 108, 109, 110, 111, 112, 113, 114, 115, 116, 117, 118, 119, 120, 121, 122, 123, 124, 125, 126, 127, 128, 129, 130, 131, 132, 133, 134, 135, 136, 137, 138, 139, 140, 141, 142, 143, 144, 145, 146, 147, 148, 149, 150, 151, 152, 153, 154, 155, 156, 157, 158, 159, 160, 161, 162, 163, 164, 165, 166, 167, 168, 169, 170, 171, 172, 173, 174, 175, 176, 177, 178, 179, 180, 181, 182, 183, 184, 185, 186, 187, 188, 189, 190, 191, 192, 193, 194, 195, 196, 197, 198, 199, 200, 201, 202, 203, 204, 205, 206, 207, 208, 209, 210, 211, 212, 213, 214, 215, 216, 217, 218, 219, 220, 221, 222, 223, 224, 225, 226, 227, 228, 229, 230, 231, 232, 233, 234, 235, 236, 237, 238, 239, 240, 241, 242, 243, 244, 245, 246, 247, 248, 249, 250, 251, 252, 253, 254, 255, 256],
      "LargestImagePixelValue": [2706, 2663, 2683, 2663, 2664, 2687, 2667, 2678, 2675, 2600, 2626, 2630, 2660, 2647, 2650, 2641, 2695, 2657, 2669, 2620, 2692, 2672, 2674, 2627, 2635, 2621, 2636, 2636, 2646, 2655, 2623, 2642, 2648, 2653, 2678, 2652, 2647, 2633, 2615, 2627, 2636, 2630, 2652, 2638, 2652, 2679, 2643, 2618, 2631, 2596, 2667, 2613, 2640, 2625, 2622, 2635, 2639, 2617, 2656, 2641, 2648, 2661, 2619, 2644, 2601, 2637, 2630, 2632, 2637, 2645, 2635, 2620, 2636, 2644, 2649, 2641, 2646, 2622, 2629, 2639, 2678, 2650, 2658, 2623, 2596, 2620, 2618, 2653, 2683, 2651, 2634, 2635, 2702, 2653, 2645, 2639, 2615, 2570, 2601, 2650, 2662, 2654, 2671, 2660, 2640, 2691, 2690, 2632, 2703, 2630, 2659, 2646, 2615, 2650, 2648, 2660, 2708, 2613, 2604, 2610, 2633, 2626, 2598, 2610, 2587, 2660, 2677, 2664, 2599, 2627, 2616, 2669, 2651, 2690, 2663, 2658, 2691, 2653, 2629, 2632, 2605, 2579, 2659, 2636, 2676, 2674, 2657, 2671, 2649, 2683, 2692, 2670, 2692, 2645, 2666, 2638, 2675, 2636, 2603, 2666, 2685, 2648, 2672, 2648, 2699, 2642, 2700, 2641, 2603, 2642, 2646, 2632, 2639, 2651, 2637, 2627, 2670, 2697, 2678, 2653, 2664, 2649, 2663, 2653, 2646, 2688, 2660, 2671, 2679, 2675, 2652, 2672, 2653, 2629, 2635, 2603, 2666, 2656, 2673, 2668, 2626, 2670, 2657, 2673, 2674, 2661, 2648, 2624, 2623, 2644, 2623, 2681, 2662, 2669, 2648, 2630, 2664, 2626, 2674, 2660, 2673, 2643, 2627, 2709, 2664, 2658, 2695, 2609, 2637, 2613, 2650, 2620, 2650, 2620, 2664, 2618, 2671, 2651, 2655, 2668, 2639, 2582, 2650, 2611, 2656, 2669, 2679, 2692, 2618, 2663, 2689, 2680, 2632, 2641, 2630, 2681],
      "WindowCenter": [732.0, 733.0, 733.0, 733.0, 732.0, 731.0, 732.0, 732.0, 731.0, 731.0, 731.0, 730.0, 730.0, 730.0, 731.0, 732.0, 732.0, 731.0, 731.0, 731.0, 732.0, 732.0, 732.0, 731.0, 730.0, 729.0, 730.0, 730.0, 730.0, 730.0, 730.0, 731.0, 731.0, 732.0, 732.0, 732.0, 731.0, 731.0, 731.0, 731.0, 730.0, 731.0, 731.0, 731.0, 731.0, 730.0, 730.0, 730.0, 730.0, 731.0, 731.0, 731.0, 732.0, 732.0, 732.0, 730.0, 730.0, 731.0, 732.0, 732.0, 732.0, 733.0, 732.0, 732.0, 730.0, 730.0, 731.0, 731.0, 731.0, 731.0, 731.0, 731.0, 732.0, 733.0, 733.0, 732.0, 731.0, 731.0, 732.0, 733.0, 733.0, 733.0, 733.0, 732.0, 731.0, 732.0, 733.0, 732.0, 732.0, 731.0, 732.0, 733.0, 733.0, 731.0, 731.0, 731.0, 731.0, 730.0, 732.0, 735.0, 735.0, 733.0, 732.0, 731.0, 731.0, 732.0, 732.0, 731.0, 731.0, 731.0, 732.0, 731.0, 731.0, 731.0, 731.0, 732.0, 731.0, 730.0, 730.0, 732.0, 733.0, 732.0, 731.0, 732.0, 733.0, 734.0, 733.0, 732.0, 731.0, 732.0, 734.0, 735.0, 734.0, 733.0, 732.0, 731.0, 732.0, 732.0, 731.0, 730.0, 729.0, 731.0, 735.0, 735.0, 734.0, 733.0, 732.0, 732.0, 731.0, 732.0, 733.0, 733.0, 733.0, 730.0, 730.0, 733.0, 733.0, 730.0, 731.0, 732.0, 732.0, 730.0, 731.0, 731.0, 731.0, 730.0, 731.0, 730.0, 730.0, 731.0, 732.0, 732.0, 730.0, 730.0, 729.0, 729.0, 729.0, 730.0, 731.0, 732.0, 731.0, 729.0, 731.0, 730.0, 729.0, 729.0, 729.0, 729.0, 729.0, 730.0, 730.0, 730.0, 729.0, 727.0, 728.0, 728.0, 730.0, 731.0, 730.0, 730.0, 730.0, 731.0, 732.0, 732.0, 732.0, 731.0, 731.0, 731.0, 731.0, 731.0, 731.0, 733.0, 733.0, 731.0, 731.0, 732.0, 732.0, 733.0, 733.0, 733.0, 732.0, 730.0, 729.0, 731.0, 730.0, 729.0, 730.0, 729.0, 730.0, 729.0, 730.0, 731.0, 731.0, 730.0, 730.0, 731.0, 733.0, 732.0, 731.0, 731.0, 731.0, 731.0, 733.0, 732.0, 732.0, 731.0, 731.0, 730.0, 730.0, 732.0, 732.0, 730.0, 731.0, 731.0, 732.0, 732.0],
      "WindowWidth": [1557.0, 1558.0, 1560.0, 1558.0, 1555.0, 1555.0, 1556.0, 1556.0, 1554.0, 1554.0, 1554.0, 1552.0, 1552.0, 1551.0, 1554.0, 1556.0, 1557.0, 1554.0, 1554.0, 1553.0, 1556.0, 1556.0, 1556.0, 1554.0, 1553.0, 1551.0, 1551.0, 1551.0, 1552.0, 1552.0, 1551.0, 1554.0, 1554.0, 1556.0, 1557.0, 1556.0, 1554.0, 1554.0, 1554.0, 1554.0, 1552.0, 1554.0, 1555.0, 1555.0, 1555.0, 1553.0, 1552.0, 1552.0, 1553.0, 1554.0, 1555.0, 1555.0, 1557.0, 1558.0, 1556.0, 1553.0, 1553.0, 1554.0, 1558.0, 1558.0, 1558.0, 1558.0, 1558.0, 1557.0, 1553.0, 1552.0, 1554.0, 1554.0, 1554.0, 1554.0, 1555.0, 1555.0, 1556.0, 1560.0, 1559.0, 1557.0, 1555.0, 1555.0, 1556.0, 1560.0, 1560.0, 1558.0, 1559.0, 1557.0, 1554.0, 1556.0, 1559.0, 1557.0, 1555.0, 1555.0, 1558.0, 1559.0, 1559.0, 1554.0, 1553.0, 1555.0, 1554.0, 1553.0, 1558.0, 1565.0, 1565.0, 1560.0, 1557.0, 1555.0, 1554.0, 1556.0, 1556.0, 1555.0, 1555.0, 1554.0, 1556.0, 1555.0, 1553.0, 1555.0, 1555.0, 1556.0, 1555.0, 1552.0, 1552.0, 1557.0, 1559.0, 1557.0, 1555.0, 1557.0, 1559.0, 1562.0, 1558.0, 1555.0, 1554.0, 1558.0, 1562.0, 1563.0, 1561.0, 1559.0, 1556.0, 1555.0, 1556.0, 1556.0, 1555.0, 1552.0, 1549.0, 1554.0, 1564.0, 1565.0, 1562.0, 1558.0, 1557.0, 1556.0, 1555.0, 1556.0, 1558.0, 1559.0, 1557.0, 1550.0, 1553.0, 1559.0, 1558.0, 1552.0, 1553.0, 1555.0, 1555.0, 1551.0, 1552.0, 1554.0, 1554.0, 1552.0, 1554.0, 1552.0, 1551.0, 1554.0, 1557.0, 1557.0, 1551.0, 1550.0, 1548.0, 1549.0, 1549.0, 1551.0, 1554.0, 1555.0, 1553.0, 1550.0, 1553.0, 1551.0, 1549.0, 1549.0, 1549.0, 1549.0, 1548.0, 1550.0, 1552.0, 1550.0, 1548.0, 1545.0, 1545.0, 1547.0, 1552.0, 1553.0, 1552.0, 1551.0, 1551.0, 1554.0, 1557.0, 1557.0, 1556.0, 1554.0, 1554.0, 1553.0, 1553.0, 1554.0, 1555.0, 1560.0, 1558.0, 1554.0, 1554.0, 1556.0, 1558.0, 1559.0, 1560.0, 1560.0, 1555.0, 1551.0, 1550.0, 1553.0, 1551.0, 1550.0, 1551.0, 1550.0, 1551.0, 1549.0, 1552.0, 1553.0, 1555.0, 1552.0, 1551.0, 1554.0, 1558.0, 1555.0, 1553.0, 1554.0, 1555.0, 1555.0, 1558.0, 1558.0, 1557.0, 1554.0, 1553.0, 1552.0, 1552.0, 1557.0, 1557.0, 1552.0, 1553.0, 1555.0, 1557.0, 1557.0]
    },
    "slices": {}
  }
}