{
 "AcquisitionMatrixPE": 100,
 "AcquisitionNumber": 1,
 "AcquisitionTime": "15:46:44.485000",
 "BandwidthPerPixelPhaseEncode": 18.519,
 "BaseResolution": 100,
 "BodyPartExamined": "BRAIN",
 "ConsistencyInfo": "N4_VE11C_LATEST_20160120",
 "ConversionSoftware": "dcm2niix",
 "ConversionSoftwareVersion": "v1.0.20180622 GCC4.9.2",
 "DerivedVendorReportedEchoSpacing": 0.000539986,
 "DeviceSerialNumber": "166078",
 "DwellTime": 2.1e-06,
 "EchoTime": 0.034,
 "EchoTrainLength": 100,
 "EffectiveEchoSpacing": 0.000539986,
 "FlipAngle": 90,
 "ImageOrientationPatientDICOM": [
  1,
  0,
  0,
  0,
  0.984503,
  -0.175367
 ],
 "ImageType": [
  "ORIGINAL",
  "PRIMARY",
  "M",
  "ND",
  "MOSAIC"
 ],
 "InPlanePhaseEncodingDirectionDICOM": "COL",
 "InstitutionAddress": "Street_StreetNo_Bei_Jing_District_CN_ZIP",
 "InstitutionName": "BeiJing_Normal_University",
 "InstitutionalDepartmentName": "Department",
 "MRAcquisitionType": "2D",
 "MagneticFieldStrength": 3,
 "Manufacturer": "Siemens",
 "ManufacturersModelName": "Prisma",
 "Modality": "MR",
 "MultibandAccelerationFactor": 3,
 "PartialFourier": 1,
 "PatientPosition": "HFS",
 "PercentPhaseFOV": 100,
 "PhaseEncodingDirection": "j-",
 "PhaseEncodingSteps": 100,
 "PhaseResolution": 1,
 "PixelBandwidth": 2380,
 "ProcedureStepDescription": "BNU_P2018_64CH_Zhen.ZongLei",
 "ProtocolName": "bold_100x100_s3_2x2x2_static_256",
 "PulseSequenceDetails": "%SiemensSeq%_ep2d_bold",
 "ReceiveCoilActiveElements": "HC1-7;NC1",
 "ReceiveCoilName": "HeadNeck_64",
 "ReconMatrixPE": 100,
 "RepetitionTime": 2,
 "SAR": 0.0827032,
 "ScanOptions": "FS",
 "ScanningSequence": "EP",
 "SequenceName": "_epfid2d1_100",
 "SequenceVariant": "SK",
 "SeriesDescription": "bold_100x100_s3_2x2x2_static_256",
 "SeriesNumber": 5,
 "ShimSetting": [
  -5460,
  -11523,
  -1298,
  523,
  -63,
  -248,
  32,
  27
 ],
 "SliceThickness": 2,
 "SliceTiming": [
  1.485,
  0,
  0.99,
  0.0825,
  1.0725,
  0.165,
  1.155,
  0.2475,
  1.2375,
  0.33,
  1.32,
  0.4125,
  1.4025,
  0.5775,
  1.5675,
  0.66,
  1.65,
  0.7425,
  1.7325,
  0.825,
  1.815,
  0.9075,
  1.8975,
  0.495,
  1.485,
  0,
  0.99,
  0.0825,
  1.0725,
  0.165,
  1.155,
  0.2475,
  1.2375,
  0.33,
  1.32,
  0.4125,
  1.4025,
  0.5775,
  1.5675,
  0.66,
  1.65,
  0.7425,
  1.7325,
  0.825,
  1.815,
  0.9075,
  1.8975,
  0.495,
  1.485,
  0,
  0.99,
  0.0825,
  1.0725,
  0.165,
  1.155,
  0.2475,
  1.2375,
  0.33,
  1.32,
  0.4125,
  1.4025,
  0.5775,
  1.5675,
  0.66,
  1.65,
  0.7425,
  1.7325,
  0.825,
  1.815,
  0.9075,
  1.8975,
  0.495
 ],
 "SoftwareVersions": "syngo_MR_E11",
 "SpacingBetweenSlices": 2,
 "StationName": "AWP166078",
 "TaskName": "imagenet",
 "TotalReadoutTime": 0.0534586,
 "TxRefAmp": 233.216,
 "dcmmeta_affine": [
  [
   -2.0,
   0.0,
   0.0,
   100.0
  ],
  [
   0.0,
   1.9690064191818237,
   -0.3507334589958191,
   -79.95763397216797
  ],
  [
   0.0,
   0.3507334589958191,
   1.9690064191818237,
   -94.60140228271484
  ],
  [
   0.0,
   0.0,
   0.0,
   1.0
  ]
 ],
 "dcmmeta_reorient_transform": [
  [
   0.0,
   -1.0,
   0.0,
   99.0
  ],
  [
   1.0,
   0.0,
   0.0,
   0.0
  ],
  [
   0.0,
   0.0,
   1.0,
   0.0
  ],
  [
   0.0,
   0.0,
   0.0,
   1.0
  ]
 ],
 "dcmmeta_shape": [
  100,
  100,
  72,
  256
 ],
 "dcmmeta_slice_dim": 2,
 "dcmmeta_version": 0.6,
 "global": {
  "const": {
   "AcquisitionMatrix": [
    100,
    0,
    0,
    100
   ],
   "AngioFlag": "N",
   "BitsAllocated": 16,
   "BitsStored": 12,
   "BodyPartExamined": "BRAIN",
   "Columns": 900,
   "EchoNumbers": 1,
   "EchoTime": 34.0,
   "EchoTrainLength": 100,
   "FlipAngle": 90.0,
   "HighBit": 11,
   "ImageOrientationPatient": [
    1.0,
    0.0,
    0.0,
    0.0,
    0.98450318022485,
    -0.1753667246862
   ],
   "ImagePositionPatient": [
    -900.0,
    -902.57653812094,
    80.414585908977
   ],
   "ImageType": [
    "ORIGINAL",
    "PRIMARY",
    "M",
    "ND",
    "MOSAIC"
   ],
   "ImagedNucleus": "1H",
   "ImagingFrequency": 123.257728,
   "InPlanePhaseEncodingDirection": "COL",
   "MRAcquisitionType": "2D",
   "MagneticFieldStrength": 3.0,
   "Manufacturer": "SIEMENS",
   "ManufacturerModelName": "Prisma",
   "Modality": "MR",
   "NumberOfAverages": 1.0,
   "NumberOfPhaseEncodingSteps": 100,
   "PercentPhaseFieldOfView": 100.0,
   "PercentSampling": 100.0,
   "PerformedProcedureStepStartTime": "151825.186000",
   "PhotometricInterpretation": "MONOCHROME2",
   "PixelBandwidth": 2380.0,
   "PixelRepresentation": 0,
   "PixelSpacing": [
    2.0,
    2.0
   ],
   "ProtocolName": "bold_100x100_s3_2x2x2_static_256",
   "RepetitionTime": 2000.0,
   "Rows": 900,
   "SAR": 0.08270318131158,
   "SamplesPerPixel": 1,
   "ScanOptions": "FS",
   "ScanningSequence": "EP",
   "SequenceName": "*epfid2d1_100",
   "SequenceVariant": "SK",
   "SeriesDescription": "bold_100x100_s3_2x2x2_static_256",
   "SeriesNumber": 5,
   "SeriesTime": "154647.046000",
   "SliceLocation": -79.113475705017,
   "SliceThickness": 2.0,
   "SmallestImagePixelValue": 0,
   "SoftwareVersions": "syngo MR E11",
   "SpacingBetweenSlices": 2.0000000271395,
   "SpecificCharacterSet": "ISO_IR 100",
   "StudyID": "1",
   "StudyTime": "151825.122000",
   "TransmitCoilName": "Body",
   "VariableFlipAngleFlag": "N",
   "WindowCenterWidthExplanation": "Algo1",
   "dBdt": 0.0
  },
  "slices": {}
 },
 "time": {
  "samples": {
   "AcquisitionNumber": [
    1,
    2,
    3,
    4,
    5,
    6,
    7,
    8,
    9,
    10,
    11,
    12,
    13,
    14,
    15,
    16,
    17,
    18,
    19,
    20,
    21,
    22,
    23,
    24,
    25,
    26,
    27,
    28,
    29,
    30,
    31,
    32,
    33,
    34,
    35,
    36,
    37,
    38,
    39,
    40,
    41,
    42,
    43,
    44,
    45,
    46,
    47,
    48,
    49,
    50,
    51,
    52,
    53,
    54,
    55,
    56,
    57,
    58,
    59,
    60,
    61,
    62,
    63,
    64,
    65,
    66,
    67,
    68,
    69,
    70,
    71,
    72,
    73,
    74,
    75,
    76,
    77,
    78,
    79,
    80,
    81,
    82,
    83,
    84,
    85,
    86,
    87,
    88,
    89,
    90,
    91,
    92,
    93,
    94,
    95,
    96,
    97,
    98,
    99,
    100,
    101,
    102,
    103,
    104,
    105,
    106,
    107,
    108,
    109,
    110,
    111,
    112,
    113,
    114,
    115,
    116,
    117,
    118,
    119,
    120,
    121,
    122,
    123,
    124,
    125,
    126,
    127,
    128,
    129,
    130,
    131,
    132,
    133,
    134,
    135,
    136,
    137,
    138,
    139,
    140,
    141,
    142,
    143,
    144,
    145,
    146,
    147,
    148,
    149,
    150,
    151,
    152,
    153,
    154,
    155,
    156,
    157,
    158,
    159,
    160,
    161,
    162,
    163,
    164,
    165,
    166,
    167,
    168,
    169,
    170,
    171,
    172,
    173,
    174,
    175,
    176,
    177,
    178,
    179,
    180,
    181,
    182,
    183,
    184,
    185,
    186,
    187,
    188,
    189,
    190,
    191,
    192,
    193,
    194,
    195,
    196,
    197,
    198,
    199,
    200,
    201,
    202,
    203,
    204,
    205,
    206,
    207,
    208,
    209,
    210,
    211,
    212,
    213,
    214,
    215,
    216,
    217,
    218,
    219,
    220,
    221,
    222,
    223,
    224,
    225,
    226,
    227,
    228,
    229,
    230,
    231,
    232,
    233,
    234,
    235,
    236,
    237,
    238,
    239,
    240,
    241,
    242,
    243,
    244,
    245,
    246,
    247,
    248,
    249,
    250,
    251,
    252,
    253,
    254,
    255,
    256
   ],
   "AcquisitionTime": [
    "154644.485000",
    "154646.485000",
    "154648.485000",
    "154650.485000",
    "154652.485000",
    "154654.485000",
    "154656.485000",
    "154658.485000",
    "154700.485000",
    "154702.485000",
    "154704.485000",
    "154706.485000",
    "154708.485000",
    "154710.485000",
    "154712.485000",
    "154714.485000",
    "154716.485000",
    "154718.485000",
    "154720.485000",
    "154722.485000",
    "154724.485000",
    "154726.485000",
    "154728.485000",
    "154730.485000",
    "154732.485000",
    "154734.485000",
    "154736.485000",
    "154738.485000",
    "154740.485000",
    "154742.485000",
    "154744.485000",
    "154746.485000",
    "154748.485000",
    "154750.485000",
    "154752.485000",
    "154754.485000",
    "154756.485000",
    "154758.485000",
    "154800.485000",
    "154802.485000",
    "154804.485000",
    "154806.485000",
    "154808.485000",
    "154810.485000",
    "154812.485000",
    "154814.485000",
    "154816.485000",
    "154818.485000",
    "154820.485000",
    "154822.485000",
    "154824.485000",
    "154826.485000",
    "154828.485000",
    "154830.485000",
    "154832.485000",
    "154834.485000",
    "154836.485000",
    "154838.485000",
    "154840.485000",
    "154842.485000",
    "154844.485000",
    "154846.485000",
    "154848.485000",
    "154850.485000",
    "154852.485000",
    "154854.485000",
    "154856.485000",
    "154858.485000",
    "154900.485000",
    "154902.485000",
    "154904.485000",
    "154906.485000",
    "154908.485000",
    "154910.485000",
    "154912.485000",
    "154914.485000",
    "154916.485000",
    "154918.485000",
    "154920.485000",
    "154922.485000",
    "154924.485000",
    "154926.485000",
    "154928.485000",
    "154930.485000",
    "154932.485000",
    "154934.485000",
    "154936.485000",
    "154938.485000",
    "154940.485000",
    "154942.485000",
    "154944.485000",
    "154946.485000",
    "154948.485000",
    "154950.485000",
    "154952.485000",
    "154954.485000",
    "154956.485000",
    "154958.485000",
    "155000.485000",
    "155002.485000",
    "155004.485000",
    "155006.485000",
    "155008.485000",
    "155010.485000",
    "155012.485000",
    "155014.485000",
    "155016.485000",
    "155018.485000",
    "155020.485000",
    "155022.485000",
    "155024.485000",
    "155026.485000",
    "155028.485000",
    "155030.485000",
    "155032.485000",
    "155034.485000",
    "155036.485000",
    "155038.485000",
    "155040.485000",
    "155042.485000",
    "155044.485000",
    "155046.485000",
    "155048.485000",
    "155050.485000",
    "155052.485000",
    "155054.485000",
    "155056.485000",
    "155058.485000",
    "155100.485000",
    "155102.485000",
    "155104.485000",
    "155106.485000",
    "155108.485000",
    "155110.485000",
    "155112.485000",
    "155114.485000",
    "155116.485000",
    "155118.485000",
    "155120.485000",
    "155122.485000",
    "155124.485000",
    "155126.485000",
    "155128.485000",
    "155130.485000",
    "155132.485000",
    "155134.485000",
    "155136.485000",
    "155138.485000",
    "155140.485000",
    "155142.485000",
    "155144.485000",
    "155146.485000",
    "155148.485000",
    "155150.485000",
    "155152.485000",
    "155154.485000",
    "155156.485000",
    "155158.485000",
    "155200.485000",
    "155202.485000",
    "155204.485000",
    "155206.485000",
    "155208.485000",
    "155210.485000",
    "155212.485000",
    "155214.485000",
    "155216.485000",
    "155218.485000",
    "155220.485000",
    "155222.485000",
    "155224.485000",
    "155226.485000",
    "155228.485000",
    "155230.485000",
    "155232.485000",
    "155234.485000",
    "155236.485000",
    "155238.485000",
    "155240.485000",
    "155242.485000",
    "155244.485000",
    "155246.485000",
    "155248.485000",
    "155250.485000",
    "155252.485000",
    "155254.485000",
    "155256.485000",
    "155258.485000",
    "155300.485000",
    "155302.485000",
    "155304.485000",
    "155306.485000",
    "155308.485000",
    "155310.485000",
    "155312.485000",
    "155314.485000",
    "155316.485000",
    "155318.485000",
    "155320.485000",
    "155322.485000",
    "155324.485000",
    "155326.485000",
    "155328.485000",
    "155330.485000",
    "155332.485000",
    "155334.485000",
    "155336.485000",
    "155338.485000",
    "155340.485000",
    "155342.485000",
    "155344.485000",
    "155346.485000",
    "155348.485000",
    "155350.485000",
    "155352.485000",
    "155354.485000",
    "155356.485000",
    "155358.485000",
    "155400.485000",
    "155402.485000",
    "155404.485000",
    "155406.485000",
    "155408.485000",
    "155410.485000",
    "155412.485000",
    "155414.485000",
    "155416.485000",
    "155418.485000",
    "155420.485000",
    "155422.485000",
    "155424.485000",
    "155426.485000",
    "155428.485000",
    "155430.485000",
    "155432.485000",
    "155434.485000",
    "155436.485000",
    "155438.485000",
    "155440.485000",
    "155442.485000",
    "155444.485000",
    "155446.485000",
    "155448.485000",
    "155450.485000",
    "155452.485000",
    "155454.485000",
    "155456.485000",
    "155458.485000",
    "155500.485000",
    "155502.485000",
    "155504.485000",
    "155506.485000",
    "155508.485000",
    "155510.485000",
    "155512.485000",
    "155514.485000"
   ],
   "ContentTime": [
    "154647.049000",
    "154648.045000",
    "154650.045000",
    "154652.045000",
    "154654.046000",
    "154656.045000",
    "154658.046000",
    "154700.045000",
    "154702.044000",
    "154704.544000",
    "154706.044000",
    "154708.045000",
    "154710.045000",
    "154712.045000",
    "154714.045000",
    "154716.546000",
    "154718.545000",
    "154720.545000",
    "154722.545000",
    "154724.044000",
    "154726.044000",
    "154728.046000",
    "154730.045000",
    "154732.045000",
    "154734.046000",
    "154736.044000",
    "154738.045000",
    "154740.044000",
    "154742.044000",
    "154744.045000",
    "154746.546000",
    "154748.045000",
    "154750.045000",
    "154752.045000",
    "154754.545000",
    "154756.044000",
    "154758.044000",
    "154800.045000",
    "154802.044000",
    "154804.046000",
    "154806.045000",
    "154808.045000",
    "154810.046000",
    "154812.045000",
    "154814.045000",
    "154816.044000",
    "154818.544000",
    "154820.045000",
    "154822.045000",
    "154824.046000",
    "154826.045000",
    "154828.045000",
    "154830.044000",
    "154832.045000",
    "154834.544000",
    "154836.045000",
    "154838.046000",
    "154840.045000",
    "154842.045000",
    "154844.045000",
    "154846.045000",
    "154848.045000",
    "154850.045000",
    "154852.044000",
    "154854.044000",
    "154856.045000",
    "154858.045000",
    "154900.045000",
    "154902.045000",
    "154904.044000",
    "154906.044000",
    "154908.545000",
    "154910.044000",
    "154912.045000",
    "154914.045000",
    "154916.045000",
    "154918.046000",
    "154920.046000",
    "154922.044000",
    "154924.044000",
    "154926.045000",
    "154928.044000",
    "154930.045000",
    "154932.045000",
    "154934.045000",
    "154936.046000",
    "154938.045000",
    "154940.044000",
    "154942.045000",
    "154944.045000",
    "154946.045000",
    "154948.046000",
    "154950.045000",
    "154952.045000",
    "154954.046000",
    "154956.045000",
    "154958.045000",
    "155000.045000",
    "155002.545000",
    "155004.044000",
    "155006.046000",
    "155008.546000",
    "155010.046000",
    "155012.046000",
    "155014.544000",
    "155016.545000",
    "155018.544000",
    "155020.545000",
    "155022.045000",
    "155024.045000",
    "155026.045000",
    "155028.545000",
    "155030.045000",
    "155032.045000",
    "155034.545000",
    "155036.044000",
    "155038.044000",
    "155040.045000",
    "155042.045000",
    "155044.045000",
    "155046.045000",
    "155048.045000",
    "155050.044000",
    "155052.044000",
    "155054.045000",
    "155056.044000",
    "155058.046000",
    "155100.046000",
    "155102.545000",
    "155104.045000",
    "155106.044000",
    "155108.545000",
    "155110.045000",
    "155112.044000",
    "155114.544000",
    "155116.046000",
    "155118.046000",
    "155120.045000",
    "155122.045000",
    "155124.045000",
    "155126.045000",
    "155128.045000",
    "155130.545000",
    "155132.044000",
    "155134.046000",
    "155136.545000",
    "155138.045000",
    "155140.045000",
    "155142.544000",
    "155144.045000",
    "155146.544000",
    "155148.045000",
    "155150.045000",
    "155152.545000",
    "155154.045000",
    "155156.546000",
    "155158.044000",
    "155200.045000",
    "155202.544000",
    "155204.045000",
    "155206.544000",
    "155208.045000",
    "155210.546000",
    "155212.045000",
    "155214.546000",
    "155216.060000",
    "155218.044000",
    "155220.045000",
    "155222.045000",
    "155224.045000",
    "155226.046000",
    "155228.046000",
    "155230.046000",
    "155232.045000",
    "155234.044000",
    "155236.044000",
    "155238.044000",
    "155240.045000",
    "155242.045000",
    "155244.046000",
    "155246.045000",
    "155248.045000",
    "155250.046000",
    "155252.045000",
    "155254.545000",
    "155256.044000",
    "155258.045000",
    "155300.545000",
    "155302.045000",
    "155304.045000",
    "155306.545000",
    "155308.544000",
    "155310.045000",
    "155312.045000",
    "155314.544000",
    "155316.044000",
    "155318.045000",
    "155320.045000",
    "155322.045000",
    "155324.546000",
    "155326.044000",
    "155328.044000",
    "155330.044000",
    "155332.045000",
    "155334.045000",
    "155336.045000",
    "155338.045000",
    "155340.045000",
    "155342.045000",
    "155344.044000",
    "155346.045000",
    "155348.045000",
    "155350.044000",
    "155352.044000",
    "155354.046000",
    "155356.046000",
    "155358.046000",
    "155400.045000",
    "155402.044000",
    "155404.044000",
    "155406.044000",
    "155408.044000",
    "155410.045000",
    "155412.045000",
    "155414.545000",
    "155416.045000",
    "155418.044000",
    "155420.545000",
    "155422.044000",
    "155424.545000",
    "155426.044000",
    "155428.046000",
    "155430.046000",
    "155432.545000",
    "155434.046000",
    "155436.045000",
    "155438.044000",
    "155440.044000",
    "155442.044000",
    "155444.044000",
    "155446.046000",
    "155448.046000",
    "155450.045000",
    "155452.045000",
    "155454.045000",
    "155456.044000",
    "155458.044000",
    "155500.044000",
    "155502.046000",
    "155504.046000",
    "155506.045000",
    "155508.045000",
    "155510.045000",
    "155512.045000",
    "155514.045000",
    "155516.001000"
   ],
   "InstanceCreationTime": [
    "154647.049000",
    "154648.045000",
    "154650.045000",
    "154652.045000",
    "154654.046000",
    "154656.045000",
    "154658.046000",
    "154700.045000",
    "154702.044000",
    "154704.544000",
    "154706.044000",
    "154708.045000",
    "154710.045000",
    "154712.045000",
    "154714.045000",
    "154716.546000",
    "154718.545000",
    "154720.545000",
    "154722.545000",
    "154724.044000",
    "154726.044000",
    "154728.046000",
    "154730.045000",
    "154732.045000",
    "154734.046000",
    "154736.044000",
    "154738.045000",
    "154740.044000",
    "154742.044000",
    "154744.045000",
    "154746.546000",
    "154748.045000",
    "154750.045000",
    "154752.045000",
    "154754.545000",
    "154756.044000",
    "154758.044000",
    "154800.045000",
    "154802.044000",
    "154804.046000",
    "154806.045000",
    "154808.045000",
    "154810.046000",
    "154812.045000",
    "154814.045000",
    "154816.044000",
    "154818.544000",
    "154820.045000",
    "154822.045000",
    "154824.046000",
    "154826.045000",
    "154828.045000",
    "154830.044000",
    "154832.045000",
    "154834.544000",
    "154836.045000",
    "154838.046000",
    "154840.045000",
    "154842.045000",
    "154844.045000",
    "154846.045000",
    "154848.045000",
    "154850.045000",
    "154852.044000",
    "154854.044000",
    "154856.045000",
    "154858.045000",
    "154900.045000",
    "154902.045000",
    "154904.044000",
    "154906.044000",
    "154908.545000",
    "154910.044000",
    "154912.045000",
    "154914.045000",
    "154916.045000",
    "154918.046000",
    "154920.046000",
    "154922.044000",
    "154924.044000",
    "154926.045000",
    "154928.044000",
    "154930.045000",
    "154932.045000",
    "154934.045000",
    "154936.046000",
    "154938.045000",
    "154940.044000",
    "154942.045000",
    "154944.045000",
    "154946.045000",
    "154948.046000",
    "154950.045000",
    "154952.045000",
    "154954.046000",
    "154956.045000",
    "154958.045000",
    "155000.045000",
    "155002.545000",
    "155004.044000",
    "155006.046000",
    "155008.546000",
    "155010.046000",
    "155012.046000",
    "155014.544000",
    "155016.545000",
    "155018.544000",
    "155020.545000",
    "155022.045000",
    "155024.045000",
    "155026.045000",
    "155028.545000",
    "155030.045000",
    "155032.045000",
    "155034.545000",
    "155036.044000",
    "155038.044000",
    "155040.045000",
    "155042.045000",
    "155044.045000",
    "155046.045000",
    "155048.045000",
    "155050.044000",
    "155052.044000",
    "155054.045000",
    "155056.044000",
    "155058.046000",
    "155100.046000",
    "155102.545000",
    "155104.045000",
    "155106.044000",
    "155108.545000",
    "155110.045000",
    "155112.044000",
    "155114.544000",
    "155116.046000",
    "155118.046000",
    "155120.045000",
    "155122.045000",
    "155124.045000",
    "155126.045000",
    "155128.045000",
    "155130.545000",
    "155132.044000",
    "155134.046000",
    "155136.545000",
    "155138.045000",
    "155140.045000",
    "155142.544000",
    "155144.045000",
    "155146.544000",
    "155148.045000",
    "155150.045000",
    "155152.545000",
    "155154.045000",
    "155156.546000",
    "155158.044000",
    "155200.045000",
    "155202.544000",
    "155204.045000",
    "155206.544000",
    "155208.045000",
    "155210.546000",
    "155212.045000",
    "155214.546000",
    "155216.060000",
    "155218.044000",
    "155220.045000",
    "155222.045000",
    "155224.045000",
    "155226.046000",
    "155228.046000",
    "155230.046000",
    "155232.045000",
    "155234.044000",
    "155236.044000",
    "155238.044000",
    "155240.045000",
    "155242.045000",
    "155244.046000",
    "155246.045000",
    "155248.045000",
    "155250.046000",
    "155252.045000",
    "155254.545000",
    "155256.044000",
    "155258.045000",
    "155300.545000",
    "155302.045000",
    "155304.045000",
    "155306.545000",
    "155308.544000",
    "155310.045000",
    "155312.045000",
    "155314.544000",
    "155316.044000",
    "155318.045000",
    "155320.045000",
    "155322.045000",
    "155324.546000",
    "155326.044000",
    "155328.044000",
    "155330.044000",
    "155332.045000",
    "155334.045000",
    "155336.045000",
    "155338.045000",
    "155340.045000",
    "155342.045000",
    "155344.044000",
    "155346.045000",
    "155348.045000",
    "155350.044000",
    "155352.044000",
    "155354.046000",
    "155356.046000",
    "155358.046000",
    "155400.045000",
    "155402.044000",
    "155404.044000",
    "155406.044000",
    "155408.044000",
    "155410.045000",
    "155412.045000",
    "155414.545000",
    "155416.045000",
    "155418.044000",
    "155420.545000",
    "155422.044000",
    "155424.545000",
    "155426.044000",
    "155428.046000",
    "155430.046000",
    "155432.545000",
    "155434.046000",
    "155436.045000",
    "155438.044000",
    "155440.044000",
    "155442.044000",
    "155444.044000",
    "155446.046000",
    "155448.046000",
    "155450.045000",
    "155452.045000",
    "155454.045000",
    "155456.044000",
    "155458.044000",
    "155500.044000",
    "155502.046000",
    "155504.046000",
    "155506.045000",
    "155508.045000",
    "155510.045000",
    "155512.045000",
    "155514.045000",
    "155516.001000"
   ],
   "InstanceNumber": [
    1,
    2,
    3,
    4,
    5,
    6,
    7,
    8,
    9,
    10,
    11,
    12,
    13,
    14,
    15,
    16,
    17,
    18,
    19,
    20,
    21,
    22,
    23,
    24,
    25,
    26,
    27,
    28,
    29,
    30,
    31,
    32,
    33,
    34,
    35,
    36,
    37,
    38,
    39,
    40,
    41,
    42,
    43,
    44,
    45,
    46,
    47,
    48,
    49,
    50,
    51,
    52,
    53,
    54,
    55,
    56,
    57,
    58,
    59,
    60,
    61,
    62,
    63,
    64,
    65,
    66,
    67,
    68,
    69,
    70,
    71,
    72,
    73,
    74,
    75,
    76,
    77,
    78,
    79,
    80,
    81,
    82,
    83,
    84,
    85,
    86,
    87,
    88,
    89,
    90,
    91,
    92,
    93,
    94,
    95,
    96,
    97,
    98,
    99,
    100,
    101,
    102,
    103,
    104,
    105,
    106,
    107,
    108,
    109,
    110,
    111,
    112,
    113,
    114,
    115,
    116,
    117,
    118,
    119,
    120,
    121,
    122,
    123,
    124,
    125,
    126,
    127,
    128,
    129,
    130,
    131,
    132,
    133,
    134,
    135,
    136,
    137,
    138,
    139,
    140,
    141,
    142,
    143,
    144,
    145,
    146,
    147,
    148,
    149,
    150,
    151,
    152,
    153,
    154,
    155,
    156,
    157,
    158,
    159,
    160,
    161,
    162,
    163,
    164,
    165,
    166,
    167,
    168,
    169,
    170,
    171,
    172,
    173,
    174,
    175,
    176,
    177,
    178,
    179,
    180,
    181,
    182,
    183,
    184,
    185,
    186,
    187,
    188,
    189,
    190,
    191,
    192,
    193,
    194,
    195,
    196,
    197,
    198,
    199,
    200,
    201,
    202,
    203,
    204,
    205,
    206,
    207,
    208,
    209,
    210,
    211,
    212,
    213,
    214,
    215,
    216,
    217,
    218,
    219,
    220,
    221,
    222,
    223,
    224,
    225,
    226,
    227,
    228,
    229,
    230,
    231,
    232,
    233,
    234,
    235,
    236,
    237,
    238,
    239,
    240,
    241,
    242,
    243,
    244,
    245,
    246,
    247,
    248,
    249,
    250,
    251,
    252,
    253,
    254,
    255,
    256
   ],
   "LargestImagePixelValue": [
    2593,
    2547,
    2552,
    2550,
    2548,
    2568,
    2540,
    2543,
    2564,
    2548,
    2572,
    2553,
    2566,
    2570,
    2553,
    2549,
    2574,
    2548,
    2549,
    2555,
    2572,
    2532,
    2539,
    2559,
    2555,
    2572,
    2553,
    2541,
    2550,
    2555,
    2551,
    2546,
    2552,
    2552,
    2542,
    2553,
    2559,
    2541,
    2551,
    2558,
    2531,
    2531,
    2554,
    2532,
    2585,
    2532,
    2527,
    2567,
    2583,
    2563,
    2533,
    2533,
    2560,
    2548,
    2527,
    2542,
    2542,
    2560,
    2530,
    2548,
    2547,
    2563,
    2548,
    2548,
    2555,
    2567,
    2547,
    2566,
    2544,
    2563,
    2567,
    2540,
    2533,
    2572,
    2541,
    2560,
    2540,
    2550,
    2559,
    2542,
    2550,
    2542,
    2549,
    2547,
    2558,
    2539,
    2564,
    2545,
    2544,
    2544,
    2546,
    2531,
    2582,
    2548,
    2556,
    2535,
    2527,
    2550,
    2533,
    2560,
    2567,
    2551,
    2562,
    2538,
    2527,
    2551,
    2530,
    2550,
    2564,
    2528,
    2527,
    2540,
    2541,
    2526,
    2516,
    2515,
    2535,
    2528,
    2525,
    2607,
    2546,
    2551,
    2541,
    2543,
    2573,
    2546,
    2515,
    2538,
    2525,
    2524,
    2556,
    2519,
    2537,
    2550,
    2534,
    2544,
    2528,
    2538,
    2542,
    2528,
    2587,
    2521,
    2526,
    2544,
    2525,
    2517,
    2514,
    2524,
    2543,
    2526,
    2517,
    2532,
    2508,
    2510,
    2548,
    2583,
    2554,
    2557,
    2544,
    2538,
    2600,
    2540,
    2565,
    2549,
    2519,
    2529,
    2557,
    2537,
    2539,
    2545,
    2558,
    2552,
    2605,
    2556,
    2544,
    2525,
    2525,
    2606,
    2562,
    2554,
    2569,
    2557,
    2607,
    2535,
    2535,
    2562,
    2554,
    2521,
    2529,
    2607,
    2543,
    2536,
    2553,
    2544,
    2538,
    2550,
    2529,
    2556,
    2513,
    2738,
    2587,
    2589,
    2584,
    2598,
    2632,
    2570,
    2577,
    2591,
    2591,
    2567,
    2563,
    2578,
    2596,
    2553,
    2652,
    2580,
    2611,
    2584,
    2580,
    2571,
    2598,
    2571,
    2566,
    2562,
    2572,
    2577,
    2591,
    2587,
    2569,
    2555,
    2562,
    2568,
    2567,
    2600,
    2579,
    2557,
    2569,
    2567,
    2569,
    2584,
    2579,
    2606,
    2586,
    2560,
    2607,
    2548,
    2573,
    2577,
    2579,
    2567,
    2573,
    2579,
    2566,
    2608,
    2569,
    2584
   ],
   "WindowCenter": [
    731.0,
    728.0,
    729.0,
    729.0,
    728.0,
    728.0,
    728.0,
    729.0,
    730.0,
    730.0,
    731.0,
    730.0,
    730.0,
    731.0,
    730.0,
    732.0,
    730.0,
    727.0,
    727.0,
    729.0,
    730.0,
    729.0,
    730.0,
    730.0,
    731.0,
    732.0,
    730.0,
    729.0,
    729.0,
    729.0,
    730.0,
    731.0,
    730.0,
    730.0,
    731.0,
    732.0,
    731.0,
    731.0,
    732.0,
    731.0,
    730.0,
    730.0,
    731.0,
    731.0,
    731.0,
    729.0,
    730.0,
    732.0,
    732.0,
    730.0,
    729.0,
    729.0,
    729.0,
    730.0,
    731.0,
    731.0,
    731.0,
    730.0,
    730.0,
    730.0,
    730.0,
    732.0,
    732.0,
    732.0,
    732.0,
    731.0,
    731.0,
    731.0,
    730.0,
    729.0,
    730.0,
    730.0,
    730.0,
    730.0,
    730.0,
    731.0,
    731.0,
    732.0,
    732.0,
    732.0,
    731.0,
    730.0,
    731.0,
    731.0,
    731.0,
    730.0,
    730.0,
    730.0,
    731.0,
    732.0,
    732.0,
    731.0,
    732.0,
    732.0,
    731.0,
    730.0,
    730.0,
    730.0,
    731.0,
    731.0,
    731.0,
    731.0,
    729.0,
    729.0,
    728.0,
    730.0,
    730.0,
    731.0,
    731.0,
    731.0,
    730.0,
    729.0,
    728.0,
    729.0,
    730.0,
    730.0,
    730.0,
    729.0,
    729.0,
    731.0,
    730.0,
    730.0,
    730.0,
    730.0,
    731.0,
    731.0,
    731.0,
