{
  "AcquisitionMatrixPE": 100,
  "AcquisitionNumber": 1,
  "AcquisitionTime": "16:39:17.255000",
  "BandwidthPerPixelPhaseEncode": 18.519,
  "BaseResolution": 100,
  "BodyPartExamined": "BRAIN",
  "ConsistencyInfo": "N4_VE11C_LATEST_20160120",
  "ConversionSoftware": "dcm2niix",
  "ConversionSoftwareVersion": "v1.0.20180622 GCC4.9.2",
  "DerivedVendorReportedEchoSpacing": 0.000539986,
  "DeviceSerialNumber": "166078",
  "DwellTime": 2.1e-06,
  "EchoTime": 0.034,
  "EchoTrainLength": 100,
  "EffectiveEchoSpacing": 0.000539986,
  "FlipAngle": 90,
  "ImageOrientationPatientDICOM": [1, 0, 0, 0, 0.984503, -0.175367],
  "ImageType": [
    "ORIGINAL",
    "PRIMARY",
    "M",
    "ND",
    "MOSAIC"
],
  "InPlanePhaseEncodingDirectionDICOM": "COL",
  "InstitutionAddress": "Street_StreetNo_Bei_Jing_District_CN_ZIP",
  "InstitutionName": "BeiJing_Normal_University",
  "InstitutionalDepartmentName": "Department",
  "MRAcquisitionType": "2D",
  "MagneticFieldStrength": 3,
  "Manufacturer": "Siemens",
  "ManufacturersModelName": "Prisma",
  "Modality": "MR",
  "MultibandAccelerationFactor": 3,
  "PartialFourier": 1,
  "PatientPosition": "HFS",
  "PercentPhaseFOV": 100,
  "PhaseEncodingDirection": "j-",
  "PhaseEncodingSteps": 100,
  "PhaseResolution": 1,
  "PixelBandwidth": 2380,
  "ProcedureStepDescription": "BNU_P2018_64CH_Zhen.ZongLei",
  "ProtocolName": "bold_100x100_s3_2x2x2_static_256",
  "PulseSequenceDetails": "%SiemensSeq%_ep2d_bold",
  "ReceiveCoilActiveElements": "HC1-7;NC1",
  "ReceiveCoilName": "HeadNeck_64",
  "ReconMatrixPE": 100,
  "RepetitionTime": 2,
  "SAR": 0.0827032,
  "ScanOptions": "FS",
  "ScanningSequence": "EP",
  "SequenceName": "_epfid2d1_100",
  "SequenceVariant": "SK",
  "SeriesDescription": "bold_100x100_s3_2x2x2_static_256",
  "SeriesNumber": 12,
  "ShimSetting": [-5460, -11523, -1298, 523, -63, -248, 32, 27],
  "SliceThickness": 2,
  "SliceTiming": [1.485, 0, 0.99, 0.0825, 1.0725, 0.165, 1.155, 0.2475, 1.2375, 0.33, 1.32, 0.4125, 1.4025, 0.5775, 1.5675, 0.66, 1.65, 0.7425, 1.7325, 0.825, 1.815, 0.9075, 1.8975, 0.495, 1.485, 0, 0.99, 0.0825, 1.0725, 0.165, 1.155, 0.2475, 1.2375, 0.33, 1.32, 0.4125, 1.4025, 0.5775, 1.5675, 0.66, 1.65, 0.7425, 1.7325, 0.825, 1.815, 0.9075, 1.8975, 0.495, 1.485, 0, 0.99, 0.0825, 1.0725, 0.165, 1.155, 0.2475, 1.2375, 0.33, 1.32, 0.4125, 1.4025, 0.5775, 1.5675, 0.66, 1.65, 0.7425, 1.7325, 0.825, 1.815, 0.9075, 1.8975, 0.495],
  "SoftwareVersions": "syngo_MR_E11",
  "SpacingBetweenSlices": 2,
  "StationName": "AWP166078",
  "TaskName": "naturalvision",
  "TotalReadoutTime": 0.0534586,
  "TxRefAmp": 233.216,
  "dcmmeta_affine": [
    [-2.0, 0.0, 0.0, 100.0],
    [0.0, 1.9690064191818237, -0.3507334589958191, -79.95763397216797],
    [0.0, 0.3507334589958191, 1.9690064191818237, -94.60140228271484],
    [0.0, 0.0, 0.0, 1.0]
],
  "dcmmeta_reorient_transform": [
    [0.0, -1.0, 0.0, 99.0],
    [1.0, 0.0, 0.0, 0.0],
    [0.0, 0.0, 1.0, 0.0],
    [0.0, 0.0, 0.0, 1.0]
],
  "dcmmeta_shape": [100, 100, 72, 256],
  "dcmmeta_slice_dim": 2,
  "dcmmeta_version": 0.6,
  "global": {
    "const": {
      "AcquisitionMatrix": [100, 0, 0, 100],
      "AngioFlag": "N",
      "BitsAllocated": 16,
      "BitsStored": 12,
      "BodyPartExamined": "BRAIN",
      "Columns": 900,
      "EchoNumbers": 1,
      "EchoTime": 34.0,
      "EchoTrainLength": 100,
      "FlipAngle": 90.0,
      "HighBit": 11,
      "ImageOrientationPatient": [1.0, 0.0, 0.0, 0.0, 0.98450318022485, -0.1753667246862],
      "ImagePositionPatient": [-900.0, -902.57653812094, 80.414585908977],
      "ImageType": [
        "ORIGINAL",
        "PRIMARY",
        "M",
        "ND",
        "MOSAIC"
],
      "ImagedNucleus": "1H",
      "ImagingFrequency": 123.257739,
      "InPlanePhaseEncodingDirection": "COL",
      "MRAcquisitionType": "2D",
      "MagneticFieldStrength": 3.0,
      "Manufacturer": "SIEMENS",
      "ManufacturerModelName": "Prisma",
      "Modality": "MR",
      "NumberOfAverages": 1.0,
      "NumberOfPhaseEncodingSteps": 100,
      "PercentPhaseFieldOfView": 100.0,
      "PercentSampling": 100.0,
      "PerformedProcedureStepStartTime": "151825.186000",
      "PhotometricInterpretation": "MONOCHROME2",
      "PixelBandwidth": 2380.0,
      "PixelRepresentation": 0,
      "PixelSpacing": [2.0, 2.0],
      "ProtocolName": "bold_100x100_s3_2x2x2_static_256",
      "RepetitionTime": 2000.0,
      "Rows": 900,
      "SAR": 0.08270318131158,
      "SamplesPerPixel": 1,
      "ScanOptions": "FS",
      "ScanningSequence": "EP",
      "SequenceName": "*epfid2d1_100",
      "SequenceVariant": "SK",
      "SeriesDescription": "bold_100x100_s3_2x2x2_static_256",
      "SeriesNumber": 12,
      "SeriesTime": "163919.957000",
      "SliceLocation": -79.113475705017,
      "SliceThickness": 2.0,
      "SmallestImagePixelValue": 0,
      "SoftwareVersions": "syngo MR E11",
      "SpacingBetweenSlices": 2.0000000271395,
      "SpecificCharacterSet": "ISO_IR 100",
      "StudyID": "1",
      "StudyTime": "151825.122000",
      "TransmitCoilName": "Body",
      "VariableFlipAngleFlag": "N",
      "WindowCenterWidthExplanation": "Algo1",
      "dBdt": 0.0},
    "slices": {}
  },
  "time": {
    "samples": {
      "AcquisitionNumber": [1, 2, 3, 4, 5, 6, 7, 8, 9, 10, 11, 12, 13, 14, 15, 16, 17, 18, 19, 20, 21, 22, 23, 24, 25, 26, 27, 28, 29, 30, 31, 32, 33, 34, 35, 36, 37, 38, 39, 40, 41, 42, 43, 44, 45, 46, 47, 48, 49, 50, 51, 52, 53, 54, 55, 56, 57, 58, 59, 60, 61, 62, 63, 64, 65, 66, 67, 68, 69, 70, 71, 72, 73, 74, 75, 76, 77, 78, 79, 80, 81, 82, 83, 84, 85, 86, 87, 88, 89, 90, 91, 92, 93, 94, 95, 96, 97, 98, 99, 100, 101, 102, 103, 104, 105, 106, 107, 108, 109, 110, 111, 112, 113, 114, 115, 116, 117, 118, 119, 120, 121, 122, 123, 124, 125, 126, 127, 128, 129, 130, 131, 132, 133, 134, 135, 136, 137, 138, 139, 140, 141, 142, 143, 144, 145, 146, 147, 148, 149, 150, 151, 152, 153, 154, 155, 156, 157, 158, 159, 160, 161, 162, 163, 164, 165, 166, 167, 168, 169, 170, 171, 172, 173, 174, 175, 176, 177, 178, 179, 180, 181, 182, 183, 184, 185, 186, 187, 188, 189, 190, 191, 192, 193, 194, 195, 196, 197, 198, 199, 200, 201, 202, 203, 204, 205, 206, 207, 208, 209, 210, 211, 212, 213, 214, 215, 216, 217, 218, 219, 220, 221, 222, 223, 224, 225, 226, 227, 228, 229, 230, 231, 232, 233, 234, 235, 236, 237, 238, 239, 240, 241, 242, 243, 244, 245, 246, 247, 248, 249, 250, 251, 252, 253, 254, 255, 256],
      "AcquisitionTime": ["163917.255000", "163919.255000", "163921.255000", "163923.255000", "163925.255000", "163927.255000", "163929.255000", "163931.255000", "163933.255000", "163935.255000", "163937.255000", "163939.255000", "163941.255000", "163943.255000", "163945.255000", "163947.255000", "163949.255000", "163951.255000", "163953.255000", "163955.255000", "163957.255000", "163959.255000", "164001.255000", "164003.255000", "164005.255000", "164007.255000", "164009.255000", "164011.255000", "164013.255000", "164015.255000", "164017.255000", "164019.255000", "164021.255000", "164023.255000", "164025.255000", "164027.255000", "164029.255000", "164031.255000", "164033.255000", "164035.255000", "164037.255000", "164039.255000", "164041.255000", "164043.255000", "164045.255000", "164047.255000", "164049.255000", "164051.255000", "164053.255000", "164055.255000", "164057.255000", "164059.255000", "164101.255000", "164103.255000", "164105.255000", "164107.255000", "164109.255000", "164111.255000", "164113.255000", "164115.255000", "164117.255000", "164119.255000", "164121.255000", "164123.255000", "164125.255000", "164127.255000", "164129.255000", "164131.255000", "164133.255000", "164135.255000", "164137.255000", "164139.255000", "164141.255000", "164143.255000", "164145.255000", "164147.255000", "164149.255000", "164151.255000", "164153.255000", "164155.255000", "164157.255000", "164159.255000", "164201.255000", "164203.255000", "164205.255000", "164207.255000", "164209.255000", "164211.255000", "164213.255000", "164215.255000", "164217.255000", "164219.255000", "164221.255000", "164223.255000", "164225.255000", "164227.255000", "164229.255000", "164231.255000", "164233.255000", "164235.255000", "164237.255000", "164239.255000", "164241.255000", "164243.255000", "164245.255000", "164247.255000", "164249.255000", "164251.255000", "164253.255000", "164255.255000", "164257.255000", "164259.255000", "164301.255000", "164303.255000", "164305.255000", "164307.255000", "164309.255000", "164311.255000", "164313.255000", "164315.255000", "164317.255000", "164319.255000", "164321.255000", "164323.255000", "164325.255000", "164327.255000", "164329.255000", "164331.255000", "164333.255000", "164335.255000", "164337.255000", "164339.255000", "164341.255000", "164343.255000", "164345.255000", "164347.255000", "164349.255000", "164351.255000", "164353.255000", "164355.255000", "164357.255000", "164359.255000", "164401.255000", "164403.255000", "164405.255000", "164407.255000", "164409.255000", "164411.255000", "164413.255000", "164415.255000", "164417.255000", "164419.255000", "164421.255000", "164423.255000", "164425.255000", "164427.255000", "164429.255000", "164431.255000", "164433.255000", "164435.255000", "164437.255000", "164439.255000", "164441.255000", "164443.255000", "164445.255000", "164447.255000", "164449.255000", "164451.255000", "164453.255000", "164455.255000", "164457.255000", "164459.255000", "164501.255000", "164503.255000", "164505.255000", "164507.255000", "164509.255000", "164511.255000", "164513.255000", "164515.255000", "164517.255000", "164519.255000", "164521.255000", "164523.255000", "164525.255000", "164527.255000", "164529.255000", "164531.255000", "164533.255000", "164535.255000", "164537.255000", "164539.255000", "164541.255000", "164543.255000", "164545.255000", "164547.255000", "164549.255000", "164551.255000", "164553.255000", "164555.255000", "164557.255000", "164559.255000", "164601.255000", "164603.255000", "164605.255000", "164607.255000", "164609.255000", "164611.255000", "164613.255000", "164615.255000", "164617.255000", "164619.255000", "164621.255000", "164623.255000", "164625.255000", "164627.255000", "164629.255000", "164631.255000", "164633.255000", "164635.255000", "164637.255000", "164639.255000", "164641.255000", "164643.255000", "164645.255000", "164647.255000", "164649.255000", "164651.255000", "164653.255000", "164655.255000", "164657.255000", "164659.255000", "164701.255000", "164703.255000", "164705.255000", "164707.255000", "164709.255000", "164711.255000", "164713.255000", "164715.255000", "164717.255000", "164719.255000", "164721.255000", "164723.255000", "164725.255000", "164727.255000", "164729.255000", "164731.255000", "164733.255000", "164735.255000", "164737.255000", "164739.255000", "164741.255000", "164743.255000", "164745.255000", "164747.255000"],
      "ContentTime": ["163919.961000", "163921.457000", "163923.456000", "163925.455000", "163927.455000", "163929.455000", "163931.456000", "163933.455000", "163935.455000", "163937.457000", "163939.457000", "163941.456000", "163943.456000", "163945.456000", "163947.455000", "163949.455000", "163951.455000", "163953.455000", "163955.457000", "163957.455000", "163959.456000", "164001.455000", "164003.455000", "164005.455000", "164007.455000", "164009.456000", "164011.455000", "164013.457000", "164015.456000", "164017.455000", "164019.456000", "164021.456000", "164023.455000", "164025.455000", "164027.456000", "164029.457000", "164031.457000", "164033.455000", "164035.456000", "164037.455000", "164039.456000", "164041.455000", "164043.455000", "164045.455000", "164047.456000", "164049.456000", "164051.456000", "164053.455000", "164055.456000", "164057.455000", "164059.455000", "164101.456000", "164103.456000", "164105.456000", "164107.456000", "164109.455000", "164111.455000", "164113.455000", "164115.455000", "164117.456000", "164119.456000", "164121.456000", "164123.457000", "164125.456000", "164127.455000", "164129.456000", "164131.455000", "164133.456000", "164135.456000", "164137.455000", "164139.456000", "164141.456000", "164143.455000", "164145.455000", "164147.456000", "164149.455000", "164151.456000", "164153.455000", "164155.456000", "164157.457000", "164159.456000", "164201.455000", "164203.456000", "164205.455000", "164207.455000", "164209.456000", "164211.456000", "164213.455000", "164215.456000", "164217.455000", "164219.455000", "164221.456000", "164223.456000", "164225.455000", "164227.456000", "164229.455000", "164231.456000", "164233.456000", "164235.455000", "164237.455000", "164239.455000", "164241.455000", "164243.456000", "164245.455000", "164247.456000", "164249.456000", "164251.456000", "164253.456000", "164255.456000", "164257.456000", "164259.456000", "164301.455000", "164303.455000", "164305.455000", "164307.456000", "164309.457000", "164311.456000", "164313.456000", "164315.456000", "164317.455000", "164319.455000", "164321.456000", "164323.455000", "164325.456000", "164327.455000", "164329.455000", "164331.456000", "164333.456000", "164335.456000", "164337.455000", "164339.456000", "164341.456000", "164343.456000", "164345.455000", "164347.456000", "164349.455000", "164351.456000", "164353.456000", "164355.456000", "164357.455000", "164359.456000", "164401.456000", "164403.456000", "164405.455000", "164407.455000", "164409.456000", "164411.455000", "164413.456000", "164415.456000", "164417.456000", "164419.456000", "164421.456000", "164423.456000", "164425.455000", "164427.456000", "164429.456000", "164431.456000", "164433.455000", "164435.456000", "164437.456000", "164439.456000", "164441.455000", "164443.456000", "164445.455000", "164447.455000", "164449.455000", "164451.455000", "164453.456000", "164455.455000", "164457.456000", "164459.455000", "164501.456000", "164503.455000", "164505.456000", "164507.455000", "164509.456000", "164511.457000", "164513.456000", "164515.455000", "164517.456000", "164519.455000", "164521.456000", "164523.455000", "164525.456000", "164527.456000", "164529.456000", "164531.456000", "164533.456000", "164535.455000", "164537.456000", "164539.456000", "164541.456000", "164543.456000", "164545.457000", "164547.456000", "164549.455000", "164551.455000", "164553.455000", "164555.456000", "164557.455000", "164559.456000", "164601.455000", "164603.457000", "164605.456000", "164607.455000", "164609.455000", "164611.455000", "164613.455000", "164615.455000", "164617.456000", "164619.457000", "164621.457000", "164623.456000", "164625.456000", "164627.456000", "164629.455000", "164631.455000", "164633.456000", "164635.455000", "164637.457000", "164639.457000", "164641.455000", "164643.455000", "164645.456000", "164647.456000", "164649.455000", "164651.456000", "164653.455000", "164655.456000", "164657.456000", "164659.456000", "164701.456000", "164703.456000", "164705.456000", "164707.456000", "164709.456000", "164711.456000", "164713.457000", "164715.456000", "164717.456000", "164719.456000", "164721.455000", "164723.455000", "164725.455000", "164727.455000", "164729.457000", "164731.457000", "164733.455000", "164735.456000", "164737.456000", "164739.456000", "164741.455000", "164743.455000", "164745.456000", "164747.457000", "164749.180000"],
      "InstanceCreationTime": ["163919.961000", "163921.457000", "163923.456000", "163925.455000", "163927.455000", "163929.455000", "163931.456000", "163933.455000", "163935.455000", "163937.457000", "163939.457000", "163941.456000", "163943.456000", "163945.456000", "163947.455000", "163949.455000", "163951.455000", "163953.455000", "163955.457000", "163957.455000", "163959.456000", "164001.455000", "164003.455000", "164005.455000", "164007.455000", "164009.456000", "164011.455000", "164013.457000", "164015.456000", "164017.455000", "164019.456000", "164021.456000", "164023.455000", "164025.455000", "164027.456000", "164029.457000", "164031.457000", "164033.455000", "164035.456000", "164037.455000", "164039.456000", "164041.455000", "164043.455000", "164045.455000", "164047.456000", "164049.456000", "164051.456000", "164053.455000", "164055.456000", "164057.455000", "164059.455000", "164101.456000", "164103.456000", "164105.456000", "164107.456000", "164109.455000", "164111.455000", "164113.455000", "164115.455000", "164117.456000", "164119.456000", "164121.456000", "164123.457000", "164125.456000", "164127.455000", "164129.456000", "164131.455000", "164133.456000", "164135.456000", "164137.455000", "164139.456000", "164141.456000", "164143.455000", "164145.455000", "164147.456000", "164149.455000", "164151.456000", "164153.455000", "164155.456000", "164157.457000", "164159.456000", "164201.455000", "164203.456000", "164205.455000", "164207.455000", "164209.456000", "164211.456000", "164213.455000", "164215.456000", "164217.455000", "164219.455000", "164221.456000", "164223.456000", "164225.455000", "164227.456000", "164229.455000", "164231.456000", "164233.456000", "164235.455000", "164237.455000", "164239.455000", "164241.455000", "164243.456000", "164245.455000", "164247.456000", "164249.456000", "164251.456000", "164253.456000", "164255.456000", "164257.456000", "164259.456000", "164301.455000", "164303.455000", "164305.455000", "164307.456000", "164309.457000", "164311.456000", "164313.456000", "164315.456000", "164317.455000", "164319.455000", "164321.456000", "164323.455000", "164325.456000", "164327.455000", "164329.455000", "164331.456000", "164333.456000", "164335.456000", "164337.455000", "164339.456000", "164341.456000", "164343.456000", "164345.455000", "164347.456000", "164349.455000", "164351.456000", "164353.456000", "164355.456000", "164357.455000", "164359.456000", "164401.456000", "164403.456000", "164405.455000", "164407.455000", "164409.456000", "164411.455000", "164413.456000", "164415.456000", "164417.456000", "164419.456000", "164421.456000", "164423.456000", "164425.455000", "164427.456000", "164429.456000", "164431.456000", "164433.455000", "164435.456000", "164437.456000", "164439.456000", "164441.455000", "164443.456000", "164445.455000", "164447.455000", "164449.455000", "164451.455000", "164453.456000", "164455.455000", "164457.456000", "164459.455000", "164501.456000", "164503.455000", "164505.456000", "164507.455000", "164509.456000", "164511.457000", "164513.456000", "164515.455000", "164517.456000", "164519.455000", "164521.456000", "164523.455000", "164525.456000", "164527.456000", "164529.456000", "164531.456000", "164533.456000", "164535.455000", "164537.456000", "164539.456000", "164541.456000", "164543.456000", "164545.457000", "164547.456000", "164549.455000", "164551.455000", "164553.455000", "164555.456000", "164557.455000", "164559.456000", "164601.455000", "164603.457000", "164605.456000", "164607.455000", "164609.455000", "164611.455000", "164613.455000", "164615.455000", "164617.456000", "164619.457000", "164621.457000", "164623.456000", "164625.456000", "164627.456000", "164629.455000", "164631.455000", "164633.456000", "164635.455000", "164637.457000", "164639.457000", "164641.455000", "164643.455000", "164645.456000", "164647.456000", "164649.455000", "164651.456000", "164653.455000", "164655.456000", "164657.456000", "164659.456000", "164701.456000", "164703.456000", "164705.456000", "164707.456000", "164709.456000", "164711.456000", "164713.457000", "164715.456000", "164717.456000", "164719.456000", "164721.455000", "164723.455000", "164725.455000", "164727.455000", "164729.457000", "164731.457000", "164733.455000", "164735.456000", "164737.456000", "164739.456000", "164741.455000", "164743.455000", "164745.456000", "164747.457000", "164749.180000"],
      "InstanceNumber": [1, 2, 3, 4, 5, 6, 7, 8, 9, 10, 11, 12, 13, 14, 15, 16, 17, 18, 19, 20, 21, 22, 23, 24, 25, 26, 27, 28, 29, 30, 31, 32, 33, 34, 35, 36, 37, 38, 39, 40, 41, 42, 43, 44, 45, 46, 47, 48, 49, 50, 51, 52, 53, 54, 55, 56, 57, 58, 59, 60, 61, 62, 63, 64, 65, 66, 67, 68, 69, 70, 71, 72, 73, 74, 75, 76, 77, 78, 79, 80, 81, 82, 83, 84, 85, 86, 87, 88, 89, 90, 91, 92, 93, 94, 95, 96, 97, 98, 99, 100, 101, 102, 103, 104, 105, 106, 107, 108, 109, 110, 111, 112, 113, 114, 115, 116, 117, 118, 119, 120, 121, 122, 123, 124, 125, 126, 127, 128, 129, 130, 131, 132, 133, 134, 135, 136, 137, 138, 139, 140, 141, 142, 143, 144, 145, 146, 147, 148, 149, 150, 151, 152, 153, 154, 155, 156, 157, 158, 159, 160, 161, 162, 163, 164, 165, 166, 167, 168, 169, 170, 171, 172, 173, 174, 175, 176, 177, 178, 179, 180, 181, 182, 183, 184, 185, 186, 187, 188, 189, 190, 191, 192, 193, 194, 195, 196, 197, 198, 199, 200, 201, 202, 203, 204, 205, 206, 207, 208, 209, 210, 211, 212, 213, 214, 215, 216, 217, 218, 219, 220, 221, 222, 223, 224, 225, 226, 227, 228, 229, 230, 231, 232, 233, 234, 235, 236, 237, 238, 239, 240, 241, 242, 243, 244, 245, 246, 247, 248, 249, 250, 251, 252, 253, 254, 255, 256],
      "LargestImagePixelValue": [2675, 2690, 2505, 2507, 2565, 2504, 2530, 2721, 2622, 2641, 2599, 2616, 2624, 2658, 2565, 2656, 2627, 2674, 2644, 2621, 2665, 2560, 2629, 2592, 2627, 2599, 2643, 2628, 2619, 2638, 2617, 2620, 2561, 2575, 2616, 2543, 2577, 2580, 2568, 2602, 2693, 2547, 2558, 2522, 2551, 2596, 2577, 2587, 2704, 2598, 2635, 2754, 2635, 2659, 2604, 2653, 2616, 2599, 2637, 2589, 2493, 2573, 2577, 2554, 2565, 2642, 2636, 2658, 2628, 2624, 2587, 2628, 2646, 2636, 2618, 2623, 2618, 2652, 2612, 2687, 2645, 2603, 2643, 2671, 2674, 2616, 2657, 2628, 2620, 2654, 2616, 2636, 2616, 2570, 2548, 2563, 2613, 2596, 2620, 2651, 2609, 2591, 2654, 2642, 2644, 2625, 2574, 2601, 2609, 2636, 2649, 2613, 2655, 2654, 2651, 2608, 2570, 2613, 2613, 2617, 2637, 2615, 2586, 2620, 2593, 2633, 2590, 2615, 2580, 2620, 2633, 2593, 2596, 2607, 2594, 2598, 2588, 2637, 2606, 2608, 2599, 2636, 2621, 2615, 2641, 2614, 2627, 2623, 2615, 2600, 2664, 2651, 2626, 2606, 2640, 2647, 2592, 2638, 2651, 2591, 2637, 2625, 2581, 2481, 2535, 2517, 2476, 2495, 2491, 2499, 2492, 2485, 2513, 2512, 2503, 2512, 2513, 2508, 2523, 2532, 2552, 2598, 2573, 2556, 2618, 2588, 2571, 2605, 2555, 2587, 2623, 2569, 2516, 2589, 2525, 2634, 2521, 2587, 2503, 2729, 2587, 2574, 2632, 2669, 2647, 2675, 2699, 2678, 2615, 2711, 2632, 2698, 2650, 2640, 2649, 2617, 2598, 2748, 2478, 2520, 2562, 2529, 2544, 2526, 2533, 2675, 2540, 2586, 2527, 2546, 2555, 2521, 2716, 2497, 2516, 2547, 2557, 2650, 2565, 2697, 2587, 2591, 2668, 2519, 2621, 2566, 2589, 2597, 2587, 2631, 2543, 2526, 2491, 2521, 2512, 2527],
      "WindowCenter": [726.0, 722.0, 724.0, 725.0, 725.0, 724.0, 725.0, 727.0, 726.0, 725.0, 725.0, 725.0, 725.0, 725.0, 724.0, 725.0, 725.0, 727.0, 727.0, 725.0, 724.0, 723.0, 725.0, 726.0, 726.0, 725.0, 725.0, 725.0, 725.0, 726.0, 726.0, 725.0, 724.0, 726.0, 727.0, 725.0, 725.0, 724.0, 723.0, 722.0, 723.0, 721.0, 721.0, 721.0, 724.0, 724.0, 724.0, 723.0, 727.0, 727.0, 726.0, 726.0, 725.0, 727.0, 726.0, 725.0, 723.0, 722.0, 717.0, 721.0, 718.0, 717.0, 723.0, 722.0, 724.0, 725.0, 724.0, 724.0, 724.0, 724.0, 725.0, 725.0, 725.0, 724.0, 725.0, 726.0, 725.0, 725.0, 725.0, 726.0, 727.0, 726.0, 725.0, 726.0, 724.0, 721.0, 721.0, 723.0, 724.0, 723.0, 723.0, 725.0, 725.0, 724.0, 725.0, 727.0, 725.0, 723.0, 723.0, 724.0, 724.0, 724.0, 725.0, 724.0, 723.0, 724.0, 724.0, 725.0, 725.0, 725.0, 725.0, 724.0, 726.0, 727.0, 727.0, 725.0, 725.0, 725.0, 726.0, 726.0, 725.0, 724.0, 725.0, 726.0, 727.0, 727.0, 727.0, 727.0, 727.0, 727.0, 727.0, 725.0, 725.0, 724.0, 724.0, 725.0, 725.0, 726.0, 724.0, 725.0, 724.0, 725.0, 725.0, 725.0, 725.0, 724.0, 725.0, 725.0, 726.0, 724.0, 728.0, 727.0, 726.0, 726.0, 727.0, 727.0, 727.0, 727.0, 727.0, 726.0, 727.0, 726.0, 724.0, 724.0, 726.0, 725.0, 725.0, 726.0, 727.0, 727.0, 727.0, 726.0, 727.0, 727.0, 727.0, 726.0, 725.0, 725.0, 727.0, 728.0, 728.0, 729.0, 729.0, 729.0, 729.0, 728.0, 726.0, 726.0, 726.0, 726.0, 729.0, 728.0, 728.0, 729.0, 728.0, 727.0, 726.0, 727.0, 727.0, 727.0, 729.0, 727.0, 728.0, 729.0, 727.0, 726.0, 725.0, 725.0, 725.0, 726.0, 726.0, 727.0, 726.0, 724.0, 726.0, 730.0, 728.0, 726.0, 723.0, 724.0, 726.0, 726.0, 726.0, 727.0, 727.0, 728.0, 728.0, 729.0, 728.0, 728.0, 728.0, 721.0, 729.0, 726.0, 726.0, 725.0, 725.0, 726.0, 724.0, 728.0, 728.0, 727.0, 726.0, 722.0, 724.0, 725.0, 725.0, 724.0, 724.0, 725.0, 725.0, 724.0, 724.0, 725.0, 726.0, 726.0],
      "WindowWidth": [1543.0, 1532.0, 1537.0, 1539.0, 1540.0, 1537.0, 1538.0, 1545.0, 1541.0, 1540.0, 1539.0, 1540.0, 1540.0, 1541.0, 1538.0, 1539.0, 1541.0, 1545.0, 1545.0, 1540.0, 1537.0, 1536.0, 1540.0, 1542.0, 1542.0, 1540.0, 1540.0, 1539.0, 1541.0, 1543.0, 1542.0, 1541.0, 1538.0, 1543.0, 1544.0, 1539.0, 1539.0, 1538.0, 1536.0, 1533.0, 1534.0, 1530.0, 1529.0, 1531.0, 1536.0, 1537.0, 1536.0, 1536.0, 1545.0, 1544.0, 1543.0, 1540.0, 1539.0, 1543.0, 1541.0, 1539.0, 1535.0, 1534.0, 1522.0, 1531.0, 1524.0, 1521.0, 1535.0, 1532.0, 1537.0, 1539.0, 1537.0, 1536.0, 1536.0, 1538.0, 1539.0, 1540.0, 1538.0, 1538.0, 1540.0, 1542.0, 1541.0, 1540.0, 1538.0, 1542.0, 1544.0, 1543.0, 1540.0, 1541.0, 1537.0, 1531.0, 1531.0, 1535.0, 1538.0, 1536.0, 1536.0, 1541.0, 1540.0, 1536.0, 1539.0, 1544.0, 1539.0, 1535.0, 1536.0, 1536.0, 1536.0, 1538.0, 1539.0, 1536.0, 1535.0, 1536.0, 1538.0, 1540.0, 1540.0, 1540.0, 1539.0, 1537.0, 1542.0, 1545.0, 1545.0, 1540.0, 1539.0, 1541.0, 1543.0, 1542.0, 1540.0, 1538.0, 1540.0, 1543.0, 1544.0, 1544.0, 1545.0, 1545.0, 1544.0, 1545.0, 1544.0, 1540.0, 1539.0, 1538.0, 1537.0, 1539.0, 1541.0, 1541.0, 1538.0, 1539.0, 1538.0, 1540.0, 1540.0, 1540.0, 1540.0, 1539.0, 1539.0, 1539.0, 1542.0, 1539.0, 1548.0, 1544.0, 1542.0, 1543.0, 1544.0, 1544.0, 1544.0, 1544.0, 1544.0, 1543.0, 1543.0, 1541.0, 1538.0, 1537.0, 1541.0, 1541.0, 1540.0, 1541.0, 1544.0, 1544.0, 1545.0, 1543.0, 1543.0, 1544.0, 1544.0, 1542.0, 1539.0, 1539.0, 1545.0, 1547.0, 1547.0, 1549.0, 1549.0, 1549.0, 1550.0, 1546.0, 1543.0, 1542.0, 1541.0, 1543.0, 1548.0, 1547.0, 1547.0, 1549.0, 1548.0, 1545.0, 1542.0, 1545.0, 1545.0, 1543.0, 1549.0, 1544.0, 1546.0, 1548.0, 1545.0, 1542.0, 1540.0, 1539.0, 1540.0, 1542.0, 1541.0, 1544.0, 1542.0, 1537.0, 1543.0, 1552.0, 1548.0, 1542.0, 1535.0, 1537.0, 1542.0, 1541.0, 1541.0, 1543.0, 1543.0, 1545.0, 1545.0, 1549.0, 1547.0, 1546.0, 1546.0, 1530.0, 1549.0, 1542.0, 1541.0, 1540.0, 1539.0, 1540.0, 1537.0, 1545.0, 1546.0, 1544.0, 1542.0, 1533.0, 1538.0, 1539.0, 1538.0, 1536.0, 1537.0, 1540.0, 1538.0, 1535.0, 1536.0, 1540.0, 1541.0, 1541.0]
    },
    "slices": {}
  }
}