{
 "AcquisitionMatrixPE": 100,
 "AcquisitionNumber": 1,
 "AcquisitionTime": "15:39:32.295000",
 "BandwidthPerPixelPhaseEncode": 18.519,
 "BaseResolution": 100,
 "BodyPartExamined": "BRAIN",
 "ConsistencyInfo": "N4_VE11C_LATEST_20160120",
 "ConversionSoftware": "dcm2niix",
 "ConversionSoftwareVersion": "v1.0.20180622 GCC4.9.2",
 "DerivedVendorReportedEchoSpacing": 0.000539986,
 "DeviceSerialNumber": "166078",
 "DwellTime": 2.1e-06,
 "EchoTime": 0.034,
 "EchoTrainLength": 100,
 "EffectiveEchoSpacing": 0.000539986,
 "FlipAngle": 90,
 "ImageOrientationPatientDICOM": [
  1,
  0,
  0,
  0,
  0.982613,
  -0.185667
 ],
 "ImageType": [
  "ORIGINAL",
  "PRIMARY",
  "M",
  "ND",
  "MOSAIC"
 ],
 "InPlanePhaseEncodingDirectionDICOM": "COL",
 "InstitutionAddress": "Street_StreetNo_Bei_Jing_District_CN_ZIP",
 "InstitutionName": "BeiJing_Normal_University",
 "InstitutionalDepartmentName": "Department",
 "MRAcquisitionType": "2D",
 "MagneticFieldStrength": 3,
 "Manufacturer": "Siemens",
 "ManufacturersModelName": "Prisma",
 "Modality": "MR",
 "MultibandAccelerationFactor": 3,
 "PartialFourier": 1,
 "PatientPosition": "HFS",
 "PercentPhaseFOV": 100,
 "PhaseEncodingDirection": "j-",
 "PhaseEncodingSteps": 100,
 "PhaseResolution": 1,
 "PixelBandwidth": 2380,
 "ProcedureStepDescription": "BNU_P2018_64CH_Zhen.ZongLei",
 "ProtocolName": "bold_100x100_s3_2x2x2_static_256",
 "PulseSequenceDetails": "%SiemensSeq%_ep2d_bold",
 "ReceiveCoilActiveElements": "HC1-7;NC1",
 "ReceiveCoilName": "HeadNeck_64",
 "ReconMatrixPE": 100,
 "RepetitionTime": 2,
 "SAR": 0.0862686,
 "ScanOptions": "FS",
 "ScanningSequence": "EP",
 "SequenceName": "_epfid2d1_100",
 "SequenceVariant": "SK",
 "SeriesDescription": "bold_100x100_s3_2x2x2_static_256",
 "SeriesNumber": 10,
 "ShimSetting": [
  -5452,
  -11487,
  -1226,
  373,
  2,
  -131,
  -150,
  66
 ],
 "SliceThickness": 2,
 "SliceTiming": [
  1.4825,
  0,
  0.9875,
  0.0825,
  1.07,
  0.165,
  1.1525,
  0.2475,
  1.235,
  0.33,
  1.3175,
  0.4125,
  1.4,
  0.5775,
  1.565,
  0.66,
  1.6475,
  0.7425,
  1.73,
  0.8225,
  1.8125,
  0.905,
  1.895,
  0.495,
  1.4825,
  0,
  0.9875,
  0.0825,
  1.07,
  0.165,
  1.1525,
  0.2475,
  1.235,
  0.33,
  1.3175,
  0.4125,
  1.4,
  0.5775,
  1.565,
  0.66,
  1.6475,
  0.7425,
  1.73,
  0.8225,
  1.8125,
  0.905,
  1.895,
  0.495,
  1.4825,
  0,
  0.9875,
  0.0825,
  1.07,
  0.165,
  1.1525,
  0.2475,
  1.235,
  0.33,
  1.3175,
  0.4125,
  1.4,
  0.5775,
  1.565,
  0.66,
  1.6475,
  0.7425,
  1.73,
  0.8225,
  1.8125,
  0.905,
  1.895,
  0.495
 ],
 "SoftwareVersions": "syngo_MR_E11",
 "SpacingBetweenSlices": 2,
 "StationName": "AWP166078",
 "TaskName": "imagenet",
 "TotalReadoutTime": 0.0534586,
 "TxRefAmp": 228.481,
 "dcmmeta_affine": [
  [
   -2.0,
   0.0,
   0.0,
   100.0
  ],
  [
   0.0,
   1.9652255773544312,
   -0.37133321166038513,
   -84.06312561035156
  ],
  [
   0.0,
   0.37133321166038513,
   1.9652255773544312,
   -68.39456939697266
  ],
  [
   0.0,
   0.0,
   0.0,
   1.0
  ]
 ],
 "dcmmeta_reorient_transform": [
  [
   0.0,
   -1.0,
   0.0,
   99.0
  ],
  [
   1.0,
   0.0,
   0.0,
   0.0
  ],
  [
   0.0,
   0.0,
   1.0,
   0.0
  ],
  [
   0.0,
   0.0,
   0.0,
   1.0
  ]
 ],
 "dcmmeta_shape": [
  100,
  100,
  72,
  256
 ],
 "dcmmeta_slice_dim": 2,
 "dcmmeta_version": 0.6,
 "global": {
  "const": {
   "AcquisitionMatrix": [
    100,
    0,
    0,
    100
   ],
   "AngioFlag": "N",
   "BitsAllocated": 16,
   "BitsStored": 12,
   "BodyPartExamined": "BRAIN",
   "Columns": 900,
   "EchoNumbers": 1,
   "EchoTime": 34.0,
   "EchoTrainLength": 100,
   "FlipAngle": 90.0,
   "HighBit": 11,
   "ImageOrientationPatient": [
    1.0,
    0.0,
    0.0,
    0.0,
    0.9826127972607,
    -0.1856666115905
   ],
   "ImagePositionPatient": [
    -900.0,
    -896.58444962539,
    116.90070879329
   ],
   "ImageType": [
    "ORIGINAL",
    "PRIMARY",
    "M",
    "ND",
    "MOSAIC"
   ],
   "ImagedNucleus": "1H",
   "ImagingFrequency": 123.257749,
   "InPlanePhaseEncodingDirection": "COL",
   "MRAcquisitionType": "2D",
   "MagneticFieldStrength": 3.0,
   "Manufacturer": "SIEMENS",
   "ManufacturerModelName": "Prisma",
   "Modality": "MR",
   "NumberOfAverages": 1.0,
   "NumberOfPhaseEncodingSteps": 100,
   "PercentPhaseFieldOfView": 100.0,
   "PercentSampling": 100.0,
   "PerformedProcedureStepStartTime": "144208.776000",
   "PhotometricInterpretation": "MONOCHROME2",
   "PixelBandwidth": 2380.0,
   "PixelRepresentation": 0,
   "PixelSpacing": [
    2.0,
    2.0
   ],
   "ProtocolName": "bold_100x100_s3_2x2x2_static_256",
   "RepetitionTime": 2000.0,
   "Rows": 900,
   "SAR": 0.08626863862993,
   "SamplesPerPixel": 1,
   "ScanOptions": "FS",
   "ScanningSequence": "EP",
   "SequenceName": "*epfid2d1_100",
   "SequenceVariant": "SK",
   "SeriesDescription": "bold_100x100_s3_2x2x2_static_256",
   "SeriesNumber": 10,
   "SeriesTime": "153934.452000",
   "SliceLocation": -51.59766429757,
   "SliceThickness": 2.0,
   "SmallestImagePixelValue": 0,
   "SoftwareVersions": "syngo MR E11",
   "SpacingBetweenSlices": 1.9999999496976,
   "SpecificCharacterSet": "ISO_IR 100",
   "StudyID": "1",
   "StudyTime": "144208.691000",
   "TransmitCoilName": "Body",
   "VariableFlipAngleFlag": "N",
   "WindowCenterWidthExplanation": "Algo1",
   "dBdt": 0.0
  },
  "slices": {}
 },
 "time": {
  "samples": {
   "AcquisitionNumber": [
    1,
    2,
    3,
    4,
    5,
    6,
    7,
    8,
    9,
    10,
    11,
    12,
    13,
    14,
    15,
    16,
    17,
    18,
    19,
    20,
    21,
    22,
    23,
    24,
    25,
    26,
    27,
    28,
    29,
    30,
    31,
    32,
    33,
    34,
    35,
    36,
    37,
    38,
    39,
    40,
    41,
    42,
    43,
    44,
    45,
    46,
    47,
    48,
    49,
    50,
    51,
    52,
    53,
    54,
    55,
    56,
    57,
    58,
    59,
    60,
    61,
    62,
    63,
    64,
    65,
    66,
    67,
    68,
    69,
    70,
    71,
    72,
    73,
    74,
    75,
    76,
    77,
    78,
    79,
    80,
    81,
    82,
    83,
    84,
    85,
    86,
    87,
    88,
    89,
    90,
    91,
    92,
    93,
    94,
    95,
    96,
    97,
    98,
    99,
    100,
    101,
    102,
    103,
    104,
    105,
    106,
    107,
    108,
    109,
    110,
    111,
    112,
    113,
    114,
    115,
    116,
    117,
    118,
    119,
    120,
    121,
    122,
    123,
    124,
    125,
    126,
    127,
    128,
    129,
    130,
    131,
    132,
    133,
    134,
    135,
    136,
    137,
    138,
    139,
    140,
    141,
    142,
    143,
    144,
    145,
    146,
    147,
    148,
    149,
    150,
    151,
    152,
    153,
    154,
    155,
    156,
    157,
    158,
    159,
    160,
    161,
    162,
    163,
    164,
    165,
    166,
    167,
    168,
    169,
    170,
    171,
    172,
    173,
    174,
    175,
    176,
    177,
    178,
    179,
    180,
    181,
    182,
    183,
    184,
    185,
    186,
    187,
    188,
    189,
    190,
    191,
    192,
    193,
    194,
    195,
    196,
    197,
    198,
    199,
    200,
    201,
    202,
    203,
    204,
    205,
    206,
    207,
    208,
    209,
    210,
    211,
    212,
    213,
    214,
    215,
    216,
    217,
    218,
    219,
    220,
    221,
    222,
    223,
    224,
    225,
    226,
    227,
    228,
    229,
    230,
    231,
    232,
    233,
    234,
    235,
    236,
    237,
    238,
    239,
    240,
    241,
    242,
    243,
    244,
    245,
    246,
    247,
    248,
    249,
    250,
    251,
    252,
    253,
    254,
    255,
    256
   ],
   "AcquisitionTime": [
    "153932.295000",
    "153934.295000",
    "153936.295000",
    "153938.295000",
    "153940.295000",
    "153942.295000",
    "153944.295000",
    "153946.295000",
    "153948.295000",
    "153950.295000",
    "153952.295000",
    "153954.295000",
    "153956.295000",
    "153958.295000",
    "154000.295000",
    "154002.295000",
    "154004.295000",
    "154006.295000",
    "154008.295000",
    "154010.295000",
    "154012.295000",
    "154014.295000",
    "154016.295000",
    "154018.295000",
    "154020.295000",
    "154022.295000",
    "154024.295000",
    "154026.295000",
    "154028.295000",
    "154030.295000",
    "154032.295000",
    "154034.295000",
    "154036.295000",
    "154038.295000",
    "154040.295000",
    "154042.295000",
    "154044.295000",
    "154046.295000",
    "154048.295000",
    "154050.295000",
    "154052.295000",
    "154054.295000",
    "154056.295000",
    "154058.295000",
    "154100.295000",
    "154102.295000",
    "154104.295000",
    "154106.295000",
    "154108.295000",
    "154110.295000",
    "154112.295000",
    "154114.295000",
    "154116.295000",
    "154118.295000",
    "154120.295000",
    "154122.295000",
    "154124.295000",
    "154126.295000",
    "154128.295000",
    "154130.295000",
    "154132.295000",
    "154134.295000",
    "154136.295000",
    "154138.295000",
    "154140.295000",
    "154142.295000",
    "154144.295000",
    "154146.295000",
    "154148.295000",
    "154150.295000",
    "154152.295000",
    "154154.295000",
    "154156.295000",
    "154158.295000",
    "154200.295000",
    "154202.295000",
    "154204.295000",
    "154206.295000",
    "154208.295000",
    "154210.295000",
    "154212.295000",
    "154214.295000",
    "154216.295000",
    "154218.295000",
    "154220.295000",
    "154222.295000",
    "154224.295000",
    "154226.295000",
    "154228.295000",
    "154230.295000",
    "154232.295000",
    "154234.295000",
    "154236.295000",
    "154238.295000",
    "154240.295000",
    "154242.295000",
    "154244.295000",
    "154246.295000",
    "154248.295000",
    "154250.295000",
    "154252.295000",
    "154254.295000",
    "154256.295000",
    "154258.295000",
    "154300.295000",
    "154302.295000",
    "154304.295000",
    "154306.295000",
    "154308.295000",
    "154310.295000",
    "154312.295000",
    "154314.295000",
    "154316.295000",
    "154318.295000",
    "154320.295000",
    "154322.295000",
    "154324.295000",
    "154326.295000",
    "154328.295000",
    "154330.295000",
    "154332.295000",
    "154334.295000",
    "154336.295000",
    "154338.295000",
    "154340.295000",
    "154342.295000",
    "154344.295000",
    "154346.295000",
    "154348.295000",
    "154350.295000",
    "154352.295000",
    "154354.295000",
    "154356.295000",
    "154358.295000",
    "154400.295000",
    "154402.295000",
    "154404.295000",
    "154406.295000",
    "154408.295000",
    "154410.295000",
    "154412.295000",
    "154414.295000",
    "154416.295000",
    "154418.295000",
    "154420.295000",
    "154422.295000",
    "154424.295000",
    "154426.295000",
    "154428.295000",
    "154430.295000",
    "154432.295000",
    "154434.295000",
    "154436.295000",
    "154438.295000",
    "154440.295000",
    "154442.295000",
    "154444.295000",
    "154446.295000",
    "154448.295000",
    "154450.295000",
    "154452.295000",
    "154454.295000",
    "154456.295000",
    "154458.295000",
    "154500.295000",
    "154502.295000",
    "154504.295000",
    "154506.295000",
    "154508.295000",
    "154510.295000",
    "154512.295000",
    "154514.295000",
    "154516.295000",
    "154518.295000",
    "154520.295000",
    "154522.295000",
    "154524.295000",
    "154526.295000",
    "154528.295000",
    "154530.295000",
    "154532.295000",
    "154534.295000",
    "154536.295000",
    "154538.295000",
    "154540.295000",
    "154542.295000",
    "154544.295000",
    "154546.295000",
    "154548.295000",
    "154550.295000",
    "154552.295000",
    "154554.295000",
    "154556.295000",
    "154558.295000",
    "154600.295000",
    "154602.295000",
    "154604.295000",
    "154606.295000",
    "154608.295000",
    "154610.295000",
    "154612.295000",
    "154614.295000",
    "154616.295000",
    "154618.295000",
    "154620.295000",
    "154622.295000",
    "154624.295000",
    "154626.295000",
    "154628.295000",
    "154630.295000",
    "154632.295000",
    "154634.295000",
    "154636.295000",
    "154638.295000",
    "154640.295000",
    "154642.295000",
    "154644.295000",
    "154646.295000",
    "154648.295000",
    "154650.295000",
    "154652.295000",
    "154654.295000",
    "154656.295000",
    "154658.295000",
    "154700.295000",
    "154702.295000",
    "154704.295000",
    "154706.295000",
    "154708.295000",
    "154710.295000",
    "154712.295000",
    "154714.295000",
    "154716.295000",
    "154718.295000",
    "154720.295000",
    "154722.295000",
    "154724.295000",
    "154726.295000",
    "154728.295000",
    "154730.295000",
    "154732.295000",
    "154734.295000",
    "154736.295000",
    "154738.295000",
    "154740.295000",
    "154742.295000",
    "154744.295000",
    "154746.295000",
    "154748.295000",
    "154750.295000",
    "154752.295000",
    "154754.295000",
    "154756.295000",
    "154758.295000",
    "154800.295000",
    "154802.295000"
   ],
   "ContentTime": [
    "153934.455000",
    "153935.950000",
    "153937.950000",
    "153939.950000",
    "153941.951000",
    "153943.951000",
    "153945.949000",
    "153947.949000",
    "153949.950000",
    "153951.950000",
    "153953.951000",
    "153955.950000",
    "153957.950000",
    "153959.950000",
    "154001.950000",
    "154003.950000",
    "154005.950000",
    "154007.950000",
    "154009.950000",
    "154011.951000",
    "154013.951000",
    "154015.950000",
    "154017.950000",
    "154019.951000",
    "154021.950000",
    "154023.949000",
    "154025.949000",
    "154027.951000",
    "154029.950000",
    "154031.950000",
    "154033.950000",
    "154035.951000",
    "154037.950000",
    "154039.950000",
    "154041.949000",
    "154043.950000",
    "154045.950000",
    "154047.951000",
    "154049.951000",
    "154051.950000",
    "154053.950000",
    "154055.949000",
    "154057.950000",
    "154059.949000",
    "154101.950000",
    "154103.951000",
    "154105.950000",
    "154107.950000",
    "154109.950000",
    "154111.950000",
    "154113.949000",
    "154115.950000",
    "154117.949000",
    "154119.951000",
    "154121.951000",
    "154123.950000",
    "154125.950000",
    "154127.950000",
    "154129.950000",
    "154131.949000",
    "154133.950000",
    "154135.949000",
    "154137.950000",
    "154139.950000",
    "154141.950000",
    "154143.950000",
    "154145.950000",
    "154147.950000",
    "154149.950000",
    "154151.950000",
    "154153.950000",
    "154155.950000",
    "154157.951000",
    "154159.951000",
    "154201.951000",
    "154203.950000",
    "154205.949000",
    "154207.950000",
    "154209.949000",
    "154211.951000",
    "154213.950000",
    "154215.951000",
    "154217.950000",
    "154219.951000",
    "154221.951000",
    "154223.949000",
    "154225.949000",
    "154227.949000",
    "154229.950000",
    "154231.950000",
    "154233.951000",
    "154235.950000",
    "154237.951000",
    "154239.950000",
    "154241.950000",
    "154243.950000",
    "154245.949000",
    "154247.950000",
    "154249.950000",
    "154251.951000",
    "154253.951000",
    "154255.950000",
    "154257.951000",
    "154259.949000",
    "154301.949000",
    "154303.950000",
    "154305.950000",
    "154307.951000",
    "154309.950000",
    "154311.950000",
    "154313.951000",
    "154315.950000",
    "154317.949000",
    "154319.949000",
    "154321.950000",
    "154323.950000",
    "154325.950000",
    "154327.950000",
    "154329.950000",
    "154331.951000",
    "154333.949000",
    "154335.949000",
    "154337.950000",
    "154339.950000",
    "154341.951000",
    "154343.951000",
    "154345.950000",
    "154347.950000",
    "154349.951000",
    "154351.950000",
    "154353.949000",
    "154355.949000",
    "154357.950000",
    "154359.951000",
    "154401.950000",
    "154403.950000",
    "154405.951000",
    "154407.950000",
    "154409.950000",
    "154411.950000",
    "154413.950000",
    "154415.951000",
    "154417.950000",
    "154419.951000",
    "154421.950000",
    "154423.951000",
    "154425.950000",
    "154427.950000",
    "154429.949000",
    "154431.950000",
    "154433.951000",
    "154435.951000",
    "154437.951000",
    "154439.950000",
    "154441.951000",
    "154443.950000",
    "154445.949000",
    "154447.950000",
    "154449.950000",
    "154451.951000",
    "154453.950000",
    "154455.951000",
    "154457.951000",
    "154459.951000",
    "154501.950000",
    "154503.950000",
    "154505.950000",
    "154507.950000",
    "154509.950000",
    "154511.951000",
    "154513.950000",
    "154515.951000",
    "154517.951000",
    "154519.950000",
    "154521.950000",
    "154523.951000",
    "154525.950000",
    "154527.951000",
    "154529.950000",
    "154531.950000",
    "154533.950000",
    "154535.950000",
    "154537.949000",
    "154539.950000",
    "154541.950000",
    "154543.951000",
    "154545.951000",
    "154547.951000",
    "154549.950000",
    "154551.951000",
    "154553.950000",
    "154555.949000",
    "154557.949000",
    "154559.951000",
    "154601.951000",
    "154603.950000",
    "154605.950000",
    "154607.951000",
    "154609.951000",
    "154611.949000",
    "154613.949000",
    "154615.950000",
    "154617.950000",
    "154619.950000",
    "154621.950000",
    "154623.951000",
    "154625.951000",
    "154627.951000",
    "154629.950000",
    "154631.950000",
    "154633.950000",
    "154635.950000",
    "154637.950000",
    "154639.951000",
    "154641.951000",
    "154643.951000",
    "154645.949000",
    "154647.950000",
    "154649.950000",
    "154651.950000",
    "154653.951000",
    "154655.950000",
    "154657.950000",
    "154659.951000",
    "154701.951000",
    "154703.949000",
    "154705.950000",
    "154707.950000",
    "154709.950000",
    "154711.951000",
    "154713.951000",
    "154715.951000",
    "154717.951000",
    "154719.950000",
    "154721.950000",
    "154723.950000",
    "154725.950000",
    "154727.951000",
    "154729.950000",
    "154731.951000",
    "154733.951000",
    "154735.950000",
    "154737.950000",
    "154739.950000",
    "154741.949000",
    "154743.950000",
    "154745.950000",
    "154747.950000",
    "154749.951000",
    "154751.950000",
    "154753.951000",
    "154755.950000",
    "154757.950000",
    "154759.960000",
    "154801.951000",
    "154803.727000"
   ],
   "InstanceCreationTime": [
    "153934.455000",
    "153935.950000",
    "153937.950000",
    "153939.950000",
    "153941.951000",
    "153943.951000",
    "153945.949000",
    "153947.949000",
    "153949.950000",
    "153951.950000",
    "153953.951000",
    "153955.950000",
    "153957.950000",
    "153959.950000",
    "154001.950000",
    "154003.950000",
    "154005.950000",
    "154007.950000",
    "154009.950000",
    "154011.951000",
    "154013.951000",
    "154015.950000",
    "154017.950000",
    "154019.951000",
    "154021.950000",
    "154023.949000",
    "154025.949000",
    "154027.951000",
    "154029.950000",
    "154031.950000",
    "154033.950000",
    "154035.951000",
    "154037.950000",
    "154039.950000",
    "154041.949000",
    "154043.950000",
    "154045.950000",
    "154047.951000",
    "154049.951000",
    "154051.950000",
    "154053.950000",
    "154055.949000",
    "154057.950000",
    "154059.949000",
    "154101.950000",
    "154103.951000",
    "154105.950000",
    "154107.950000",
    "154109.950000",
    "154111.950000",
    "154113.949000",
    "154115.950000",
    "154117.949000",
    "154119.951000",
    "154121.951000",
    "154123.950000",
    "154125.950000",
    "154127.950000",
    "154129.950000",
    "154131.949000",
    "154133.950000",
    "154135.949000",
    "154137.950000",
    "154139.950000",
    "154141.950000",
    "154143.950000",
    "154145.950000",
    "154147.950000",
    "154149.950000",
    "154151.950000",
    "154153.950000",
    "154155.950000",
    "154157.951000",
    "154159.951000",
    "154201.951000",
    "154203.950000",
    "154205.949000",
    "154207.950000",
    "154209.949000",
    "154211.951000",
    "154213.950000",
    "154215.951000",
    "154217.950000",
    "154219.951000",
    "154221.951000",
    "154223.949000",
    "154225.949000",
    "154227.949000",
    "154229.950000",
    "154231.950000",
    "154233.951000",
    "154235.950000",
    "154237.951000",
    "154239.950000",
    "154241.950000",
    "154243.950000",
    "154245.949000",
    "154247.950000",
    "154249.950000",
    "154251.951000",
    "154253.951000",
    "154255.950000",
    "154257.951000",
    "154259.949000",
    "154301.949000",
    "154303.950000",
    "154305.950000",
    "154307.951000",
    "154309.950000",
    "154311.950000",
    "154313.951000",
    "154315.950000",
    "154317.949000",
    "154319.949000",
    "154321.950000",
    "154323.950000",
    "154325.950000",
    "154327.950000",
    "154329.950000",
    "154331.951000",
    "154333.949000",
    "154335.949000",
    "154337.950000",
    "154339.950000",
    "154341.951000",
    "154343.951000",
    "154345.950000",
    "154347.950000",
    "154349.951000",
    "154351.950000",
    "154353.949000",
    "154355.949000",
    "154357.950000",
    "154359.951000",
    "154401.950000",
    "154403.950000",
    "154405.951000",
    "154407.950000",
    "154409.950000",
    "154411.950000",
    "154413.950000",
    "154415.951000",
    "154417.950000",
    "154419.951000",
    "154421.950000",
    "154423.951000",
    "154425.950000",
    "154427.950000",
    "154429.949000",
    "154431.950000",
    "154433.951000",
    "154435.951000",
    "154437.951000",
    "154439.950000",
    "154441.951000",
    "154443.950000",
    "154445.949000",
    "154447.950000",
    "154449.950000",
    "154451.951000",
    "154453.950000",
    "154455.951000",
    "154457.951000",
    "154459.951000",
    "154501.950000",
    "154503.950000",
    "154505.950000",
    "154507.950000",
    "154509.950000",
    "154511.951000",
    "154513.950000",
    "154515.951000",
    "154517.951000",
    "154519.950000",
    "154521.950000",
    "154523.951000",
    "154525.950000",
    "154527.951000",
    "154529.950000",
    "154531.950000",
    "154533.950000",
    "154535.950000",
    "154537.949000",
    "154539.950000",
    "154541.950000",
    "154543.951000",
    "154545.951000",
    "154547.951000",
    "154549.950000",
    "154551.951000",
    "154553.950000",
    "154555.949000",
    "154557.949000",
    "154559.951000",
    "154601.951000",
    "154603.950000",
    "154605.950000",
    "154607.951000",
    "154609.951000",
    "154611.949000",
    "154613.949000",
    "154615.950000",
    "154617.950000",
    "154619.950000",
    "154621.950000",
    "154623.951000",
    "154625.951000",
    "154627.951000",
    "154629.950000",
    "154631.950000",
    "154633.950000",
    "154635.950000",
    "154637.950000",
    "154639.951000",
    "154641.951000",
    "154643.951000",
    "154645.949000",
    "154647.950000",
    "154649.950000",
    "154651.950000",
    "154653.951000",
    "154655.950000",
    "154657.950000",
    "154659.951000",
    "154701.951000",
    "154703.949000",
    "154705.950000",
    "154707.950000",
    "154709.950000",
    "154711.951000",
    "154713.951000",
    "154715.951000",
    "154717.951000",
    "154719.950000",
    "154721.950000",
    "154723.950000",
    "154725.950000",
    "154727.951000",
    "154729.950000",
    "154731.951000",
    "154733.951000",
    "154735.950000",
    "154737.950000",
    "154739.950000",
    "154741.949000",
    "154743.950000",
    "154745.950000",
    "154747.950000",
    "154749.951000",
    "154751.950000",
    "154753.951000",
    "154755.950000",
    "154757.950000",
    "154759.960000",
    "154801.951000",
    "154803.727000"
   ],
   "InstanceNumber": [
    1,
    2,
    3,
    4,
    5,
    6,
    7,
    8,
    9,
    10,
    11,
    12,
    13,
    14,
    15,
    16,
    17,
    18,
    19,
    20,
    21,
    22,
    23,
    24,
    25,
    26,
    27,
    28,
    29,
    30,
    31,
    32,
    33,
    34,
    35,
    36,
    37,
    38,
    39,
    40,
    41,
    42,
    43,
    44,
    45,
    46,
    47,
    48,
    49,
    50,
    51,
    52,
    53,
    54,
    55,
    56,
    57,
    58,
    59,
    60,
    61,
    62,
    63,
    64,
    65,
    66,
    67,
    68,
    69,
    70,
    71,
    72,
    73,
    74,
    75,
    76,
    77,
    78,
    79,
    80,
    81,
    82,
    83,
    84,
    85,
    86,
    87,
    88,
    89,
    90,
    91,
    92,
    93,
    94,
    95,
    96,
    97,
    98,
    99,
    100,
    101,
    102,
    103,
    104,
    105,
    106,
    107,
    108,
    109,
    110,
    111,
    112,
    113,
    114,
    115,
    116,
    117,
    118,
    119,
    120,
    121,
    122,
    123,
    124,
    125,
    126,
    127,
    128,
    129,
    130,
    131,
    132,
    133,
    134,
    135,
    136,
    137,
    138,
    139,
    140,
    141,
    142,
    143,
    144,
    145,
    146,
    147,
    148,
    149,
    150,
    151,
    152,
    153,
    154,
    155,
    156,
    157,
    158,
    159,
    160,
    161,
    162,
    163,
    164,
    165,
    166,
    167,
    168,
    169,
    170,
    171,
    172,
    173,
    174,
    175,
    176,
    177,
    178,
    179,
    180,
    181,
    182,
    183,
    184,
    185,
    186,
    187,
    188,
    189,
    190,
    191,
    192,
    193,
    194,
    195,
    196,
    197,
    198,
    199,
    200,
    201,
    202,
    203,
    204,
    205,
    206,
    207,
    208,
    209,
    210,
    211,
    212,
    213,
    214,
    215,
    216,
    217,
    218,
    219,
    220,
    221,
    222,
    223,
    224,
    225,
    226,
    227,
    228,
    229,
    230,
    231,
    232,
    233,
    234,
    235,
    236,
    237,
    238,
    239,
    240,
    241,
    242,
    243,
    244,
    245,
    246,
    247,
    248,
    249,
    250,
    251,
    252,
    253,
    254,
    255,
    256
   ],
   "LargestImagePixelValue": [
    4095,
    4095,
    4095,
    4095,
    4095,
    4095,
    4095,
    4095,
    4095,
    4095,
    4095,
    4095,
    4095,
    4095,
    4095,
    4095,
    4095,
    4095,
    4095,
    4095,
    4095,
    4095,
    4095,
    4095,
    4095,
    4095,
    4095,
    4095,
    4095,
    4095,
    4095,
    4095,
    4095,
    4095,
    4095,
    4095,
    4095,
    4095,
    4095,
    4095,
    4095,
    4095,
    4095,
    4095,
    4095,
    4095,
    4095,
    4095,
    4083,
    4014,
    4095,
    4077,
    4048,
    4018,
    4001,
    4065,
    4018,
    3959,
    4069,
    4000,
    3961,
    3984,
    4047,
    4016,
    3978,
    4009,
    4007,
    4017,
    4001,
    4015,
    4053,
    4066,
    4076,
    4033,
    3974,
    3958,
    3993,
    4032,
    4048,
    4013,
    4007,
    4004,
    4005,
    4027,
    4041,
    4054,
    3996,
    3992,
    3979,
    4030,
    4019,
    4051,
    4025,
    4028,
    3973,
    3971,
    3989,
    3930,
    3942,
    4005,
    3963,
    4046,
    4008,
    4013,
    3969,
    4000,
    4001,
    3995,
    4006,
    4008,
    3959,
    4017,
    4011,
    4020,
    3968,
    4052,
    4064,
    4095,
    4056,
    4029,
    3998,
    3985,
    3956,
    3967,
    3928,
    3909,
    3935,
    3997,
    4008,
    4005,
    3935,
    3980,
    4029,
    3997,
    3980,
    3930,
    3903,
    3898,
    3893,
    3913,
    3867,
    3878,
    3886,
    3891,
    3839,
    3873,
    3886,
    3957,
    3996,
    3995,
    4010,
    4050,
    4038,
    4035,
    3978,
    3967,
    3994,
    3952,
    3895,
    3918,
    3880,
    3848,
    3871,
    3895,
    3910,
    3954,
    3928,
    3837,
    3839,
    3873,
    3903,
    3940,
    3942,
    3954,
    3898,
    3904,
    3928,
    3956,
    3837,
    3925,
    3870,
    3889,
    3880,
    3882,
    3907,
    3915,
    3950,
    3890,
    3926,
    3941,
    3881,
    3859,
    3881,
    3873,
    3870,
    3892,
    3892,
    3929,
    3913,
    3925,
    3930,
    3991,
    3946,
    3952,
    3986,
    4005,
    4066,
    4040,
    3971,
    3931,
    3906,
    3905,
    3950,
    3985,
    3962,
    3984,
    3957,
    3885,
    3896,
    3884,
    3922,
    3940,
    3893,
    3883,
    3883,
    3884,
    3920,
    3899,
    3823,
    3875,
    3847,
    3867,
    3891,
    3918,
    3940,
    3942,
    3922,
    3916,
    3905,
    3885,
    3869,
    3889,
    3863,
    3870,
    3834,
    3854,
    3877,
    3915,
    3945,
    3980,
    3990,
    3951,
    3914,
    3888,
    3850,
    3882
   ],
   "WindowCenter": [
    886.0,
    883.0,
    883.0,
    883.0,
    883.0,
    883.0,
    883.0,
    883.0,
    883.0,
    882.0,
    882.0,
    883.0,
    883.0,
    881.0,
    879.0,
    878.0,
    880.0,
    881.0,
    882.0,
    883.0,
    881.0,
    881.0,
    882.0,
    883.0,
    882.0,
    882.0,
    881.0,
    881.0,
    881.0,
    882.0,
    881.0,
    880.0,
    879.0,
    880.0,
    881.0,
    882.0,
    882.0,
    880.0,
    880.0,
    880.0,
    880.0,
    881.0,
    881.0,
    880.0,
    879.0,
    879.0,
    880.0,
    881.0,
    881.0,
    880.0,
    880.0,
    881.0,
    881.0,
    880.0,
    879.0,
    879.0,
    878.0,
    878.0,
    879.0,
    878.0,
    878.0,
    879.0,
    880.0,
    880.0,
    880.0,
    880.0,
    879.0,
    880.0,
    880.0,
    881.0,
    881.0,
    882.0,
    881.0,
    879.0,
    878.0,
    879.0,
    882.0,
    882.0,
    882.0,
    881.0,
    881.0,
    881.0,
    881.0,
    881.0,
    881.0,
    882.0,
    883.0,
    882.0,
    881.0,
    882.0,
    883.0,
    882.0,
    881.0,
    881.0,
    882.0,
    883.0,
    882.0,
    881.0,
    879.0,
    879.0,
    880.0,
    880.0,
    880.0,
    880.0,
    879.0,
    880.0,
    881.0,
    881.0,
    881.0,
    880.0,
    880.0,
    881.0,
    881.0,
    879.0,
    878.0,
    879.0,
    881.0,
    883.0,
    881.0,
    879.0,
    878.0,
    879.0,
    880.0,
    881.0,
    881.0,
    880.0,
    881.0,
