{
 "AcquisitionMatrixPE": 100,
 "AcquisitionNumber": 1,
 "AcquisitionTime": "12:24:56.855000",
 "BandwidthPerPixelPhaseEncode": 18.519,
 "BaseResolution": 100,
 "BodyPartExamined": "BRAIN",
 "ConsistencyInfo": "N4_VE11C_LATEST_20160120",
 "ConversionSoftware": "dcm2niix",
 "ConversionSoftwareVersion": "v1.0.20180622 GCC4.9.2",
 "DerivedVendorReportedEchoSpacing": 0.000539986,
 "DeviceSerialNumber": "166078",
 "DwellTime": 2.1e-06,
 "EchoTime": 0.034,
 "EchoTrainLength": 100,
 "EffectiveEchoSpacing": 0.000539986,
 "FlipAngle": 90,
 "ImageOrientationPatientDICOM": [
  1,
  0,
  0,
  0,
  0.984196,
  -0.177085
 ],
 "ImageType": [
  "ORIGINAL",
  "PRIMARY",
  "M",
  "ND",
  "MOSAIC"
 ],
 "InPlanePhaseEncodingDirectionDICOM": "COL",
 "InstitutionAddress": "Street_StreetNo_Bei_Jing_District_CN_ZIP",
 "InstitutionName": "BeiJing_Normal_University",
 "InstitutionalDepartmentName": "Department",
 "MRAcquisitionType": "2D",
 "MagneticFieldStrength": 3,
 "Manufacturer": "Siemens",
 "ManufacturersModelName": "Prisma",
 "Modality": "MR",
 "MultibandAccelerationFactor": 3,
 "PartialFourier": 1,
 "PatientPosition": "HFS",
 "PercentPhaseFOV": 100,
 "PhaseEncodingDirection": "j-",
 "PhaseEncodingSteps": 100,
 "PhaseResolution": 1,
 "PixelBandwidth": 2380,
 "ProcedureStepDescription": "BNU_P2018_64CH_Zhen.ZongLei",
 "ProtocolName": "bold_100x100_s3_2x2x2_static_256",
 "PulseSequenceDetails": "%SiemensSeq%_ep2d_bold",
 "ReceiveCoilActiveElements": "HC1-7;NC1",
 "ReceiveCoilName": "HeadNeck_64",
 "ReconMatrixPE": 100,
 "RepetitionTime": 2,
 "SAR": 0.0826949,
 "ScanOptions": "FS",
 "ScanningSequence": "EP",
 "SequenceName": "_epfid2d1_100",
 "SequenceVariant": "SK",
 "SeriesDescription": "bold_100x100_s3_2x2x2_static_256",
 "SeriesNumber": 16,
 "ShimSetting": [
  -5468,
  -11492,
  -1268,
  407,
  -31,
  -153,
  -166,
  88
 ],
 "SliceThickness": 2,
 "SliceTiming": [
  1.485,
  0,
  0.99,
  0.0825,
  1.0725,
  0.165,
  1.155,
  0.2475,
  1.2375,
  0.33,
  1.32,
  0.4125,
  1.4025,
  0.5775,
  1.5675,
  0.66,
  1.65,
  0.7425,
  1.7325,
  0.825,
  1.815,
  0.9075,
  1.8975,
  0.495,
  1.485,
  0,
  0.99,
  0.0825,
  1.0725,
  0.165,
  1.155,
  0.2475,
  1.2375,
  0.33,
  1.32,
  0.4125,
  1.4025,
  0.5775,
  1.5675,
  0.66,
  1.65,
  0.7425,
  1.7325,
  0.825,
  1.815,
  0.9075,
  1.8975,
  0.495,
  1.485,
  0,
  0.99,
  0.0825,
  1.0725,
  0.165,
  1.155,
  0.2475,
  1.2375,
  0.33,
  1.32,
  0.4125,
  1.4025,
  0.5775,
  1.5675,
  0.66,
  1.65,
  0.7425,
  1.7325,
  0.825,
  1.815,
  0.9075,
  1.8975,
  0.495
 ],
 "SoftwareVersions": "syngo_MR_E11",
 "SpacingBetweenSlices": 2,
 "StationName": "AWP166078",
 "TaskName": "imagenet",
 "TotalReadoutTime": 0.0534586,
 "TxRefAmp": 232.612,
 "dcmmeta_affine": [
  [
   -2.0,
   0.0,
   0.0,
   100.0
  ],
  [
   0.0,
   1.9683911800384521,
   -0.35416948795318604,
   -84.13357543945312
  ],
  [
   0.0,
   0.35416948795318604,
   1.9683911800384521,
   -89.35267639160156
  ],
  [
   0.0,
   0.0,
   0.0,
   1.0
  ]
 ],
 "dcmmeta_reorient_transform": [
  [
   0.0,
   -1.0,
   0.0,
   99.0
  ],
  [
   1.0,
   0.0,
   0.0,
   0.0
  ],
  [
   0.0,
   0.0,
   1.0,
   0.0
  ],
  [
   0.0,
   0.0,
   0.0,
   1.0
  ]
 ],
 "dcmmeta_shape": [
  100,
  100,
  72,
  256
 ],
 "dcmmeta_slice_dim": 2,
 "dcmmeta_version": 0.6,
 "global": {
  "const": {
   "AcquisitionMatrix": [
    100,
    0,
    0,
    100
   ],
   "AngioFlag": "N",
   "BitsAllocated": 16,
   "BitsStored": 12,
   "BodyPartExamined": "BRAIN",
   "Columns": 900,
   "EchoNumbers": 1,
   "EchoTime": 34.0,
   "EchoTrainLength": 100,
   "FlipAngle": 90.0,
   "HighBit": 11,
   "ImageOrientationPatient": [
    1.0,
    0.0,
    0.0,
    0.0,
    0.98419560640419,
    -0.1770847490178
   ],
   "ImagePositionPatient": [
    -900.0,
    -898.09364029197,
    87.377906806423
   ],
   "ImageType": [
    "ORIGINAL",
    "PRIMARY",
    "M",
    "ND",
    "MOSAIC"
   ],
   "ImagedNucleus": "1H",
   "ImagingFrequency": 123.257767,
   "InPlanePhaseEncodingDirection": "COL",
   "MRAcquisitionType": "2D",
   "MagneticFieldStrength": 3.0,
   "Manufacturer": "SIEMENS",
   "ManufacturerModelName": "Prisma",
   "Modality": "MR",
   "NumberOfAverages": 1.0,
   "NumberOfPhaseEncodingSteps": 100,
   "PercentPhaseFieldOfView": 100.0,
   "PercentSampling": 100.0,
   "PerformedProcedureStepStartTime": "105611.231000",
   "PhotometricInterpretation": "MONOCHROME2",
   "PixelBandwidth": 2380.0,
   "PixelRepresentation": 0,
   "PixelSpacing": [
    2.0,
    2.0
   ],
   "ProtocolName": "bold_100x100_s3_2x2x2_static_256",
   "RepetitionTime": 2000.0,
   "Rows": 900,
   "SAR": 0.08269486249637,
   "SamplesPerPixel": 1,
   "ScanOptions": "FS",
   "ScanningSequence": "EP",
   "SequenceName": "*epfid2d1_100",
   "SequenceVariant": "SK",
   "SeriesDescription": "bold_100x100_s3_2x2x2_static_256",
   "SeriesNumber": 16,
   "SeriesTime": "122458.855000",
   "SliceLocation": -73.041734909883,
   "SliceThickness": 2.0,
   "SmallestImagePixelValue": 0,
   "SoftwareVersions": "syngo MR E11",
   "SpacingBetweenSlices": 1.9999999858265,
   "SpecificCharacterSet": "ISO_IR 100",
   "StudyID": "1",
   "StudyTime": "105611.144000",
   "TransmitCoilName": "Body",
   "VariableFlipAngleFlag": "N",
   "WindowCenterWidthExplanation": "Algo1",
   "dBdt": 0.0
  },
  "slices": {}
 },
 "time": {
  "samples": {
   "AcquisitionNumber": [
    1,
    2,
    3,
    4,
    5,
    6,
    7,
    8,
    9,
    10,
    11,
    12,
    13,
    14,
    15,
    16,
    17,
    18,
    19,
    20,
    21,
    22,
    23,
    24,
    25,
    26,
    27,
    28,
    29,
    30,
    31,
    32,
    33,
    34,
    35,
    36,
    37,
    38,
    39,
    40,
    41,
    42,
    43,
    44,
    45,
    46,
    47,
    48,
    49,
    50,
    51,
    52,
    53,
    54,
    55,
    56,
    57,
    58,
    59,
    60,
    61,
    62,
    63,
    64,
    65,
    66,
    67,
    68,
    69,
    70,
    71,
    72,
    73,
    74,
    75,
    76,
    77,
    78,
    79,
    80,
    81,
    82,
    83,
    84,
    85,
    86,
    87,
    88,
    89,
    90,
    91,
    92,
    93,
    94,
    95,
    96,
    97,
    98,
    99,
    100,
    101,
    102,
    103,
    104,
    105,
    106,
    107,
    108,
    109,
    110,
    111,
    112,
    113,
    114,
    115,
    116,
    117,
    118,
    119,
    120,
    121,
    122,
    123,
    124,
    125,
    126,
    127,
    128,
    129,
    130,
    131,
    132,
    133,
    134,
    135,
    136,
    137,
    138,
    139,
    140,
    141,
    142,
    143,
    144,
    145,
    146,
    147,
    148,
    149,
    150,
    151,
    152,
    153,
    154,
    155,
    156,
    157,
    158,
    159,
    160,
    161,
    162,
    163,
    164,
    165,
    166,
    167,
    168,
    169,
    170,
    171,
    172,
    173,
    174,
    175,
    176,
    177,
    178,
    179,
    180,
    181,
    182,
    183,
    184,
    185,
    186,
    187,
    188,
    189,
    190,
    191,
    192,
    193,
    194,
    195,
    196,
    197,
    198,
    199,
    200,
    201,
    202,
    203,
    204,
    205,
    206,
    207,
    208,
    209,
    210,
    211,
    212,
    213,
    214,
    215,
    216,
    217,
    218,
    219,
    220,
    221,
    222,
    223,
    224,
    225,
    226,
    227,
    228,
    229,
    230,
    231,
    232,
    233,
    234,
    235,
    236,
    237,
    238,
    239,
    240,
    241,
    242,
    243,
    244,
    245,
    246,
    247,
    248,
    249,
    250,
    251,
    252,
    253,
    254,
    255,
    256
   ],
   "AcquisitionTime": [
    "122456.855000",
    "122458.855000",
    "122500.855000",
    "122502.855000",
    "122504.855000",
    "122506.855000",
    "122508.855000",
    "122510.855000",
    "122512.855000",
    "122514.855000",
    "122516.855000",
    "122518.855000",
    "122520.855000",
    "122522.855000",
    "122524.855000",
    "122526.855000",
    "122528.855000",
    "122530.855000",
    "122532.855000",
    "122534.855000",
    "122536.855000",
    "122538.855000",
    "122540.855000",
    "122542.855000",
    "122544.855000",
    "122546.855000",
    "122548.855000",
    "122550.855000",
    "122552.855000",
    "122554.855000",
    "122556.855000",
    "122558.855000",
    "122600.855000",
    "122602.855000",
    "122604.855000",
    "122606.855000",
    "122608.855000",
    "122610.855000",
    "122612.855000",
    "122614.855000",
    "122616.855000",
    "122618.855000",
    "122620.855000",
    "122622.855000",
    "122624.855000",
    "122626.855000",
    "122628.855000",
    "122630.855000",
    "122632.855000",
    "122634.855000",
    "122636.855000",
    "122638.855000",
    "122640.855000",
    "122642.855000",
    "122644.855000",
    "122646.855000",
    "122648.855000",
    "122650.855000",
    "122652.855000",
    "122654.855000",
    "122656.855000",
    "122658.855000",
    "122700.855000",
    "122702.855000",
    "122704.855000",
    "122706.855000",
    "122708.855000",
    "122710.855000",
    "122712.855000",
    "122714.855000",
    "122716.855000",
    "122718.855000",
    "122720.855000",
    "122722.855000",
    "122724.855000",
    "122726.855000",
    "122728.855000",
    "122730.855000",
    "122732.855000",
    "122734.855000",
    "122736.855000",
    "122738.855000",
    "122740.855000",
    "122742.855000",
    "122744.855000",
    "122746.855000",
    "122748.855000",
    "122750.855000",
    "122752.855000",
    "122754.855000",
    "122756.855000",
    "122758.855000",
    "122800.855000",
    "122802.855000",
    "122804.855000",
    "122806.855000",
    "122808.855000",
    "122810.855000",
    "122812.855000",
    "122814.855000",
    "122816.855000",
    "122818.855000",
    "122820.855000",
    "122822.855000",
    "122824.855000",
    "122826.855000",
    "122828.855000",
    "122830.855000",
    "122832.855000",
    "122834.855000",
    "122836.855000",
    "122838.855000",
    "122840.855000",
    "122842.855000",
    "122844.855000",
    "122846.855000",
    "122848.855000",
    "122850.855000",
    "122852.855000",
    "122854.855000",
    "122856.855000",
    "122858.855000",
    "122900.855000",
    "122902.855000",
    "122904.855000",
    "122906.855000",
    "122908.855000",
    "122910.855000",
    "122912.855000",
    "122914.855000",
    "122916.855000",
    "122918.855000",
    "122920.855000",
    "122922.855000",
    "122924.855000",
    "122926.855000",
    "122928.855000",
    "122930.855000",
    "122932.855000",
    "122934.855000",
    "122936.855000",
    "122938.855000",
    "122940.855000",
    "122942.855000",
    "122944.855000",
    "122946.855000",
    "122948.855000",
    "122950.855000",
    "122952.855000",
    "122954.855000",
    "122956.855000",
    "122958.855000",
    "123000.855000",
    "123002.855000",
    "123004.855000",
    "123006.855000",
    "123008.855000",
    "123010.855000",
    "123012.855000",
    "123014.855000",
    "123016.855000",
    "123018.855000",
    "123020.855000",
    "123022.855000",
    "123024.855000",
    "123026.855000",
    "123028.855000",
    "123030.855000",
    "123032.855000",
    "123034.855000",
    "123036.855000",
    "123038.855000",
    "123040.855000",
    "123042.855000",
    "123044.855000",
    "123046.855000",
    "123048.855000",
    "123050.855000",
    "123052.855000",
    "123054.855000",
    "123056.855000",
    "123058.855000",
    "123100.855000",
    "123102.855000",
    "123104.855000",
    "123106.855000",
    "123108.855000",
    "123110.855000",
    "123112.855000",
    "123114.855000",
    "123116.855000",
    "123118.855000",
    "123120.855000",
    "123122.855000",
    "123124.855000",
    "123126.855000",
    "123128.855000",
    "123130.855000",
    "123132.855000",
    "123134.855000",
    "123136.855000",
    "123138.855000",
    "123140.855000",
    "123142.855000",
    "123144.855000",
    "123146.855000",
    "123148.855000",
    "123150.855000",
    "123152.855000",
    "123154.855000",
    "123156.855000",
    "123158.855000",
    "123200.855000",
    "123202.855000",
    "123204.855000",
    "123206.855000",
    "123208.855000",
    "123210.855000",
    "123212.855000",
    "123214.855000",
    "123216.855000",
    "123218.855000",
    "123220.855000",
    "123222.855000",
    "123224.855000",
    "123226.855000",
    "123228.855000",
    "123230.855000",
    "123232.855000",
    "123234.855000",
    "123236.855000",
    "123238.855000",
    "123240.855000",
    "123242.855000",
    "123244.855000",
    "123246.855000",
    "123248.855000",
    "123250.855000",
    "123252.855000",
    "123254.855000",
    "123256.855000",
    "123258.855000",
    "123300.855000",
    "123302.855000",
    "123304.855000",
    "123306.855000",
    "123308.855000",
    "123310.855000",
    "123312.855000",
    "123314.855000",
    "123316.855000",
    "123318.855000",
    "123320.855000",
    "123322.855000",
    "123324.855000",
    "123326.855000"
   ],
   "ContentTime": [
    "122458.859000",
    "122500.355000",
    "122502.354000",
    "122504.353000",
    "122506.854000",
    "122508.354000",
    "122510.354000",
    "122512.354000",
    "122514.355000",
    "122516.355000",
    "122518.354000",
    "122520.354000",
    "122522.354000",
    "122524.353000",
    "122526.353000",
    "122528.355000",
    "122530.354000",
    "122532.354000",
    "122534.355000",
    "122536.354000",
    "122538.354000",
    "122540.353000",
    "122542.353000",
    "122544.353000",
    "122546.354000",
    "122548.355000",
    "122550.355000",
    "122552.354000",
    "122554.354000",
    "122556.353000",
    "122558.354000",
    "122600.353000",
    "122602.353000",
    "122604.354000",
    "122606.354000",
    "122608.355000",
    "122610.354000",
    "122612.355000",
    "122614.353000",
    "122616.353000",
    "122618.354000",
    "122620.354000",
    "122622.355000",
    "122624.355000",
    "122626.355000",
    "122628.355000",
    "122630.354000",
    "122632.354000",
    "122634.354000",
    "122636.354000",
    "122638.355000",
    "122640.354000",
    "122642.355000",
    "122644.354000",
    "122646.355000",
    "122648.354000",
    "122650.353000",
    "122652.354000",
    "122654.353000",
    "122656.354000",
    "122658.354000",
    "122700.354000",
    "122702.354000",
    "122704.354000",
    "122706.354000",
    "122708.353000",
    "122710.353000",
    "122712.353000",
    "122714.354000",
    "122716.355000",
    "122718.354000",
    "122720.355000",
    "122722.354000",
    "122724.353000",
    "122726.354000",
    "122728.354000",
    "122730.354000",
    "122732.354000",
    "122734.354000",
    "122736.354000",
    "122738.355000",
    "122740.353000",
    "122742.354000",
    "122744.354000",
    "122746.354000",
    "122748.355000",
    "122750.354000",
    "122752.354000",
    "122754.354000",
    "122756.354000",
    "122758.354000",
    "122800.353000",
    "122802.354000",
    "122804.353000",
    "122806.354000",
    "122808.354000",
    "122810.355000",
    "122812.354000",
    "122814.354000",
    "122816.354000",
    "122818.353000",
    "122820.354000",
    "122822.353000",
    "122824.355000",
    "122826.354000",
    "122828.354000",
    "122830.355000",
    "122832.355000",
    "122834.354000",
    "122836.354000",
    "122838.354000",
    "122840.353000",
    "122842.355000",
    "122844.354000",
    "122846.354000",
    "122848.354000",
    "122850.354000",
    "122852.854000",
    "122854.353000",
    "122856.354000",
    "122858.354000",
    "122900.354000",
    "122902.354000",
    "122904.354000",
    "122906.354000",
    "122908.354000",
    "122910.354000",
    "122912.354000",
    "122914.353000",
    "122916.355000",
    "122918.354000",
    "122920.354000",
    "122922.355000",
    "122924.354000",
    "122926.354000",
    "122928.353000",
    "122930.354000",
    "122932.354000",
    "122934.354000",
    "122936.355000",
    "122938.355000",
    "122940.354000",
    "122942.355000",
    "122944.354000",
    "122946.354000",
    "122948.353000",
    "122950.353000",
    "122952.354000",
    "122954.354000",
    "122956.354000",
    "122958.355000",
    "123000.353000",
    "123002.353000",
    "123004.354000",
    "123006.366000",
    "123008.355000",
    "123010.354000",
    "123012.355000",
    "123014.354000",
    "123016.355000",
    "123018.354000",
    "123020.354000",
    "123022.353000",
    "123024.353000",
    "123026.354000",
    "123028.355000",
    "123030.355000",
    "123032.355000",
    "123034.354000",
    "123036.354000",
    "123038.354000",
    "123040.353000",
    "123042.354000",
    "123044.354000",
    "123046.354000",
    "123048.355000",
    "123050.355000",
    "123052.354000",
    "123054.353000",
    "123056.353000",
    "123058.354000",
    "123100.354000",
    "123102.355000",
    "123104.354000",
    "123106.355000",
    "123108.355000",
    "123110.354000",
    "123112.354000",
    "123114.354000",
    "123116.353000",
    "123118.354000",
    "123120.354000",
    "123122.354000",
    "123124.355000",
    "123126.354000",
    "123128.353000",
    "123130.354000",
    "123132.353000",
    "123134.353000",
    "123136.355000",
    "123138.354000",
    "123140.355000",
    "123142.355000",
    "123144.355000",
    "123146.354000",
    "123148.354000",
    "123150.353000",
    "123152.353000",
    "123154.354000",
    "123156.355000",
    "123158.354000",
    "123200.355000",
    "123202.355000",
    "123204.354000",
    "123206.353000",
    "123208.353000",
    "123210.854000",
    "123212.354000",
    "123214.355000",
    "123216.354000",
    "123218.354000",
    "123220.353000",
    "123222.353000",
    "123224.353000",
    "123226.354000",
    "123228.354000",
    "123230.355000",
    "123232.354000",
    "123234.354000",
    "123236.355000",
    "123238.354000",
    "123240.354000",
    "123242.354000",
    "123244.353000",
    "123246.354000",
    "123248.355000",
    "123250.354000",
    "123252.355000",
    "123254.355000",
    "123256.353000",
    "123258.354000",
    "123300.353000",
    "123302.354000",
    "123304.355000",
    "123306.355000",
    "123308.355000",
    "123310.354000",
    "123312.354000",
    "123314.353000",
    "123316.353000",
    "123318.354000",
    "123320.355000",
    "123322.355000",
    "123324.354000",
    "123326.354000",
    "123328.154000"
   ],
   "InstanceCreationTime": [
    "122458.859000",
    "122500.355000",
    "122502.354000",
    "122504.353000",
    "122506.854000",
    "122508.354000",
    "122510.354000",
    "122512.354000",
    "122514.355000",
    "122516.355000",
    "122518.354000",
    "122520.354000",
    "122522.354000",
    "122524.353000",
    "122526.353000",
    "122528.355000",
    "122530.354000",
    "122532.354000",
    "122534.355000",
    "122536.354000",
    "122538.354000",
    "122540.353000",
    "122542.353000",
    "122544.353000",
    "122546.354000",
    "122548.355000",
    "122550.355000",
    "122552.354000",
    "122554.354000",
    "122556.353000",
    "122558.354000",
    "122600.353000",
    "122602.353000",
    "122604.354000",
    "122606.354000",
    "122608.355000",
    "122610.354000",
    "122612.355000",
    "122614.353000",
    "122616.353000",
    "122618.354000",
    "122620.354000",
    "122622.355000",
    "122624.355000",
    "122626.355000",
    "122628.355000",
    "122630.354000",
    "122632.354000",
    "122634.354000",
    "122636.354000",
    "122638.355000",
    "122640.354000",
    "122642.355000",
    "122644.354000",
    "122646.355000",
    "122648.354000",
    "122650.353000",
    "122652.354000",
    "122654.353000",
    "122656.354000",
    "122658.354000",
    "122700.354000",
    "122702.354000",
    "122704.354000",
    "122706.354000",
    "122708.353000",
    "122710.353000",
    "122712.353000",
    "122714.354000",
    "122716.355000",
    "122718.354000",
    "122720.355000",
    "122722.354000",
    "122724.353000",
    "122726.354000",
    "122728.354000",
    "122730.354000",
    "122732.354000",
    "122734.354000",
    "122736.354000",
    "122738.355000",
    "122740.353000",
    "122742.354000",
    "122744.354000",
    "122746.354000",
    "122748.355000",
    "122750.354000",
    "122752.354000",
    "122754.354000",
    "122756.354000",
    "122758.354000",
    "122800.353000",
    "122802.354000",
    "122804.353000",
    "122806.354000",
    "122808.354000",
    "122810.355000",
    "122812.354000",
    "122814.354000",
    "122816.354000",
    "122818.353000",
    "122820.354000",
    "122822.353000",
    "122824.355000",
    "122826.354000",
    "122828.354000",
    "122830.355000",
    "122832.355000",
    "122834.354000",
    "122836.354000",
    "122838.354000",
    "122840.353000",
    "122842.355000",
    "122844.354000",
    "122846.354000",
    "122848.354000",
    "122850.354000",
    "122852.854000",
    "122854.353000",
    "122856.354000",
    "122858.354000",
    "122900.354000",
    "122902.354000",
    "122904.354000",
    "122906.354000",
    "122908.354000",
    "122910.354000",
    "122912.354000",
    "122914.353000",
    "122916.355000",
    "122918.354000",
    "122920.354000",
    "122922.355000",
    "122924.354000",
    "122926.354000",
    "122928.353000",
    "122930.354000",
    "122932.354000",
    "122934.354000",
    "122936.355000",
    "122938.355000",
    "122940.354000",
    "122942.355000",
    "122944.354000",
    "122946.354000",
    "122948.353000",
    "122950.353000",
    "122952.354000",
    "122954.354000",
    "122956.354000",
    "122958.355000",
    "123000.353000",
    "123002.353000",
    "123004.354000",
    "123006.366000",
    "123008.355000",
    "123010.354000",
    "123012.355000",
    "123014.354000",
    "123016.355000",
    "123018.354000",
    "123020.354000",
    "123022.353000",
    "123024.353000",
    "123026.354000",
    "123028.355000",
    "123030.355000",
    "123032.355000",
    "123034.354000",
    "123036.354000",
    "123038.354000",
    "123040.353000",
    "123042.354000",
    "123044.354000",
    "123046.354000",
    "123048.355000",
    "123050.355000",
    "123052.354000",
    "123054.353000",
    "123056.353000",
    "123058.354000",
    "123100.354000",
    "123102.355000",
    "123104.354000",
    "123106.355000",
    "123108.355000",
    "123110.354000",
    "123112.354000",
    "123114.354000",
    "123116.353000",
    "123118.354000",
    "123120.354000",
    "123122.354000",
    "123124.355000",
    "123126.354000",
    "123128.353000",
    "123130.354000",
    "123132.353000",
    "123134.353000",
    "123136.355000",
    "123138.354000",
    "123140.355000",
    "123142.355000",
    "123144.355000",
    "123146.354000",
    "123148.354000",
    "123150.353000",
    "123152.353000",
    "123154.354000",
    "123156.355000",
    "123158.354000",
    "123200.355000",
    "123202.355000",
    "123204.354000",
    "123206.353000",
    "123208.353000",
    "123210.854000",
    "123212.354000",
    "123214.355000",
    "123216.354000",
    "123218.354000",
    "123220.353000",
    "123222.353000",
    "123224.353000",
    "123226.354000",
    "123228.354000",
    "123230.355000",
    "123232.354000",
    "123234.354000",
    "123236.355000",
    "123238.354000",
    "123240.354000",
    "123242.354000",
    "123244.353000",
    "123246.354000",
    "123248.355000",
    "123250.354000",
    "123252.355000",
    "123254.355000",
    "123256.353000",
    "123258.354000",
    "123300.353000",
    "123302.354000",
    "123304.355000",
    "123306.355000",
    "123308.355000",
    "123310.354000",
    "123312.354000",
    "123314.353000",
    "123316.353000",
    "123318.354000",
    "123320.355000",
    "123322.355000",
    "123324.354000",
    "123326.354000",
    "123328.154000"
   ],
   "InstanceNumber": [
    1,
    2,
    3,
    4,
    5,
    6,
    7,
    8,
    9,
    10,
    11,
    12,
    13,
    14,
    15,
    16,
    17,
    18,
    19,
    20,
    21,
    22,
    23,
    24,
    25,
    26,
    27,
    28,
    29,
    30,
    31,
    32,
    33,
    34,
    35,
    36,
    37,
    38,
    39,
    40,
    41,
    42,
    43,
    44,
    45,
    46,
    47,
    48,
    49,
    50,
    51,
    52,
    53,
    54,
    55,
    56,
    57,
    58,
    59,
    60,
    61,
    62,
    63,
    64,
    65,
    66,
    67,
    68,
    69,
    70,
    71,
    72,
    73,
    74,
    75,
    76,
    77,
    78,
    79,
    80,
    81,
    82,
    83,
    84,
    85,
    86,
    87,
    88,
    89,
    90,
    91,
    92,
    93,
    94,
    95,
    96,
    97,
    98,
    99,
    100,
    101,
    102,
    103,
    104,
    105,
    106,
    107,
    108,
    109,
    110,
    111,
    112,
    113,
    114,
    115,
    116,
    117,
    118,
    119,
    120,
    121,
    122,
    123,
    124,
    125,
    126,
    127,
    128,
    129,
    130,
    131,
    132,
    133,
    134,
    135,
    136,
    137,
    138,
    139,
    140,
    141,
    142,
    143,
    144,
    145,
    146,
    147,
    148,
    149,
    150,
    151,
    152,
    153,
    154,
    155,
    156,
    157,
    158,
    159,
    160,
    161,
    162,
    163,
    164,
    165,
    166,
    167,
    168,
    169,
    170,
    171,
    172,
    173,
    174,
    175,
    176,
    177,
    178,
    179,
    180,
    181,
    182,
    183,
    184,
    185,
    186,
    187,
    188,
    189,
    190,
    191,
    192,
    193,
    194,
    195,
    196,
    197,
    198,
    199,
    200,
    201,
    202,
    203,
    204,
    205,
    206,
    207,
    208,
    209,
    210,
    211,
    212,
    213,
    214,
    215,
    216,
    217,
    218,
    219,
    220,
    221,
    222,
    223,
    224,
    225,
    226,
    227,
    228,
    229,
    230,
    231,
    232,
    233,
    234,
    235,
    236,
    237,
    238,
    239,
    240,
    241,
    242,
    243,
    244,
    245,
    246,
    247,
    248,
    249,
    250,
    251,
    252,
    253,
    254,
    255,
    256
   ],
   "LargestImagePixelValue": [
    3075,
    3037,
    3030,
    3019,
    3012,
    2984,
    2991,
    2999,
    3021,
    3006,
    3023,
    3024,
    2976,
    3011,
    3010,
    3024,
    2990,
    3005,
    3009,
    2978,
    2990,
    2962,
    3009,
    3036,
    3011,
    2988,
    3016,
    2986,
    2990,
    2993,
    2983,
    2960,
    2955,
    2979,
    2980,
    2974,
    2945,
    2976,
    3006,
    2955,
    3005,
    3004,
    2971,
    2983,
    2967,
    2991,
    2999,
    3006,
    3009,
    3008,
    3006,
    2979,
    2998,
    2981,
    2983,
    2989,
    2996,
    2995,
    3010,
    3048,
    3030,
    3032,
    3005,
    2998,
    3028,
    3031,
    3027,
    3046,
    3060,
    3065,
    3066,
    3028,
    3012,
    2989,
    3009,
    3023,
    3023,
    3025,
    3012,
    3004,
    3065,
    3045,
    3044,
    3034,
    3006,
    3017,
    3009,
    3030,
    2996,
    2999,
    2978,
    3003,
    3090,
    3073,
    3061,
    3061,
    3074,
    3052,
    3003,
    3003,
    3025,
    3006,
    2986,
    2987,
    2998,
    3011,
    3056,
    3060,
    3031,
    3019,
    2964,
    2975,
    3014,
    3032,
    3021,
    3010,
    3031,
    3004,
    3011,
    2979,
    2983,
    2988,
    2998,
    2985,
    2994,
    2990,
    3007,
    2994,
    3000,
    2975,
    2971,
    2979,
    2995,
    3017,
    3024,
    3022,
    3007,
    3016,
    3009,
    3006,
    2986,
    2990,
    3010,
    3024,
    3028,
    3012,
    3000,
    2992,
    3007,
    2979,
    3003,
    2992,
    3006,
    3027,
    3050,
    3070,
    3043,
    3019,
    3006,
    2993,
    2976,
    2995,
    3000,
    2985,
    3001,
    2983,
    2998,
    3028,
    3004,
    2993,
    3034,
    3001,
    2982,
    2972,
    3001,
    3022,
    3036,
    3046,
    3028,
    2997,
    3016,
    2964,
    2976,
    3008,
    3014,
    3034,
    3052,
    3049,
    3054,
    3041,
    3081,
    3092,
    3094,
    3078,
    3047,
    3027,
    3044,
    3035,
    3059,
    3054,
    3007,
    2988,
    2967,
    2998,
    3002,
    2994,
    2983,
    3013,
    3019,
    2984,
    2995,
    2988,
    2991,
    2982,
    2969,
    3009,
    3013,
    3023,
    3041,
    3054,
    3018,
    3012,
    3006,
    3025,
    2994,
    3002,
    3020,
    2968,
    2962,
    2968,
    3015,
    2993,
    3008,
    3024,
    3033,
    2999,
    3039,
    3062,
    3037,
    3039,
    3020,
    3001,
    2992,
    2982,
    3013,
    3029,
    3027,
    3016,
    3010,
    3020,
    3004,
    3008,
    3047,
    3000,
    3023,
    3004
   ],
   "WindowCenter": [
    794.0,
    791.0,
    790.0,
    790.0,
    790.0,
    790.0,
    790.0,
    790.0,
    789.0,
    789.0,
    788.0,
    788.0,
    787.0,
    788.0,
    788.0,
    789.0,
    789.0,
    790.0,
    789.0,
    788.0,
    788.0,
    788.0,
    790.0,
    790.0,
    790.0,
    788.0,
    789.0,
    788.0,
    789.0,
    788.0,
    787.0,
    787.0,
    787.0,
    787.0,
    787.0,
    787.0,
    787.0,
    788.0,
    787.0,
    788.0,
    789.0,
    789.0,
    788.0,
    787.0,
    786.0,
    787.0,
    789.0,
    789.0,
    790.0,
    790.0,
    789.0,
    789.0,
    788.0,
    788.0,
    789.0,
    788.0,
    788.0,
    789.0,
    789.0,
    790.0,
    790.0,
    789.0,
    789.0,
    790.0,
    791.0,
    790.0,
    789.0,
    789.0,
    789.0,
    789.0,
    790.0,
    788.0,
    788.0,
    789.0,
    789.0,
    789.0,
    789.0,
    789.0,
    789.0,
    789.0,
    789.0,
    788.0,
    788.0,
    788.0,
    789.0,
    789.0,
    789.0,
    789.0,
    788.0,
    788.0,
    788.0,
    789.0,
    790.0,
    790.0,
    789.0,
    789.0,
    789.0,
    789.0,
    789.0,
    788.0,
    789.0,
    789.0,
    789.0,
    789.0,
    788.0,
    789.0,
    789.0,
    789.0,
    790.0,
    789.0,
    788.0,
    788.0,
    789.0,
    790.0,
    790.0,
    790.0,
    789.0,
    789.0,
    789.0,
    788.0,
    788.0,
    788.0,
    788.0,
    787.0,
    788.0,
    789.0,
