{
 "AcquisitionMatrixPE": 100,
 "AcquisitionNumber": 1,
 "AcquisitionTime": "10:59:1.222500",
 "BandwidthPerPixelPhaseEncode": 18.519,
 "BaseResolution": 100,
 "BodyPartExamined": "BRAIN",
 "ConsistencyInfo": "N4_VE11C_LATEST_20160120",
 "ConversionSoftware": "dcm2niix",
 "ConversionSoftwareVersion": "v1.0.20180622 GCC4.9.2",
 "DerivedVendorReportedEchoSpacing": 0.000539986,
 "DeviceSerialNumber": "166078",
 "DwellTime": 2.1e-06,
 "EchoTime": 0.034,
 "EchoTrainLength": 100,
 "EffectiveEchoSpacing": 0.000539986,
 "FlipAngle": 90,
 "ImageOrientationPatientDICOM": [
  1,
  0,
  0,
  0,
  0.965926,
  -0.258819
 ],
 "ImageType": [
  "ORIGINAL",
  "PRIMARY",
  "M",
  "ND",
  "MOSAIC"
 ],
 "InPlanePhaseEncodingDirectionDICOM": "COL",
 "InstitutionAddress": "Street_StreetNo_Bei_Jing_District_CN_ZIP",
 "InstitutionName": "BeiJing_Normal_University",
 "InstitutionalDepartmentName": "Department",
 "MRAcquisitionType": "2D",
 "MagneticFieldStrength": 3,
 "Manufacturer": "Siemens",
 "ManufacturersModelName": "Prisma",
 "Modality": "MR",
 "MultibandAccelerationFactor": 3,
 "PartialFourier": 1,
 "PatientPosition": "HFS",
 "PercentPhaseFOV": 100,
 "PhaseEncodingDirection": "j-",
 "PhaseEncodingSteps": 100,
 "PhaseResolution": 1,
 "PixelBandwidth": 2380,
 "ProcedureStepDescription": "BNU_P2018_64CH_Zhen.ZongLei",
 "ProtocolName": "bold_100x100_s3_2x2x2_static_256",
 "PulseSequenceDetails": "%SiemensSeq%_ep2d_bold",
 "ReceiveCoilActiveElements": "HC1-7;NC1",
 "ReceiveCoilName": "HeadNeck_64",
 "ReconMatrixPE": 100,
 "RepetitionTime": 2,
 "SAR": 0.079795,
 "ScanOptions": "FS",
 "ScanningSequence": "EP",
 "SequenceName": "_epfid2d1_100",
 "SequenceVariant": "SK",
 "SeriesDescription": "bold_100x100_s3_2x2x2_static_256",
 "SeriesNumber": 3,
 "ShimSetting": [
  -5457,
  -11517,
  -1251,
  545,
  -12,
  -206,
  -141,
  78
 ],
 "SliceThickness": 2,
 "SliceTiming": [
  1.485,
  0,
  0.99,
  0.0825,
  1.0725,
  0.165,
  1.155,
  0.2475,
  1.2375,
  0.33,
  1.32,
  0.4125,
  1.4025,
  0.5775,
  1.5675,
  0.66,
  1.65,
  0.7425,
  1.7325,
  0.825,
  1.815,
  0.9075,
  1.8975,
  0.495,
  1.485,
  0,
  0.99,
  0.0825,
  1.0725,
  0.165,
  1.155,
  0.2475,
  1.2375,
  0.33,
  1.32,
  0.4125,
  1.4025,
  0.5775,
  1.5675,
  0.66,
  1.65,
  0.7425,
  1.7325,
  0.825,
  1.815,
  0.9075,
  1.8975,
  0.495,
  1.485,
  0,
  0.99,
  0.0825,
  1.0725,
  0.165,
  1.155,
  0.2475,
  1.2375,
  0.33,
  1.32,
  0.4125,
  1.4025,
  0.5775,
  1.5675,
  0.66,
  1.65,
  0.7425,
  1.7325,
  0.825,
  1.815,
  0.9075,
  1.8975,
  0.495
 ],
 "SoftwareVersions": "syngo_MR_E11",
 "SpacingBetweenSlices": 2,
 "StationName": "AWP166078",
 "TaskName": "imagenet",
 "TotalReadoutTime": 0.0534586,
 "TxRefAmp": 230.327,
 "dcmmeta_affine": [
  [
   -2.0,
   0.0,
   0.0,
   101.34939575195312
  ],
  [
   0.0,
   1.9318516254425049,
   -0.517638087272644,
   -78.52554321289062
  ],
  [
   0.0,
   0.517638087272644,
   1.9318516254425049,
   -91.47753143310547
  ],
  [
   0.0,
   0.0,
   0.0,
   1.0
  ]
 ],
 "dcmmeta_reorient_transform": [
  [
   0.0,
   -1.0,
   0.0,
   99.0
  ],
  [
   1.0,
   0.0,
   0.0,
   0.0
  ],
  [
   0.0,
   0.0,
   1.0,
   0.0
  ],
  [
   0.0,
   0.0,
   0.0,
   1.0
  ]
 ],
 "dcmmeta_shape": [
  100,
  100,
  72,
  256
 ],
 "dcmmeta_slice_dim": 2,
 "dcmmeta_version": 0.6,
 "global": {
  "const": {
   "AcquisitionMatrix": [
    100,
    0,
    0,
    100
   ],
   "AngioFlag": "N",
   "BitsAllocated": 16,
   "BitsStored": 12,
   "BodyPartExamined": "BRAIN",
   "Columns": 900,
   "EchoNumbers": 1,
   "EchoTime": 34.0,
   "EchoTrainLength": 100,
   "FlipAngle": 90.0,
   "HighBit": 11,
   "ImageOrientationPatient": [
    1.0,
    0.0,
    0.0,
    0.0,
    0.9659258278573,
    -0.2588190392498
   ],
   "ImagePositionPatient": [
    -901.34939754009,
    -885.46843412797,
    166.82386933362
   ],
   "ImageType": [
    "ORIGINAL",
    "PRIMARY",
    "M",
    "ND",
    "MOSAIC"
   ],
   "ImagedNucleus": "1H",
   "ImagingFrequency": 123.257759,
   "InPlanePhaseEncodingDirection": "COL",
   "MRAcquisitionType": "2D",
   "MagneticFieldStrength": 3.0,
   "Manufacturer": "SIEMENS",
   "ManufacturerModelName": "Prisma",
   "Modality": "MR",
   "NumberOfAverages": 1.0,
   "NumberOfPhaseEncodingSteps": 100,
   "PercentPhaseFieldOfView": 100.0,
   "PercentSampling": 100.0,
   "PerformedProcedureStepStartTime": "105611.231000",
   "PhotometricInterpretation": "MONOCHROME2",
   "PixelBandwidth": 2380.0,
   "PixelRepresentation": 0,
   "PixelSpacing": [
    2.0,
    2.0
   ],
   "ProtocolName": "bold_100x100_s3_2x2x2_static_256",
   "RepetitionTime": 2000.0,
   "Rows": 900,
   "SAR": 0.07979500938357,
   "SamplesPerPixel": 1,
   "ScanOptions": "FS",
   "ScanningSequence": "EP",
   "SequenceName": "*epfid2d1_100",
   "SequenceVariant": "SK",
   "SeriesDescription": "bold_100x100_s3_2x2x2_static_256",
   "SeriesNumber": 3,
   "SeriesTime": "105903.751000",
   "SliceLocation": -68.036605314601,
   "SliceThickness": 2.0,
   "SmallestImagePixelValue": 0,
   "SoftwareVersions": "syngo MR E11",
   "SpacingBetweenSlices": 2.000000021715,
   "SpecificCharacterSet": "ISO_IR 100",
   "StudyID": "1",
   "StudyTime": "105611.144000",
   "TransmitCoilName": "Body",
   "VariableFlipAngleFlag": "N",
   "WindowCenterWidthExplanation": "Algo1",
   "dBdt": 0.0
  },
  "slices": {}
 },
 "time": {
  "samples": {
   "AcquisitionNumber": [
    1,
    2,
    3,
    4,
    5,
    6,
    7,
    8,
    9,
    10,
    11,
    12,
    13,
    14,
    15,
    16,
    17,
    18,
    19,
    20,
    21,
    22,
    23,
    24,
    25,
    26,
    27,
    28,
    29,
    30,
    31,
    32,
    33,
    34,
    35,
    36,
    37,
    38,
    39,
    40,
    41,
    42,
    43,
    44,
    45,
    46,
    47,
    48,
    49,
    50,
    51,
    52,
    53,
    54,
    55,
    56,
    57,
    58,
    59,
    60,
    61,
    62,
    63,
    64,
    65,
    66,
    67,
    68,
    69,
    70,
    71,
    72,
    73,
    74,
    75,
    76,
    77,
    78,
    79,
    80,
    81,
    82,
    83,
    84,
    85,
    86,
    87,
    88,
    89,
    90,
    91,
    92,
    93,
    94,
    95,
    96,
    97,
    98,
    99,
    100,
    101,
    102,
    103,
    104,
    105,
    106,
    107,
    108,
    109,
    110,
    111,
    112,
    113,
    114,
    115,
    116,
    117,
    118,
    119,
    120,
    121,
    122,
    123,
    124,
    125,
    126,
    127,
    128,
    129,
    130,
    131,
    132,
    133,
    134,
    135,
    136,
    137,
    138,
    139,
    140,
    141,
    142,
    143,
    144,
    145,
    146,
    147,
    148,
    149,
    150,
    151,
    152,
    153,
    154,
    155,
    156,
    157,
    158,
    159,
    160,
    161,
    162,
    163,
    164,
    165,
    166,
    167,
    168,
    169,
    170,
    171,
    172,
    173,
    174,
    175,
    176,
    177,
    178,
    179,
    180,
    181,
    182,
    183,
    184,
    185,
    186,
    187,
    188,
    189,
    190,
    191,
    192,
    193,
    194,
    195,
    196,
    197,
    198,
    199,
    200,
    201,
    202,
    203,
    204,
    205,
    206,
    207,
    208,
    209,
    210,
    211,
    212,
    213,
    214,
    215,
    216,
    217,
    218,
    219,
    220,
    221,
    222,
    223,
    224,
    225,
    226,
    227,
    228,
    229,
    230,
    231,
    232,
    233,
    234,
    235,
    236,
    237,
    238,
    239,
    240,
    241,
    242,
    243,
    244,
    245,
    246,
    247,
    248,
    249,
    250,
    251,
    252,
    253,
    254,
    255,
    256
   ],
   "AcquisitionTime": [
    "105901.222500",
    "105903.222500",
    "105905.222500",
    "105907.222500",
    "105909.222500",
    "105911.222500",
    "105913.222500",
    "105915.222500",
    "105917.222500",
    "105919.222500",
    "105921.222500",
    "105923.222500",
    "105925.222500",
    "105927.222500",
    "105929.222500",
    "105931.222500",
    "105933.222500",
    "105935.222500",
    "105937.222500",
    "105939.222500",
    "105941.222500",
    "105943.222500",
    "105945.222500",
    "105947.222500",
    "105949.222500",
    "105951.222500",
    "105953.222500",
    "105955.222500",
    "105957.222500",
    "105959.222500",
    "110001.222500",
    "110003.222500",
    "110005.222500",
    "110007.222500",
    "110009.222500",
    "110011.222500",
    "110013.222500",
    "110015.222500",
    "110017.222500",
    "110019.222500",
    "110021.222500",
    "110023.222500",
    "110025.222500",
    "110027.222500",
    "110029.222500",
    "110031.222500",
    "110033.222500",
    "110035.222500",
    "110037.222500",
    "110039.222500",
    "110041.222500",
    "110043.222500",
    "110045.222500",
    "110047.222500",
    "110049.222500",
    "110051.222500",
    "110053.222500",
    "110055.222500",
    "110057.222500",
    "110059.222500",
    "110101.222500",
    "110103.222500",
    "110105.222500",
    "110107.222500",
    "110109.222500",
    "110111.222500",
    "110113.222500",
    "110115.222500",
    "110117.222500",
    "110119.222500",
    "110121.222500",
    "110123.222500",
    "110125.222500",
    "110127.222500",
    "110129.222500",
    "110131.222500",
    "110133.222500",
    "110135.222500",
    "110137.222500",
    "110139.222500",
    "110141.222500",
    "110143.222500",
    "110145.222500",
    "110147.222500",
    "110149.222500",
    "110151.222500",
    "110153.222500",
    "110155.222500",
    "110157.222500",
    "110159.222500",
    "110201.222500",
    "110203.222500",
    "110205.222500",
    "110207.222500",
    "110209.222500",
    "110211.222500",
    "110213.222500",
    "110215.222500",
    "110217.222500",
    "110219.222500",
    "110221.222500",
    "110223.222500",
    "110225.222500",
    "110227.222500",
    "110229.222500",
    "110231.222500",
    "110233.222500",
    "110235.222500",
    "110237.222500",
    "110239.222500",
    "110241.222500",
    "110243.222500",
    "110245.222500",
    "110247.222500",
    "110249.222500",
    "110251.222500",
    "110253.222500",
    "110255.222500",
    "110257.222500",
    "110259.222500",
    "110301.222500",
    "110303.222500",
    "110305.222500",
    "110307.222500",
    "110309.222500",
    "110311.222500",
    "110313.222500",
    "110315.222500",
    "110317.222500",
    "110319.222500",
    "110321.222500",
    "110323.222500",
    "110325.222500",
    "110327.222500",
    "110329.222500",
    "110331.222500",
    "110333.222500",
    "110335.222500",
    "110337.222500",
    "110339.222500",
    "110341.222500",
    "110343.222500",
    "110345.222500",
    "110347.222500",
    "110349.222500",
    "110351.222500",
    "110353.222500",
    "110355.222500",
    "110357.222500",
    "110359.222500",
    "110401.222500",
    "110403.222500",
    "110405.222500",
    "110407.222500",
    "110409.222500",
    "110411.222500",
    "110413.222500",
    "110415.222500",
    "110417.222500",
    "110419.222500",
    "110421.222500",
    "110423.222500",
    "110425.222500",
    "110427.222500",
    "110429.222500",
    "110431.222500",
    "110433.222500",
    "110435.222500",
    "110437.222500",
    "110439.222500",
    "110441.222500",
    "110443.222500",
    "110445.222500",
    "110447.222500",
    "110449.222500",
    "110451.222500",
    "110453.222500",
    "110455.222500",
    "110457.222500",
    "110459.222500",
    "110501.222500",
    "110503.222500",
    "110505.222500",
    "110507.222500",
    "110509.222500",
    "110511.222500",
    "110513.222500",
    "110515.222500",
    "110517.222500",
    "110519.222500",
    "110521.222500",
    "110523.222500",
    "110525.222500",
    "110527.222500",
    "110529.222500",
    "110531.222500",
    "110533.222500",
    "110535.222500",
    "110537.222500",
    "110539.222500",
    "110541.222500",
    "110543.222500",
    "110545.222500",
    "110547.222500",
    "110549.222500",
    "110551.222500",
    "110553.222500",
    "110555.222500",
    "110557.222500",
    "110559.222500",
    "110601.222500",
    "110603.222500",
    "110605.222500",
    "110607.222500",
    "110609.222500",
    "110611.222500",
    "110613.222500",
    "110615.222500",
    "110617.222500",
    "110619.222500",
    "110621.222500",
    "110623.222500",
    "110625.222500",
    "110627.222500",
    "110629.222500",
    "110631.222500",
    "110633.222500",
    "110635.222500",
    "110637.222500",
    "110639.222500",
    "110641.222500",
    "110643.222500",
    "110645.222500",
    "110647.222500",
    "110649.222500",
    "110651.222500",
    "110653.222500",
    "110655.222500",
    "110657.222500",
    "110659.222500",
    "110701.222500",
    "110703.222500",
    "110705.222500",
    "110707.222500",
    "110709.222500",
    "110711.222500",
    "110713.222500",
    "110715.222500",
    "110717.222500",
    "110719.222500",
    "110721.222500",
    "110723.222500",
    "110725.222500",
    "110727.222500",
    "110729.222500",
    "110731.222500"
   ],
   "ContentTime": [
    "105903.755000",
    "105905.251000",
    "105907.250000",
    "105909.251000",
    "105911.251000",
    "105913.252000",
    "105915.252000",
    "105917.252000",
    "105919.250000",
    "105921.250000",
    "105923.251000",
    "105925.251000",
    "105927.251000",
    "105929.251000",
    "105931.252000",
    "105933.252000",
    "105935.250000",
    "105937.250000",
    "105939.251000",
    "105941.250000",
    "105943.250000",
    "105945.250000",
    "105947.250000",
    "105949.251000",
    "105951.251000",
    "105953.251000",
    "105955.251000",
    "105957.250000",
    "105959.251000",
    "110001.251000",
    "110003.250000",
    "110005.251000",
    "110007.252000",
    "110009.252000",
    "110011.250000",
    "110013.251000",
    "110015.250000",
    "110017.251000",
    "110019.250000",
    "110021.251000",
    "110023.251000",
    "110025.252000",
    "110027.252000",
    "110029.251000",
    "110031.251000",
    "110033.251000",
    "110035.250000",
    "110037.250000",
    "110039.250000",
    "110041.252000",
    "110043.252000",
    "110045.251000",
    "110047.251000",
    "110049.250000",
    "110051.251000",
    "110053.251000",
    "110055.251000",
    "110057.251000",
    "110059.251000",
    "110101.251000",
    "110103.250000",
    "110105.251000",
    "110107.250000",
    "110109.251000",
    "110111.251000",
    "110113.251000",
    "110115.250000",
    "110117.251000",
    "110119.251000",
    "110121.250000",
    "110123.250000",
    "110125.250000",
    "110127.251000",
    "110129.250000",
    "110131.250000",
    "110133.252000",
    "110135.252000",
    "110137.251000",
    "110139.250000",
    "110141.250000",
    "110143.250000",
    "110145.250000",
    "110147.250000",
    "110149.250000",
    "110151.251000",
    "110153.252000",
    "110155.250000",
    "110157.250000",
    "110159.251000",
    "110201.250000",
    "110203.250000",
    "110205.250000",
    "110207.251000",
    "110209.252000",
    "110211.251000",
    "110213.250000",
    "110215.250000",
    "110217.250000",
    "110219.251000",
    "110221.251000",
    "110223.251000",
    "110225.250000",
    "110227.251000",
    "110229.252000",
    "110231.251000",
    "110233.250000",
    "110235.250000",
    "110237.250000",
    "110239.251000",
    "110241.250000",
    "110243.251000",
    "110245.251000",
    "110247.252000",
    "110249.250000",
    "110251.251000",
    "110253.250000",
    "110255.250000",
    "110257.250000",
    "110259.251000",
    "110301.251000",
    "110303.252000",
    "110305.262000",
    "110307.251000",
    "110309.251000",
    "110311.251000",
    "110313.251000",
    "110315.251000",
    "110317.250000",
    "110319.252000",
    "110321.252000",
    "110323.250000",
    "110325.251000",
    "110327.250000",
    "110329.253000",
    "110331.251000",
    "110333.250000",
    "110335.250000",
    "110337.252000",
    "110339.251000",
    "110341.250000",
    "110343.251000",
    "110345.250000",
    "110347.251000",
    "110349.251000",
    "110351.251000",
    "110353.251000",
    "110355.252000",
    "110357.251000",
    "110359.250000",
    "110401.250000",
    "110403.250000",
    "110405.251000",
    "110407.250000",
    "110409.251000",
    "110411.251000",
    "110413.252000",
    "110415.251000",
    "110417.251000",
    "110419.250000",
    "110421.251000",
    "110423.251000",
    "110425.250000",
    "110427.251000",
    "110429.252000",
    "110431.252000",
    "110433.250000",
    "110435.251000",
    "110437.251000",
    "110439.251000",
    "110441.251000",
    "110443.251000",
    "110445.252000",
    "110447.251000",
    "110449.251000",
    "110451.270000",
    "110453.251000",
    "110455.251000",
    "110457.250000",
    "110459.251000",
    "110501.251000",
    "110503.252000",
    "110505.251000",
    "110507.252000",
    "110509.251000",
    "110511.250000",
    "110513.251000",
    "110515.251000",
    "110517.251000",
    "110519.250000",
    "110521.251000",
    "110523.252000",
    "110525.250000",
    "110527.250000",
    "110529.251000",
    "110531.251000",
    "110533.250000",
    "110535.251000",
    "110537.251000",
    "110539.252000",
    "110541.252000",
    "110543.250000",
    "110545.251000",
    "110547.250000",
    "110549.251000",
    "110551.251000",
    "110553.251000",
    "110555.252000",
    "110557.251000",
    "110559.252000",
    "110601.250000",
    "110603.250000",
    "110605.250000",
    "110607.251000",
    "110609.256000",
    "110611.250000",
    "110613.251000",
    "110615.251000",
    "110617.251000",
    "110619.251000",
    "110621.251000",
    "110623.251000",
    "110625.251000",
    "110627.250000",
    "110629.251000",
    "110631.252000",
    "110633.252000",
    "110635.251000",
    "110637.251000",
    "110639.251000",
    "110641.251000",
    "110643.251000",
    "110645.251000",
    "110647.251000",
    "110649.252000",
    "110651.252000",
    "110653.250000",
    "110655.251000",
    "110657.251000",
    "110659.251000",
    "110701.251000",
    "110703.251000",
    "110705.252000",
    "110707.252000",
    "110709.252000",
    "110711.250000",
    "110713.251000",
    "110715.250000",
    "110717.251000",
    "110719.251000",
    "110721.251000",
    "110723.251000",
    "110725.252000",
    "110727.250000",
    "110729.251000",
    "110731.251000",
    "110732.933000"
   ],
   "InstanceCreationTime": [
    "105903.755000",
    "105905.251000",
    "105907.250000",
    "105909.251000",
    "105911.251000",
    "105913.252000",
    "105915.252000",
    "105917.252000",
    "105919.250000",
    "105921.250000",
    "105923.251000",
    "105925.251000",
    "105927.251000",
    "105929.251000",
    "105931.252000",
    "105933.252000",
    "105935.250000",
    "105937.250000",
    "105939.251000",
    "105941.250000",
    "105943.250000",
    "105945.250000",
    "105947.250000",
    "105949.251000",
    "105951.251000",
    "105953.251000",
    "105955.251000",
    "105957.250000",
    "105959.251000",
    "110001.251000",
    "110003.250000",
    "110005.251000",
    "110007.252000",
    "110009.252000",
    "110011.250000",
    "110013.251000",
    "110015.250000",
    "110017.251000",
    "110019.250000",
    "110021.251000",
    "110023.251000",
    "110025.252000",
    "110027.252000",
    "110029.251000",
    "110031.251000",
    "110033.251000",
    "110035.250000",
    "110037.250000",
    "110039.250000",
    "110041.252000",
    "110043.252000",
    "110045.251000",
    "110047.251000",
    "110049.250000",
    "110051.251000",
    "110053.251000",
    "110055.251000",
    "110057.251000",
    "110059.251000",
    "110101.251000",
    "110103.250000",
    "110105.251000",
    "110107.250000",
    "110109.251000",
    "110111.251000",
    "110113.251000",
    "110115.250000",
    "110117.251000",
    "110119.251000",
    "110121.250000",
    "110123.250000",
    "110125.250000",
    "110127.251000",
    "110129.250000",
    "110131.250000",
    "110133.252000",
    "110135.252000",
    "110137.251000",
    "110139.250000",
    "110141.250000",
    "110143.250000",
    "110145.250000",
    "110147.250000",
    "110149.250000",
    "110151.251000",
    "110153.252000",
    "110155.250000",
    "110157.250000",
    "110159.251000",
    "110201.250000",
    "110203.250000",
    "110205.250000",
    "110207.251000",
    "110209.252000",
    "110211.251000",
    "110213.250000",
    "110215.250000",
    "110217.250000",
    "110219.251000",
    "110221.251000",
    "110223.251000",
    "110225.250000",
    "110227.251000",
    "110229.252000",
    "110231.251000",
    "110233.250000",
    "110235.250000",
    "110237.250000",
    "110239.251000",
    "110241.250000",
    "110243.251000",
    "110245.251000",
    "110247.252000",
    "110249.250000",
    "110251.251000",
    "110253.250000",
    "110255.250000",
    "110257.250000",
    "110259.251000",
    "110301.251000",
    "110303.252000",
    "110305.262000",
    "110307.251000",
    "110309.251000",
    "110311.251000",
    "110313.251000",
    "110315.251000",
    "110317.250000",
    "110319.252000",
    "110321.252000",
    "110323.250000",
    "110325.251000",
    "110327.250000",
    "110329.253000",
    "110331.251000",
    "110333.250000",
    "110335.250000",
    "110337.252000",
    "110339.251000",
    "110341.250000",
    "110343.251000",
    "110345.250000",
    "110347.251000",
    "110349.251000",
    "110351.251000",
    "110353.251000",
    "110355.252000",
    "110357.251000",
    "110359.250000",
    "110401.250000",
    "110403.250000",
    "110405.251000",
    "110407.250000",
    "110409.251000",
    "110411.251000",
    "110413.252000",
    "110415.251000",
    "110417.251000",
    "110419.250000",
    "110421.251000",
    "110423.251000",
    "110425.250000",
    "110427.251000",
    "110429.252000",
    "110431.252000",
    "110433.250000",
    "110435.251000",
    "110437.251000",
    "110439.251000",
    "110441.251000",
    "110443.251000",
    "110445.252000",
    "110447.251000",
    "110449.251000",
    "110451.270000",
    "110453.251000",
    "110455.251000",
    "110457.250000",
    "110459.251000",
    "110501.251000",
    "110503.252000",
    "110505.251000",
    "110507.252000",
    "110509.251000",
    "110511.250000",
    "110513.251000",
    "110515.251000",
    "110517.251000",
    "110519.250000",
    "110521.251000",
    "110523.252000",
    "110525.250000",
    "110527.250000",
    "110529.251000",
    "110531.251000",
    "110533.250000",
    "110535.251000",
    "110537.251000",
    "110539.252000",
    "110541.252000",
    "110543.250000",
    "110545.251000",
    "110547.250000",
    "110549.251000",
    "110551.251000",
    "110553.251000",
    "110555.252000",
    "110557.251000",
    "110559.252000",
    "110601.250000",
    "110603.250000",
    "110605.250000",
    "110607.251000",
    "110609.256000",
    "110611.250000",
    "110613.251000",
    "110615.251000",
    "110617.251000",
    "110619.251000",
    "110621.251000",
    "110623.251000",
    "110625.251000",
    "110627.250000",
    "110629.251000",
    "110631.252000",
    "110633.252000",
    "110635.251000",
    "110637.251000",
    "110639.251000",
    "110641.251000",
    "110643.251000",
    "110645.251000",
    "110647.251000",
    "110649.252000",
    "110651.252000",
    "110653.250000",
    "110655.251000",
    "110657.251000",
    "110659.251000",
    "110701.251000",
    "110703.251000",
    "110705.252000",
    "110707.252000",
    "110709.252000",
    "110711.250000",
    "110713.251000",
    "110715.250000",
    "110717.251000",
    "110719.251000",
    "110721.251000",
    "110723.251000",
    "110725.252000",
    "110727.250000",
    "110729.251000",
    "110731.251000",
    "110732.933000"
   ],
   "InstanceNumber": [
    1,
    2,
    3,
    4,
    5,
    6,
    7,
    8,
    9,
    10,
    11,
    12,
    13,
    14,
    15,
    16,
    17,
    18,
    19,
    20,
    21,
    22,
    23,
    24,
    25,
    26,
    27,
    28,
    29,
    30,
    31,
    32,
    33,
    34,
    35,
    36,
    37,
    38,
    39,
    40,
    41,
    42,
    43,
    44,
    45,
    46,
    47,
    48,
    49,
    50,
    51,
    52,
    53,
    54,
    55,
    56,
    57,
    58,
    59,
    60,
    61,
    62,
    63,
    64,
    65,
    66,
    67,
    68,
    69,
    70,
    71,
    72,
    73,
    74,
    75,
    76,
    77,
    78,
    79,
    80,
    81,
    82,
    83,
    84,
    85,
    86,
    87,
    88,
    89,
    90,
    91,
    92,
    93,
    94,
    95,
    96,
    97,
    98,
    99,
    100,
    101,
    102,
    103,
    104,
    105,
    106,
    107,
    108,
    109,
    110,
    111,
    112,
    113,
    114,
    115,
    116,
    117,
    118,
    119,
    120,
    121,
    122,
    123,
    124,
    125,
    126,
    127,
    128,
    129,
    130,
    131,
    132,
    133,
    134,
    135,
    136,
    137,
    138,
    139,
    140,
    141,
    142,
    143,
    144,
    145,
    146,
    147,
    148,
    149,
    150,
    151,
    152,
    153,
    154,
    155,
    156,
    157,
    158,
    159,
    160,
    161,
    162,
    163,
    164,
    165,
    166,
    167,
    168,
    169,
    170,
    171,
    172,
    173,
    174,
    175,
    176,
    177,
    178,
    179,
    180,
    181,
    182,
    183,
    184,
    185,
    186,
    187,
    188,
    189,
    190,
    191,
    192,
    193,
    194,
    195,
    196,
    197,
    198,
    199,
    200,
    201,
    202,
    203,
    204,
    205,
    206,
    207,
    208,
    209,
    210,
    211,
    212,
    213,
    214,
    215,
    216,
    217,
    218,
    219,
    220,
    221,
    222,
    223,
    224,
    225,
    226,
    227,
    228,
    229,
    230,
    231,
    232,
    233,
    234,
    235,
    236,
    237,
    238,
    239,
    240,
    241,
    242,
    243,
    244,
    245,
    246,
    247,
    248,
    249,
    250,
    251,
    252,
    253,
    254,
    255,
    256
   ],
   "LargestImagePixelValue": [
    2993,
    2904,
    2906,
    2910,
    2909,
    2895,
    2910,
    2903,
    2942,
    2940,
    2898,
    2918,
    2903,
    2868,
    2891,
    2879,
    2867,
    2888,
    2914,
    2901,
    2910,
    2891,
    2908,
    2882,
    2927,
    2905,
    2934,
    2907,
    2906,
    2904,
    2904,
    2900,
    2903,
    2929,
    2913,
    2918,
    2917,
    2928,
    2913,
    2917,
    2902,
    2925,
    2923,
    2930,
    2909,
    2902,
    2901,
    2899,
    2894,
    2879,
    2897,
    2876,
    2869,
    2855,
    2856,
    2906,
    2878,
    2865,
    2907,
    2917,
    2891,
    2855,
    2895,
    2894,
    2895,
    2848,
    2870,
    2863,
    2860,
    2839,
    2816,
    2822,
    2819,
    2844,
    2872,
    2879,
    2827,
    2832,
    2830,
    2831,
    2841,
    2829,
    2806,
    2824,
    2835,
    2816,
    2837,
    2852,
    2846,
    2843,
    2810,
    2817,
    2811,
    2826,
    2822,
    2822,
    2824,
    2845,
    2823,
    2835,
    2826,
    2861,
    2835,
    2831,
    2823,
    2843,
    2818,
    2800,
    2855,
    2814,
    2816,
    2844,
    2825,
    2838,
    2858,
    2823,
    2852,
    2834,
    2841,
    2856,
    2828,
    2818,
    2841,
    2850,
    2852,
    2869,
    2863,
    2840,
    2842,
    2824,
    2840,
    2848,
    2830,
    2855,
    2845,
    2838,
    2821,
    2838,
    2873,
    2814,
    2874,
    2845,
    2852,
    2844,
    2863,
    2849,
    2843,
    2877,
    2848,
    2845,
    2846,
    2851,
    2893,
    2884,
    2876,
    2874,
    2865,
    2867,
    2902,
    2868,
    2890,
    2871,
    2872,
    2883,
    2892,
    2884,
    2904,
    2899,
    2902,
    2875,
    2869,
    2891,
    2875,
    2892,
    2892,
    2890,
    2902,
    2888,
    2877,
    2876,
    2894,
    2889,
    2876,
    2879,
    2870,
    2883,
    2881,
    2901,
    2905,
    2882,
    2913,
    2910,
    2896,
    2914,
    2887,
    2906,
    2888,
    2905,
    2911,
    2916,
    2913,
    2929,
    2922,
    2910,
    2913,
    2901,
    2913,
    2895,
    2896,
    2897,
    2890,
    2903,
    2926,
    2903,
    2928,
    2903,
    2893,
    2880,
    2894,
    2885,
    2895,
    2867,
    2906,
    2915,
    2913,
    2933,
    2924,
    2916,
    2925,
    2931,
    2934,
    2929,
    2906,
    2887,
    2890,
    2905,
    2889,
    2936,
    2892,
    2905,
    2930,
    2945,
    2930,
    2941,
    2902,
    2906,
    2926,
    2903,
    2930,
    2941,
    2927,
    2915,
    2952,
    2925,
    2913,
    2932
   ],
   "WindowCenter": [
    769.0,
    769.0,
    769.0,
    768.0,
    768.0,
    767.0,
    767.0,
    767.0,
    767.0,
    767.0,
    768.0,
    769.0,
    769.0,
    768.0,
    768.0,
    767.0,
    767.0,
    767.0,
    767.0,
    767.0,
    767.0,
    766.0,
    765.0,
    765.0,
    765.0,
    766.0,
    767.0,
    767.0,
    766.0,
    765.0,
    765.0,
    765.0,
    765.0,
    766.0,
    766.0,
    766.0,
    766.0,
    766.0,
    767.0,
    767.0,
    767.0,
    767.0,
    767.0,
    768.0,
    767.0,
    766.0,
    766.0,
    767.0,
    767.0,
    767.0,
    767.0,
    767.0,
    767.0,
    766.0,
    765.0,
    764.0,
    764.0,
    765.0,
    766.0,
    766.0,
    766.0,
    764.0,
    765.0,
    764.0,
    764.0,
    763.0,
    764.0,
    764.0,
    764.0,
    764.0,
    764.0,
    763.0,
    763.0,
    763.0,
    764.0,
    764.0,
    763.0,
    762.0,
    762.0,
    763.0,
    764.0,
    764.0,
    764.0,
    765.0,
    765.0,
    764.0,
    764.0,
    764.0,
    763.0,
    762.0,
    763.0,
    764.0,
    763.0,
    762.0,
    762.0,
    763.0,
    763.0,
    763.0,
    763.0,
    764.0,
    766.0,
    765.0,
    764.0,
    763.0,
    763.0,
    764.0,
    764.0,
    764.0,
    764.0,
    764.0,
    765.0,
    765.0,
    765.0,
    765.0,
    766.0,
    766.0,
    766.0,
    766.0,
    767.0,
    767.0,
    767.0,
    765.0,
    764.0,
    764.0,
    764.0,
