{
  "AcquisitionMatrixPE": 100,
  "AcquisitionNumber": 1,
  "AcquisitionTime": "12:15:1.355000",
  "BandwidthPerPixelPhaseEncode": 18.519,
  "BaseResolution": 100,
  "BodyPartExamined": "BRAIN",
  "ConsistencyInfo": "N4_VE11C_LATEST_20160120",
  "ConversionSoftware": "dcm2niix",
  "ConversionSoftwareVersion": "v1.0.20180622 GCC4.9.2",
  "DerivedVendorReportedEchoSpacing": 0.000539986,
  "DeviceSerialNumber": "166078",
  "DwellTime": 2.1e-06,
  "EchoTime": 0.034,
  "EchoTrainLength": 100,
  "EffectiveEchoSpacing": 0.000539986,
  "FlipAngle": 90,
  "ImageOrientationPatientDICOM": [1, 0, 0, 0, 0.984196, -0.177085],
  "ImageType": [
    "ORIGINAL",
    "PRIMARY",
    "M",
    "ND",
    "MOSAIC"
],
  "InPlanePhaseEncodingDirectionDICOM": "COL",
  "InstitutionAddress": "Street_StreetNo_Bei_Jing_District_CN_ZIP",
  "InstitutionName": "BeiJing_Normal_University",
  "InstitutionalDepartmentName": "Department",
  "MRAcquisitionType": "2D",
  "MagneticFieldStrength": 3,
  "Manufacturer": "Siemens",
  "ManufacturersModelName": "Prisma",
  "Modality": "MR",
  "MultibandAccelerationFactor": 3,
  "PartialFourier": 1,
  "PatientPosition": "HFS",
  "PercentPhaseFOV": 100,
  "PhaseEncodingDirection": "j-",
  "PhaseEncodingSteps": 100,
  "PhaseResolution": 1,
  "PixelBandwidth": 2380,
  "ProcedureStepDescription": "BNU_P2018_64CH_Zhen.ZongLei",
  "ProtocolName": "bold_100x100_s3_2x2x2_static_256",
  "PulseSequenceDetails": "%SiemensSeq%_ep2d_bold",
  "ReceiveCoilActiveElements": "HC1-7;NC1",
  "ReceiveCoilName": "HeadNeck_64",
  "ReconMatrixPE": 100,
  "RepetitionTime": 2,
  "SAR": 0.0826949,
  "ScanOptions": "FS",
  "ScanningSequence": "EP",
  "SequenceName": "_epfid2d1_100",
  "SequenceVariant": "SK",
  "SeriesDescription": "bold_100x100_s3_2x2x2_static_256",
  "SeriesNumber": 15,
  "ShimSetting": [-5468, -11492, -1268, 407, -31, -153, -166, 88],
  "SliceThickness": 2,
  "SliceTiming": [1.485, 0, 0.99, 0.0825, 1.0725, 0.165, 1.155, 0.2475, 1.2375, 0.33, 1.32, 0.4125, 1.4025, 0.5775, 1.5675, 0.66, 1.65, 0.7425, 1.7325, 0.825, 1.815, 0.9075, 1.895, 0.495, 1.485, 0, 0.99, 0.0825, 1.0725, 0.165, 1.155, 0.2475, 1.2375, 0.33, 1.32, 0.4125, 1.4025, 0.5775, 1.5675, 0.66, 1.65, 0.7425, 1.7325, 0.825, 1.815, 0.9075, 1.895, 0.495, 1.485, 0, 0.99, 0.0825, 1.0725, 0.165, 1.155, 0.2475, 1.2375, 0.33, 1.32, 0.4125, 1.4025, 0.5775, 1.5675, 0.66, 1.65, 0.7425, 1.7325, 0.825, 1.815, 0.9075, 1.895, 0.495],
  "SoftwareVersions": "syngo_MR_E11",
  "SpacingBetweenSlices": 2,
  "StationName": "AWP166078",
  "TaskName": "naturalvision",
  "TotalReadoutTime": 0.0534586,
  "TxRefAmp": 232.612,
  "dcmmeta_affine": [
    [-2.0, 0.0, 0.0, 100.0],
    [0.0, 1.9683911800384521, -0.35416948795318604, -84.13357543945312],
    [0.0, 0.35416948795318604, 1.9683911800384521, -89.35267639160156],
    [0.0, 0.0, 0.0, 1.0]
],
  "dcmmeta_reorient_transform": [
    [0.0, -1.0, 0.0, 99.0],
    [1.0, 0.0, 0.0, 0.0],
    [0.0, 0.0, 1.0, 0.0],
    [0.0, 0.0, 0.0, 1.0]
],
  "dcmmeta_shape": [100, 100, 72, 256],
  "dcmmeta_slice_dim": 2,
  "dcmmeta_version": 0.6,
  "global": {
    "const": {
      "AcquisitionMatrix": [100, 0, 0, 100],
      "AngioFlag": "N",
      "BitsAllocated": 16,
      "BitsStored": 12,
      "BodyPartExamined": "BRAIN",
      "Columns": 900,
      "EchoNumbers": 1,
      "EchoTime": 34.0,
      "EchoTrainLength": 100,
      "FlipAngle": 90.0,
      "HighBit": 11,
      "ImageOrientationPatient": [1.0, 0.0, 0.0, 0.0, 0.98419560640419, -0.1770847490178],
      "ImagePositionPatient": [-900.0, -898.09364029197, 87.377906806423],
      "ImageType": [
        "ORIGINAL",
        "PRIMARY",
        "M",
        "ND",
        "MOSAIC"
],
      "ImagedNucleus": "1H",
      "ImagingFrequency": 123.257763,
      "InPlanePhaseEncodingDirection": "COL",
      "MRAcquisitionType": "2D",
      "MagneticFieldStrength": 3.0,
      "Manufacturer": "SIEMENS",
      "ManufacturerModelName": "Prisma",
      "Modality": "MR",
      "NumberOfAverages": 1.0,
      "NumberOfPhaseEncodingSteps": 100,
      "PercentPhaseFieldOfView": 100.0,
      "PercentSampling": 100.0,
      "PerformedProcedureStepStartTime": "105611.231000",
      "PhotometricInterpretation": "MONOCHROME2",
      "PixelBandwidth": 2380.0,
      "PixelRepresentation": 0,
      "PixelSpacing": [2.0, 2.0],
      "ProtocolName": "bold_100x100_s3_2x2x2_static_256",
      "RepetitionTime": 2000.0,
      "Rows": 900,
      "SAR": 0.08269486249637,
      "SamplesPerPixel": 1,
      "ScanOptions": "FS",
      "ScanningSequence": "EP",
      "SequenceName": "*epfid2d1_100",
      "SequenceVariant": "SK",
      "SeriesDescription": "bold_100x100_s3_2x2x2_static_256",
      "SeriesNumber": 15,
      "SeriesTime": "121503.383000",
      "SliceLocation": -73.041734909883,
      "SliceThickness": 2.0,
      "SmallestImagePixelValue": 0,
      "SoftwareVersions": "syngo MR E11",
      "SpacingBetweenSlices": 1.9999999858265,
      "SpecificCharacterSet": "ISO_IR 100",
      "StudyID": "1",
      "StudyTime": "105611.144000",
      "TransmitCoilName": "Body",
      "VariableFlipAngleFlag": "N",
      "WindowCenterWidthExplanation": "Algo1",
      "dBdt": 0.0},
    "slices": {}
  },
  "time": {
    "samples": {
      "AcquisitionNumber": [1, 2, 3, 4, 5, 6, 7, 8, 9, 10, 11, 12, 13, 14, 15, 16, 17, 18, 19, 20, 21, 22, 23, 24, 25, 26, 27, 28, 29, 30, 31, 32, 33, 34, 35, 36, 37, 38, 39, 40, 41, 42, 43, 44, 45, 46, 47, 48, 49, 50, 51, 52, 53, 54, 55, 56, 57, 58, 59, 60, 61, 62, 63, 64, 65, 66, 67, 68, 69, 70, 71, 72, 73, 74, 75, 76, 77, 78, 79, 80, 81, 82, 83, 84, 85, 86, 87, 88, 89, 90, 91, 92, 93, 94, 95, 96, 97, 98, 99, 100, 101, 102, 103, 104, 105, 106, 107, 108, 109, 110, 111, 112, 113, 114, 115, 116, 117, 118, 119, 120, 121, 122, 123, 124, 125, 126, 127, 128, 129, 130, 131, 132, 133, 134, 135, 136, 137, 138, 139, 140, 141, 142, 143, 144, 145, 146, 147, 148, 149, 150, 151, 152, 153, 154, 155, 156, 157, 158, 159, 160, 161, 162, 163, 164, 165, 166, 167, 168, 169, 170, 171, 172, 173, 174, 175, 176, 177, 178, 179, 180, 181, 182, 183, 184, 185, 186, 187, 188, 189, 190, 191, 192, 193, 194, 195, 196, 197, 198, 199, 200, 201, 202, 203, 204, 205, 206, 207, 208, 209, 210, 211, 212, 213, 214, 215, 216, 217, 218, 219, 220, 221, 222, 223, 224, 225, 226, 227, 228, 229, 230, 231, 232, 233, 234, 235, 236, 237, 238, 239, 240, 241, 242, 243, 244, 245, 246, 247, 248, 249, 250, 251, 252, 253, 254, 255, 256],
      "AcquisitionTime": ["121501.355000", "121503.355000", "121505.355000", "121507.355000", "121509.355000", "121511.355000", "121513.355000", "121515.355000", "121517.355000", "121519.355000", "121521.355000", "121523.355000", "121525.355000", "121527.355000", "121529.355000", "121531.355000", "121533.355000", "121535.355000", "121537.355000", "121539.355000", "121541.355000", "121543.355000", "121545.355000", "121547.355000", "121549.355000", "121551.355000", "121553.355000", "121555.355000", "121557.355000", "121559.355000", "121601.355000", "121603.355000", "121605.355000", "121607.355000", "121609.355000", "121611.355000", "121613.355000", "121615.355000", "121617.355000", "121619.355000", "121621.355000", "121623.355000", "121625.355000", "121627.355000", "121629.355000", "121631.355000", "121633.355000", "121635.355000", "121637.355000", "121639.355000", "121641.355000", "121643.355000", "121645.355000", "121647.355000", "121649.355000", "121651.355000", "121653.355000", "121655.355000", "121657.355000", "121659.355000", "121701.355000", "121703.355000", "121705.355000", "121707.355000", "121709.355000", "121711.355000", "121713.355000", "121715.355000", "121717.355000", "121719.355000", "121721.355000", "121723.355000", "121725.355000", "121727.355000", "121729.355000", "121731.355000", "121733.355000", "121735.355000", "121737.355000", "121739.355000", "121741.355000", "121743.355000", "121745.355000", "121747.355000", "121749.355000", "121751.355000", "121753.355000", "121755.355000", "121757.355000", "121759.355000", "121801.355000", "121803.355000", "121805.355000", "121807.355000", "121809.355000", "121811.355000", "121813.355000", "121815.355000", "121817.355000", "121819.355000", "121821.355000", "121823.355000", "121825.355000", "121827.355000", "121829.355000", "121831.355000", "121833.355000", "121835.355000", "121837.355000", "121839.355000", "121841.355000", "121843.355000", "121845.355000", "121847.355000", "121849.355000", "121851.355000", "121853.355000", "121855.355000", "121857.355000", "121859.355000", "121901.355000", "121903.355000", "121905.355000", "121907.355000", "121909.355000", "121911.355000", "121913.355000", "121915.355000", "121917.355000", "121919.355000", "121921.355000", "121923.355000", "121925.355000", "121927.355000", "121929.355000", "121931.355000", "121933.355000", "121935.355000", "121937.355000", "121939.355000", "121941.355000", "121943.355000", "121945.355000", "121947.355000", "121949.355000", "121951.355000", "121953.355000", "121955.355000", "121957.355000", "121959.355000", "122001.355000", "122003.355000", "122005.355000", "122007.355000", "122009.355000", "122011.355000", "122013.355000", "122015.355000", "122017.355000", "122019.355000", "122021.355000", "122023.355000", "122025.355000", "122027.355000", "122029.355000", "122031.355000", "122033.355000", "122035.355000", "122037.355000", "122039.355000", "122041.355000", "122043.355000", "122045.355000", "122047.355000", "122049.355000", "122051.355000", "122053.355000", "122055.355000", "122057.355000", "122059.355000", "122101.355000", "122103.355000", "122105.355000", "122107.355000", "122109.355000", "122111.355000", "122113.355000", "122115.355000", "122117.355000", "122119.355000", "122121.355000", "122123.355000", "122125.355000", "122127.355000", "122129.355000", "122131.355000", "122133.355000", "122135.355000", "122137.355000", "122139.355000", "122141.355000", "122143.355000", "122145.355000", "122147.355000", "122149.355000", "122151.355000", "122153.355000", "122155.355000", "122157.355000", "122159.355000", "122201.355000", "122203.355000", "122205.355000", "122207.355000", "122209.355000", "122211.355000", "122213.355000", "122215.355000", "122217.355000", "122219.355000", "122221.355000", "122223.355000", "122225.355000", "122227.355000", "122229.355000", "122231.355000", "122233.355000", "122235.355000", "122237.355000", "122239.355000", "122241.355000", "122243.355000", "122245.355000", "122247.355000", "122249.355000", "122251.355000", "122253.355000", "122255.355000", "122257.355000", "122259.355000", "122301.355000", "122303.355000", "122305.355000", "122307.355000", "122309.355000", "122311.355000", "122313.355000", "122315.355000", "122317.355000", "122319.355000", "122321.355000", "122323.355000", "122325.355000", "122327.355000", "122329.355000", "122331.355000"],
      "ContentTime": ["121503.387000", "121504.883000", "121506.881000", "121508.881000", "121510.881000", "121512.881000", "121514.882000", "121516.882000", "121518.882000", "121520.882000", "121522.882000", "121524.882000", "121526.881000", "121528.881000", "121530.881000", "121532.881000", "121534.882000", "121536.882000", "121538.883000", "121540.882000", "121542.881000", "121544.882000", "121546.882000", "121548.882000", "121550.882000", "121552.883000", "121554.883000", "121556.883000", "121558.883000", "121600.881000", "121602.881000", "121604.881000", "121606.881000", "121608.882000", "121610.883000", "121612.883000", "121614.882000", "121616.882000", "121618.881000", "121620.882000", "121622.881000", "121624.881000", "121626.882000", "121628.882000", "121630.882000", "121632.882000", "121634.882000", "121636.881000", "121638.881000", "121640.881000", "121642.881000", "121644.883000", "121646.882000", "121648.882000", "121650.882000", "121652.881000", "121654.881000", "121656.882000", "121658.881000", "121700.881000", "121702.883000", "121704.882000", "121706.882000", "121708.882000", "121710.881000", "121712.881000", "121714.882000", "121716.882000", "121718.882000", "121720.882000", "121722.882000", "121724.882000", "121726.882000", "121728.882000", "121730.882000", "121732.881000", "121734.882000", "121736.883000", "121738.883000", "121740.882000", "121742.882000", "121744.881000", "121746.882000", "121748.881000", "121750.882000", "121752.881000", "121754.882000", "121756.883000", "121758.882000", "121800.883000", "121802.881000", "121804.882000", "121806.881000", "121808.881000", "121810.881000", "121812.883000", "121814.882000", "121816.882000", "121818.882000", "121820.882000", "121822.881000", "121824.881000", "121826.881000", "121828.883000", "121830.882000", "121832.883000", "121834.882000", "121836.881000", "121838.881000", "121840.881000", "121842.881000", "121844.881000", "121846.882000", "121848.883000", "121850.882000", "121852.883000", "121854.882000", "121856.881000", "121858.881000", "121900.881000", "121902.882000", "121904.882000", "121906.882000", "121908.882000", "121910.882000", "121912.881000", "121914.881000", "121916.881000", "121918.882000", "121920.882000", "121922.882000", "121924.882000", "121926.882000", "121928.883000", "121930.881000", "121932.881000", "121934.881000", "121936.882000", "121938.883000", "121940.883000", "121942.883000", "121944.882000", "121946.882000", "121948.895000", "121950.881000", "121952.882000", "121954.882000", "121956.883000", "121958.883000", "122000.882000", "122002.882000", "122004.882000", "122006.882000", "122008.881000", "122010.881000", "122012.881000", "122014.883000", "122016.883000", "122018.882000", "122020.882000", "122022.881000", "122024.882000", "122026.881000", "122028.881000", "122030.881000", "122032.882000", "122034.883000", "122036.883000", "122038.882000", "122040.881000", "122042.882000", "122044.881000", "122046.882000", "122048.883000", "122050.883000", "122052.882000", "122054.882000", "122056.882000", "122058.881000", "122100.881000", "122102.882000", "122104.882000", "122106.882000", "122108.883000", "122110.882000", "122112.883000", "122114.882000", "122116.881000", "122118.881000", "122120.881000", "122122.881000", "122124.883000", "122126.883000", "122128.883000", "122130.882000", "122132.882000", "122134.882000", "122136.881000", "122138.882000", "122140.882000", "122142.883000", "122144.883000", "122146.883000", "122148.882000", "122150.882000", "122152.881000", "122154.882000", "122156.881000", "122158.882000", "122200.882000", "122202.883000", "122204.883000", "122206.881000", "122208.881000", "122210.881000", "122212.881000", "122214.881000", "122216.882000", "122218.882000", "122220.882000", "122222.883000", "122224.881000", "122226.882000", "122228.882000", "122230.881000", "122232.881000", "122234.882000", "122236.883000", "122238.882000", "122240.883000", "122242.882000", "122244.882000", "122246.881000", "122248.882000", "122250.883000", "122252.883000", "122254.883000", "122256.882000", "122258.881000", "122300.882000", "122302.882000", "122304.881000", "122306.882000", "122308.883000", "122310.882000", "122312.883000", "122314.883000", "122316.882000", "122318.881000", "122320.881000", "122322.881000", "122324.881000", "122326.883000", "122328.883000", "122330.883000", "122332.694000"],
      "InstanceCreationTime": ["121503.387000", "121504.883000", "121506.881000", "121508.881000", "121510.881000", "121512.881000", "121514.882000", "121516.882000", "121518.882000", "121520.882000", "121522.882000", "121524.882000", "121526.881000", "121528.881000", "121530.881000", "121532.881000", "121534.882000", "121536.882000", "121538.883000", "121540.882000", "121542.881000", "121544.882000", "121546.882000", "121548.882000", "121550.882000", "121552.883000", "121554.883000", "121556.883000", "121558.883000", "121600.881000", "121602.881000", "121604.881000", "121606.881000", "121608.882000", "121610.883000", "121612.883000", "121614.882000", "121616.882000", "121618.881000", "121620.882000", "121622.881000", "121624.881000", "121626.882000", "121628.882000", "121630.882000", "121632.882000", "121634.882000", "121636.881000", "121638.881000", "121640.881000", "121642.881000", "121644.883000", "121646.882000", "121648.882000", "121650.882000", "121652.881000", "121654.881000", "121656.882000", "121658.881000", "121700.881000", "121702.883000", "121704.882000", "121706.882000", "121708.882000", "121710.881000", "121712.881000", "121714.882000", "121716.882000", "121718.882000", "121720.882000", "121722.882000", "121724.882000", "121726.882000", "121728.882000", "121730.882000", "121732.881000", "121734.882000", "121736.883000", "121738.883000", "121740.882000", "121742.882000", "121744.881000", "121746.882000", "121748.881000", "121750.882000", "121752.881000", "121754.882000", "121756.883000", "121758.882000", "121800.883000", "121802.881000", "121804.882000", "121806.881000", "121808.881000", "121810.881000", "121812.883000", "121814.882000", "121816.882000", "121818.882000", "121820.882000", "121822.881000", "121824.881000", "121826.881000", "121828.883000", "121830.882000", "121832.883000", "121834.882000", "121836.881000", "121838.881000", "121840.881000", "121842.881000", "121844.881000", "121846.882000", "121848.883000", "121850.882000", "121852.883000", "121854.882000", "121856.881000", "121858.881000", "121900.881000", "121902.882000", "121904.882000", "121906.882000", "121908.882000", "121910.882000", "121912.881000", "121914.881000", "121916.881000", "121918.882000", "121920.882000", "121922.882000", "121924.882000", "121926.882000", "121928.883000", "121930.881000", "121932.881000", "121934.881000", "121936.882000", "121938.883000", "121940.883000", "121942.883000", "121944.882000", "121946.882000", "121948.895000", "121950.881000", "121952.882000", "121954.882000", "121956.883000", "121958.883000", "122000.882000", "122002.882000", "122004.882000", "122006.882000", "122008.881000", "122010.881000", "122012.881000", "122014.883000", "122016.883000", "122018.882000", "122020.882000", "122022.881000", "122024.882000", "122026.881000", "122028.881000", "122030.881000", "122032.882000", "122034.883000", "122036.883000", "122038.882000", "122040.881000", "122042.882000", "122044.881000", "122046.882000", "122048.883000", "122050.883000", "122052.882000", "122054.882000", "122056.882000", "122058.881000", "122100.881000", "122102.882000", "122104.882000", "122106.882000", "122108.883000", "122110.882000", "122112.883000", "122114.882000", "122116.881000", "122118.881000", "122120.881000", "122122.881000", "122124.883000", "122126.883000", "122128.883000", "122130.882000", "122132.882000", "122134.882000", "122136.881000", "122138.882000", "122140.882000", "122142.883000", "122144.883000", "122146.883000", "122148.882000", "122150.882000", "122152.881000", "122154.882000", "122156.881000", "122158.882000", "122200.882000", "122202.883000", "122204.883000", "122206.881000", "122208.881000", "122210.881000", "122212.881000", "122214.881000", "122216.882000", "122218.882000", "122220.882000", "122222.883000", "122224.881000", "122226.882000", "122228.882000", "122230.881000", "122232.881000", "122234.882000", "122236.883000", "122238.882000", "122240.883000", "122242.882000", "122244.882000", "122246.881000", "122248.882000", "122250.883000", "122252.883000", "122254.883000", "122256.882000", "122258.881000", "122300.882000", "122302.882000", "122304.881000", "122306.882000", "122308.883000", "122310.882000", "122312.883000", "122314.883000", "122316.882000", "122318.881000", "122320.881000", "122322.881000", "122324.881000", "122326.883000", "122328.883000", "122330.883000", "122332.694000"],
      "InstanceNumber": [1, 2, 3, 4, 5, 6, 7, 8, 9, 10, 11, 12, 13, 14, 15, 16, 17, 18, 19, 20, 21, 22, 23, 24, 25, 26, 27, 28, 29, 30, 31, 32, 33, 34, 35, 36, 37, 38, 39, 40, 41, 42, 43, 44, 45, 46, 47, 48, 49, 50, 51, 52, 53, 54, 55, 56, 57, 58, 59, 60, 61, 62, 63, 64, 65, 66, 67, 68, 69, 70, 71, 72, 73, 74, 75, 76, 77, 78, 79, 80, 81, 82, 83, 84, 85, 86, 87, 88, 89, 90, 91, 92, 93, 94, 95, 96, 97, 98, 99, 100, 101, 102, 103, 104, 105, 106, 107, 108, 109, 110, 111, 112, 113, 114, 115, 116, 117, 118, 119, 120, 121, 122, 123, 124, 125, 126, 127, 128, 129, 130, 131, 132, 133, 134, 135, 136, 137, 138, 139, 140, 141, 142, 143, 144, 145, 146, 147, 148, 149, 150, 151, 152, 153, 154, 155, 156, 157, 158, 159, 160, 161, 162, 163, 164, 165, 166, 167, 168, 169, 170, 171, 172, 173, 174, 175, 176, 177, 178, 179, 180, 181, 182, 183, 184, 185, 186, 187, 188, 189, 190, 191, 192, 193, 194, 195, 196, 197, 198, 199, 200, 201, 202, 203, 204, 205, 206, 207, 208, 209, 210, 211, 212, 213, 214, 215, 216, 217, 218, 219, 220, 221, 222, 223, 224, 225, 226, 227, 228, 229, 230, 231, 232, 233, 234, 235, 236, 237, 238, 239, 240, 241, 242, 243, 244, 245, 246, 247, 248, 249, 250, 251, 252, 253, 254, 255, 256],
      "LargestImagePixelValue": [3065, 2982, 2964, 2971, 2965, 2979, 3000, 3023, 3000, 3033, 3062, 3026, 2953, 2952, 2964, 2989, 2969, 2968, 2987, 3008, 3051, 3012, 2982, 2958, 2973, 2997, 3025, 2995, 2960, 2984, 2989, 3019, 2991, 2999, 2973, 2970, 3064, 3010, 2962, 2916, 2918, 2944, 2967, 2995, 2998, 2972, 2998, 2997, 3019, 3042, 3022, 3011, 3029, 3068, 3017, 3049, 2999, 2964, 2973, 2984, 2997, 3018, 2991, 3024, 3016, 3000, 2979, 3032, 2970, 2975, 2992, 2987, 3002, 3011, 3000, 3004, 3013, 3029, 3044, 3019, 2966, 3043, 3000, 3035, 3006, 3012, 2997, 3018, 3000, 2993, 2990, 2963, 3007, 3019, 2987, 2995, 2993, 3035, 3022, 3020, 2998, 3025, 3018, 3040, 2998, 3023, 2995, 3033, 3003, 3005, 2982, 2973, 2984, 2976, 2999, 2977, 3011, 3029, 3033, 3063, 3035, 2973, 2986, 2979, 3001, 3068, 3025, 2987, 3076, 3059, 3050, 3068, 3035, 3073, 3108, 3070, 3038, 3062, 3028, 2985, 2961, 2994, 3002, 3029, 3033, 3099, 3078, 3035, 3089, 3029, 3044, 3056, 3026, 3059, 3027, 3028, 3104, 3058, 3060, 3004, 2969, 3042, 3063, 2977, 2967, 3005, 2990, 2983, 2971, 2961, 2984, 2992, 2974, 2953, 2980, 3011, 3108, 3052, 2993, 3020, 2981, 2993, 2971, 3028, 3020, 3000, 3019, 3079, 3030, 2997, 2971, 2989, 3012, 3004, 3031, 3012, 3012, 3047, 3043, 2994, 3047, 2988, 3014, 2958, 2980, 3027, 2999, 3033, 3042, 3014, 2999, 3003, 3013, 2994, 3002, 2984, 3000, 2990, 2988, 2962, 2950, 2969, 2962, 2958, 2983, 2971, 2999, 3014, 2961, 3001, 2977, 2977, 2985, 3026, 3100, 3054, 2937, 2978, 2964, 3013, 3037, 2971, 2966, 2995, 3016, 3056, 3013, 3128, 3045, 3034, 3116, 3046, 3024, 3084, 3047, 3067],
      "WindowCenter": [791.0, 789.0, 789.0, 790.0, 790.0, 790.0, 790.0, 790.0, 790.0, 791.0, 791.0, 790.0, 789.0, 789.0, 790.0, 789.0, 788.0, 788.0, 788.0, 789.0, 789.0, 789.0, 788.0, 788.0, 788.0, 789.0, 788.0, 788.0, 788.0, 788.0, 788.0, 788.0, 787.0, 787.0, 787.0, 788.0, 789.0, 788.0, 787.0, 786.0, 787.0, 787.0, 788.0, 788.0, 787.0, 788.0, 789.0, 788.0, 788.0, 788.0, 788.0, 788.0, 790.0, 790.0, 790.0, 789.0, 788.0, 788.0, 788.0, 789.0, 789.0, 789.0, 789.0, 789.0, 790.0, 790.0, 789.0, 789.0, 788.0, 788.0, 789.0, 789.0, 790.0, 790.0, 789.0, 789.0, 789.0, 789.0, 789.0, 789.0, 788.0, 789.0, 788.0, 788.0, 787.0, 788.0, 788.0, 788.0, 789.0, 789.0, 788.0, 787.0, 788.0, 788.0, 788.0, 788.0, 788.0, 789.0, 789.0, 789.0, 789.0, 788.0, 789.0, 789.0, 788.0, 790.0, 790.0, 790.0, 789.0, 788.0, 788.0, 788.0, 788.0, 788.0, 788.0, 788.0, 789.0, 790.0, 790.0, 790.0, 789.0, 788.0, 788.0, 788.0, 789.0, 789.0, 789.0, 789.0, 790.0, 790.0, 790.0, 789.0, 789.0, 790.0, 791.0, 790.0, 790.0, 790.0, 789.0, 788.0, 788.0, 789.0, 789.0, 791.0, 791.0, 790.0, 789.0, 788.0, 789.0, 789.0, 790.0, 790.0, 789.0, 789.0, 789.0, 789.0, 790.0, 789.0, 789.0, 789.0, 788.0, 789.0, 789.0, 788.0, 788.0, 789.0, 789.0, 789.0, 788.0, 789.0, 789.0, 790.0, 789.0, 788.0, 789.0, 791.0, 792.0, 790.0, 789.0, 789.0, 789.0, 788.0, 788.0, 789.0, 789.0, 789.0, 789.0, 790.0, 789.0, 788.0, 788.0, 788.0, 789.0, 789.0, 789.0, 790.0, 790.0, 790.0, 789.0, 788.0, 788.0, 788.0, 789.0, 789.0, 790.0, 790.0, 790.0, 790.0, 790.0, 789.0, 789.0, 789.0, 789.0, 788.0, 789.0, 789.0, 790.0, 789.0, 788.0, 788.0, 789.0, 789.0, 789.0, 788.0, 788.0, 788.0, 789.0, 789.0, 789.0, 789.0, 789.0, 789.0, 789.0, 790.0, 790.0, 789.0, 788.0, 788.0, 788.0, 788.0, 789.0, 788.0, 788.0, 788.0, 789.0, 790.0, 790.0, 791.0, 790.0, 790.0, 791.0, 789.0, 790.0, 791.0, 790.0, 790.0],
      "WindowWidth": [1703.0, 1696.0, 1695.0, 1698.0, 1700.0, 1699.0, 1698.0, 1699.0, 1699.0, 1700.0, 1701.0, 1699.0, 1697.0, 1697.0, 1697.0, 1695.0, 1694.0, 1693.0, 1695.0, 1696.0, 1697.0, 1695.0, 1694.0, 1693.0, 1695.0, 1697.0, 1695.0, 1693.0, 1693.0, 1694.0, 1695.0, 1693.0, 1691.0, 1691.0, 1692.0, 1695.0, 1697.0, 1693.0, 1690.0, 1688.0, 1690.0, 1692.0, 1693.0, 1693.0, 1691.0, 1694.0, 1696.0, 1695.0, 1695.0, 1694.0, 1693.0, 1694.0, 1698.0, 1699.0, 1699.0, 1697.0, 1693.0, 1693.0, 1695.0, 1695.0, 1697.0, 1697.0, 1697.0, 1697.0, 1699.0, 1698.0, 1697.0, 1695.0, 1693.0, 1693.0, 1695.0, 1696.0, 1698.0, 1698.0, 1697.0, 1696.0, 1697.0, 1696.0, 1696.0, 1695.0, 1694.0, 1696.0, 1694.0, 1694.0, 1692.0, 1693.0, 1694.0, 1695.0, 1697.0, 1695.0, 1693.0, 1691.0, 1693.0, 1694.0, 1694.0, 1694.0, 1693.0, 1696.0, 1697.0, 1697.0, 1695.0, 1694.0, 1696.0, 1695.0, 1694.0, 1698.0, 1699.0, 1699.0, 1696.0, 1695.0, 1694.0, 1693.0, 1693.0, 1693.0, 1694.0, 1694.0, 1697.0, 1699.0, 1699.0, 1698.0, 1696.0, 1694.0, 1694.0, 1694.0, 1696.0, 1697.0, 1696.0, 1696.0, 1700.0, 1699.0, 1698.0, 1696.0, 1696.0, 1698.0, 1701.0, 1700.0, 1700.0, 1700.0, 1697.0, 1695.0, 1693.0, 1696.0, 1697.0, 1700.0, 1700.0, 1699.0, 1697.0, 1695.0, 1697.0, 1696.0, 1698.0, 1698.0, 1696.0, 1698.0, 1697.0, 1697.0, 1699.0, 1697.0, 1697.0, 1695.0, 1694.0, 1696.0, 1695.0, 1693.0, 1694.0, 1697.0, 1696.0, 1695.0, 1695.0, 1695.0, 1697.0, 1698.0, 1696.0, 1694.0, 1696.0, 1702.0, 1704.0, 1699.0, 1696.0, 1696.0, 1695.0, 1693.0, 1693.0, 1695.0, 1697.0, 1696.0, 1697.0, 1698.0, 1696.0, 1694.0, 1694.0, 1694.0, 1696.0, 1695.0, 1697.0, 1698.0, 1698.0, 1699.0, 1697.0, 1694.0, 1694.0, 1694.0, 1696.0, 1696.0, 1697.0, 1699.0, 1697.0, 1697.0, 1698.0, 1697.0, 1697.0, 1697.0, 1696.0, 1695.0, 1695.0, 1696.0, 1698.0, 1696.0, 1693.0, 1694.0, 1696.0, 1697.0, 1697.0, 1694.0, 1692.0, 1693.0, 1695.0, 1696.0, 1695.0, 1697.0, 1697.0, 1696.0, 1696.0, 1698.0, 1699.0, 1696.0, 1692.0, 1694.0, 1694.0, 1694.0, 1695.0, 1693.0, 1693.0, 1695.0, 1696.0, 1698.0, 1699.0, 1701.0, 1699.0, 1699.0, 1702.0, 1697.0, 1698.0, 1702.0, 1700.0, 1699.0]
    },
    "slices": {}
  }
}