{
 "AcquisitionMatrixPE": 100,
 "AcquisitionNumber": 1,
 "AcquisitionTime": "11:19:3.855000",
 "BandwidthPerPixelPhaseEncode": 18.519,
 "BaseResolution": 100,
 "BodyPartExamined": "BRAIN",
 "ConsistencyInfo": "N4_VE11C_LATEST_20160120",
 "ConversionSoftware": "dcm2niix",
 "ConversionSoftwareVersion": "v1.0.20180622 GCC4.9.2",
 "DerivedVendorReportedEchoSpacing": 0.000539986,
 "DeviceSerialNumber": "166078",
 "DwellTime": 2.1e-06,
 "EchoTime": 0.034,
 "EchoTrainLength": 100,
 "EffectiveEchoSpacing": 0.000539986,
 "FlipAngle": 90,
 "ImageOrientationPatientDICOM": [
  1,
  0,
  0,
  0,
  0.965926,
  -0.258819
 ],
 "ImageType": [
  "ORIGINAL",
  "PRIMARY",
  "M",
  "ND",
  "MOSAIC"
 ],
 "InPlanePhaseEncodingDirectionDICOM": "COL",
 "InstitutionAddress": "Street_StreetNo_Bei_Jing_District_CN_ZIP",
 "InstitutionName": "BeiJing_Normal_University",
 "InstitutionalDepartmentName": "Department",
 "MRAcquisitionType": "2D",
 "MagneticFieldStrength": 3,
 "Manufacturer": "Siemens",
 "ManufacturersModelName": "Prisma",
 "Modality": "MR",
 "MultibandAccelerationFactor": 3,
 "PartialFourier": 1,
 "PatientPosition": "HFS",
 "PercentPhaseFOV": 100,
 "PhaseEncodingDirection": "j-",
 "PhaseEncodingSteps": 100,
 "PhaseResolution": 1,
 "PixelBandwidth": 2380,
 "ProcedureStepDescription": "BNU_P2018_64CH_Zhen.ZongLei",
 "ProtocolName": "bold_100x100_s3_2x2x2_static_256",
 "PulseSequenceDetails": "%SiemensSeq%_ep2d_bold",
 "ReceiveCoilActiveElements": "HC1-7;NC1",
 "ReceiveCoilName": "HeadNeck_64",
 "ReconMatrixPE": 100,
 "RepetitionTime": 2,
 "SAR": 0.079795,
 "ScanOptions": "FS",
 "ScanningSequence": "EP",
 "SequenceName": "_epfid2d1_100",
 "SequenceVariant": "SK",
 "SeriesDescription": "bold_100x100_s3_2x2x2_static_256",
 "SeriesNumber": 5,
 "ShimSetting": [
  -5457,
  -11517,
  -1251,
  545,
  -12,
  -206,
  -141,
  78
 ],
 "SliceThickness": 2,
 "SliceTiming": [
  1.485,
  0,
  0.99,
  0.0825,
  1.0725,
  0.165,
  1.155,
  0.2475,
  1.2375,
  0.33,
  1.32,
  0.4125,
  1.4025,
  0.5775,
  1.5675,
  0.66,
  1.65,
  0.7425,
  1.7325,
  0.825,
  1.815,
  0.9075,
  1.8975,
  0.495,
  1.485,
  0,
  0.99,
  0.0825,
  1.0725,
  0.165,
  1.155,
  0.2475,
  1.2375,
  0.33,
  1.32,
  0.4125,
  1.4025,
  0.5775,
  1.5675,
  0.66,
  1.65,
  0.7425,
  1.7325,
  0.825,
  1.815,
  0.9075,
  1.8975,
  0.495,
  1.485,
  0,
  0.99,
  0.0825,
  1.0725,
  0.165,
  1.155,
  0.2475,
  1.2375,
  0.33,
  1.32,
  0.4125,
  1.4025,
  0.5775,
  1.5675,
  0.66,
  1.65,
  0.7425,
  1.7325,
  0.825,
  1.815,
  0.9075,
  1.8975,
  0.495
 ],
 "SoftwareVersions": "syngo_MR_E11",
 "SpacingBetweenSlices": 2,
 "StationName": "AWP166078",
 "TaskName": "imagenet",
 "TotalReadoutTime": 0.0534586,
 "TxRefAmp": 230.327,
 "dcmmeta_affine": [
  [
   -2.0,
   0.0,
   0.0,
   101.34939575195312
  ],
  [
   0.0,
   1.9318516254425049,
   -0.517638087272644,
   -78.52554321289062
  ],
  [
   0.0,
   0.517638087272644,
   1.9318516254425049,
   -91.47753143310547
  ],
  [
   0.0,
   0.0,
   0.0,
   1.0
  ]
 ],
 "dcmmeta_reorient_transform": [
  [
   0.0,
   -1.0,
   0.0,
   99.0
  ],
  [
   1.0,
   0.0,
   0.0,
   0.0
  ],
  [
   0.0,
   0.0,
   1.0,
   0.0
  ],
  [
   0.0,
   0.0,
   0.0,
   1.0
  ]
 ],
 "dcmmeta_shape": [
  100,
  100,
  72,
  256
 ],
 "dcmmeta_slice_dim": 2,
 "dcmmeta_version": 0.6,
 "global": {
  "const": {
   "AcquisitionMatrix": [
    100,
    0,
    0,
    100
   ],
   "AngioFlag": "N",
   "BitsAllocated": 16,
   "BitsStored": 12,
   "BodyPartExamined": "BRAIN",
   "Columns": 900,
   "EchoNumbers": 1,
   "EchoTime": 34.0,
   "EchoTrainLength": 100,
   "FlipAngle": 90.0,
   "HighBit": 11,
   "ImageOrientationPatient": [
    1.0,
    0.0,
    0.0,
    0.0,
    0.9659258278573,
    -0.2588190392498
   ],
   "ImagePositionPatient": [
    -901.34939754009,
    -885.46843412797,
    166.82386933362
   ],
   "ImageType": [
    "ORIGINAL",
    "PRIMARY",
    "M",
    "ND",
    "MOSAIC"
   ],
   "ImagedNucleus": "1H",
   "ImagingFrequency": 123.257767,
   "InPlanePhaseEncodingDirection": "COL",
   "MRAcquisitionType": "2D",
   "MagneticFieldStrength": 3.0,
   "Manufacturer": "SIEMENS",
   "ManufacturerModelName": "Prisma",
   "Modality": "MR",
   "NumberOfAverages": 1.0,
   "NumberOfPhaseEncodingSteps": 100,
   "PercentPhaseFieldOfView": 100.0,
   "PercentSampling": 100.0,
   "PerformedProcedureStepStartTime": "105611.231000",
   "PhotometricInterpretation": "MONOCHROME2",
   "PixelBandwidth": 2380.0,
   "PixelRepresentation": 0,
   "PixelSpacing": [
    2.0,
    2.0
   ],
   "ProtocolName": "bold_100x100_s3_2x2x2_static_256",
   "RepetitionTime": 2000.0,
   "Rows": 900,
   "SAR": 0.07979500938357,
   "SamplesPerPixel": 1,
   "ScanOptions": "FS",
   "ScanningSequence": "EP",
   "SequenceName": "*epfid2d1_100",
   "SequenceVariant": "SK",
   "SeriesDescription": "bold_100x100_s3_2x2x2_static_256",
   "SeriesNumber": 5,
   "SeriesTime": "111906.055000",
   "SliceLocation": -68.036605314601,
   "SliceThickness": 2.0,
   "SmallestImagePixelValue": 0,
   "SoftwareVersions": "syngo MR E11",
   "SpacingBetweenSlices": 2.000000021715,
   "SpecificCharacterSet": "ISO_IR 100",
   "StudyID": "1",
   "StudyTime": "105611.144000",
   "TransmitCoilName": "Body",
   "VariableFlipAngleFlag": "N",
   "WindowCenterWidthExplanation": "Algo1",
   "dBdt": 0.0
  },
  "slices": {}
 },
 "time": {
  "samples": {
   "AcquisitionNumber": [
    1,
    2,
    3,
    4,
    5,
    6,
    7,
    8,
    9,
    10,
    11,
    12,
    13,
    14,
    15,
    16,
    17,
    18,
    19,
    20,
    21,
    22,
    23,
    24,
    25,
    26,
    27,
    28,
    29,
    30,
    31,
    32,
    33,
    34,
    35,
    36,
    37,
    38,
    39,
    40,
    41,
    42,
    43,
    44,
    45,
    46,
    47,
    48,
    49,
    50,
    51,
    52,
    53,
    54,
    55,
    56,
    57,
    58,
    59,
    60,
    61,
    62,
    63,
    64,
    65,
    66,
    67,
    68,
    69,
    70,
    71,
    72,
    73,
    74,
    75,
    76,
    77,
    78,
    79,
    80,
    81,
    82,
    83,
    84,
    85,
    86,
    87,
    88,
    89,
    90,
    91,
    92,
    93,
    94,
    95,
    96,
    97,
    98,
    99,
    100,
    101,
    102,
    103,
    104,
    105,
    106,
    107,
    108,
    109,
    110,
    111,
    112,
    113,
    114,
    115,
    116,
    117,
    118,
    119,
    120,
    121,
    122,
    123,
    124,
    125,
    126,
    127,
    128,
    129,
    130,
    131,
    132,
    133,
    134,
    135,
    136,
    137,
    138,
    139,
    140,
    141,
    142,
    143,
    144,
    145,
    146,
    147,
    148,
    149,
    150,
    151,
    152,
    153,
    154,
    155,
    156,
    157,
    158,
    159,
    160,
    161,
    162,
    163,
    164,
    165,
    166,
    167,
    168,
    169,
    170,
    171,
    172,
    173,
    174,
    175,
    176,
    177,
    178,
    179,
    180,
    181,
    182,
    183,
    184,
    185,
    186,
    187,
    188,
    189,
    190,
    191,
    192,
    193,
    194,
    195,
    196,
    197,
    198,
    199,
    200,
    201,
    202,
    203,
    204,
    205,
    206,
    207,
    208,
    209,
    210,
    211,
    212,
    213,
    214,
    215,
    216,
    217,
    218,
    219,
    220,
    221,
    222,
    223,
    224,
    225,
    226,
    227,
    228,
    229,
    230,
    231,
    232,
    233,
    234,
    235,
    236,
    237,
    238,
    239,
    240,
    241,
    242,
    243,
    244,
    245,
    246,
    247,
    248,
    249,
    250,
    251,
    252,
    253,
    254,
    255,
    256
   ],
   "AcquisitionTime": [
    "111903.855000",
    "111905.855000",
    "111907.855000",
    "111909.855000",
    "111911.855000",
    "111913.855000",
    "111915.855000",
    "111917.855000",
    "111919.855000",
    "111921.855000",
    "111923.855000",
    "111925.855000",
    "111927.855000",
    "111929.855000",
    "111931.855000",
    "111933.855000",
    "111935.855000",
    "111937.855000",
    "111939.855000",
    "111941.855000",
    "111943.855000",
    "111945.855000",
    "111947.855000",
    "111949.855000",
    "111951.855000",
    "111953.855000",
    "111955.855000",
    "111957.855000",
    "111959.855000",
    "112001.855000",
    "112003.855000",
    "112005.855000",
    "112007.855000",
    "112009.855000",
    "112011.855000",
    "112013.855000",
    "112015.855000",
    "112017.855000",
    "112019.855000",
    "112021.855000",
    "112023.855000",
    "112025.855000",
    "112027.855000",
    "112029.855000",
    "112031.855000",
    "112033.855000",
    "112035.855000",
    "112037.855000",
    "112039.855000",
    "112041.855000",
    "112043.855000",
    "112045.855000",
    "112047.855000",
    "112049.855000",
    "112051.855000",
    "112053.855000",
    "112055.855000",
    "112057.855000",
    "112059.855000",
    "112101.855000",
    "112103.855000",
    "112105.855000",
    "112107.855000",
    "112109.855000",
    "112111.855000",
    "112113.855000",
    "112115.855000",
    "112117.855000",
    "112119.855000",
    "112121.855000",
    "112123.855000",
    "112125.855000",
    "112127.855000",
    "112129.855000",
    "112131.855000",
    "112133.855000",
    "112135.855000",
    "112137.855000",
    "112139.855000",
    "112141.855000",
    "112143.855000",
    "112145.855000",
    "112147.855000",
    "112149.855000",
    "112151.855000",
    "112153.855000",
    "112155.855000",
    "112157.855000",
    "112159.855000",
    "112201.855000",
    "112203.855000",
    "112205.855000",
    "112207.855000",
    "112209.855000",
    "112211.855000",
    "112213.855000",
    "112215.855000",
    "112217.855000",
    "112219.855000",
    "112221.855000",
    "112223.855000",
    "112225.855000",
    "112227.855000",
    "112229.855000",
    "112231.855000",
    "112233.855000",
    "112235.855000",
    "112237.855000",
    "112239.855000",
    "112241.855000",
    "112243.855000",
    "112245.855000",
    "112247.855000",
    "112249.855000",
    "112251.855000",
    "112253.855000",
    "112255.855000",
    "112257.855000",
    "112259.855000",
    "112301.855000",
    "112303.855000",
    "112305.855000",
    "112307.855000",
    "112309.855000",
    "112311.855000",
    "112313.855000",
    "112315.855000",
    "112317.855000",
    "112319.855000",
    "112321.855000",
    "112323.855000",
    "112325.855000",
    "112327.855000",
    "112329.855000",
    "112331.855000",
    "112333.855000",
    "112335.855000",
    "112337.855000",
    "112339.855000",
    "112341.855000",
    "112343.855000",
    "112345.855000",
    "112347.855000",
    "112349.855000",
    "112351.855000",
    "112353.855000",
    "112355.855000",
    "112357.855000",
    "112359.855000",
    "112401.855000",
    "112403.855000",
    "112405.855000",
    "112407.855000",
    "112409.855000",
    "112411.855000",
    "112413.855000",
    "112415.855000",
    "112417.855000",
    "112419.855000",
    "112421.855000",
    "112423.855000",
    "112425.855000",
    "112427.855000",
    "112429.855000",
    "112431.855000",
    "112433.855000",
    "112435.855000",
    "112437.855000",
    "112439.855000",
    "112441.855000",
    "112443.855000",
    "112445.855000",
    "112447.855000",
    "112449.855000",
    "112451.855000",
    "112453.855000",
    "112455.855000",
    "112457.855000",
    "112459.855000",
    "112501.855000",
    "112503.855000",
    "112505.855000",
    "112507.855000",
    "112509.855000",
    "112511.855000",
    "112513.855000",
    "112515.855000",
    "112517.855000",
    "112519.855000",
    "112521.855000",
    "112523.855000",
    "112525.855000",
    "112527.855000",
    "112529.855000",
    "112531.855000",
    "112533.855000",
    "112535.855000",
    "112537.855000",
    "112539.855000",
    "112541.855000",
    "112543.855000",
    "112545.855000",
    "112547.855000",
    "112549.855000",
    "112551.855000",
    "112553.855000",
    "112555.855000",
    "112557.855000",
    "112559.855000",
    "112601.855000",
    "112603.855000",
    "112605.855000",
    "112607.855000",
    "112609.855000",
    "112611.855000",
    "112613.855000",
    "112615.855000",
    "112617.855000",
    "112619.855000",
    "112621.855000",
    "112623.855000",
    "112625.855000",
    "112627.855000",
    "112629.855000",
    "112631.855000",
    "112633.855000",
    "112635.855000",
    "112637.855000",
    "112639.855000",
    "112641.855000",
    "112643.855000",
    "112645.855000",
    "112647.855000",
    "112649.855000",
    "112651.855000",
    "112653.855000",
    "112655.855000",
    "112657.855000",
    "112659.855000",
    "112701.855000",
    "112703.855000",
    "112705.855000",
    "112707.855000",
    "112709.855000",
    "112711.855000",
    "112713.855000",
    "112715.855000",
    "112717.855000",
    "112719.855000",
    "112721.855000",
    "112723.855000",
    "112725.855000",
    "112727.855000",
    "112729.855000",
    "112731.855000",
    "112733.855000"
   ],
   "ContentTime": [
    "111906.059000",
    "111907.554000",
    "111909.555000",
    "111911.554000",
    "111913.555000",
    "111915.554000",
    "111917.554000",
    "111919.555000",
    "111921.554000",
    "111923.554000",
    "111925.554000",
    "111927.555000",
    "111929.554000",
    "111931.554000",
    "111933.554000",
    "111935.555000",
    "111937.556000",
    "111939.554000",
    "111941.554000",
    "111943.555000",
    "111945.554000",
    "111947.554000",
    "111949.554000",
    "111951.555000",
    "111953.554000",
    "111955.554000",
    "111957.555000",
    "111959.554000",
    "112001.554000",
    "112003.554000",
    "112005.555000",
    "112007.555000",
    "112009.554000",
    "112011.554000",
    "112013.554000",
    "112015.555000",
    "112018.055000",
    "112019.555000",
    "112021.554000",
    "112023.554000",
    "112025.554000",
    "112027.555000",
    "112029.555000",
    "112031.555000",
    "112033.555000",
    "112035.554000",
    "112037.554000",
    "112039.554000",
    "112041.554000",
    "112043.554000",
    "112045.555000",
    "112047.556000",
    "112049.554000",
    "112051.555000",
    "112053.554000",
    "112055.554000",
    "112057.554000",
    "112059.554000",
    "112101.554000",
    "112103.554000",
    "112105.554000",
    "112107.555000",
    "112109.555000",
    "112111.554000",
    "112113.555000",
    "112115.554000",
    "112117.554000",
    "112119.555000",
    "112121.554000",
    "112123.554000",
    "112125.554000",
    "112127.554000",
    "112129.555000",
    "112131.554000",
    "112133.555000",
    "112135.555000",
    "112137.555000",
    "112139.556000",
    "112141.555000",
    "112143.555000",
    "112145.554000",
    "112147.554000",
    "112149.554000",
    "112151.554000",
    "112153.554000",
    "112155.554000",
    "112157.555000",
    "112159.555000",
    "112201.554000",
    "112203.554000",
    "112205.554000",
    "112207.554000",
    "112209.554000",
    "112211.554000",
    "112213.554000",
    "112215.555000",
    "112217.554000",
    "112219.555000",
    "112221.554000",
    "112223.554000",
    "112225.554000",
    "112227.555000",
    "112229.554000",
    "112231.555000",
    "112233.554000",
    "112235.554000",
    "112237.554000",
    "112239.554000",
    "112241.554000",
    "112243.555000",
    "112245.555000",
    "112247.554000",
    "112249.556000",
    "112251.555000",
    "112253.554000",
    "112255.554000",
    "112257.554000",
    "112259.555000",
    "112301.554000",
    "112303.554000",
    "112305.555000",
    "112307.570000",
    "112309.555000",
    "112311.554000",
    "112313.554000",
    "112315.555000",
    "112317.555000",
    "112319.555000",
    "112321.555000",
    "112323.554000",
    "112325.554000",
    "112327.554000",
    "112329.555000",
    "112331.554000",
    "112333.555000",
    "112335.554000",
    "112337.554000",
    "112339.554000",
    "112341.554000",
    "112343.554000",
    "112345.555000",
    "112347.554000",
    "112349.554000",
    "112351.554000",
    "112353.554000",
    "112355.555000",
    "112357.554000",
    "112359.556000",
    "112401.554000",
    "112403.555000",
    "112405.555000",
    "112407.554000",
    "112409.555000",
    "112411.554000",
    "112413.555000",
    "112415.554000",
    "112417.555000",
    "112419.554000",
    "112421.554000",
    "112423.555000",
    "112425.554000",
    "112427.554000",
    "112429.554000",
    "112431.555000",
    "112433.554000",
    "112435.554000",
    "112437.554000",
    "112439.554000",
    "112441.555000",
    "112443.555000",
    "112445.555000",
    "112447.555000",
    "112449.555000",
    "112451.555000",
    "112453.554000",
    "112455.554000",
    "112457.554000",
    "112459.555000",
    "112501.554000",
    "112503.554000",
    "112505.554000",
    "112507.555000",
    "112509.556000",
    "112511.554000",
    "112513.555000",
    "112515.554000",
    "112517.554000",
    "112519.554000",
    "112521.554000",
    "112523.554000",
    "112525.555000",
    "112527.556000",
    "112529.554000",
    "112531.554000",
    "112533.574000",
    "112535.554000",
    "112537.556000",
    "112539.575000",
    "112541.555000",
    "112543.554000",
    "112545.555000",
    "112547.555000",
    "112549.554000",
    "112551.555000",
    "112553.555000",
    "112555.554000",
    "112557.555000",
    "112559.554000",
    "112601.555000",
    "112603.555000",
    "112605.555000",
    "112607.555000",
    "112609.554000",
    "112612.054000",
    "112613.554000",
    "112615.554000",
    "112617.555000",
    "112619.556000",
    "112621.554000",
    "112623.554000",
    "112625.555000",
    "112627.555000",
    "112629.555000",
    "112631.555000",
    "112633.554000",
    "112635.555000",
    "112637.555000",
    "112639.555000",
    "112641.555000",
    "112643.554000",
    "112645.554000",
    "112647.554000",
    "112649.554000",
    "112651.554000",
    "112653.554000",
    "112655.555000",
    "112657.554000",
    "112659.554000",
    "112701.554000",
    "112703.554000",
    "112705.554000",
    "112707.554000",
    "112709.554000",
    "112711.555000",
    "112713.555000",
    "112715.554000",
    "112717.554000",
    "112719.555000",
    "112721.554000",
    "112723.554000",
    "112725.555000",
    "112727.555000",
    "112729.555000",
    "112732.055000",
    "112733.554000",
    "112735.562000"
   ],
   "InstanceCreationTime": [
    "111906.059000",
    "111907.554000",
    "111909.555000",
    "111911.554000",
    "111913.555000",
    "111915.554000",
    "111917.554000",
    "111919.555000",
    "111921.554000",
    "111923.554000",
    "111925.554000",
    "111927.555000",
    "111929.554000",
    "111931.554000",
    "111933.554000",
    "111935.555000",
    "111937.556000",
    "111939.554000",
    "111941.554000",
    "111943.555000",
    "111945.554000",
    "111947.554000",
    "111949.554000",
    "111951.555000",
    "111953.554000",
    "111955.554000",
    "111957.555000",
    "111959.554000",
    "112001.554000",
    "112003.554000",
    "112005.555000",
    "112007.555000",
    "112009.554000",
    "112011.554000",
    "112013.554000",
    "112015.555000",
    "112018.055000",
    "112019.555000",
    "112021.554000",
    "112023.554000",
    "112025.554000",
    "112027.555000",
    "112029.555000",
    "112031.555000",
    "112033.555000",
    "112035.554000",
    "112037.554000",
    "112039.554000",
    "112041.554000",
    "112043.554000",
    "112045.555000",
    "112047.556000",
    "112049.554000",
    "112051.555000",
    "112053.554000",
    "112055.554000",
    "112057.554000",
    "112059.554000",
    "112101.554000",
    "112103.554000",
    "112105.554000",
    "112107.555000",
    "112109.555000",
    "112111.554000",
    "112113.555000",
    "112115.554000",
    "112117.554000",
    "112119.555000",
    "112121.554000",
    "112123.554000",
    "112125.554000",
    "112127.554000",
    "112129.555000",
    "112131.554000",
    "112133.555000",
    "112135.555000",
    "112137.555000",
    "112139.556000",
    "112141.555000",
    "112143.555000",
    "112145.554000",
    "112147.554000",
    "112149.554000",
    "112151.554000",
    "112153.554000",
    "112155.554000",
    "112157.555000",
    "112159.555000",
    "112201.554000",
    "112203.554000",
    "112205.554000",
    "112207.554000",
    "112209.554000",
    "112211.554000",
    "112213.554000",
    "112215.555000",
    "112217.554000",
    "112219.555000",
    "112221.554000",
    "112223.554000",
    "112225.554000",
    "112227.555000",
    "112229.554000",
    "112231.555000",
    "112233.554000",
    "112235.554000",
    "112237.554000",
    "112239.554000",
    "112241.554000",
    "112243.555000",
    "112245.555000",
    "112247.554000",
    "112249.556000",
    "112251.555000",
    "112253.554000",
    "112255.554000",
    "112257.554000",
    "112259.555000",
    "112301.554000",
    "112303.554000",
    "112305.555000",
    "112307.570000",
    "112309.555000",
    "112311.554000",
    "112313.554000",
    "112315.555000",
    "112317.555000",
    "112319.555000",
    "112321.555000",
    "112323.554000",
    "112325.554000",
    "112327.554000",
    "112329.555000",
    "112331.554000",
    "112333.555000",
    "112335.554000",
    "112337.554000",
    "112339.554000",
    "112341.554000",
    "112343.554000",
    "112345.555000",
    "112347.554000",
    "112349.554000",
    "112351.554000",
    "112353.554000",
    "112355.555000",
    "112357.554000",
    "112359.556000",
    "112401.554000",
    "112403.555000",
    "112405.555000",
    "112407.554000",
    "112409.555000",
    "112411.554000",
    "112413.555000",
    "112415.554000",
    "112417.555000",
    "112419.554000",
    "112421.554000",
    "112423.555000",
    "112425.554000",
    "112427.554000",
    "112429.554000",
    "112431.555000",
    "112433.554000",
    "112435.554000",
    "112437.554000",
    "112439.554000",
    "112441.555000",
    "112443.555000",
    "112445.555000",
    "112447.555000",
    "112449.555000",
    "112451.555000",
    "112453.554000",
    "112455.554000",
    "112457.554000",
    "112459.555000",
    "112501.554000",
    "112503.554000",
    "112505.554000",
    "112507.555000",
    "112509.556000",
    "112511.554000",
    "112513.555000",
    "112515.554000",
    "112517.554000",
    "112519.554000",
    "112521.554000",
    "112523.554000",
    "112525.555000",
    "112527.556000",
    "112529.554000",
    "112531.554000",
    "112533.574000",
    "112535.554000",
    "112537.556000",
    "112539.575000",
    "112541.555000",
    "112543.554000",
    "112545.555000",
    "112547.555000",
    "112549.554000",
    "112551.555000",
    "112553.555000",
    "112555.554000",
    "112557.555000",
    "112559.554000",
    "112601.555000",
    "112603.555000",
    "112605.555000",
    "112607.555000",
    "112609.554000",
    "112612.054000",
    "112613.554000",
    "112615.554000",
    "112617.555000",
    "112619.556000",
    "112621.554000",
    "112623.554000",
    "112625.555000",
    "112627.555000",
    "112629.555000",
    "112631.555000",
    "112633.554000",
    "112635.555000",
    "112637.555000",
    "112639.555000",
    "112641.555000",
    "112643.554000",
    "112645.554000",
    "112647.554000",
    "112649.554000",
    "112651.554000",
    "112653.554000",
    "112655.555000",
    "112657.554000",
    "112659.554000",
    "112701.554000",
    "112703.554000",
    "112705.554000",
    "112707.554000",
    "112709.554000",
    "112711.555000",
    "112713.555000",
    "112715.554000",
    "112717.554000",
    "112719.555000",
    "112721.554000",
    "112723.554000",
    "112725.555000",
    "112727.555000",
    "112729.555000",
    "112732.055000",
    "112733.554000",
    "112735.562000"
   ],
   "InstanceNumber": [
    1,
    2,
    3,
    4,
    5,
    6,
    7,
    8,
    9,
    10,
    11,
    12,
    13,
    14,
    15,
    16,
    17,
    18,
    19,
    20,
    21,
    22,
    23,
    24,
    25,
    26,
    27,
    28,
    29,
    30,
    31,
    32,
    33,
    34,
    35,
    36,
    37,
    38,
    39,
    40,
    41,
    42,
    43,
    44,
    45,
    46,
    47,
    48,
    49,
    50,
    51,
    52,
    53,
    54,
    55,
    56,
    57,
    58,
    59,
    60,
    61,
    62,
    63,
    64,
    65,
    66,
    67,
    68,
    69,
    70,
    71,
    72,
    73,
    74,
    75,
    76,
    77,
    78,
    79,
    80,
    81,
    82,
    83,
    84,
    85,
    86,
    87,
    88,
    89,
    90,
    91,
    92,
    93,
    94,
    95,
    96,
    97,
    98,
    99,
    100,
    101,
    102,
    103,
    104,
    105,
    106,
    107,
    108,
    109,
    110,
    111,
    112,
    113,
    114,
    115,
    116,
    117,
    118,
    119,
    120,
    121,
    122,
    123,
    124,
    125,
    126,
    127,
    128,
    129,
    130,
    131,
    132,
    133,
    134,
    135,
    136,
    137,
    138,
    139,
    140,
    141,
    142,
    143,
    144,
    145,
    146,
    147,
    148,
    149,
    150,
    151,
    152,
    153,
    154,
    155,
    156,
    157,
    158,
    159,
    160,
    161,
    162,
    163,
    164,
    165,
    166,
    167,
    168,
    169,
    170,
    171,
    172,
    173,
    174,
    175,
    176,
    177,
    178,
    179,
    180,
    181,
    182,
    183,
    184,
    185,
    186,
    187,
    188,
    189,
    190,
    191,
    192,
    193,
    194,
    195,
    196,
    197,
    198,
    199,
    200,
    201,
    202,
    203,
    204,
    205,
    206,
    207,
    208,
    209,
    210,
    211,
    212,
    213,
    214,
    215,
    216,
    217,
    218,
    219,
    220,
    221,
    222,
    223,
    224,
    225,
    226,
    227,
    228,
    229,
    230,
    231,
    232,
    233,
    234,
    235,
    236,
    237,
    238,
    239,
    240,
    241,
    242,
    243,
    244,
    245,
    246,
    247,
    248,
    249,
    250,
    251,
    252,
    253,
    254,
    255,
    256
   ],
   "LargestImagePixelValue": [
    3083,
    3051,
    3053,
    3057,
    3049,
    3000,
    3032,
    3030,
    3050,
    3024,
    3012,
    3025,
    3025,
    3020,
    3031,
    2995,
    2995,
    3038,
    2989,
    3017,
    3048,
    3019,
    3080,
    3043,
    3062,
    3056,
    3004,
    3044,
    2996,
    3065,
    3018,
    2984,
    3057,
    3017,
    3041,
    3020,
    3035,
    3032,
    3032,
    3000,
    2964,
    3029,
    3026,
    2991,
    3051,
    3010,
    2999,
    3038,
    3013,
    3034,
    3043,
    2999,
    3023,
    3022,
    2953,
    3021,
    3070,
    3039,
    3020,
    3016,
    2989,
    2991,
    3054,
    3004,
    2986,
    3008,
    2971,
    3011,
    2984,
    2988,
    3014,
    2992,
    3035,
    3000,
    2974,
    3052,
    3015,
    2983,
    2986,
    2984,
    3073,
    3017,
    2967,
    3009,
    2997,
    3039,
    2992,
    3011,
    2997,
    3018,
    2981,
    3029,
    3017,
    2973,
    3009,
    3009,
    3021,
    3047,
    2981,
    3061,
    2977,
    2979,
    3003,
    3002,
    3020,
    3021,
    2992,
    3048,
    3013,
    2997,
    3010,
    3001,
    3040,
    3016,
    3003,
    3059,
    3009,
    3027,
    3041,
    2998,
    3061,
    3067,
    3002,
    3056,
    3000,
    3010,
    3009,
    3011,
    3029,
    3031,
    3021,
    3021,
    3028,
    3014,
    3043,
    3065,
    3022,
    2987,
    3012,
    3009,
    3010,
    3051,
    3038,
    3040,
    3012,
    3044,
    2993,
    3013,
    3072,
    3018,
    2999,
    3016,
    3060,
    3046,
    3022,
    3076,
    3006,
    2986,
    3038,
    3024,
    3001,
    3041,
    3022,
    2988,
    3085,
    3029,
    3015,
    3017,
    3013,
    3002,
    2999,
    3044,
    3000,
    3046,
    3038,
    3003,
    3031,
    3029,
    2984,
    3024,
    3023,
    3010,
    3009,
    3035,
    3009,
    3004,
    3058,
    3037,
    3017,
    3042,
    3000,
    3006,
    3052,
    3040,
    3000,
    3039,
    3014,
    3014,
    3005,
    3051,
    3026,
    3047,
    2987,
    2979,
    3029,
    3007,
    2986,
    3015,
    3022,
    3010,
    3018,
    3019,
    2998,
    2995,
    3002,
    3015,
    3006,
    2994,
    3055,
    2999,
    3029,
    3050,
    2983,
    3036,
    2997,
    2993,
    3052,
    3013,
    3035,
    3024,
    3011,
    3011,
    3016,
    3009,
    3017,
    3016,
    3007,
    3044,
    3014,
    2982,
    2991,
    3031,
    2982,
    3033,
    3026,
    2979,
    3002,
    2969,
    3023,
    2991,
    3010,
    3001,
    2969,
    2974,
    3022,
    3020
   ],
   "WindowCenter": [
    770.0,
    769.0,
    769.0,
    770.0,
    771.0,
    771.0,
    771.0,
    771.0,
    771.0,
    771.0,
    771.0,
    771.0,
    771.0,
    770.0,
    770.0,
    770.0,
    769.0,
    769.0,
    769.0,
    769.0,
    768.0,
    768.0,
    768.0,
    768.0,
    769.0,
    769.0,
    769.0,
    769.0,
    768.0,
    768.0,
    767.0,
    767.0,
    768.0,
    768.0,
    768.0,
    768.0,
    769.0,
    770.0,
    770.0,
    769.0,
    768.0,
    769.0,
    769.0,
    769.0,
    770.0,
    769.0,
    769.0,
    769.0,
    768.0,
    768.0,
    767.0,
    767.0,
    768.0,
    769.0,
    768.0,
    768.0,
    768.0,
    768.0,
    768.0,
    768.0,
    768.0,
    768.0,
    769.0,
    769.0,
    769.0,
    769.0,
    770.0,
    770.0,
    769.0,
    769.0,
    770.0,
    769.0,
    769.0,
    769.0,
    769.0,
    769.0,
    769.0,
    768.0,
    768.0,
    768.0,
    769.0,
    769.0,
    769.0,
    769.0,
    769.0,
    768.0,
    768.0,
    768.0,
    769.0,
    768.0,
    768.0,
    768.0,
    769.0,
    770.0,
    770.0,
    769.0,
    769.0,
    770.0,
    770.0,
    771.0,
    769.0,
    769.0,
    769.0,
    768.0,
    769.0,
    768.0,
    768.0,
    768.0,
    768.0,
    768.0,
    768.0,
    769.0,
    769.0,
    768.0,
    767.0,
    768.0,
    768.0,
    768.0,
    767.0,
    768.0,
    769.0,
    770.0,
    770.0,
    770.0,
    770.0,
