{
  "AcquisitionMatrixPE": 100,
  "AcquisitionNumber": 1,
  "AcquisitionTime": "13:25:42.932500",
  "BandwidthPerPixelPhaseEncode": 18.519,
  "BaseResolution": 100,
  "BodyPartExamined": "BRAIN",
  "ConsistencyInfo": "N4_VE11C_LATEST_20160120",
  "ConversionSoftware": "dcm2niix",
  "ConversionSoftwareVersion": "v1.0.20180622 GCC4.9.2",
  "DerivedVendorReportedEchoSpacing": 0.000539986,
  "DeviceSerialNumber": "166078",
  "DwellTime": 2.1e-06,
  "EchoTime": 0.034,
  "EchoTrainLength": 100,
  "EffectiveEchoSpacing": 0.000539986,
  "FlipAngle": 90,
  "ImageOrientationPatientDICOM": [1, 0, 0, 0, 0.936672, -0.350207],
  "ImageType": [
    "ORIGINAL",
    "PRIMARY",
    "M",
    "ND",
    "MOSAIC"
],
  "InPlanePhaseEncodingDirectionDICOM": "COL",
  "InstitutionAddress": "Street_StreetNo_Bei_Jing_District_CN_ZIP",
  "InstitutionName": "BeiJing_Normal_University",
  "InstitutionalDepartmentName": "Department",
  "MRAcquisitionType": "2D",
  "MagneticFieldStrength": 3,
  "Manufacturer": "Siemens",
  "ManufacturersModelName": "Prisma",
  "Modality": "MR",
  "MultibandAccelerationFactor": 3,
  "PartialFourier": 1,
  "PatientPosition": "HFS",
  "PercentPhaseFOV": 100,
  "PhaseEncodingDirection": "j-",
  "PhaseEncodingSteps": 100,
  "PhaseResolution": 1,
  "PixelBandwidth": 2380,
  "ProcedureStepDescription": "BNU_P2018_64CH_Zhen.ZongLei",
  "ProtocolName": "bold_100x100_s3_2x2x2_static_256",
  "PulseSequenceDetails": "%SiemensSeq%_ep2d_bold",
  "ReceiveCoilActiveElements": "HC1-7;NC1",
  "ReceiveCoilName": "HeadNeck_64",
  "ReconMatrixPE": 100,
  "RepetitionTime": 2,
  "SAR": 0.0622948,
  "ScanOptions": "FS",
  "ScanningSequence": "EP",
  "SequenceName": "_epfid2d1_100",
  "SequenceVariant": "SK",
  "SeriesDescription": "bold_100x100_s3_2x2x2_static_256",
  "SeriesNumber": 3,
  "ShimSetting": [-5458, -11444, -1235, 356, -34, -283, -248, 90],
  "SliceThickness": 2,
  "SliceTiming": [1.485, 0, 0.99, 0.0825, 1.0725, 0.165, 1.155, 0.2475, 1.2375, 0.33, 1.32, 0.4125, 1.4025, 0.5775, 1.5675, 0.66, 1.65, 0.7425, 1.7325, 0.825, 1.815, 0.9075, 1.8975, 0.495, 1.485, 0, 0.99, 0.0825, 1.0725, 0.165, 1.155, 0.2475, 1.2375, 0.33, 1.32, 0.4125, 1.4025, 0.5775, 1.5675, 0.66, 1.65, 0.7425, 1.7325, 0.825, 1.815, 0.9075, 1.8975, 0.495, 1.485, 0, 0.99, 0.0825, 1.0725, 0.165, 1.155, 0.2475, 1.2375, 0.33, 1.32, 0.4125, 1.4025, 0.5775, 1.5675, 0.66, 1.65, 0.7425, 1.7325, 0.825, 1.815, 0.9075, 1.8975, 0.495],
  "SoftwareVersions": "syngo_MR_E11",
  "SpacingBetweenSlices": 2,
  "StationName": "AWP166078",
  "TaskName": "naturalvision",
  "TotalReadoutTime": 0.0534586,
  "TxRefAmp": 218.393,
  "dcmmeta_affine": [
    [-2.0, 0.0, 0.0, 101.3559341430664],
    [0.0, 1.8733443021774292, -0.7004148364067078, -69.34561157226562],
    [0.0, 0.7004148364067078, 1.8733444213867188, -102.79984283447266],
    [0.0, 0.0, 0.0, 1.0]
],
  "dcmmeta_reorient_transform": [
    [0.0, -1.0, 0.0, 99.0],
    [1.0, 0.0, 0.0, 0.0],
    [0.0, 0.0, 1.0, 0.0],
    [0.0, 0.0, 0.0, 1.0]
],
  "dcmmeta_shape": [100, 100, 72, 256],
  "dcmmeta_slice_dim": 2,
  "dcmmeta_version": 0.6,
  "global": {
    "const": {
      "AcquisitionMatrix": [100, 0, 0, 100],
      "AngioFlag": "N",
      "BitsAllocated": 16,
      "BitsStored": 12,
      "BodyPartExamined": "BRAIN",
      "Columns": 900,
      "EchoNumbers": 1,
      "EchoTime": 34.0,
      "EchoTrainLength": 100,
      "FlipAngle": 90.0,
      "HighBit": 11,
      "ImageOrientationPatient": [1.0, 0.0, 0.0, 0.0, 0.93667217980175, -0.3502074065257],
      "ImagePositionPatient": [-901.35593223572, -865.45322117521, 246.70715079742],
      "ImageType": [
        "ORIGINAL",
        "PRIMARY",
        "M",
        "ND",
        "MOSAIC"
],
      "ImagedNucleus": "1H",
      "ImagingFrequency": 123.257717,
      "InPlanePhaseEncodingDirection": "COL",
      "LargestImagePixelValue": 4095,
      "MRAcquisitionType": "2D",
      "MagneticFieldStrength": 3.0,
      "Manufacturer": "SIEMENS",
      "ManufacturerModelName": "Prisma",
      "Modality": "MR",
      "NumberOfAverages": 1.0,
      "NumberOfPhaseEncodingSteps": 100,
      "PercentPhaseFieldOfView": 100.0,
      "PercentSampling": 100.0,
      "PerformedProcedureStepStartTime": "132158.553000",
      "PhotometricInterpretation": "MONOCHROME2",
      "PixelBandwidth": 2380.0,
      "PixelRepresentation": 0,
      "PixelSpacing": [2.0, 2.0],
      "ProtocolName": "bold_100x100_s3_2x2x2_static_256",
      "RepetitionTime": 2000.0,
      "Rows": 900,
      "SAR": 0.06229482383338,
      "SamplesPerPixel": 1,
      "ScanOptions": "FS",
      "ScanningSequence": "EP",
      "SequenceName": "*epfid2d1_100",
      "SequenceVariant": "SK",
      "SeriesDescription": "bold_100x100_s3_2x2x2_static_256",
      "SeriesNumber": 3,
      "SeriesTime": "132545.495000",
      "SliceLocation": -72.004403346961,
      "SliceThickness": 2.0,
      "SmallestImagePixelValue": 0,
      "SoftwareVersions": "syngo MR E11",
      "SpacingBetweenSlices": 2.0000000410599,
      "SpecificCharacterSet": "ISO_IR 100",
      "StudyID": "1",
      "StudyTime": "132158.501000",
      "TransmitCoilName": "Body",
      "VariableFlipAngleFlag": "N",
      "WindowCenterWidthExplanation": "Algo1",
      "dBdt": 0.0},
    "slices": {}
  },
  "time": {
    "samples": {
      "AcquisitionNumber": [1, 2, 3, 4, 5, 6, 7, 8, 9, 10, 11, 12, 13, 14, 15, 16, 17, 18, 19, 20, 21, 22, 23, 24, 25, 26, 27, 28, 29, 30, 31, 32, 33, 34, 35, 36, 37, 38, 39, 40, 41, 42, 43, 44, 45, 46, 47, 48, 49, 50, 51, 52, 53, 54, 55, 56, 57, 58, 59, 60, 61, 62, 63, 64, 65, 66, 67, 68, 69, 70, 71, 72, 73, 74, 75, 76, 77, 78, 79, 80, 81, 82, 83, 84, 85, 86, 87, 88, 89, 90, 91, 92, 93, 94, 95, 96, 97, 98, 99, 100, 101, 102, 103, 104, 105, 106, 107, 108, 109, 110, 111, 112, 113, 114, 115, 116, 117, 118, 119, 120, 121, 122, 123, 124, 125, 126, 127, 128, 129, 130, 131, 132, 133, 134, 135, 136, 137, 138, 139, 140, 141, 142, 143, 144, 145, 146, 147, 148, 149, 150, 151, 152, 153, 154, 155, 156, 157, 158, 159, 160, 161, 162, 163, 164, 165, 166, 167, 168, 169, 170, 171, 172, 173, 174, 175, 176, 177, 178, 179, 180, 181, 182, 183, 184, 185, 186, 187, 188, 189, 190, 191, 192, 193, 194, 195, 196, 197, 198, 199, 200, 201, 202, 203, 204, 205, 206, 207, 208, 209, 210, 211, 212, 213, 214, 215, 216, 217, 218, 219, 220, 221, 222, 223, 224, 225, 226, 227, 228, 229, 230, 231, 232, 233, 234, 235, 236, 237, 238, 239, 240, 241, 242, 243, 244, 245, 246, 247, 248, 249, 250, 251, 252, 253, 254, 255, 256],
      "AcquisitionTime": ["132542.932500", "132544.932500", "132546.932500", "132548.932500", "132550.932500", "132552.932500", "132554.932500", "132556.932500", "132558.932500", "132600.932500", "132602.932500", "132604.932500", "132606.932500", "132608.932500", "132610.932500", "132612.932500", "132614.932500", "132616.932500", "132618.932500", "132620.932500", "132622.932500", "132624.932500", "132626.932500", "132628.932500", "132630.932500", "132632.932500", "132634.932500", "132636.932500", "132638.932500", "132640.932500", "132642.932500", "132644.932500", "132646.932500", "132648.932500", "132650.932500", "132652.932500", "132654.932500", "132656.932500", "132658.932500", "132700.932500", "132702.932500", "132704.932500", "132706.932500", "132708.932500", "132710.932500", "132712.932500", "132714.932500", "132716.932500", "132718.932500", "132720.932500", "132722.932500", "132724.932500", "132726.932500", "132728.932500", "132730.932500", "132732.932500", "132734.932500", "132736.932500", "132738.932500", "132740.932500", "132742.932500", "132744.932500", "132746.932500", "132748.932500", "132750.932500", "132752.932500", "132754.932500", "132756.932500", "132758.932500", "132800.932500", "132802.932500", "132804.932500", "132806.932500", "132808.932500", "132810.932500", "132812.932500", "132814.932500", "132816.932500", "132818.932500", "132820.932500", "132822.932500", "132824.932500", "132826.932500", "132828.932500", "132830.932500", "132832.932500", "132834.932500", "132836.932500", "132838.932500", "132840.932500", "132842.932500", "132844.932500", "132846.932500", "132848.932500", "132850.932500", "132852.932500", "132854.932500", "132856.932500", "132858.932500", "132900.932500", "132902.932500", "132904.932500", "132906.932500", "132908.932500", "132910.932500", "132912.932500", "132914.932500", "132916.932500", "132918.932500", "132920.932500", "132922.932500", "132924.932500", "132926.932500", "132928.932500", "132930.932500", "132932.932500", "132934.932500", "132936.932500", "132938.932500", "132940.932500", "132942.932500", "132944.932500", "132946.932500", "132948.932500", "132950.932500", "132952.932500", "132954.932500", "132956.932500", "132958.932500", "133000.932500", "133002.932500", "133004.932500", "133006.932500", "133008.932500", "133010.932500", "133012.932500", "133014.932500", "133016.932500", "133018.932500", "133020.932500", "133022.932500", "133024.932500", "133026.932500", "133028.932500", "133030.932500", "133032.932500", "133034.932500", "133036.932500", "133038.932500", "133040.932500", "133042.932500", "133044.932500", "133046.932500", "133048.932500", "133050.932500", "133052.932500", "133054.932500", "133056.932500", "133058.932500", "133100.932500", "133102.932500", "133104.932500", "133106.932500", "133108.932500", "133110.932500", "133112.932500", "133114.932500", "133116.932500", "133118.932500", "133120.932500", "133122.932500", "133124.932500", "133126.932500", "133128.932500", "133130.932500", "133132.932500", "133134.932500", "133136.932500", "133138.932500", "133140.932500", "133142.932500", "133144.932500", "133146.932500", "133148.932500", "133150.932500", "133152.932500", "133154.932500", "133156.932500", "133158.932500", "133200.932500", "133202.932500", "133204.932500", "133206.932500", "133208.932500", "133210.932500", "133212.932500", "133214.932500", "133216.932500", "133218.932500", "133220.932500", "133222.932500", "133224.932500", "133226.932500", "133228.932500", "133230.932500", "133232.932500", "133234.932500", "133236.932500", "133238.932500", "133240.932500", "133242.932500", "133244.932500", "133246.932500", "133248.932500", "133250.932500", "133252.932500", "133254.932500", "133256.932500", "133258.932500", "133300.932500", "133302.932500", "133304.932500", "133306.932500", "133308.932500", "133310.932500", "133312.932500", "133314.932500", "133316.932500", "133318.932500", "133320.932500", "133322.932500", "133324.932500", "133326.932500", "133328.932500", "133330.932500", "133332.932500", "133334.932500", "133336.932500", "133338.932500", "133340.932500", "133342.932500", "133344.932500", "133346.932500", "133348.932500", "133350.932500", "133352.932500", "133354.932500", "133356.932500", "133358.932500", "133400.932500", "133402.932500", "133404.932500", "133406.932500", "133408.932500", "133410.932500", "133412.932500"],
      "ContentTime": ["132545.499000", "132546.994000", "132548.994000", "132550.994000", "132552.994000", "132554.994000", "132556.993000", "132558.993000", "132600.994000", "132602.995000", "132604.994000", "132606.994000", "132608.993000", "132610.993000", "132612.993000", "132614.993000", "132616.995000", "132618.995000", "132621.494000", "132622.994000", "132624.993000", "132626.994000", "132628.994000", "132630.993000", "132632.994000", "132634.994000", "132636.995000", "132638.994000", "132640.993000", "132642.994000", "132644.993000", "132646.993000", "132648.994000", "132650.993000", "132652.995000", "132654.995000", "132656.994000", "132658.993000", "132700.993000", "132702.994000", "132704.993000", "132706.993000", "132708.993000", "132710.994000", "132712.995000", "132714.994000", "132716.994000", "132718.994000", "132720.994000", "132722.994000", "132724.993000", "132726.995000", "132728.994000", "132730.995000", "132732.994000", "132734.993000", "132736.993000", "132738.993000", "132740.993000", "132742.994000", "132744.994000", "132746.995000", "132748.994000", "132750.993000", "132752.993000", "132754.993000", "132756.994000", "132758.993000", "132800.994000", "132802.994000", "132804.994000", "132806.994000", "132808.994000", "132810.994000", "132812.994000", "132814.994000", "132816.994000", "132818.993000", "132820.994000", "132822.995000", "132824.995000", "132826.993000", "132828.993000", "132830.993000", "132833.494000", "132834.993000", "132836.995000", "132838.994000", "132840.995000", "132842.994000", "132844.994000", "132846.994000", "132849.494000", "132850.993000", "132852.993000", "132854.995000", "132856.995000", "132858.995000", "132900.993000", "132902.993000", "132905.493000", "132906.993000", "132908.993000", "132910.993000", "132912.994000", "132914.995000", "132916.994000", "132918.993000", "132920.994000", "132922.994000", "132924.993000", "132926.994000", "132928.993000", "132930.994000", "132932.995000", "132934.994000", "132936.993000", "132938.994000", "132940.994000", "132942.994000", "132944.994000", "132946.995000", "132948.994000", "132950.995000", "132952.993000", "132954.994000", "132956.994000", "132958.993000", "133000.994000", "133002.993000", "133004.994000", "133006.995000", "133008.995000", "133010.993000", "133012.993000", "133014.994000", "133016.994000", "133018.994000", "133020.994000", "133022.995000", "133025.494000", "133026.994000", "133028.993000", "133030.994000", "133032.993000", "133034.994000", "133036.993000", "133038.993000", "133040.995000", "133042.994000", "133044.995000", "133046.993000", "133048.993000", "133050.993000", "133053.494000", "133054.994000", "133056.995000", "133058.995000", "133100.995000", "133102.993000", "133104.994000", "133106.994000", "133108.994000", "133110.993000", "133112.994000", "133114.994000", "133116.995000", "133118.994000", "133120.993000", "133122.994000", "133125.493000", "133126.994000", "133128.994000", "133130.994000", "133132.994000", "133134.994000", "133136.995000", "133138.993000", "133140.994000", "133142.994000", "133144.994000", "133146.994000", "133148.994000", "133151.494000", "133152.995000", "133154.995000", "133156.993000", "133158.993000", "133200.994000", "133202.993000", "133204.994000", "133206.994000", "133208.994000", "133210.995000", "133212.993000", "133214.994000", "133216.994000", "133218.993000", "133220.993000", "133222.994000", "133224.994000", "133226.995000", "133228.995000", "133230.994000", "133232.993000", "133234.994000", "133236.993000", "133238.994000", "133240.994000", "133242.995000", "133244.995000", "133246.995000", "133248.993000", "133250.993000", "133252.994000", "133255.494000", "133256.994000", "133258.994000", "133301.495000", "133302.995000", "133304.995000", "133306.994000", "133308.993000", "133310.994000", "133312.993000", "133314.994000", "133316.994000", "133318.994000", "133320.994000", "133322.994000", "133324.994000", "133326.994000", "133328.993000", "133330.993000", "133332.993000", "133334.995000", "133336.994000", "133338.994000", "133341.494000", "133342.994000", "133345.494000", "133346.994000", "133348.993000", "133350.994000", "133352.995000", "133355.495000", "133356.995000", "133358.993000", "133400.993000", "133402.993000", "133404.994000", "133406.993000", "133408.994000", "133411.002000", "133412.994000", "133414.870000"],
      "InstanceCreationTime": ["132545.499000", "132546.994000", "132548.994000", "132550.994000", "132552.994000", "132554.994000", "132556.993000", "132558.993000", "132600.994000", "132602.995000", "132604.994000", "132606.994000", "132608.993000", "132610.993000", "132612.993000", "132614.993000", "132616.995000", "132618.995000", "132621.494000", "132622.994000", "132624.993000", "132626.994000", "132628.994000", "132630.993000", "132632.994000", "132634.994000", "132636.995000", "132638.994000", "132640.993000", "132642.994000", "132644.993000", "132646.993000", "132648.994000", "132650.993000", "132652.995000", "132654.995000", "132656.994000", "132658.993000", "132700.993000", "132702.994000", "132704.993000", "132706.993000", "132708.993000", "132710.994000", "132712.995000", "132714.994000", "132716.994000", "132718.994000", "132720.994000", "132722.994000", "132724.993000", "132726.995000", "132728.994000", "132730.995000", "132732.994000", "132734.993000", "132736.993000", "132738.993000", "132740.993000", "132742.994000", "132744.994000", "132746.995000", "132748.994000", "132750.993000", "132752.993000", "132754.993000", "132756.994000", "132758.993000", "132800.994000", "132802.994000", "132804.994000", "132806.994000", "132808.994000", "132810.994000", "132812.994000", "132814.994000", "132816.994000", "132818.993000", "132820.994000", "132822.995000", "132824.995000", "132826.993000", "132828.993000", "132830.993000", "132833.494000", "132834.993000", "132836.995000", "132838.994000", "132840.995000", "132842.994000", "132844.994000", "132846.994000", "132849.494000", "132850.993000", "132852.993000", "132854.995000", "132856.995000", "132858.995000", "132900.993000", "132902.993000", "132905.493000", "132906.993000", "132908.993000", "132910.993000", "132912.994000", "132914.995000", "132916.994000", "132918.993000", "132920.994000", "132922.994000", "132924.993000", "132926.994000", "132928.993000", "132930.994000", "132932.995000", "132934.994000", "132936.993000", "132938.994000", "132940.994000", "132942.994000", "132944.994000", "132946.995000", "132948.994000", "132950.995000", "132952.993000", "132954.994000", "132956.994000", "132958.993000", "133000.994000", "133002.993000", "133004.994000", "133006.995000", "133008.995000", "133010.993000", "133012.993000", "133014.994000", "133016.994000", "133018.994000", "133020.994000", "133022.995000", "133025.494000", "133026.994000", "133028.993000", "133030.994000", "133032.993000", "133034.994000", "133036.993000", "133038.993000", "133040.995000", "133042.994000", "133044.995000", "133046.993000", "133048.993000", "133050.993000", "133053.494000", "133054.994000", "133056.995000", "133058.995000", "133100.995000", "133102.993000", "133104.994000", "133106.994000", "133108.994000", "133110.993000", "133112.994000", "133114.994000", "133116.995000", "133118.994000", "133120.993000", "133122.994000", "133125.493000", "133126.994000", "133128.994000", "133130.994000", "133132.994000", "133134.994000", "133136.995000", "133138.993000", "133140.994000", "133142.994000", "133144.994000", "133146.994000", "133148.994000", "133151.494000", "133152.995000", "133154.995000", "133156.993000", "133158.993000", "133200.994000", "133202.993000", "133204.994000", "133206.994000", "133208.994000", "133210.995000", "133212.993000", "133214.994000", "133216.994000", "133218.993000", "133220.993000", "133222.994000", "133224.994000", "133226.995000", "133228.995000", "133230.994000", "133232.993000", "133234.994000", "133236.993000", "133238.994000", "133240.994000", "133242.995000", "133244.995000", "133246.995000", "133248.993000", "133250.993000", "133252.994000", "133255.494000", "133256.994000", "133258.994000", "133301.495000", "133302.995000", "133304.995000", "133306.994000", "133308.993000", "133310.994000", "133312.993000", "133314.994000", "133316.994000", "133318.994000", "133320.994000", "133322.994000", "133324.994000", "133326.994000", "133328.993000", "133330.993000", "133332.993000", "133334.995000", "133336.994000", "133338.994000", "133341.494000", "133342.994000", "133345.494000", "133346.994000", "133348.993000", "133350.994000", "133352.995000", "133355.495000", "133356.995000", "133358.993000", "133400.993000", "133402.993000", "133404.994000", "133406.993000", "133408.994000", "133411.002000", "133412.994000", "133414.870000"],
      "InstanceNumber": [1, 2, 3, 4, 5, 6, 7, 8, 9, 10, 11, 12, 13, 14, 15, 16, 17, 18, 19, 20, 21, 22, 23, 24, 25, 26, 27, 28, 29, 30, 31, 32, 33, 34, 35, 36, 37, 38, 39, 40, 41, 42, 43, 44, 45, 46, 47, 48, 49, 50, 51, 52, 53, 54, 55, 56, 57, 58, 59, 60, 61, 62, 63, 64, 65, 66, 67, 68, 69, 70, 71, 72, 73, 74, 75, 76, 77, 78, 79, 80, 81, 82, 83, 84, 85, 86, 87, 88, 89, 90, 91, 92, 93, 94, 95, 96, 97, 98, 99, 100, 101, 102, 103, 104, 105, 106, 107, 108, 109, 110, 111, 112, 113, 114, 115, 116, 117, 118, 119, 120, 121, 122, 123, 124, 125, 126, 127, 128, 129, 130, 131, 132, 133, 134, 135, 136, 137, 138, 139, 140, 141, 142, 143, 144, 145, 146, 147, 148, 149, 150, 151, 152, 153, 154, 155, 156, 157, 158, 159, 160, 161, 162, 163, 164, 165, 166, 167, 168, 169, 170, 171, 172, 173, 174, 175, 176, 177, 178, 179, 180, 181, 182, 183, 184, 185, 186, 187, 188, 189, 190, 191, 192, 193, 194, 195, 196, 197, 198, 199, 200, 201, 202, 203, 204, 205, 206, 207, 208, 209, 210, 211, 212, 213, 214, 215, 216, 217, 218, 219, 220, 221, 222, 223, 224, 225, 226, 227, 228, 229, 230, 231, 232, 233, 234, 235, 236, 237, 238, 239, 240, 241, 242, 243, 244, 245, 246, 247, 248, 249, 250, 251, 252, 253, 254, 255, 256],
      "WindowCenter": [864.0, 862.0, 864.0, 866.0, 866.0, 866.0, 864.0, 863.0, 864.0, 864.0, 865.0, 865.0, 865.0, 864.0, 865.0, 866.0, 865.0, 864.0, 864.0, 864.0, 864.0, 864.0, 863.0, 864.0, 864.0, 864.0, 864.0, 863.0, 864.0, 865.0, 864.0, 864.0, 863.0, 863.0, 863.0, 864.0, 864.0, 862.0, 863.0, 864.0, 864.0, 862.0, 862.0, 863.0, 864.0, 864.0, 863.0, 862.0, 862.0, 863.0, 864.0, 863.0, 862.0, 861.0, 861.0, 861.0, 860.0, 860.0, 863.0, 864.0, 864.0, 862.0, 862.0, 861.0, 861.0, 863.0, 863.0, 863.0, 861.0, 860.0, 860.0, 860.0, 861.0, 862.0, 862.0, 860.0, 859.0, 859.0, 861.0, 861.0, 860.0, 859.0, 860.0, 861.0, 862.0, 860.0, 861.0, 861.0, 861.0, 860.0, 861.0, 864.0, 865.0, 863.0, 862.0, 861.0, 860.0, 860.0, 859.0, 860.0, 861.0, 861.0, 860.0, 859.0, 858.0, 858.0, 859.0, 860.0, 860.0, 859.0, 860.0, 863.0, 863.0, 861.0, 859.0, 859.0, 858.0, 858.0, 860.0, 861.0, 860.0, 859.0, 859.0, 858.0, 858.0, 860.0, 861.0, 860.0, 859.0, 858.0, 857.0, 857.0, 860.0, 862.0, 862.0, 860.0, 859.0, 859.0, 860.0, 861.0, 861.0, 860.0, 860.0, 860.0, 860.0, 859.0, 859.0, 862.0, 863.0, 862.0, 861.0, 860.0, 860.0, 861.0, 861.0, 860.0, 859.0, 862.0, 863.0, 862.0, 861.0, 860.0, 859.0, 859.0, 858.0, 858.0, 859.0, 861.0, 861.0, 860.0, 859.0, 861.0, 862.0, 860.0, 860.0, 860.0, 860.0, 858.0, 858.0, 858.0, 858.0, 859.0, 861.0, 862.0, 861.0, 859.0, 860.0, 862.0, 861.0, 859.0, 857.0, 856.0, 856.0, 859.0, 861.0, 862.0, 860.0, 860.0, 860.0, 860.0, 860.0, 861.0, 863.0, 862.0, 860.0, 859.0, 860.0, 860.0, 860.0, 861.0, 861.0, 860.0, 859.0, 859.0, 862.0, 864.0, 862.0, 860.0, 860.0, 860.0, 860.0, 859.0, 859.0, 860.0, 863.0, 863.0, 861.0, 860.0, 860.0, 861.0, 860.0, 860.0, 860.0, 860.0, 861.0, 861.0, 861.0, 861.0, 862.0, 862.0, 861.0, 860.0, 859.0, 859.0, 860.0, 862.0, 862.0, 859.0, 857.0, 856.0, 857.0, 860.0, 861.0, 861.0, 861.0, 860.0],
      "WindowWidth": [1907.0, 1902.0, 1907.0, 1913.0, 1913.0, 1911.0, 1906.0, 1904.0, 1906.0, 1906.0, 1908.0, 1908.0, 1908.0, 1906.0, 1909.0, 1911.0, 1909.0, 1906.0, 1905.0, 1906.0, 1906.0, 1905.0, 1904.0, 1906.0, 1906.0, 1906.0, 1904.0, 1902.0, 1904.0, 1907.0, 1906.0, 1904.0, 1902.0, 1902.0, 1903.0, 1905.0, 1905.0, 1900.0, 1902.0, 1904.0, 1904.0, 1900.0, 1898.0, 1901.0, 1903.0, 1904.0, 1901.0, 1899.0, 1898.0, 1902.0, 1904.0, 1900.0, 1897.0, 1894.0, 1895.0, 1896.0, 1894.0, 1894.0, 1901.0, 1906.0, 1905.0, 1900.0, 1898.0, 1895.0, 1897.0, 1901.0, 1901.0, 1900.0, 1895.0, 1892.0, 1894.0, 1893.0, 1895.0, 1899.0, 1897.0, 1892.0, 1890.0, 1891.0, 1894.0, 1895.0, 1893.0, 1890.0, 1891.0, 1896.0, 1897.0, 1893.0, 1894.0, 1896.0, 1896.0, 1892.0, 1896.0, 1904.0, 1905.0, 1901.0, 1897.0, 1894.0, 1892.0, 1891.0, 1890.0, 1891.0, 1894.0, 1894.0, 1892.0, 1889.0, 1884.0, 1885.0, 1889.0, 1892.0, 1891.0, 1888.0, 1892.0, 1901.0, 1901.0, 1894.0, 1890.0, 1888.0, 1885.0, 1885.0, 1890.0, 1894.0, 1891.0, 1888.0, 1887.0, 1885.0, 1887.0, 1892.0, 1894.0, 1891.0, 1889.0, 1886.0, 1882.0, 1883.0, 1890.0, 1895.0, 1895.0, 1890.0, 1888.0, 1888.0, 1889.0, 1893.0, 1892.0, 1891.0, 1890.0, 1890.0, 1890.0, 1889.0, 1888.0, 1895.0, 1900.0, 1895.0, 1892.0, 1889.0, 1890.0, 1892.0, 1892.0, 1889.0, 1889.0, 1895.0, 1900.0, 1897.0, 1893.0, 1890.0, 1888.0, 1887.0, 1885.0, 1884.0, 1888.0, 1892.0, 1892.0, 1888.0, 1886.0, 1893.0, 1896.0, 1891.0, 1889.0, 1891.0, 1889.0, 1884.0, 1886.0, 1886.0, 1886.0, 1889.0, 1893.0, 1896.0, 1893.0, 1888.0, 1891.0, 1897.0, 1894.0, 1887.0, 1883.0, 1880.0, 1880.0, 1886.0, 1894.0, 1896.0, 1892.0, 1890.0, 1890.0, 1891.0, 1890.0, 1895.0, 1900.0, 1896.0, 1889.0, 1888.0, 1890.0, 1891.0, 1891.0, 1894.0, 1892.0, 1890.0, 1888.0, 1889.0, 1897.0, 1901.0, 1895.0, 1890.0, 1889.0, 1891.0, 1891.0, 1888.0, 1888.0, 1892.0, 1898.0, 1899.0, 1894.0, 1892.0, 1891.0, 1892.0, 1890.0, 1890.0, 1890.0, 1890.0, 1892.0, 1894.0, 1892.0, 1892.0, 1896.0, 1897.0, 1893.0, 1890.0, 1888.0, 1888.0, 1890.0, 1897.0, 1895.0, 1886.0, 1880.0, 1879.0, 1883.0, 1889.0, 1892.0, 1892.0, 1893.0, 1891.0]
    },
    "slices": {}
  }
}