{
  "AcquisitionMatrixPE": 100,
  "AcquisitionNumber": 1,
  "AcquisitionTime": "14:26:0.585000",
  "BandwidthPerPixelPhaseEncode": 18.519,
  "BaseResolution": 100,
  "BodyPartExamined": "BRAIN",
  "ConsistencyInfo": "N4_VE11C_LATEST_20160120",
  "ConversionSoftware": "dcm2niix",
  "ConversionSoftwareVersion": "v1.0.20180622 GCC4.9.2",
  "DerivedVendorReportedEchoSpacing": 0.000539986,
  "DeviceSerialNumber": "166078",
  "DwellTime": 2.1e-06,
  "EchoTime": 0.034,
  "EchoTrainLength": 100,
  "EffectiveEchoSpacing": 0.000539986,
  "FlipAngle": 90,
  "ImageOrientationPatientDICOM": [1, 0, 0, 0, 0.936672, -0.350207],
  "ImageType": [
    "ORIGINAL",
    "PRIMARY",
    "M",
    "ND",
    "MOSAIC"
],
  "InPlanePhaseEncodingDirectionDICOM": "COL",
  "InstitutionAddress": "Street_StreetNo_Bei_Jing_District_CN_ZIP",
  "InstitutionName": "BeiJing_Normal_University",
  "InstitutionalDepartmentName": "Department",
  "MRAcquisitionType": "2D",
  "MagneticFieldStrength": 3,
  "Manufacturer": "Siemens",
  "ManufacturersModelName": "Prisma",
  "Modality": "MR",
  "MultibandAccelerationFactor": 3,
  "PartialFourier": 1,
  "PatientPosition": "HFS",
  "PercentPhaseFOV": 100,
  "PhaseEncodingDirection": "j-",
  "PhaseEncodingSteps": 100,
  "PhaseResolution": 1,
  "PixelBandwidth": 2380,
  "ProcedureStepDescription": "BNU_P2018_64CH_Zhen.ZongLei",
  "ProtocolName": "bold_100x100_s3_2x2x2_static_256",
  "PulseSequenceDetails": "%SiemensSeq%_ep2d_bold",
  "ReceiveCoilActiveElements": "HC1-7;NC1",
  "ReceiveCoilName": "HeadNeck_64",
  "ReconMatrixPE": 100,
  "RepetitionTime": 2,
  "SAR": 0.0622948,
  "ScanOptions": "FS",
  "ScanningSequence": "EP",
  "SequenceName": "_epfid2d1_100",
  "SequenceVariant": "SK",
  "SeriesDescription": "bold_100x100_s3_2x2x2_static_256",
  "SeriesNumber": 11,
  "ShimSetting": [-5458, -11444, -1235, 356, -34, -283, -248, 90],
  "SliceThickness": 2,
  "SliceTiming": [1.485, 0, 0.99, 0.0825, 1.0725, 0.165, 1.155, 0.2475, 1.2375, 0.33, 1.32, 0.4125, 1.4025, 0.5775, 1.5675, 0.66, 1.65, 0.7425, 1.7325, 0.825, 1.815, 0.9075, 1.8975, 0.495, 1.485, 0, 0.99, 0.0825, 1.0725, 0.165, 1.155, 0.2475, 1.2375, 0.33, 1.32, 0.4125, 1.4025, 0.5775, 1.5675, 0.66, 1.65, 0.7425, 1.7325, 0.825, 1.815, 0.9075, 1.8975, 0.495, 1.485, 0, 0.99, 0.0825, 1.0725, 0.165, 1.155, 0.2475, 1.2375, 0.33, 1.32, 0.4125, 1.4025, 0.5775, 1.5675, 0.66, 1.65, 0.7425, 1.7325, 0.825, 1.815, 0.9075, 1.8975, 0.495],
  "SoftwareVersions": "syngo_MR_E11",
  "SpacingBetweenSlices": 2,
  "StationName": "AWP166078",
  "TaskName": "naturalvision",
  "TotalReadoutTime": 0.0534586,
  "TxRefAmp": 218.393,
  "dcmmeta_affine": [
    [-2.0, 0.0, 0.0, 101.3559341430664],
    [0.0, 1.8733443021774292, -0.7004148364067078, -69.34561157226562],
    [0.0, 0.7004148364067078, 1.8733444213867188, -102.79984283447266],
    [0.0, 0.0, 0.0, 1.0]
],
  "dcmmeta_reorient_transform": [
    [0.0, -1.0, 0.0, 99.0],
    [1.0, 0.0, 0.0, 0.0],
    [0.0, 0.0, 1.0, 0.0],
    [0.0, 0.0, 0.0, 1.0]
],
  "dcmmeta_shape": [100, 100, 72, 256],
  "dcmmeta_slice_dim": 2,
  "dcmmeta_version": 0.6,
  "global": {
    "const": {
      "AcquisitionMatrix": [100, 0, 0, 100],
      "AngioFlag": "N",
      "BitsAllocated": 16,
      "BitsStored": 12,
      "BodyPartExamined": "BRAIN",
      "Columns": 900,
      "EchoNumbers": 1,
      "EchoTime": 34.0,
      "EchoTrainLength": 100,
      "FlipAngle": 90.0,
      "HighBit": 11,
      "ImageOrientationPatient": [1.0, 0.0, 0.0, 0.0, 0.93667217980175, -0.3502074065257],
      "ImagePositionPatient": [-901.35593223572, -865.45322117521, 246.70715079742],
      "ImageType": [
        "ORIGINAL",
        "PRIMARY",
        "M",
        "ND",
        "MOSAIC"
],
      "ImagedNucleus": "1H",
      "ImagingFrequency": 123.257754,
      "InPlanePhaseEncodingDirection": "COL",
      "LargestImagePixelValue": 4095,
      "MRAcquisitionType": "2D",
      "MagneticFieldStrength": 3.0,
      "Manufacturer": "SIEMENS",
      "ManufacturerModelName": "Prisma",
      "Modality": "MR",
      "NumberOfAverages": 1.0,
      "NumberOfPhaseEncodingSteps": 100,
      "PercentPhaseFieldOfView": 100.0,
      "PercentSampling": 100.0,
      "PerformedProcedureStepStartTime": "132158.553000",
      "PhotometricInterpretation": "MONOCHROME2",
      "PixelBandwidth": 2380.0,
      "PixelRepresentation": 0,
      "PixelSpacing": [2.0, 2.0],
      "ProtocolName": "bold_100x100_s3_2x2x2_static_256",
      "RepetitionTime": 2000.0,
      "Rows": 900,
      "SAR": 0.06229482383338,
      "SamplesPerPixel": 1,
      "ScanOptions": "FS",
      "ScanningSequence": "EP",
      "SequenceName": "*epfid2d1_100",
      "SequenceVariant": "SK",
      "SeriesDescription": "bold_100x100_s3_2x2x2_static_256",
      "SeriesNumber": 11,
      "SeriesTime": "142603.671000",
      "SliceLocation": -72.004403346961,
      "SliceThickness": 2.0,
      "SmallestImagePixelValue": 0,
      "SoftwareVersions": "syngo MR E11",
      "SpacingBetweenSlices": 2.0000000410599,
      "SpecificCharacterSet": "ISO_IR 100",
      "StudyID": "1",
      "StudyTime": "132158.501000",
      "TransmitCoilName": "Body",
      "VariableFlipAngleFlag": "N",
      "WindowCenterWidthExplanation": "Algo1",
      "dBdt": 0.0},
    "slices": {}
  },
  "time": {
    "samples": {
      "AcquisitionNumber": [1, 2, 3, 4, 5, 6, 7, 8, 9, 10, 11, 12, 13, 14, 15, 16, 17, 18, 19, 20, 21, 22, 23, 24, 25, 26, 27, 28, 29, 30, 31, 32, 33, 34, 35, 36, 37, 38, 39, 40, 41, 42, 43, 44, 45, 46, 47, 48, 49, 50, 51, 52, 53, 54, 55, 56, 57, 58, 59, 60, 61, 62, 63, 64, 65, 66, 67, 68, 69, 70, 71, 72, 73, 74, 75, 76, 77, 78, 79, 80, 81, 82, 83, 84, 85, 86, 87, 88, 89, 90, 91, 92, 93, 94, 95, 96, 97, 98, 99, 100, 101, 102, 103, 104, 105, 106, 107, 108, 109, 110, 111, 112, 113, 114, 115, 116, 117, 118, 119, 120, 121, 122, 123, 124, 125, 126, 127, 128, 129, 130, 131, 132, 133, 134, 135, 136, 137, 138, 139, 140, 141, 142, 143, 144, 145, 146, 147, 148, 149, 150, 151, 152, 153, 154, 155, 156, 157, 158, 159, 160, 161, 162, 163, 164, 165, 166, 167, 168, 169, 170, 171, 172, 173, 174, 175, 176, 177, 178, 179, 180, 181, 182, 183, 184, 185, 186, 187, 188, 189, 190, 191, 192, 193, 194, 195, 196, 197, 198, 199, 200, 201, 202, 203, 204, 205, 206, 207, 208, 209, 210, 211, 212, 213, 214, 215, 216, 217, 218, 219, 220, 221, 222, 223, 224, 225, 226, 227, 228, 229, 230, 231, 232, 233, 234, 235, 236, 237, 238, 239, 240, 241, 242, 243, 244, 245, 246, 247, 248, 249, 250, 251, 252, 253, 254, 255, 256],
      "AcquisitionTime": ["142600.585000", "142602.585000", "142604.585000", "142606.585000", "142608.585000", "142610.585000", "142612.585000", "142614.585000", "142616.585000", "142618.585000", "142620.585000", "142622.585000", "142624.585000", "142626.585000", "142628.585000", "142630.585000", "142632.585000", "142634.585000", "142636.585000", "142638.585000", "142640.585000", "142642.585000", "142644.585000", "142646.585000", "142648.585000", "142650.585000", "142652.585000", "142654.585000", "142656.585000", "142658.585000", "142700.585000", "142702.585000", "142704.585000", "142706.585000", "142708.585000", "142710.585000", "142712.585000", "142714.585000", "142716.585000", "142718.585000", "142720.585000", "142722.585000", "142724.585000", "142726.585000", "142728.585000", "142730.585000", "142732.585000", "142734.585000", "142736.585000", "142738.585000", "142740.585000", "142742.585000", "142744.585000", "142746.585000", "142748.585000", "142750.585000", "142752.585000", "142754.585000", "142756.585000", "142758.585000", "142800.585000", "142802.585000", "142804.585000", "142806.585000", "142808.585000", "142810.585000", "142812.585000", "142814.585000", "142816.585000", "142818.585000", "142820.585000", "142822.585000", "142824.585000", "142826.585000", "142828.585000", "142830.585000", "142832.585000", "142834.585000", "142836.585000", "142838.585000", "142840.585000", "142842.585000", "142844.585000", "142846.585000", "142848.585000", "142850.585000", "142852.585000", "142854.585000", "142856.585000", "142858.585000", "142900.585000", "142902.585000", "142904.585000", "142906.585000", "142908.585000", "142910.585000", "142912.585000", "142914.585000", "142916.585000", "142918.585000", "142920.585000", "142922.585000", "142924.585000", "142926.585000", "142928.585000", "142930.585000", "142932.585000", "142934.585000", "142936.585000", "142938.585000", "142940.585000", "142942.585000", "142944.585000", "142946.585000", "142948.585000", "142950.585000", "142952.585000", "142954.585000", "142956.585000", "142958.585000", "143000.585000", "143002.585000", "143004.585000", "143006.585000", "143008.585000", "143010.585000", "143012.585000", "143014.585000", "143016.585000", "143018.585000", "143020.585000", "143022.585000", "143024.585000", "143026.585000", "143028.585000", "143030.585000", "143032.585000", "143034.585000", "143036.585000", "143038.585000", "143040.585000", "143042.585000", "143044.585000", "143046.585000", "143048.585000", "143050.585000", "143052.585000", "143054.585000", "143056.585000", "143058.585000", "143100.585000", "143102.585000", "143104.585000", "143106.585000", "143108.585000", "143110.585000", "143112.585000", "143114.585000", "143116.585000", "143118.585000", "143120.585000", "143122.585000", "143124.585000", "143126.585000", "143128.585000", "143130.585000", "143132.585000", "143134.585000", "143136.585000", "143138.585000", "143140.585000", "143142.585000", "143144.585000", "143146.585000", "143148.585000", "143150.585000", "143152.585000", "143154.585000", "143156.585000", "143158.585000", "143200.585000", "143202.585000", "143204.585000", "143206.585000", "143208.585000", "143210.585000", "143212.585000", "143214.585000", "143216.585000", "143218.585000", "143220.585000", "143222.585000", "143224.585000", "143226.585000", "143228.585000", "143230.585000", "143232.585000", "143234.585000", "143236.585000", "143238.585000", "143240.585000", "143242.585000", "143244.585000", "143246.585000", "143248.585000", "143250.585000", "143252.585000", "143254.585000", "143256.585000", "143258.585000", "143300.585000", "143302.585000", "143304.585000", "143306.585000", "143308.585000", "143310.585000", "143312.585000", "143314.585000", "143316.585000", "143318.585000", "143320.585000", "143322.585000", "143324.585000", "143326.585000", "143328.585000", "143330.585000", "143332.585000", "143334.585000", "143336.585000", "143338.585000", "143340.585000", "143342.585000", "143344.585000", "143346.585000", "143348.585000", "143350.585000", "143352.585000", "143354.585000", "143356.585000", "143358.585000", "143400.585000", "143402.585000", "143404.585000", "143406.585000", "143408.585000", "143410.585000", "143412.585000", "143414.585000", "143416.585000", "143418.585000", "143420.585000", "143422.585000", "143424.585000", "143426.585000", "143428.585000", "143430.585000"],
      "ContentTime": ["142603.675000", "142605.171000", "142607.171000", "142609.170000", "142611.169000", "142613.170000", "142615.170000", "142617.169000", "142619.171000", "142621.170000", "142623.170000", "142625.171000", "142627.170000", "142629.169000", "142631.169000", "142633.170000", "142635.170000", "142637.170000", "142639.170000", "142641.170000", "142643.170000", "142645.170000", "142647.169000", "142649.169000", "142651.170000", "142653.170000", "142655.170000", "142657.171000", "142659.170000", "142701.170000", "142703.169000", "142705.170000", "142707.169000", "142709.169000", "142711.170000", "142713.170000", "142715.171000", "142717.170000", "142719.169000", "142721.169000", "142723.170000", "142725.170000", "142727.170000", "142729.171000", "142731.171000", "142733.170000", "142735.171000", "142737.170000", "142739.169000", "142741.170000", "142743.170000", "142745.169000", "142747.170000", "142749.171000", "142751.170000", "142753.170000", "142755.169000", "142757.169000", "142759.169000", "142801.170000", "142803.169000", "142805.170000", "142807.171000", "142809.171000", "142811.170000", "142813.169000", "142815.170000", "142817.170000", "142819.169000", "142821.170000", "142823.170000", "142825.171000", "142827.170000", "142829.169000", "142831.170000", "142833.170000", "142835.169000", "142837.170000", "142839.171000", "142841.171000", "142843.171000", "142845.171000", "142847.169000", "142849.170000", "142851.170000", "142853.169000", "142855.170000", "142857.170000", "142859.174000", "142901.170000", "142903.170000", "142905.170000", "142907.169000", "142909.170000", "142911.170000", "142913.170000", "142915.171000", "142917.170000", "142919.170000", "142921.169000", "142923.170000", "142925.169000", "142927.170000", "142929.169000", "142931.170000", "142933.171000", "142935.170000", "142937.171000", "142939.170000", "142941.170000", "142943.169000", "142945.170000", "142947.169000", "142949.171000", "142951.170000", "142953.171000", "142955.170000", "142957.170000", "142959.170000", "143001.169000", "143003.169000", "143005.169000", "143007.171000", "143009.171000", "143011.171000", "143013.170000", "143015.169000", "143017.169000", "143019.169000", "143021.170000", "143023.171000", "143025.171000", "143027.171000", "143029.171000", "143031.170000", "143033.170000", "143035.170000", "143037.170000", "143039.170000", "143041.171000", "143043.171000", "143045.171000", "143047.171000", "143049.170000", "143051.169000", "143053.170000", "143055.170000", "143057.170000", "143059.171000", "143101.171000", "143103.170000", "143105.171000", "143107.170000", "143109.170000", "143111.169000", "143113.169000", "143115.169000", "143117.171000", "143119.170000", "143121.171000", "143123.170000", "143125.170000", "143127.170000", "143129.170000", "143131.170000", "143133.171000", "143135.171000", "143137.170000", "143139.171000", "143141.170000", "143143.170000", "143145.170000", "143147.169000", "143149.170000", "143151.170000", "143153.171000", "143155.171000", "143157.171000", "143159.170000", "143201.170000", "143203.169000", "143205.170000", "143207.170000", "143209.171000", "143211.171000", "143213.171000", "143215.171000", "143217.169000", "143219.170000", "143221.170000", "143223.170000", "143225.169000", "143227.171000", "143229.171000", "143231.171000", "143233.169000", "143235.170000", "143237.170000", "143239.169000", "143241.170000", "143243.171000", "143245.171000", "143247.170000", "143249.170000", "143251.170000", "143253.169000", "143255.170000", "143257.169000", "143259.170000", "143301.171000", "143303.170000", "143305.171000", "143307.171000", "143309.170000", "143311.169000", "143313.170000", "143315.169000", "143317.170000", "143319.171000", "143321.171000", "143323.171000", "143325.171000", "143327.170000", "143329.170000", "143331.170000", "143333.170000", "143335.169000", "143337.171000", "143339.171000", "143341.171000", "143343.170000", "143345.170000", "143347.169000", "143349.170000", "143351.169000", "143353.170000", "143355.170000", "143357.170000", "143359.170000", "143401.170000", "143403.170000", "143405.170000", "143407.170000", "143409.170000", "143411.170000", "143413.171000", "143415.171000", "143417.171000", "143419.170000", "143421.170000", "143423.170000", "143425.170000", "143427.170000", "143429.171000", "143431.171000", "143432.731000"],
      "InstanceCreationTime": ["142603.675000", "142605.171000", "142607.171000", "142609.170000", "142611.169000", "142613.170000", "142615.170000", "142617.169000", "142619.171000", "142621.170000", "142623.170000", "142625.171000", "142627.170000", "142629.169000", "142631.169000", "142633.170000", "142635.170000", "142637.170000", "142639.170000", "142641.170000", "142643.170000", "142645.170000", "142647.169000", "142649.169000", "142651.170000", "142653.170000", "142655.170000", "142657.171000", "142659.170000", "142701.170000", "142703.169000", "142705.170000", "142707.169000", "142709.169000", "142711.170000", "142713.170000", "142715.171000", "142717.170000", "142719.169000", "142721.169000", "142723.170000", "142725.170000", "142727.170000", "142729.171000", "142731.171000", "142733.170000", "142735.171000", "142737.170000", "142739.169000", "142741.170000", "142743.170000", "142745.169000", "142747.170000", "142749.171000", "142751.170000", "142753.170000", "142755.169000", "142757.169000", "142759.169000", "142801.170000", "142803.169000", "142805.170000", "142807.171000", "142809.171000", "142811.170000", "142813.169000", "142815.170000", "142817.170000", "142819.169000", "142821.170000", "142823.170000", "142825.171000", "142827.170000", "142829.169000", "142831.170000", "142833.170000", "142835.169000", "142837.170000", "142839.171000", "142841.171000", "142843.171000", "142845.171000", "142847.169000", "142849.170000", "142851.170000", "142853.169000", "142855.170000", "142857.170000", "142859.174000", "142901.170000", "142903.170000", "142905.170000", "142907.169000", "142909.170000", "142911.170000", "142913.170000", "142915.171000", "142917.170000", "142919.170000", "142921.169000", "142923.170000", "142925.169000", "142927.170000", "142929.169000", "142931.170000", "142933.171000", "142935.170000", "142937.171000", "142939.170000", "142941.170000", "142943.169000", "142945.170000", "142947.169000", "142949.171000", "142951.170000", "142953.171000", "142955.170000", "142957.170000", "142959.170000", "143001.169000", "143003.169000", "143005.169000", "143007.171000", "143009.171000", "143011.171000", "143013.170000", "143015.169000", "143017.169000", "143019.169000", "143021.170000", "143023.171000", "143025.171000", "143027.171000", "143029.171000", "143031.170000", "143033.170000", "143035.170000", "143037.170000", "143039.170000", "143041.171000", "143043.171000", "143045.171000", "143047.171000", "143049.170000", "143051.169000", "143053.170000", "143055.170000", "143057.170000", "143059.171000", "143101.171000", "143103.170000", "143105.171000", "143107.170000", "143109.170000", "143111.169000", "143113.169000", "143115.169000", "143117.171000", "143119.170000", "143121.171000", "143123.170000", "143125.170000", "143127.170000", "143129.170000", "143131.170000", "143133.171000", "143135.171000", "143137.170000", "143139.171000", "143141.170000", "143143.170000", "143145.170000", "143147.169000", "143149.170000", "143151.170000", "143153.171000", "143155.171000", "143157.171000", "143159.170000", "143201.170000", "143203.169000", "143205.170000", "143207.170000", "143209.171000", "143211.171000", "143213.171000", "143215.171000", "143217.169000", "143219.170000", "143221.170000", "143223.170000", "143225.169000", "143227.171000", "143229.171000", "143231.171000", "143233.169000", "143235.170000", "143237.170000", "143239.169000", "143241.170000", "143243.171000", "143245.171000", "143247.170000", "143249.170000", "143251.170000", "143253.169000", "143255.170000", "143257.169000", "143259.170000", "143301.171000", "143303.170000", "143305.171000", "143307.171000", "143309.170000", "143311.169000", "143313.170000", "143315.169000", "143317.170000", "143319.171000", "143321.171000", "143323.171000", "143325.171000", "143327.170000", "143329.170000", "143331.170000", "143333.170000", "143335.169000", "143337.171000", "143339.171000", "143341.171000", "143343.170000", "143345.170000", "143347.169000", "143349.170000", "143351.169000", "143353.170000", "143355.170000", "143357.170000", "143359.170000", "143401.170000", "143403.170000", "143405.170000", "143407.170000", "143409.170000", "143411.170000", "143413.171000", "143415.171000", "143417.171000", "143419.170000", "143421.170000", "143423.170000", "143425.170000", "143427.170000", "143429.171000", "143431.171000", "143432.731000"],
      "InstanceNumber": [1, 2, 3, 4, 5, 6, 7, 8, 9, 10, 11, 12, 13, 14, 15, 16, 17, 18, 19, 20, 21, 22, 23, 24, 25, 26, 27, 28, 29, 30, 31, 32, 33, 34, 35, 36, 37, 38, 39, 40, 41, 42, 43, 44, 45, 46, 47, 48, 49, 50, 51, 52, 53, 54, 55, 56, 57, 58, 59, 60, 61, 62, 63, 64, 65, 66, 67, 68, 69, 70, 71, 72, 73, 74, 75, 76, 77, 78, 79, 80, 81, 82, 83, 84, 85, 86, 87, 88, 89, 90, 91, 92, 93, 94, 95, 96, 97, 98, 99, 100, 101, 102, 103, 104, 105, 106, 107, 108, 109, 110, 111, 112, 113, 114, 115, 116, 117, 118, 119, 120, 121, 122, 123, 124, 125, 126, 127, 128, 129, 130, 131, 132, 133, 134, 135, 136, 137, 138, 139, 140, 141, 142, 143, 144, 145, 146, 147, 148, 149, 150, 151, 152, 153, 154, 155, 156, 157, 158, 159, 160, 161, 162, 163, 164, 165, 166, 167, 168, 169, 170, 171, 172, 173, 174, 175, 176, 177, 178, 179, 180, 181, 182, 183, 184, 185, 186, 187, 188, 189, 190, 191, 192, 193, 194, 195, 196, 197, 198, 199, 200, 201, 202, 203, 204, 205, 206, 207, 208, 209, 210, 211, 212, 213, 214, 215, 216, 217, 218, 219, 220, 221, 222, 223, 224, 225, 226, 227, 228, 229, 230, 231, 232, 233, 234, 235, 236, 237, 238, 239, 240, 241, 242, 243, 244, 245, 246, 247, 248, 249, 250, 251, 252, 253, 254, 255, 256],
      "WindowCenter": [872.0, 871.0, 871.0, 870.0, 869.0, 868.0, 869.0, 869.0, 869.0, 868.0, 870.0, 871.0, 870.0, 869.0, 868.0, 867.0, 868.0, 869.0, 869.0, 869.0, 869.0, 869.0, 869.0, 870.0, 870.0, 869.0, 870.0, 871.0, 871.0, 870.0, 869.0, 869.0, 870.0, 870.0, 869.0, 868.0, 868.0, 869.0, 869.0, 869.0, 868.0, 869.0, 869.0, 869.0, 868.0, 869.0, 870.0, 870.0, 868.0, 869.0, 870.0, 871.0, 871.0, 871.0, 870.0, 869.0, 868.0, 868.0, 869.0, 869.0, 870.0, 869.0, 869.0, 870.0, 872.0, 871.0, 869.0, 868.0, 867.0, 868.0, 870.0, 871.0, 869.0, 868.0, 869.0, 870.0, 870.0, 870.0, 870.0, 870.0, 870.0, 870.0, 870.0, 871.0, 871.0, 871.0, 870.0, 871.0, 871.0, 871.0, 872.0, 872.0, 872.0, 871.0, 870.0, 870.0, 870.0, 870.0, 870.0, 870.0, 871.0, 871.0, 870.0, 869.0, 869.0, 870.0, 871.0, 871.0, 870.0, 869.0, 869.0, 870.0, 870.0, 870.0, 869.0, 869.0, 870.0, 871.0, 871.0, 871.0, 871.0, 873.0, 874.0, 873.0, 873.0, 873.0, 873.0, 873.0, 872.0, 873.0, 874.0, 873.0, 871.0, 871.0, 872.0, 873.0, 874.0, 873.0, 871.0, 869.0, 868.0, 868.0, 869.0, 870.0, 871.0, 873.0, 873.0, 871.0, 871.0, 872.0, 871.0, 871.0, 871.0, 871.0, 872.0, 872.0, 871.0, 870.0, 870.0, 870.0, 871.0, 871.0, 871.0, 871.0, 870.0, 870.0, 871.0, 872.0, 872.0, 873.0, 872.0, 871.0, 870.0, 871.0, 871.0, 871.0, 870.0, 870.0, 871.0, 871.0, 871.0, 871.0, 872.0, 871.0, 871.0, 871.0, 871.0, 870.0, 870.0, 871.0, 873.0, 872.0, 870.0, 869.0, 870.0, 870.0, 869.0, 870.0, 871.0, 871.0, 871.0, 871.0, 871.0, 872.0, 872.0, 872.0, 872.0, 871.0, 871.0, 872.0, 873.0, 871.0, 870.0, 870.0, 870.0, 871.0, 872.0, 871.0, 870.0, 870.0, 871.0, 872.0, 872.0, 871.0, 871.0, 872.0, 872.0, 871.0, 871.0, 871.0, 873.0, 873.0, 873.0, 872.0, 870.0, 870.0, 870.0, 872.0, 872.0, 871.0, 871.0, 870.0, 870.0, 871.0, 870.0, 869.0, 870.0, 871.0, 871.0, 870.0, 871.0, 871.0, 871.0, 871.0, 870.0, 868.0],
      "WindowWidth": [1926.0, 1922.0, 1921.0, 1920.0, 1916.0, 1913.0, 1915.0, 1918.0, 1915.0, 1914.0, 1920.0, 1923.0, 1921.0, 1917.0, 1914.0, 1911.0, 1915.0, 1918.0, 1917.0, 1917.0, 1918.0, 1917.0, 1918.0, 1918.0, 1919.0, 1918.0, 1919.0, 1923.0, 1922.0, 1919.0, 1917.0, 1918.0, 1920.0, 1921.0, 1917.0, 1914.0, 1914.0, 1916.0, 1915.0, 1916.0, 1914.0, 1916.0, 1918.0, 1916.0, 1915.0, 1918.0, 1921.0, 1918.0, 1915.0, 1916.0, 1920.0, 1922.0, 1923.0, 1923.0, 1919.0, 1916.0, 1913.0, 1913.0, 1916.0, 1918.0, 1919.0, 1917.0, 1916.0, 1920.0, 1925.0, 1921.0, 1916.0, 1913.0, 1910.0, 1913.0, 1921.0, 1921.0, 1916.0, 1914.0, 1915.0, 1918.0, 1920.0, 1918.0, 1918.0, 1919.0, 1918.0, 1919.0, 1920.0, 1922.0, 1923.0, 1921.0, 1919.0, 1921.0, 1923.0, 1922.0, 1923.0, 1924.0, 1924.0, 1921.0, 1919.0, 1918.0, 1920.0, 1920.0, 1919.0, 1920.0, 1921.0, 1922.0, 1919.0, 1917.0, 1916.0, 1918.0, 1921.0, 1921.0, 1919.0, 1916.0, 1915.0, 1917.0, 1919.0, 1917.0, 1915.0, 1917.0, 1919.0, 1921.0, 1922.0, 1920.0, 1922.0, 1927.0, 1931.0, 1928.0, 1926.0, 1928.0, 1928.0, 1927.0, 1925.0, 1927.0, 1929.0, 1927.0, 1922.0, 1920.0, 1923.0, 1929.0, 1930.0, 1926.0, 1920.0, 1914.0, 1912.0, 1913.0, 1916.0, 1918.0, 1921.0, 1926.0, 1926.0, 1922.0, 1921.0, 1923.0, 1923.0, 1923.0, 1923.0, 1922.0, 1923.0, 1924.0, 1922.0, 1919.0, 1920.0, 1920.0, 1921.0, 1921.0, 1921.0, 1920.0, 1918.0, 1919.0, 1922.0, 1923.0, 1925.0, 1926.0, 1924.0, 1920.0, 1920.0, 1921.0, 1922.0, 1923.0, 1920.0, 1918.0, 1921.0, 1922.0, 1922.0, 1923.0, 1924.0, 1923.0, 1922.0, 1923.0, 1922.0, 1919.0, 1918.0, 1923.0, 1927.0, 1924.0, 1918.0, 1916.0, 1918.0, 1919.0, 1917.0, 1917.0, 1921.0, 1922.0, 1920.0, 1921.0, 1922.0, 1924.0, 1926.0, 1925.0, 1923.0, 1921.0, 1922.0, 1925.0, 1927.0, 1922.0, 1918.0, 1919.0, 1919.0, 1922.0, 1923.0, 1921.0, 1920.0, 1919.0, 1922.0, 1925.0, 1922.0, 1922.0, 1922.0, 1925.0, 1925.0, 1922.0, 1920.0, 1923.0, 1926.0, 1928.0, 1927.0, 1923.0, 1918.0, 1918.0, 1918.0, 1922.0, 1924.0, 1922.0, 1920.0, 1918.0, 1919.0, 1922.0, 1919.0, 1916.0, 1919.0, 1922.0, 1921.0, 1918.0, 1920.0, 1922.0, 1921.0, 1921.0, 1918.0, 1913.0]
    },
    "slices": {}
  }
}