{
 "AcquisitionMatrixPE": 100,
 "AcquisitionNumber": 1,
 "AcquisitionTime": "13:44:55.570000",
 "BandwidthPerPixelPhaseEncode": 18.519,
 "BaseResolution": 100,
 "BodyPartExamined": "BRAIN",
 "ConsistencyInfo": "N4_VE11C_LATEST_20160120",
 "ConversionSoftware": "dcm2niix",
 "ConversionSoftwareVersion": "v1.0.20180622 GCC4.9.2",
 "DerivedVendorReportedEchoSpacing": 0.000539986,
 "DeviceSerialNumber": "166078",
 "DwellTime": 2.1e-06,
 "EchoTime": 0.034,
 "EchoTrainLength": 100,
 "EffectiveEchoSpacing": 0.000539986,
 "FlipAngle": 90,
 "ImageOrientationPatientDICOM": [
  1,
  0,
  0,
  0,
  0.936672,
  -0.350207
 ],
 "ImageType": [
  "ORIGINAL",
  "PRIMARY",
  "M",
  "ND",
  "MOSAIC"
 ],
 "InPlanePhaseEncodingDirectionDICOM": "COL",
 "InstitutionAddress": "Street_StreetNo_Bei_Jing_District_CN_ZIP",
 "InstitutionName": "BeiJing_Normal_University",
 "InstitutionalDepartmentName": "Department",
 "MRAcquisitionType": "2D",
 "MagneticFieldStrength": 3,
 "Manufacturer": "Siemens",
 "ManufacturersModelName": "Prisma",
 "Modality": "MR",
 "MultibandAccelerationFactor": 3,
 "PartialFourier": 1,
 "PatientPosition": "HFS",
 "PercentPhaseFOV": 100,
 "PhaseEncodingDirection": "j-",
 "PhaseEncodingSteps": 100,
 "PhaseResolution": 1,
 "PixelBandwidth": 2380,
 "ProcedureStepDescription": "BNU_P2018_64CH_Zhen.ZongLei",
 "ProtocolName": "bold_100x100_s3_2x2x2_static_256",
 "PulseSequenceDetails": "%SiemensSeq%_ep2d_bold",
 "ReceiveCoilActiveElements": "HC1-7;NC1",
 "ReceiveCoilName": "HeadNeck_64",
 "ReconMatrixPE": 100,
 "RepetitionTime": 2,
 "SAR": 0.0622948,
 "ScanOptions": "FS",
 "ScanningSequence": "EP",
 "SequenceName": "_epfid2d1_100",
 "SequenceVariant": "SK",
 "SeriesDescription": "bold_100x100_s3_2x2x2_static_256",
 "SeriesNumber": 5,
 "ShimSetting": [
  -5458,
  -11444,
  -1235,
  356,
  -34,
  -283,
  -248,
  90
 ],
 "SliceThickness": 2,
 "SliceTiming": [
  1.485,
  0,
  0.99,
  0.0825,
  1.0725,
  0.165,
  1.155,
  0.2475,
  1.2375,
  0.33,
  1.32,
  0.4125,
  1.4025,
  0.5775,
  1.5675,
  0.66,
  1.65,
  0.7425,
  1.7325,
  0.825,
  1.815,
  0.9075,
  1.8975,
  0.495,
  1.485,
  0,
  0.99,
  0.0825,
  1.0725,
  0.165,
  1.155,
  0.2475,
  1.2375,
  0.33,
  1.32,
  0.4125,
  1.4025,
  0.5775,
  1.5675,
  0.66,
  1.65,
  0.7425,
  1.7325,
  0.825,
  1.815,
  0.9075,
  1.8975,
  0.495,
  1.485,
  0,
  0.99,
  0.0825,
  1.0725,
  0.165,
  1.155,
  0.2475,
  1.2375,
  0.33,
  1.32,
  0.4125,
  1.4025,
  0.5775,
  1.5675,
  0.66,
  1.65,
  0.7425,
  1.7325,
  0.825,
  1.815,
  0.9075,
  1.8975,
  0.495
 ],
 "SoftwareVersions": "syngo_MR_E11",
 "SpacingBetweenSlices": 2,
 "StationName": "AWP166078",
 "TaskName": "imagenet",
 "TotalReadoutTime": 0.0534586,
 "TxRefAmp": 218.393,
 "dcmmeta_affine": [
  [
   -2.0,
   0.0,
   0.0,
   101.3559341430664
  ],
  [
   0.0,
   1.8733443021774292,
   -0.7004148364067078,
   -69.34561157226562
  ],
  [
   0.0,
   0.7004148364067078,
   1.8733444213867188,
   -102.79984283447266
  ],
  [
   0.0,
   0.0,
   0.0,
   1.0
  ]
 ],
 "dcmmeta_reorient_transform": [
  [
   0.0,
   -1.0,
   0.0,
   99.0
  ],
  [
   1.0,
   0.0,
   0.0,
   0.0
  ],
  [
   0.0,
   0.0,
   1.0,
   0.0
  ],
  [
   0.0,
   0.0,
   0.0,
   1.0
  ]
 ],
 "dcmmeta_shape": [
  100,
  100,
  72,
  256
 ],
 "dcmmeta_slice_dim": 2,
 "dcmmeta_version": 0.6,
 "global": {
  "const": {
   "AcquisitionMatrix": [
    100,
    0,
    0,
    100
   ],
   "AngioFlag": "N",
   "BitsAllocated": 16,
   "BitsStored": 12,
   "BodyPartExamined": "BRAIN",
   "Columns": 900,
   "EchoNumbers": 1,
   "EchoTime": 34.0,
   "EchoTrainLength": 100,
   "FlipAngle": 90.0,
   "HighBit": 11,
   "ImageOrientationPatient": [
    1.0,
    0.0,
    0.0,
    0.0,
    0.93667217980175,
    -0.3502074065257
   ],
   "ImagePositionPatient": [
    -901.35593223572,
    -865.45322117521,
    246.70715079742
   ],
   "ImageType": [
    "ORIGINAL",
    "PRIMARY",
    "M",
    "ND",
    "MOSAIC"
   ],
   "ImagedNucleus": "1H",
   "ImagingFrequency": 123.25774,
   "InPlanePhaseEncodingDirection": "COL",
   "LargestImagePixelValue": 4095,
   "MRAcquisitionType": "2D",
   "MagneticFieldStrength": 3.0,
   "Manufacturer": "SIEMENS",
   "ManufacturerModelName": "Prisma",
   "Modality": "MR",
   "NumberOfAverages": 1.0,
   "NumberOfPhaseEncodingSteps": 100,
   "PercentPhaseFieldOfView": 100.0,
   "PercentSampling": 100.0,
   "PerformedProcedureStepStartTime": "132158.553000",
   "PhotometricInterpretation": "MONOCHROME2",
   "PixelBandwidth": 2380.0,
   "PixelRepresentation": 0,
   "PixelSpacing": [
    2.0,
    2.0
   ],
   "ProtocolName": "bold_100x100_s3_2x2x2_static_256",
   "RepetitionTime": 2000.0,
   "Rows": 900,
   "SAR": 0.06229482383338,
   "SamplesPerPixel": 1,
   "ScanOptions": "FS",
   "ScanningSequence": "EP",
   "SequenceName": "*epfid2d1_100",
   "SequenceVariant": "SK",
   "SeriesDescription": "bold_100x100_s3_2x2x2_static_256",
   "SeriesNumber": 5,
   "SeriesTime": "134458.035000",
   "SliceLocation": -72.004403346961,
   "SliceThickness": 2.0,
   "SmallestImagePixelValue": 0,
   "SoftwareVersions": "syngo MR E11",
   "SpacingBetweenSlices": 2.0000000410599,
   "SpecificCharacterSet": "ISO_IR 100",
   "StudyID": "1",
   "StudyTime": "132158.501000",
   "TransmitCoilName": "Body",
   "VariableFlipAngleFlag": "N",
   "WindowCenterWidthExplanation": "Algo1",
   "dBdt": 0.0
  },
  "slices": {}
 },
 "time": {
  "samples": {
   "AcquisitionNumber": [
    1,
    2,
    3,
    4,
    5,
    6,
    7,
    8,
    9,
    10,
    11,
    12,
    13,
    14,
    15,
    16,
    17,
    18,
    19,
    20,
    21,
    22,
    23,
    24,
    25,
    26,
    27,
    28,
    29,
    30,
    31,
    32,
    33,
    34,
    35,
    36,
    37,
    38,
    39,
    40,
    41,
    42,
    43,
    44,
    45,
    46,
    47,
    48,
    49,
    50,
    51,
    52,
    53,
    54,
    55,
    56,
    57,
    58,
    59,
    60,
    61,
    62,
    63,
    64,
    65,
    66,
    67,
    68,
    69,
    70,
    71,
    72,
    73,
    74,
    75,
    76,
    77,
    78,
    79,
    80,
    81,
    82,
    83,
    84,
    85,
    86,
    87,
    88,
    89,
    90,
    91,
    92,
    93,
    94,
    95,
    96,
    97,
    98,
    99,
    100,
    101,
    102,
    103,
    104,
    105,
    106,
    107,
    108,
    109,
    110,
    111,
    112,
    113,
    114,
    115,
    116,
    117,
    118,
    119,
    120,
    121,
    122,
    123,
    124,
    125,
    126,
    127,
    128,
    129,
    130,
    131,
    132,
    133,
    134,
    135,
    136,
    137,
    138,
    139,
    140,
    141,
    142,
    143,
    144,
    145,
    146,
    147,
    148,
    149,
    150,
    151,
    152,
    153,
    154,
    155,
    156,
    157,
    158,
    159,
    160,
    161,
    162,
    163,
    164,
    165,
    166,
    167,
    168,
    169,
    170,
    171,
    172,
    173,
    174,
    175,
    176,
    177,
    178,
    179,
    180,
    181,
    182,
    183,
    184,
    185,
    186,
    187,
    188,
    189,
    190,
    191,
    192,
    193,
    194,
    195,
    196,
    197,
    198,
    199,
    200,
    201,
    202,
    203,
    204,
    205,
    206,
    207,
    208,
    209,
    210,
    211,
    212,
    213,
    214,
    215,
    216,
    217,
    218,
    219,
    220,
    221,
    222,
    223,
    224,
    225,
    226,
    227,
    228,
    229,
    230,
    231,
    232,
    233,
    234,
    235,
    236,
    237,
    238,
    239,
    240,
    241,
    242,
    243,
    244,
    245,
    246,
    247,
    248,
    249,
    250,
    251,
    252,
    253,
    254,
    255,
    256
   ],
   "AcquisitionTime": [
    "134455.570000",
    "134457.570000",
    "134459.570000",
    "134501.570000",
    "134503.570000",
    "134505.570000",
    "134507.570000",
    "134509.570000",
    "134511.570000",
    "134513.570000",
    "134515.570000",
    "134517.570000",
    "134519.570000",
    "134521.570000",
    "134523.570000",
    "134525.570000",
    "134527.570000",
    "134529.570000",
    "134531.570000",
    "134533.570000",
    "134535.570000",
    "134537.570000",
    "134539.570000",
    "134541.570000",
    "134543.570000",
    "134545.570000",
    "134547.570000",
    "134549.570000",
    "134551.570000",
    "134553.570000",
    "134555.570000",
    "134557.570000",
    "134559.570000",
    "134601.570000",
    "134603.570000",
    "134605.570000",
    "134607.570000",
    "134609.570000",
    "134611.570000",
    "134613.570000",
    "134615.570000",
    "134617.570000",
    "134619.570000",
    "134621.570000",
    "134623.570000",
    "134625.570000",
    "134627.570000",
    "134629.570000",
    "134631.570000",
    "134633.570000",
    "134635.570000",
    "134637.570000",
    "134639.570000",
    "134641.570000",
    "134643.570000",
    "134645.570000",
    "134647.570000",
    "134649.570000",
    "134651.570000",
    "134653.570000",
    "134655.570000",
    "134657.570000",
    "134659.570000",
    "134701.570000",
    "134703.570000",
    "134705.570000",
    "134707.570000",
    "134709.570000",
    "134711.570000",
    "134713.570000",
    "134715.570000",
    "134717.570000",
    "134719.570000",
    "134721.570000",
    "134723.570000",
    "134725.570000",
    "134727.570000",
    "134729.570000",
    "134731.570000",
    "134733.570000",
    "134735.570000",
    "134737.570000",
    "134739.570000",
    "134741.570000",
    "134743.570000",
    "134745.570000",
    "134747.570000",
    "134749.570000",
    "134751.570000",
    "134753.570000",
    "134755.570000",
    "134757.570000",
    "134759.570000",
    "134801.570000",
    "134803.570000",
    "134805.570000",
    "134807.570000",
    "134809.570000",
    "134811.570000",
    "134813.570000",
    "134815.570000",
    "134817.570000",
    "134819.570000",
    "134821.570000",
    "134823.570000",
    "134825.570000",
    "134827.570000",
    "134829.570000",
    "134831.570000",
    "134833.570000",
    "134835.570000",
    "134837.570000",
    "134839.570000",
    "134841.570000",
    "134843.570000",
    "134845.570000",
    "134847.570000",
    "134849.570000",
    "134851.570000",
    "134853.570000",
    "134855.570000",
    "134857.570000",
    "134859.570000",
    "134901.570000",
    "134903.570000",
    "134905.570000",
    "134907.570000",
    "134909.570000",
    "134911.570000",
    "134913.570000",
    "134915.570000",
    "134917.570000",
    "134919.570000",
    "134921.570000",
    "134923.570000",
    "134925.570000",
    "134927.570000",
    "134929.570000",
    "134931.570000",
    "134933.570000",
    "134935.570000",
    "134937.570000",
    "134939.570000",
    "134941.570000",
    "134943.570000",
    "134945.570000",
    "134947.570000",
    "134949.570000",
    "134951.570000",
    "134953.570000",
    "134955.570000",
    "134957.570000",
    "134959.570000",
    "135001.570000",
    "135003.570000",
    "135005.570000",
    "135007.570000",
    "135009.570000",
    "135011.570000",
    "135013.570000",
    "135015.570000",
    "135017.570000",
    "135019.570000",
    "135021.570000",
    "135023.570000",
    "135025.570000",
    "135027.570000",
    "135029.570000",
    "135031.570000",
    "135033.570000",
    "135035.570000",
    "135037.570000",
    "135039.570000",
    "135041.570000",
    "135043.570000",
    "135045.570000",
    "135047.570000",
    "135049.570000",
    "135051.570000",
    "135053.570000",
    "135055.570000",
    "135057.570000",
    "135059.570000",
    "135101.570000",
    "135103.570000",
    "135105.570000",
    "135107.570000",
    "135109.570000",
    "135111.570000",
    "135113.570000",
    "135115.570000",
    "135117.570000",
    "135119.570000",
    "135121.570000",
    "135123.570000",
    "135125.570000",
    "135127.570000",
    "135129.570000",
    "135131.570000",
    "135133.570000",
    "135135.570000",
    "135137.570000",
    "135139.570000",
    "135141.570000",
    "135143.570000",
    "135145.570000",
    "135147.570000",
    "135149.570000",
    "135151.570000",
    "135153.570000",
    "135155.570000",
    "135157.570000",
    "135159.570000",
    "135201.570000",
    "135203.570000",
    "135205.570000",
    "135207.570000",
    "135209.570000",
    "135211.570000",
    "135213.570000",
    "135215.570000",
    "135217.570000",
    "135219.570000",
    "135221.570000",
    "135223.570000",
    "135225.570000",
    "135227.570000",
    "135229.570000",
    "135231.570000",
    "135233.570000",
    "135235.570000",
    "135237.570000",
    "135239.570000",
    "135241.570000",
    "135243.570000",
    "135245.570000",
    "135247.570000",
    "135249.570000",
    "135251.570000",
    "135253.570000",
    "135255.570000",
    "135257.570000",
    "135259.570000",
    "135301.570000",
    "135303.570000",
    "135305.570000",
    "135307.570000",
    "135309.570000",
    "135311.570000",
    "135313.570000",
    "135315.570000",
    "135317.570000",
    "135319.570000",
    "135321.570000",
    "135323.570000",
    "135325.570000"
   ],
   "ContentTime": [
    "134458.039000",
    "134459.534000",
    "134501.534000",
    "134503.534000",
    "134505.535000",
    "134507.534000",
    "134509.534000",
    "134511.534000",
    "134513.534000",
    "134515.535000",
    "134517.534000",
    "134519.535000",
    "134521.534000",
    "134523.534000",
    "134525.534000",
    "134527.534000",
    "134529.534000",
    "134531.535000",
    "134533.535000",
    "134535.535000",
    "134537.535000",
    "134539.535000",
    "134541.535000",
    "134543.535000",
    "134545.535000",
    "134547.534000",
    "134549.534000",
    "134551.535000",
    "134553.534000",
    "134555.534000",
    "134557.534000",
    "134559.534000",
    "134601.534000",
    "134603.535000",
    "134605.535000",
    "134607.535000",
    "134609.535000",
    "134611.535000",
    "134613.534000",
    "134615.535000",
    "134617.534000",
    "134619.534000",
    "134621.535000",
    "134623.535000",
    "134625.535000",
    "134627.535000",
    "134629.535000",
    "134631.535000",
    "134633.535000",
    "134635.535000",
    "134637.535000",
    "134639.535000",
    "134641.535000",
    "134643.534000",
    "134645.534000",
    "134647.534000",
    "134649.534000",
    "134651.535000",
    "134653.534000",
    "134655.534000",
    "134657.535000",
    "134659.534000",
    "134701.535000",
    "134703.534000",
    "134705.535000",
    "134707.535000",
    "134709.534000",
    "134711.534000",
    "134713.534000",
    "134715.534000",
    "134717.535000",
    "134719.534000",
    "134721.534000",
    "134723.535000",
    "134725.534000",
    "134727.534000",
    "134729.535000",
    "134731.535000",
    "134733.534000",
    "134735.535000",
    "134737.535000",
    "134739.534000",
    "134741.535000",
    "134743.534000",
    "134745.534000",
    "134747.535000",
    "134749.535000",
    "134751.535000",
    "134753.535000",
    "134755.535000",
    "134757.535000",
    "134759.535000",
    "134801.535000",
    "134803.534000",
    "134805.535000",
    "134807.535000",
    "134809.535000",
    "134811.535000",
    "134813.535000",
    "134815.535000",
    "134817.535000",
    "134819.535000",
    "134821.534000",
    "134823.535000",
    "134825.536000",
    "134827.534000",
    "134829.534000",
    "134831.535000",
    "134833.535000",
    "134835.534000",
    "134837.535000",
    "134839.535000",
    "134841.535000",
    "134843.534000",
    "134845.534000",
    "134847.534000",
    "134849.534000",
    "134851.535000",
    "134853.535000",
    "134855.535000",
    "134857.535000",
    "134859.535000",
    "134901.535000",
    "134903.535000",
    "134905.535000",
    "134907.534000",
    "134909.535000",
    "134911.535000",
    "134913.535000",
    "134915.534000",
    "134917.535000",
    "134919.534000",
    "134921.544000",
    "134923.534000",
    "134925.534000",
    "134927.534000",
    "134929.534000",
    "134931.534000",
    "134933.534000",
    "134935.535000",
    "134937.534000",
    "134939.535000",
    "134941.535000",
    "134943.535000",
    "134945.535000",
    "134947.535000",
    "134949.535000",
    "134951.534000",
    "134953.534000",
    "134955.535000",
    "134957.535000",
    "134959.535000",
    "135001.535000",
    "135003.534000",
    "135005.534000",
    "135007.534000",
    "135009.535000",
    "135011.535000",
    "135013.534000",
    "135015.534000",
    "135017.035000",
    "135019.534000",
    "135021.535000",
    "135023.534000",
    "135025.534000",
    "135027.534000",
    "135029.535000",
    "135031.534000",
    "135033.534000",
    "135035.534000",
    "135037.534000",
    "135039.535000",
    "135041.535000",
    "135043.535000",
    "135045.536000",
    "135047.535000",
    "135049.535000",
    "135051.535000",
    "135053.535000",
    "135055.535000",
    "135057.535000",
    "135059.535000",
    "135101.534000",
    "135103.535000",
    "135105.535000",
    "135107.535000",
    "135109.535000",
    "135111.535000",
    "135113.534000",
    "135115.534000",
    "135117.535000",
    "135119.534000",
    "135121.535000",
    "135123.534000",
    "135125.535000",
    "135127.534000",
    "135129.535000",
    "135131.535000",
    "135133.535000",
    "135135.534000",
    "135137.535000",
    "135139.534000",
    "135141.534000",
    "135143.535000",
    "135145.534000",
    "135147.535000",
    "135149.534000",
    "135151.535000",
    "135153.534000",
    "135155.536000",
    "135157.535000",
    "135159.535000",
    "135201.534000",
    "135203.535000",
    "135205.535000",
    "135207.534000",
    "135209.535000",
    "135211.535000",
    "135213.534000",
    "135215.535000",
    "135217.535000",
    "135219.535000",
    "135221.535000",
    "135223.535000",
    "135225.535000",
    "135227.534000",
    "135229.535000",
    "135231.534000",
    "135233.534000",
    "135235.535000",
    "135237.534000",
    "135239.535000",
    "135241.535000",
    "135243.534000",
    "135245.534000",
    "135247.534000",
    "135249.535000",
    "135251.535000",
    "135253.535000",
    "135255.534000",
    "135257.535000",
    "135259.535000",
    "135301.535000",
    "135303.534000",
    "135305.534000",
    "135307.535000",
    "135309.535000",
    "135311.535000",
    "135313.535000",
    "135315.534000",
    "135317.535000",
    "135319.535000",
    "135321.535000",
    "135323.535000",
    "135325.535000",
    "135327.133000"
   ],
   "InstanceCreationTime": [
    "134458.039000",
    "134459.534000",
    "134501.534000",
    "134503.534000",
    "134505.535000",
    "134507.534000",
    "134509.534000",
    "134511.534000",
    "134513.534000",
    "134515.535000",
    "134517.534000",
    "134519.535000",
    "134521.534000",
    "134523.534000",
    "134525.534000",
    "134527.534000",
    "134529.534000",
    "134531.535000",
    "134533.535000",
    "134535.535000",
    "134537.535000",
    "134539.535000",
    "134541.535000",
    "134543.535000",
    "134545.535000",
    "134547.534000",
    "134549.534000",
    "134551.535000",
    "134553.534000",
    "134555.534000",
    "134557.534000",
    "134559.534000",
    "134601.534000",
    "134603.535000",
    "134605.535000",
    "134607.535000",
    "134609.535000",
    "134611.535000",
    "134613.534000",
    "134615.535000",
    "134617.534000",
    "134619.534000",
    "134621.535000",
    "134623.535000",
    "134625.535000",
    "134627.535000",
    "134629.535000",
    "134631.535000",
    "134633.535000",
    "134635.535000",
    "134637.535000",
    "134639.535000",
    "134641.535000",
    "134643.534000",
    "134645.534000",
    "134647.534000",
    "134649.534000",
    "134651.535000",
    "134653.534000",
    "134655.534000",
    "134657.535000",
    "134659.534000",
    "134701.535000",
    "134703.534000",
    "134705.535000",
    "134707.535000",
    "134709.534000",
    "134711.534000",
    "134713.534000",
    "134715.534000",
    "134717.535000",
    "134719.534000",
    "134721.534000",
    "134723.535000",
    "134725.534000",
    "134727.534000",
    "134729.535000",
    "134731.535000",
    "134733.534000",
    "134735.535000",
    "134737.535000",
    "134739.534000",
    "134741.535000",
    "134743.534000",
    "134745.534000",
    "134747.535000",
    "134749.535000",
    "134751.535000",
    "134753.535000",
    "134755.535000",
    "134757.535000",
    "134759.535000",
    "134801.535000",
    "134803.534000",
    "134805.535000",
    "134807.535000",
    "134809.535000",
    "134811.535000",
    "134813.535000",
    "134815.535000",
    "134817.535000",
    "134819.535000",
    "134821.534000",
    "134823.535000",
    "134825.536000",
    "134827.534000",
    "134829.534000",
    "134831.535000",
    "134833.535000",
    "134835.534000",
    "134837.535000",
    "134839.535000",
    "134841.535000",
    "134843.534000",
    "134845.534000",
    "134847.534000",
    "134849.534000",
    "134851.535000",
    "134853.535000",
    "134855.535000",
    "134857.535000",
    "134859.535000",
    "134901.535000",
    "134903.535000",
    "134905.535000",
    "134907.534000",
    "134909.535000",
    "134911.535000",
    "134913.535000",
    "134915.534000",
    "134917.535000",
    "134919.534000",
    "134921.544000",
    "134923.534000",
    "134925.534000",
    "134927.534000",
    "134929.534000",
    "134931.534000",
    "134933.534000",
    "134935.535000",
    "134937.534000",
    "134939.535000",
    "134941.535000",
    "134943.535000",
    "134945.535000",
    "134947.535000",
    "134949.535000",
    "134951.534000",
    "134953.534000",
    "134955.535000",
    "134957.535000",
    "134959.535000",
    "135001.535000",
    "135003.534000",
    "135005.534000",
    "135007.534000",
    "135009.535000",
    "135011.535000",
    "135013.534000",
    "135015.534000",
    "135017.035000",
    "135019.534000",
    "135021.535000",
    "135023.534000",
    "135025.534000",
    "135027.534000",
    "135029.535000",
    "135031.534000",
    "135033.534000",
    "135035.534000",
    "135037.534000",
    "135039.535000",
    "135041.535000",
    "135043.535000",
    "135045.536000",
    "135047.535000",
    "135049.535000",
    "135051.535000",
    "135053.535000",
    "135055.535000",
    "135057.535000",
    "135059.535000",
    "135101.534000",
    "135103.535000",
    "135105.535000",
    "135107.535000",
    "135109.535000",
    "135111.535000",
    "135113.534000",
    "135115.534000",
    "135117.535000",
    "135119.534000",
    "135121.535000",
    "135123.534000",
    "135125.535000",
    "135127.534000",
    "135129.535000",
    "135131.535000",
    "135133.535000",
    "135135.534000",
    "135137.535000",
    "135139.534000",
    "135141.534000",
    "135143.535000",
    "135145.534000",
    "135147.535000",
    "135149.534000",
    "135151.535000",
    "135153.534000",
    "135155.536000",
    "135157.535000",
    "135159.535000",
    "135201.534000",
    "135203.535000",
    "135205.535000",
    "135207.534000",
    "135209.535000",
    "135211.535000",
    "135213.534000",
    "135215.535000",
    "135217.535000",
    "135219.535000",
    "135221.535000",
    "135223.535000",
    "135225.535000",
    "135227.534000",
    "135229.535000",
    "135231.534000",
    "135233.534000",
    "135235.535000",
    "135237.534000",
    "135239.535000",
    "135241.535000",
    "135243.534000",
    "135245.534000",
    "135247.534000",
    "135249.535000",
    "135251.535000",
    "135253.535000",
    "135255.534000",
    "135257.535000",
    "135259.535000",
    "135301.535000",
    "135303.534000",
    "135305.534000",
    "135307.535000",
    "135309.535000",
    "135311.535000",
    "135313.535000",
    "135315.534000",
    "135317.535000",
    "135319.535000",
    "135321.535000",
    "135323.535000",
    "135325.535000",
    "135327.133000"
   ],
   "InstanceNumber": [
    1,
    2,
    3,
    4,
    5,
    6,
    7,
    8,
    9,
    10,
    11,
    12,
    13,
    14,
    15,
    16,
    17,
    18,
    19,
    20,
    21,
    22,
    23,
    24,
    25,
    26,
    27,
    28,
    29,
    30,
    31,
    32,
    33,
    34,
    35,
    36,
    37,
    38,
    39,
    40,
    41,
    42,
    43,
    44,
    45,
    46,
    47,
    48,
    49,
    50,
    51,
    52,
    53,
    54,
    55,
    56,
    57,
    58,
    59,
    60,
    61,
    62,
    63,
    64,
    65,
    66,
    67,
    68,
    69,
    70,
    71,
    72,
    73,
    74,
    75,
    76,
    77,
    78,
    79,
    80,
    81,
    82,
    83,
    84,
    85,
    86,
    87,
    88,
    89,
    90,
    91,
    92,
    93,
    94,
    95,
    96,
    97,
    98,
    99,
    100,
    101,
    102,
    103,
    104,
    105,
    106,
    107,
    108,
    109,
    110,
    111,
    112,
    113,
    114,
    115,
    116,
    117,
    118,
    119,
    120,
    121,
    122,
    123,
    124,
    125,
    126,
    127,
    128,
    129,
    130,
    131,
    132,
    133,
    134,
    135,
    136,
    137,
    138,
    139,
    140,
    141,
    142,
    143,
    144,
    145,
    146,
    147,
    148,
    149,
    150,
    151,
    152,
    153,
    154,
    155,
    156,
    157,
    158,
    159,
    160,
    161,
    162,
    163,
    164,
    165,
    166,
    167,
    168,
    169,
    170,
    171,
    172,
    173,
    174,
    175,
    176,
    177,
    178,
    179,
    180,
    181,
    182,
    183,
    184,
    185,
    186,
    187,
    188,
    189,
    190,
    191,
    192,
    193,
    194,
    195,
    196,
    197,
    198,
    199,
    200,
    201,
    202,
    203,
    204,
    205,
    206,
    207,
    208,
    209,
    210,
    211,
    212,
    213,
    214,
    215,
    216,
    217,
    218,
    219,
    220,
    221,
    222,
    223,
    224,
    225,
    226,
    227,
    228,
    229,
    230,
    231,
    232,
    233,
    234,
    235,
    236,
    237,
    238,
    239,
    240,
    241,
    242,
    243,
    244,
    245,
    246,
    247,
    248,
    249,
    250,
    251,
    252,
    253,
    254,
    255,
    256
   ],
   "WindowCenter": [
    865.0,
    865.0,
    865.0,
    864.0,
    863.0,
    863.0,
    864.0,
    864.0,
    862.0,
    862.0,
    864.0,
    865.0,
    864.0,
    864.0,
    865.0,
    865.0,
    864.0,
    863.0,
    862.0,
    863.0,
    863.0,
    864.0,
    863.0,
    863.0,
    864.0,
    867.0,
    866.0,
    864.0,
    862.0,
    862.0,
    862.0,
    863.0,
    863.0,
    863.0,
    862.0,
    861.0,
    862.0,
    864.0,
    865.0,
    863.0,
    862.0,
    862.0,
    863.0,
    865.0,
    865.0,
    863.0,
    863.0,
    863.0,
    862.0,
    862.0,
    863.0,
    864.0,
    863.0,
    863.0,
    864.0,
    863.0,
    862.0,
    862.0,
    863.0,
    864.0,
    864.0,
    863.0,
    862.0,
    862.0,
    864.0,
    865.0,
    864.0,
    864.0,
    863.0,
    862.0,
    863.0,
    864.0,
    864.0,
    865.0,
    865.0,
    864.0,
    863.0,
    862.0,
    862.0,
    864.0,
    866.0,
    866.0,
    865.0,
    864.0,
    864.0,
    865.0,
    865.0,
    865.0,
    864.0,
    864.0,
    863.0,
    863.0,
    864.0,
    865.0,
    865.0,
    865.0,
    866.0,
    867.0,
    867.0,
    865.0,
    864.0,
    864.0,
    866.0,
    866.0,
    864.0,
    863.0,
    863.0,
    863.0,
    864.0,
    865.0,
    865.0,
    864.0,
    864.0,
    864.0,
    864.0,
    864.0,
    865.0,
    865.0,
    864.0,
    863.0,
    862.0,
    862.0,
    862.0,
    865.0,
    866.0,
    865.0,
    864.0,
    864.0,
    863.0,
    863.0,
    864.0,
    866.0,
    865.0,
    863.0,
    864.0,
    865.0,
    865.0,
    863.0,
    862.0,
    863.0,
    863.0,
    863.0,
    866.0,
    867.0,
    865.0,
    864.0,
    864.0,
    864.0,
    864.0,
    863.0,
    865.0,
    867.0,
    866.0,
    865.0,
    865.0,
    864.0,
    865.0,
    867.0,
    866.0,
    865.0,
    865.0,
    865.0,
    864.0,
    865.0,
    867.0,
    867.0,
    866.0,
    866.0,
    866.0,
    866.0,
    865.0,
    864.0,
    863.0,
    865.0,
    866.0,
    864.0,
    863.0,
    863.0,
    863.0,
    864.0,
    865.0,
    865.0,
    865.0,
    865.0,
    865.0,
    867.0,
    867.0,
    865.0,
    864.0,
    864.0,
    865.0,
    866.0,
    865.0,
    865.0,
    865.0,
    866.0,
    865.0,
    864.0,
    864.0,
    865.0,
    866.0,
    866.0,
    865.0,
    864.0,
    864.0,
    864.0,
    865.0,
    865.0,
    864.0,
    865.0,
    865.0,
    866.0,
    866.0,
    866.0,
    866.0,
    865.0,
    865.0,
    865.0,
    865.0,
    866.0,
    865.0,
    863.0,
    863.0,
    865.0,
    865.0,
    864.0,
    865.0,
    864.0,
    864.0,
    863.0,
    864.0,
    866.0,
    866.0,
    866.0,
    865.0,
    867.0,
    868.0,
    867.0,
    866.0,
    864.0,
    864.0,
    865.0,
    866.0,
    866.0,
    865.0,
    865.0,
    867.0,
    867.0,
    865.0,
    864.0,
    865.0,
    867.0,
    868.0,
    866.0,
    866.0,
    867.0
   ],
   "WindowWidth": [
    1904.0,
    1904.0,
    1905.0,
    1901.0,
    1899.0,
    1900.0,
    1903.0,
    1901.0,
    1897.0,
    1896.0,
    1902.0,
    1905.0,
    1901.0,
    1902.0,
    1905.0,
    1905.0,
    1901.0,
    1898.0,
    1896.0,
    1898.0,
    1900.0,
    1902.0,
    1901.0,
    1899.0,
    1902.0,
    1909.0,
    1909.0,
    1902.0,
    1898.0,
    1896.0,
    1895.0,
    1898.0,
    1899.0,
    1899.0,
    1897.0,
    1895.0,
    1897.0,
    1902.0,
    1906.0,
    1901.0,
    1897.0,
    1895.0,
    1899.0,
    1904.0,
    1904.0,
    1900.0,
    1900.0,
    1899.0,
    1897.0,
    1896.0,
    1898.0,
    1902.0,
    1901.0,
    1901.0,
    1901.0,
    1898.0,
    1896.0,
    1896.0,
    1899.0,
    1901.0,
    1902.0,
    1900.0,
    1898.0,
    1896.0,
    1900.0,
    1905.0,
    1903.0,
    1900.0,
    1900.0,
    1898.0,
    1900.0,
    1903.0,
    1902.0,
    1904.0,
    1904.0,
    1902.0,
    1900.0,
    1897.0,
    1897.0,
    1901.0,
    1907.0,
    1909.0,
    1906.0,
    1901.0,
    1901.0,
    1904.0,
    1905.0,
    1905.0,
    1903.0,
    1901.0,
    1899.0,
