{
  "AcquisitionMatrixPE": 100,
  "AcquisitionNumber": 1,
  "AcquisitionTime": "14:35:14.315000",
  "BandwidthPerPixelPhaseEncode": 18.519,
  "BaseResolution": 100,
  "BodyPartExamined": "BRAIN",
  "ConsistencyInfo": "N4_VE11C_LATEST_20160120",
  "ConversionSoftware": "dcm2niix",
  "ConversionSoftwareVersion": "v1.0.20180622 GCC4.9.2",
  "DerivedVendorReportedEchoSpacing": 0.000539986,
  "DeviceSerialNumber": "166078",
  "DwellTime": 2.1e-06,
  "EchoTime": 0.034,
  "EchoTrainLength": 100,
  "EffectiveEchoSpacing": 0.000539986,
  "FlipAngle": 90,
  "ImageOrientationPatientDICOM": [1, 0, 0, 0, 0.936672, -0.350207],
  "ImageType": [
    "ORIGINAL",
    "PRIMARY",
    "M",
    "ND",
    "MOSAIC"
],
  "InPlanePhaseEncodingDirectionDICOM": "COL",
  "InstitutionAddress": "Street_StreetNo_Bei_Jing_District_CN_ZIP",
  "InstitutionName": "BeiJing_Normal_University",
  "InstitutionalDepartmentName": "Department",
  "MRAcquisitionType": "2D",
  "MagneticFieldStrength": 3,
  "Manufacturer": "Siemens",
  "ManufacturersModelName": "Prisma",
  "Modality": "MR",
  "MultibandAccelerationFactor": 3,
  "PartialFourier": 1,
  "PatientPosition": "HFS",
  "PercentPhaseFOV": 100,
  "PhaseEncodingDirection": "j-",
  "PhaseEncodingSteps": 100,
  "PhaseResolution": 1,
  "PixelBandwidth": 2380,
  "ProcedureStepDescription": "BNU_P2018_64CH_Zhen.ZongLei",
  "ProtocolName": "bold_100x100_s3_2x2x2_static_256",
  "PulseSequenceDetails": "%SiemensSeq%_ep2d_bold",
  "ReceiveCoilActiveElements": "HC1-7;NC1",
  "ReceiveCoilName": "HeadNeck_64",
  "ReconMatrixPE": 100,
  "RepetitionTime": 2,
  "SAR": 0.0622948,
  "ScanOptions": "FS",
  "ScanningSequence": "EP",
  "SequenceName": "_epfid2d1_100",
  "SequenceVariant": "SK",
  "SeriesDescription": "bold_100x100_s3_2x2x2_static_256",
  "SeriesNumber": 12,
  "ShimSetting": [-5458, -11444, -1235, 356, -34, -283, -248, 90],
  "SliceThickness": 2,
  "SliceTiming": [1.485, 0, 0.99, 0.0825, 1.0725, 0.165, 1.155, 0.2475, 1.2375, 0.33, 1.32, 0.4125, 1.4025, 0.5775, 1.5675, 0.66, 1.65, 0.7425, 1.7325, 0.825, 1.815, 0.9075, 1.8975, 0.495, 1.485, 0, 0.99, 0.0825, 1.0725, 0.165, 1.155, 0.2475, 1.2375, 0.33, 1.32, 0.4125, 1.4025, 0.5775, 1.5675, 0.66, 1.65, 0.7425, 1.7325, 0.825, 1.815, 0.9075, 1.8975, 0.495, 1.485, 0, 0.99, 0.0825, 1.0725, 0.165, 1.155, 0.2475, 1.2375, 0.33, 1.32, 0.4125, 1.4025, 0.5775, 1.5675, 0.66, 1.65, 0.7425, 1.7325, 0.825, 1.815, 0.9075, 1.8975, 0.495],
  "SoftwareVersions": "syngo_MR_E11",
  "SpacingBetweenSlices": 2,
  "StationName": "AWP166078",
  "TaskName": "naturalvision",
  "TotalReadoutTime": 0.0534586,
  "TxRefAmp": 218.393,
  "dcmmeta_affine": [
    [-2.0, 0.0, 0.0, 101.3559341430664],
    [0.0, 1.8733443021774292, -0.7004148364067078, -69.34561157226562],
    [0.0, 0.7004148364067078, 1.8733444213867188, -102.79984283447266],
    [0.0, 0.0, 0.0, 1.0]
],
  "dcmmeta_reorient_transform": [
    [0.0, -1.0, 0.0, 99.0],
    [1.0, 0.0, 0.0, 0.0],
    [0.0, 0.0, 1.0, 0.0],
    [0.0, 0.0, 0.0, 1.0]
],
  "dcmmeta_shape": [100, 100, 72, 256],
  "dcmmeta_slice_dim": 2,
  "dcmmeta_version": 0.6,
  "global": {
    "const": {
      "AcquisitionMatrix": [100, 0, 0, 100],
      "AngioFlag": "N",
      "BitsAllocated": 16,
      "BitsStored": 12,
      "BodyPartExamined": "BRAIN",
      "Columns": 900,
      "EchoNumbers": 1,
      "EchoTime": 34.0,
      "EchoTrainLength": 100,
      "FlipAngle": 90.0,
      "HighBit": 11,
      "ImageOrientationPatient": [1.0, 0.0, 0.0, 0.0, 0.93667217980175, -0.3502074065257],
      "ImagePositionPatient": [-901.35593223572, -865.45322117521, 246.70715079742],
      "ImageType": [
        "ORIGINAL",
        "PRIMARY",
        "M",
        "ND",
        "MOSAIC"
],
      "ImagedNucleus": "1H",
      "ImagingFrequency": 123.257755,
      "InPlanePhaseEncodingDirection": "COL",
      "LargestImagePixelValue": 4095,
      "MRAcquisitionType": "2D",
      "MagneticFieldStrength": 3.0,
      "Manufacturer": "SIEMENS",
      "ManufacturerModelName": "Prisma",
      "Modality": "MR",
      "NumberOfAverages": 1.0,
      "NumberOfPhaseEncodingSteps": 100,
      "PercentPhaseFieldOfView": 100.0,
      "PercentSampling": 100.0,
      "PerformedProcedureStepStartTime": "132158.553000",
      "PhotometricInterpretation": "MONOCHROME2",
      "PixelBandwidth": 2380.0,
      "PixelRepresentation": 0,
      "PixelSpacing": [2.0, 2.0],
      "ProtocolName": "bold_100x100_s3_2x2x2_static_256",
      "RepetitionTime": 2000.0,
      "Rows": 900,
      "SAR": 0.06229482383338,
      "SamplesPerPixel": 1,
      "ScanOptions": "FS",
      "ScanningSequence": "EP",
      "SequenceName": "*epfid2d1_100",
      "SequenceVariant": "SK",
      "SeriesDescription": "bold_100x100_s3_2x2x2_static_256",
      "SeriesNumber": 12,
      "SeriesTime": "143517.071000",
      "SliceLocation": -72.004403346961,
      "SliceThickness": 2.0,
      "SmallestImagePixelValue": 0,
      "SoftwareVersions": "syngo MR E11",
      "SpacingBetweenSlices": 2.0000000410599,
      "SpecificCharacterSet": "ISO_IR 100",
      "StudyID": "1",
      "StudyTime": "132158.501000",
      "TransmitCoilName": "Body",
      "VariableFlipAngleFlag": "N",
      "WindowCenterWidthExplanation": "Algo1",
      "dBdt": 0.0},
    "slices": {}
  },
  "time": {
    "samples": {
      "AcquisitionNumber": [1, 2, 3, 4, 5, 6, 7, 8, 9, 10, 11, 12, 13, 14, 15, 16, 17, 18, 19, 20, 21, 22, 23, 24, 25, 26, 27, 28, 29, 30, 31, 32, 33, 34, 35, 36, 37, 38, 39, 40, 41, 42, 43, 44, 45, 46, 47, 48, 49, 50, 51, 52, 53, 54, 55, 56, 57, 58, 59, 60, 61, 62, 63, 64, 65, 66, 67, 68, 69, 70, 71, 72, 73, 74, 75, 76, 77, 78, 79, 80, 81, 82, 83, 84, 85, 86, 87, 88, 89, 90, 91, 92, 93, 94, 95, 96, 97, 98, 99, 100, 101, 102, 103, 104, 105, 106, 107, 108, 109, 110, 111, 112, 113, 114, 115, 116, 117, 118, 119, 120, 121, 122, 123, 124, 125, 126, 127, 128, 129, 130, 131, 132, 133, 134, 135, 136, 137, 138, 139, 140, 141, 142, 143, 144, 145, 146, 147, 148, 149, 150, 151, 152, 153, 154, 155, 156, 157, 158, 159, 160, 161, 162, 163, 164, 165, 166, 167, 168, 169, 170, 171, 172, 173, 174, 175, 176, 177, 178, 179, 180, 181, 182, 183, 184, 185, 186, 187, 188, 189, 190, 191, 192, 193, 194, 195, 196, 197, 198, 199, 200, 201, 202, 203, 204, 205, 206, 207, 208, 209, 210, 211, 212, 213, 214, 215, 216, 217, 218, 219, 220, 221, 222, 223, 224, 225, 226, 227, 228, 229, 230, 231, 232, 233, 234, 235, 236, 237, 238, 239, 240, 241, 242, 243, 244, 245, 246, 247, 248, 249, 250, 251, 252, 253, 254, 255, 256],
      "AcquisitionTime": ["143514.315000", "143516.315000", "143518.315000", "143520.315000", "143522.315000", "143524.315000", "143526.315000", "143528.315000", "143530.315000", "143532.315000", "143534.315000", "143536.315000", "143538.315000", "143540.315000", "143542.315000", "143544.315000", "143546.315000", "143548.315000", "143550.315000", "143552.315000", "143554.315000", "143556.315000", "143558.315000", "143600.315000", "143602.315000", "143604.315000", "143606.315000", "143608.315000", "143610.315000", "143612.315000", "143614.315000", "143616.315000", "143618.315000", "143620.315000", "143622.315000", "143624.315000", "143626.315000", "143628.315000", "143630.315000", "143632.315000", "143634.315000", "143636.315000", "143638.315000", "143640.315000", "143642.315000", "143644.315000", "143646.315000", "143648.315000", "143650.315000", "143652.315000", "143654.315000", "143656.315000", "143658.315000", "143700.315000", "143702.315000", "143704.315000", "143706.315000", "143708.315000", "143710.315000", "143712.315000", "143714.315000", "143716.315000", "143718.315000", "143720.315000", "143722.315000", "143724.315000", "143726.315000", "143728.315000", "143730.315000", "143732.315000", "143734.315000", "143736.315000", "143738.315000", "143740.315000", "143742.315000", "143744.315000", "143746.315000", "143748.315000", "143750.315000", "143752.315000", "143754.315000", "143756.315000", "143758.315000", "143800.315000", "143802.315000", "143804.315000", "143806.315000", "143808.315000", "143810.315000", "143812.315000", "143814.315000", "143816.315000", "143818.315000", "143820.315000", "143822.315000", "143824.315000", "143826.315000", "143828.315000", "143830.315000", "143832.315000", "143834.315000", "143836.315000", "143838.315000", "143840.315000", "143842.315000", "143844.315000", "143846.315000", "143848.315000", "143850.315000", "143852.315000", "143854.315000", "143856.315000", "143858.315000", "143900.315000", "143902.315000", "143904.315000", "143906.315000", "143908.315000", "143910.315000", "143912.315000", "143914.315000", "143916.315000", "143918.315000", "143920.315000", "143922.315000", "143924.315000", "143926.315000", "143928.315000", "143930.315000", "143932.315000", "143934.315000", "143936.315000", "143938.315000", "143940.315000", "143942.315000", "143944.315000", "143946.315000", "143948.315000", "143950.315000", "143952.315000", "143954.315000", "143956.315000", "143958.315000", "144000.315000", "144002.315000", "144004.315000", "144006.315000", "144008.315000", "144010.315000", "144012.315000", "144014.315000", "144016.315000", "144018.315000", "144020.315000", "144022.315000", "144024.315000", "144026.315000", "144028.315000", "144030.315000", "144032.315000", "144034.315000", "144036.315000", "144038.315000", "144040.315000", "144042.315000", "144044.315000", "144046.315000", "144048.315000", "144050.315000", "144052.315000", "144054.315000", "144056.315000", "144058.315000", "144100.315000", "144102.315000", "144104.315000", "144106.315000", "144108.315000", "144110.315000", "144112.315000", "144114.315000", "144116.315000", "144118.315000", "144120.315000", "144122.315000", "144124.315000", "144126.315000", "144128.315000", "144130.315000", "144132.315000", "144134.315000", "144136.315000", "144138.315000", "144140.315000", "144142.315000", "144144.315000", "144146.315000", "144148.315000", "144150.315000", "144152.315000", "144154.315000", "144156.315000", "144158.315000", "144200.315000", "144202.315000", "144204.315000", "144206.315000", "144208.315000", "144210.315000", "144212.315000", "144214.315000", "144216.315000", "144218.315000", "144220.315000", "144222.315000", "144224.315000", "144226.315000", "144228.315000", "144230.315000", "144232.315000", "144234.315000", "144236.315000", "144238.315000", "144240.315000", "144242.315000", "144244.315000", "144246.315000", "144248.315000", "144250.315000", "144252.315000", "144254.315000", "144256.315000", "144258.315000", "144300.315000", "144302.315000", "144304.315000", "144306.315000", "144308.315000", "144310.315000", "144312.315000", "144314.315000", "144316.315000", "144318.315000", "144320.315000", "144322.315000", "144324.315000", "144326.315000", "144328.315000", "144330.315000", "144332.315000", "144334.315000", "144336.315000", "144338.315000", "144340.315000", "144342.315000", "144344.315000"],
      "ContentTime": ["143517.075000", "143518.571000", "143520.571000", "143522.572000", "143524.571000", "143526.572000", "143528.570000", "143530.570000", "143532.571000", "143534.570000", "143536.571000", "143538.571000", "143540.572000", "143542.572000", "143544.572000", "143546.571000", "143548.570000", "143550.571000", "143552.570000", "143554.570000", "143556.572000", "143558.572000", "143600.571000", "143602.570000", "143604.571000", "143606.570000", "143608.570000", "143610.571000", "143612.570000", "143614.572000", "143616.572000", "143618.571000", "143620.570000", "143622.570000", "143624.571000", "143626.570000", "143628.571000", "143630.571000", "143632.572000", "143634.571000", "143636.571000", "143638.571000", "143640.570000", "143642.570000", "143644.570000", "143646.570000", "143648.571000", "143650.572000", "143652.571000", "143654.571000", "143656.570000", "143658.570000", "143700.570000", "143702.570000", "143704.571000", "143706.571000", "143708.571000", "143710.571000", "143712.571000", "143714.570000", "143716.571000", "143718.571000", "143720.571000", "143722.571000", "143724.572000", "143726.571000", "143728.571000", "143730.571000", "143732.570000", "143734.570000", "143736.570000", "143738.571000", "143740.572000", "143742.571000", "143744.572000", "143746.571000", "143748.570000", "143750.570000", "143752.570000", "143754.571000", "143756.571000", "143758.571000", "143800.572000", "143802.571000", "143804.571000", "143806.571000", "143808.570000", "143810.571000", "143812.570000", "143814.571000", "143816.572000", "143818.571000", "143820.572000", "143822.571000", "143824.571000", "143826.570000", "143828.570000", "143830.570000", "143832.571000", "143834.572000", "143836.572000", "143838.571000", "143840.571000", "143842.570000", "143844.571000", "143846.570000", "143848.570000", "143850.571000", "143852.571000", "143854.572000", "143856.571000", "143858.570000", "143900.570000", "143902.570000", "143904.571000", "143906.571000", "143908.571000", "143910.572000", "143912.571000", "143914.571000", "143916.570000", "143918.571000", "143920.571000", "143922.570000", "143924.571000", "143926.572000", "143928.572000", "143930.572000", "143932.571000", "143934.570000", "143936.571000", "143938.571000", "143940.570000", "143942.570000", "143944.572000", "143946.572000", "143948.571000", "143950.571000", "143952.571000", "143954.571000", "143956.571000", "143958.570000", "144000.572000", "144002.571000", "144004.572000", "144006.572000", "144008.571000", "144010.571000", "144012.571000", "144014.571000", "144016.570000", "144018.572000", "144020.571000", "144022.571000", "144024.572000", "144026.570000", "144028.571000", "144030.570000", "144032.570000", "144034.571000", "144036.571000", "144038.571000", "144040.571000", "144042.570000", "144044.570000", "144046.571000", "144048.571000", "144050.571000", "144052.572000", "144054.572000", "144056.572000", "144058.572000", "144100.571000", "144102.571000", "144104.570000", "144106.571000", "144108.570000", "144110.571000", "144112.572000", "144114.571000", "144116.572000", "144118.571000", "144120.571000", "144122.570000", "144124.571000", "144126.570000", "144128.572000", "144130.571000", "144132.571000", "144134.571000", "144136.570000", "144138.570000", "144140.570000", "144142.571000", "144144.571000", "144146.572000", "144148.572000", "144150.571000", "144152.571000", "144154.570000", "144156.570000", "144158.571000", "144200.570000", "144202.571000", "144204.571000", "144206.572000", "144208.572000", "144210.570000", "144212.570000", "144214.571000", "144216.571000", "144218.571000", "144220.572000", "144222.571000", "144224.571000", "144226.572000", "144228.571000", "144230.571000", "144232.571000", "144234.571000", "144236.571000", "144238.571000", "144240.571000", "144242.571000", "144244.572000", "144246.571000", "144248.571000", "144250.570000", "144252.571000", "144254.570000", "144256.571000", "144258.572000", "144300.572000", "144302.570000", "144304.571000", "144306.571000", "144308.571000", "144310.571000", "144312.571000", "144314.572000", "144316.571000", "144318.571000", "144320.570000", "144322.571000", "144324.571000", "144326.571000", "144328.570000", "144330.571000", "144332.572000", "144334.572000", "144336.572000", "144338.571000", "144340.570000", "144342.571000", "144344.570000", "144346.356000"],
      "InstanceCreationTime": ["143517.075000", "143518.571000", "143520.571000", "143522.572000", "143524.571000", "143526.572000", "143528.570000", "143530.570000", "143532.571000", "143534.570000", "143536.571000", "143538.571000", "143540.572000", "143542.572000", "143544.572000", "143546.571000", "143548.570000", "143550.571000", "143552.570000", "143554.570000", "143556.572000", "143558.572000", "143600.571000", "143602.570000", "143604.571000", "143606.570000", "143608.570000", "143610.571000", "143612.570000", "143614.572000", "143616.572000", "143618.571000", "143620.570000", "143622.570000", "143624.571000", "143626.570000", "143628.571000", "143630.571000", "143632.572000", "143634.571000", "143636.571000", "143638.571000", "143640.570000", "143642.570000", "143644.570000", "143646.570000", "143648.571000", "143650.572000", "143652.571000", "143654.571000", "143656.570000", "143658.570000", "143700.570000", "143702.570000", "143704.571000", "143706.571000", "143708.571000", "143710.571000", "143712.571000", "143714.570000", "143716.571000", "143718.571000", "143720.571000", "143722.571000", "143724.572000", "143726.571000", "143728.571000", "143730.571000", "143732.570000", "143734.570000", "143736.570000", "143738.571000", "143740.572000", "143742.571000", "143744.572000", "143746.571000", "143748.570000", "143750.570000", "143752.570000", "143754.571000", "143756.571000", "143758.571000", "143800.572000", "143802.571000", "143804.571000", "143806.571000", "143808.570000", "143810.571000", "143812.570000", "143814.571000", "143816.572000", "143818.571000", "143820.572000", "143822.571000", "143824.571000", "143826.570000", "143828.570000", "143830.570000", "143832.571000", "143834.572000", "143836.572000", "143838.571000", "143840.571000", "143842.570000", "143844.571000", "143846.570000", "143848.570000", "143850.571000", "143852.571000", "143854.572000", "143856.571000", "143858.570000", "143900.570000", "143902.570000", "143904.571000", "143906.571000", "143908.571000", "143910.572000", "143912.571000", "143914.571000", "143916.570000", "143918.571000", "143920.571000", "143922.570000", "143924.571000", "143926.572000", "143928.572000", "143930.572000", "143932.571000", "143934.570000", "143936.571000", "143938.571000", "143940.570000", "143942.570000", "143944.572000", "143946.572000", "143948.571000", "143950.571000", "143952.571000", "143954.571000", "143956.571000", "143958.570000", "144000.572000", "144002.571000", "144004.572000", "144006.572000", "144008.571000", "144010.571000", "144012.571000", "144014.571000", "144016.570000", "144018.572000", "144020.571000", "144022.571000", "144024.572000", "144026.570000", "144028.571000", "144030.570000", "144032.570000", "144034.571000", "144036.571000", "144038.571000", "144040.571000", "144042.570000", "144044.570000", "144046.571000", "144048.571000", "144050.571000", "144052.572000", "144054.572000", "144056.572000", "144058.572000", "144100.571000", "144102.571000", "144104.570000", "144106.571000", "144108.570000", "144110.571000", "144112.572000", "144114.571000", "144116.572000", "144118.571000", "144120.571000", "144122.570000", "144124.571000", "144126.570000", "144128.572000", "144130.571000", "144132.571000", "144134.571000", "144136.570000", "144138.570000", "144140.570000", "144142.571000", "144144.571000", "144146.572000", "144148.572000", "144150.571000", "144152.571000", "144154.570000", "144156.570000", "144158.571000", "144200.570000", "144202.571000", "144204.571000", "144206.572000", "144208.572000", "144210.570000", "144212.570000", "144214.571000", "144216.571000", "144218.571000", "144220.572000", "144222.571000", "144224.571000", "144226.572000", "144228.571000", "144230.571000", "144232.571000", "144234.571000", "144236.571000", "144238.571000", "144240.571000", "144242.571000", "144244.572000", "144246.571000", "144248.571000", "144250.570000", "144252.571000", "144254.570000", "144256.571000", "144258.572000", "144300.572000", "144302.570000", "144304.571000", "144306.571000", "144308.571000", "144310.571000", "144312.571000", "144314.572000", "144316.571000", "144318.571000", "144320.570000", "144322.571000", "144324.571000", "144326.571000", "144328.570000", "144330.571000", "144332.572000", "144334.572000", "144336.572000", "144338.571000", "144340.570000", "144342.571000", "144344.570000", "144346.356000"],
      "InstanceNumber": [1, 2, 3, 4, 5, 6, 7, 8, 9, 10, 11, 12, 13, 14, 15, 16, 17, 18, 19, 20, 21, 22, 23, 24, 25, 26, 27, 28, 29, 30, 31, 32, 33, 34, 35, 36, 37, 38, 39, 40, 41, 42, 43, 44, 45, 46, 47, 48, 49, 50, 51, 52, 53, 54, 55, 56, 57, 58, 59, 60, 61, 62, 63, 64, 65, 66, 67, 68, 69, 70, 71, 72, 73, 74, 75, 76, 77, 78, 79, 80, 81, 82, 83, 84, 85, 86, 87, 88, 89, 90, 91, 92, 93, 94, 95, 96, 97, 98, 99, 100, 101, 102, 103, 104, 105, 106, 107, 108, 109, 110, 111, 112, 113, 114, 115, 116, 117, 118, 119, 120, 121, 122, 123, 124, 125, 126, 127, 128, 129, 130, 131, 132, 133, 134, 135, 136, 137, 138, 139, 140, 141, 142, 143, 144, 145, 146, 147, 148, 149, 150, 151, 152, 153, 154, 155, 156, 157, 158, 159, 160, 161, 162, 163, 164, 165, 166, 167, 168, 169, 170, 171, 172, 173, 174, 175, 176, 177, 178, 179, 180, 181, 182, 183, 184, 185, 186, 187, 188, 189, 190, 191, 192, 193, 194, 195, 196, 197, 198, 199, 200, 201, 202, 203, 204, 205, 206, 207, 208, 209, 210, 211, 212, 213, 214, 215, 216, 217, 218, 219, 220, 221, 222, 223, 224, 225, 226, 227, 228, 229, 230, 231, 232, 233, 234, 235, 236, 237, 238, 239, 240, 241, 242, 243, 244, 245, 246, 247, 248, 249, 250, 251, 252, 253, 254, 255, 256],
      "WindowCenter": [873.0, 872.0, 874.0, 876.0, 877.0, 876.0, 874.0, 874.0, 874.0, 875.0, 875.0, 874.0, 874.0, 875.0, 875.0, 874.0, 873.0, 872.0, 872.0, 873.0, 873.0, 873.0, 872.0, 873.0, 873.0, 872.0, 871.0, 870.0, 871.0, 873.0, 873.0, 872.0, 872.0, 873.0, 873.0, 871.0, 871.0, 872.0, 873.0, 872.0, 871.0, 872.0, 873.0, 874.0, 872.0, 870.0, 870.0, 871.0, 872.0, 871.0, 870.0, 870.0, 872.0, 873.0, 873.0, 872.0, 871.0, 871.0, 872.0, 872.0, 871.0, 871.0, 873.0, 874.0, 873.0, 872.0, 872.0, 872.0, 872.0, 872.0, 872.0, 874.0, 874.0, 872.0, 872.0, 872.0, 872.0, 872.0, 871.0, 870.0, 870.0, 871.0, 872.0, 872.0, 871.0, 872.0, 873.0, 872.0, 871.0, 870.0, 871.0, 871.0, 871.0, 871.0, 870.0, 872.0, 874.0, 874.0, 871.0, 870.0, 870.0, 872.0, 873.0, 872.0, 872.0, 871.0, 871.0, 872.0, 873.0, 875.0, 874.0, 874.0, 873.0, 874.0, 875.0, 874.0, 872.0, 871.0, 872.0, 871.0, 871.0, 871.0, 871.0, 872.0, 872.0, 871.0, 872.0, 873.0, 872.0, 871.0, 871.0, 872.0, 873.0, 871.0, 871.0, 872.0, 873.0, 873.0, 874.0, 874.0, 873.0, 873.0, 875.0, 875.0, 875.0, 875.0, 875.0, 875.0, 874.0, 873.0, 874.0, 876.0, 875.0, 873.0, 873.0, 873.0, 873.0, 874.0, 875.0, 874.0, 872.0, 871.0, 872.0, 874.0, 874.0, 873.0, 872.0, 872.0, 872.0, 873.0, 873.0, 872.0, 872.0, 873.0, 873.0, 874.0, 876.0, 874.0, 872.0, 872.0, 871.0, 872.0, 871.0, 872.0, 873.0, 874.0, 873.0, 872.0, 871.0, 872.0, 872.0, 873.0, 873.0, 872.0, 872.0, 873.0, 873.0, 873.0, 875.0, 874.0, 872.0, 871.0, 873.0, 875.0, 875.0, 874.0, 873.0, 873.0, 874.0, 874.0, 873.0, 873.0, 873.0, 875.0, 876.0, 875.0, 874.0, 875.0, 875.0, 873.0, 872.0, 872.0, 872.0, 871.0, 871.0, 872.0, 872.0, 872.0, 873.0, 873.0, 873.0, 873.0, 874.0, 875.0, 874.0, 873.0, 872.0, 872.0, 872.0, 873.0, 873.0, 872.0, 872.0, 874.0, 874.0, 874.0, 873.0, 872.0, 873.0, 874.0, 874.0, 872.0, 872.0, 875.0, 876.0, 876.0],
      "WindowWidth": [1927.0, 1923.0, 1928.0, 1935.0, 1938.0, 1934.0, 1930.0, 1928.0, 1929.0, 1932.0, 1932.0, 1930.0, 1929.0, 1933.0, 1933.0, 1929.0, 1926.0, 1924.0, 1923.0, 1927.0, 1928.0, 1926.0, 1925.0, 1926.0, 1927.0, 1924.0, 1921.0, 1919.0, 1922.0, 1926.0, 1927.0, 1924.0, 1923.0, 1928.0, 1927.0, 1922.0, 1921.0, 1925.0, 1926.0, 1924.0, 1922.0, 1924.0, 1929.0, 1929.0, 1924.0, 1918.0, 1918.0, 1920.0, 1924.0, 1921.0, 1919.0, 1920.0, 1925.0, 1928.0, 1926.0, 1923.0, 1922.0, 1923.0, 1924.0, 1923.0, 1920.0, 1921.0, 1927.0, 1930.0, 1927.0, 1924.0, 1924.0, 1926.0, 1925.0, 1923.0, 1925.0, 1930.0, 1929.0, 1925.0, 1923.0, 1923.0, 1924.0, 1925.0, 1921.0, 1919.0, 1919.0, 1922.0, 1925.0, 1923.0, 1921.0, 1925.0, 1927.0, 1923.0, 1920.0, 1919.0, 1920.0, 1920.0, 1920.0, 1920.0, 1919.0, 1923.0, 1930.0, 1929.0, 1921.0, 1917.0, 1919.0, 1924.0, 1925.0, 1925.0, 1923.0, 1920.0, 1921.0, 1923.0, 1928.0, 1931.0, 1930.0, 1928.0, 1925.0, 1928.0, 1932.0, 1930.0, 1923.0, 1922.0, 1922.0, 1921.0, 1921.0, 1920.0, 1920.0, 1923.0, 1924.0, 1921.0, 1924.0, 1926.0, 1924.0, 1922.0, 1922.0, 1925.0, 1926.0, 1922.0, 1921.0, 1924.0, 1925.0, 1927.0, 1930.0, 1929.0, 1927.0, 1928.0, 1931.0, 1932.0, 1931.0, 1932.0, 1933.0, 1931.0, 1929.0, 1927.0, 1931.0, 1935.0, 1932.0, 1926.0, 1925.0, 1926.0, 1926.0, 1930.0, 1931.0, 1929.0, 1924.0, 1921.0, 1925.0, 1931.0, 1930.0, 1926.0, 1924.0, 1924.0, 1925.0, 1926.0, 1925.0, 1924.0, 1924.0, 1925.0, 1926.0, 1930.0, 1934.0, 1929.0, 1925.0, 1923.0, 1922.0, 1923.0, 1922.0, 1923.0, 1928.0, 1931.0, 1927.0, 1922.0, 1920.0, 1922.0, 1923.0, 1925.0, 1926.0, 1923.0, 1925.0, 1926.0, 1925.0, 1928.0, 1931.0, 1930.0, 1923.0, 1921.0, 1926.0, 1932.0, 1932.0, 1929.0, 1927.0, 1926.0, 1927.0, 1929.0, 1927.0, 1927.0, 1928.0, 1931.0, 1934.0, 1930.0, 1929.0, 1932.0, 1931.0, 1927.0, 1924.0, 1924.0, 1922.0, 1922.0, 1922.0, 1923.0, 1923.0, 1925.0, 1927.0, 1926.0, 1926.0, 1926.0, 1928.0, 1931.0, 1930.0, 1926.0, 1923.0, 1923.0, 1925.0, 1928.0, 1927.0, 1924.0, 1924.0, 1928.0, 1930.0, 1929.0, 1927.0, 1924.0, 1926.0, 1929.0, 1927.0, 1923.0, 1924.0, 1930.0, 1935.0, 1934.0]
    },
    "slices": {}
  }
}