{
  "AcquisitionMatrixPE": 100,
  "AcquisitionNumber": 1,
  "AcquisitionTime": "13:35:13.642500",
  "BandwidthPerPixelPhaseEncode": 18.519,
  "BaseResolution": 100,
  "BodyPartExamined": "BRAIN",
  "ConsistencyInfo": "N4_VE11C_LATEST_20160120",
  "ConversionSoftware": "dcm2niix",
  "ConversionSoftwareVersion": "v1.0.20180622 GCC4.9.2",
  "DerivedVendorReportedEchoSpacing": 0.000539986,
  "DeviceSerialNumber": "166078",
  "DwellTime": 2.1e-06,
  "EchoTime": 0.034,
  "EchoTrainLength": 100,
  "EffectiveEchoSpacing": 0.000539986,
  "FlipAngle": 90,
  "ImageOrientationPatientDICOM": [1, 0, 0, 0, 0.981293, -0.192522],
  "ImageType": [
    "ORIGINAL",
    "PRIMARY",
    "M",
    "ND",
    "MOSAIC"
],
  "InPlanePhaseEncodingDirectionDICOM": "COL",
  "InstitutionAddress": "Street_StreetNo_Bei_Jing_District_CN_ZIP",
  "InstitutionName": "BeiJing_Normal_University",
  "InstitutionalDepartmentName": "Department",
  "MRAcquisitionType": "2D",
  "MagneticFieldStrength": 3,
  "Manufacturer": "Siemens",
  "ManufacturersModelName": "Prisma",
  "Modality": "MR",
  "MultibandAccelerationFactor": 3,
  "PartialFourier": 1,
  "PatientPosition": "HFS",
  "PercentPhaseFOV": 100,
  "PhaseEncodingDirection": "j-",
  "PhaseEncodingSteps": 100,
  "PhaseResolution": 1,
  "PixelBandwidth": 2380,
  "ProcedureStepDescription": "BNU_P2018_64CH_Zhen.ZongLei",
  "ProtocolName": "bold_100x100_s3_2x2x2_static_256",
  "PulseSequenceDetails": "%SiemensSeq%_ep2d_bold",
  "ReceiveCoilActiveElements": "HC1-7;NC1",
  "ReceiveCoilName": "HeadNeck_64",
  "ReconMatrixPE": 100,
  "RepetitionTime": 2,
  "SAR": 0.0728372,
  "ScanOptions": "FS",
  "ScanningSequence": "EP",
  "SequenceName": "_epfid2d1_100",
  "SequenceVariant": "SK",
  "SeriesDescription": "bold_100x100_s3_2x2x2_static_256",
  "SeriesNumber": 5,
  "ShimSetting": [-5463, -11482, -1288, 326, 36, -205, -159, 48],
  "SliceThickness": 2,
  "SliceTiming": [1.485, 0, 0.99, 0.0825, 1.0725, 0.165, 1.155, 0.2475, 1.2375, 0.33, 1.32, 0.4125, 1.4025, 0.5775, 1.5675, 0.66, 1.65, 0.7425, 1.7325, 0.825, 1.815, 0.9075, 1.8975, 0.495, 1.485, 0, 0.99, 0.0825, 1.0725, 0.165, 1.155, 0.2475, 1.2375, 0.33, 1.32, 0.4125, 1.4025, 0.5775, 1.5675, 0.66, 1.65, 0.7425, 1.7325, 0.825, 1.815, 0.9075, 1.8975, 0.495, 1.485, 0, 0.99, 0.0825, 1.0725, 0.165, 1.155, 0.2475, 1.2375, 0.33, 1.32, 0.4125, 1.4025, 0.5775, 1.5675, 0.66, 1.65, 0.7425, 1.7325, 0.825, 1.815, 0.9075, 1.8975, 0.495],
  "SoftwareVersions": "syngo_MR_E11",
  "SpacingBetweenSlices": 2,
  "StationName": "AWP166078",
  "TaskName": "naturalvision",
  "TotalReadoutTime": 0.0534586,
  "TxRefAmp": 208.17,
  "dcmmeta_affine": [
    [-2.0, 0.0, 0.0, 102.03389739990234],
    [0.0, 1.9625853300094604, -0.3850439488887787, -83.61626434326172],
    [0.0, 0.3850439488887787, 1.9625853300094604, -83.58009338378906],
    [0.0, 0.0, 0.0, 1.0]
],
  "dcmmeta_reorient_transform": [
    [0.0, -1.0, 0.0, 99.0],
    [1.0, 0.0, 0.0, 0.0],
    [0.0, 0.0, 1.0, 0.0],
    [0.0, 0.0, 0.0, 1.0]
],
  "dcmmeta_shape": [100, 100, 72, 256],
  "dcmmeta_slice_dim": 2,
  "dcmmeta_version": 0.6,
  "global": {
    "const": {
      "AcquisitionMatrix": [100, 0, 0, 100],
      "AngioFlag": "N",
      "BitsAllocated": 16,
      "BitsStored": 12,
      "BodyPartExamined": "BRAIN",
      "Columns": 900,
      "EchoNumbers": 1,
      "EchoTime": 34.0,
      "EchoTrainLength": 100,
      "FlipAngle": 90.0,
      "HighBit": 11,
      "ImageOrientationPatient": [1.0, 0.0, 0.0, 0.0, 0.98129266330938, -0.1925219700065],
      "ImagePositionPatient": [-902.03389835358, -895.71381297118, 108.55682897507],
      "ImageType": [
        "ORIGINAL",
        "PRIMARY",
        "M",
        "ND",
        "MOSAIC"
],
      "ImagedNucleus": "1H",
      "ImagingFrequency": 123.257714,
      "InPlanePhaseEncodingDirection": "COL",
      "MRAcquisitionType": "2D",
      "MagneticFieldStrength": 3.0,
      "Manufacturer": "SIEMENS",
      "ManufacturerModelName": "Prisma",
      "Modality": "MR",
      "NumberOfAverages": 1.0,
      "NumberOfPhaseEncodingSteps": 100,
      "PercentPhaseFieldOfView": 100.0,
      "PercentSampling": 100.0,
      "PerformedProcedureStepStartTime": "130455.886000",
      "PhotometricInterpretation": "MONOCHROME2",
      "PixelBandwidth": 2380.0,
      "PixelRepresentation": 0,
      "PixelSpacing": [2.0, 2.0],
      "ProtocolName": "bold_100x100_s3_2x2x2_static_256",
      "RepetitionTime": 2000.0,
      "Rows": 900,
      "SAR": 0.07283716184881,
      "SamplesPerPixel": 1,
      "ScanOptions": "FS",
      "ScanningSequence": "EP",
      "SequenceName": "*epfid2d1_100",
      "SequenceVariant": "SK",
      "SeriesDescription": "bold_100x100_s3_2x2x2_static_256",
      "SeriesNumber": 5,
      "SeriesTime": "133516.386000",
      "SliceLocation": -65.91856800986,
      "SliceThickness": 2.0,
      "SmallestImagePixelValue": 0,
      "SoftwareVersions": "syngo MR E11",
      "SpacingBetweenSlices": 2.0000000142257,
      "SpecificCharacterSet": "ISO_IR 100",
      "StudyID": "1",
      "StudyTime": "130455.795000",
      "TransmitCoilName": "Body",
      "VariableFlipAngleFlag": "N",
      "WindowCenterWidthExplanation": "Algo1",
      "dBdt": 0.0},
    "slices": {}
  },
  "time": {
    "samples": {
      "AcquisitionNumber": [1, 2, 3, 4, 5, 6, 7, 8, 9, 10, 11, 12, 13, 14, 15, 16, 17, 18, 19, 20, 21, 22, 23, 24, 25, 26, 27, 28, 29, 30, 31, 32, 33, 34, 35, 36, 37, 38, 39, 40, 41, 42, 43, 44, 45, 46, 47, 48, 49, 50, 51, 52, 53, 54, 55, 56, 57, 58, 59, 60, 61, 62, 63, 64, 65, 66, 67, 68, 69, 70, 71, 72, 73, 74, 75, 76, 77, 78, 79, 80, 81, 82, 83, 84, 85, 86, 87, 88, 89, 90, 91, 92, 93, 94, 95, 96, 97, 98, 99, 100, 101, 102, 103, 104, 105, 106, 107, 108, 109, 110, 111, 112, 113, 114, 115, 116, 117, 118, 119, 120, 121, 122, 123, 124, 125, 126, 127, 128, 129, 130, 131, 132, 133, 134, 135, 136, 137, 138, 139, 140, 141, 142, 143, 144, 145, 146, 147, 148, 149, 150, 151, 152, 153, 154, 155, 156, 157, 158, 159, 160, 161, 162, 163, 164, 165, 166, 167, 168, 169, 170, 171, 172, 173, 174, 175, 176, 177, 178, 179, 180, 181, 182, 183, 184, 185, 186, 187, 188, 189, 190, 191, 192, 193, 194, 195, 196, 197, 198, 199, 200, 201, 202, 203, 204, 205, 206, 207, 208, 209, 210, 211, 212, 213, 214, 215, 216, 217, 218, 219, 220, 221, 222, 223, 224, 225, 226, 227, 228, 229, 230, 231, 232, 233, 234, 235, 236, 237, 238, 239, 240, 241, 242, 243, 244, 245, 246, 247, 248, 249, 250, 251, 252, 253, 254, 255, 256],
      "AcquisitionTime": ["133513.642500", "133515.642500", "133517.642500", "133519.642500", "133521.642500", "133523.642500", "133525.642500", "133527.642500", "133529.642500", "133531.642500", "133533.642500", "133535.642500", "133537.642500", "133539.642500", "133541.642500", "133543.642500", "133545.642500", "133547.642500", "133549.642500", "133551.642500", "133553.642500", "133555.642500", "133557.642500", "133559.642500", "133601.642500", "133603.642500", "133605.642500", "133607.642500", "133609.642500", "133611.642500", "133613.642500", "133615.642500", "133617.642500", "133619.642500", "133621.642500", "133623.642500", "133625.642500", "133627.642500", "133629.642500", "133631.642500", "133633.642500", "133635.642500", "133637.642500", "133639.642500", "133641.642500", "133643.642500", "133645.642500", "133647.642500", "133649.642500", "133651.642500", "133653.642500", "133655.642500", "133657.642500", "133659.642500", "133701.642500", "133703.642500", "133705.642500", "133707.642500", "133709.642500", "133711.642500", "133713.642500", "133715.642500", "133717.642500", "133719.642500", "133721.642500", "133723.642500", "133725.642500", "133727.642500", "133729.642500", "133731.642500", "133733.642500", "133735.642500", "133737.642500", "133739.642500", "133741.642500", "133743.642500", "133745.642500", "133747.642500", "133749.642500", "133751.642500", "133753.642500", "133755.642500", "133757.642500", "133759.642500", "133801.642500", "133803.642500", "133805.642500", "133807.642500", "133809.642500", "133811.642500", "133813.642500", "133815.642500", "133817.642500", "133819.642500", "133821.642500", "133823.642500", "133825.642500", "133827.642500", "133829.642500", "133831.642500", "133833.642500", "133835.642500", "133837.642500", "133839.642500", "133841.642500", "133843.642500", "133845.642500", "133847.642500", "133849.642500", "133851.642500", "133853.642500", "133855.642500", "133857.642500", "133859.642500", "133901.642500", "133903.642500", "133905.642500", "133907.642500", "133909.642500", "133911.642500", "133913.642500", "133915.642500", "133917.642500", "133919.642500", "133921.642500", "133923.642500", "133925.642500", "133927.642500", "133929.642500", "133931.642500", "133933.642500", "133935.642500", "133937.642500", "133939.642500", "133941.642500", "133943.642500", "133945.642500", "133947.642500", "133949.642500", "133951.642500", "133953.642500", "133955.642500", "133957.642500", "133959.642500", "134001.642500", "134003.642500", "134005.642500", "134007.642500", "134009.642500", "134011.642500", "134013.642500", "134015.642500", "134017.642500", "134019.642500", "134021.642500", "134023.642500", "134025.642500", "134027.642500", "134029.642500", "134031.642500", "134033.642500", "134035.642500", "134037.642500", "134039.642500", "134041.642500", "134043.642500", "134045.642500", "134047.642500", "134049.642500", "134051.642500", "134053.642500", "134055.642500", "134057.642500", "134059.642500", "134101.642500", "134103.642500", "134105.642500", "134107.642500", "134109.642500", "134111.642500", "134113.642500", "134115.642500", "134117.642500", "134119.642500", "134121.642500", "134123.642500", "134125.642500", "134127.642500", "134129.642500", "134131.642500", "134133.642500", "134135.642500", "134137.642500", "134139.642500", "134141.642500", "134143.642500", "134145.642500", "134147.642500", "134149.642500", "134151.642500", "134153.642500", "134155.642500", "134157.642500", "134159.642500", "134201.642500", "134203.642500", "134205.642500", "134207.642500", "134209.642500", "134211.642500", "134213.642500", "134215.642500", "134217.642500", "134219.642500", "134221.642500", "134223.642500", "134225.642500", "134227.642500", "134229.642500", "134231.642500", "134233.642500", "134235.642500", "134237.642500", "134239.642500", "134241.642500", "134243.642500", "134245.642500", "134247.642500", "134249.642500", "134251.642500", "134253.642500", "134255.642500", "134257.642500", "134259.642500", "134301.642500", "134303.642500", "134305.642500", "134307.642500", "134309.642500", "134311.642500", "134313.642500", "134315.642500", "134317.642500", "134319.642500", "134321.642500", "134323.642500", "134325.642500", "134327.642500", "134329.642500", "134331.642500", "134333.642500", "134335.642500", "134337.642500", "134339.642500", "134341.642500", "134343.642500"],
      "ContentTime": ["133516.389000", "133517.885000", "133519.885000", "133521.884000", "133523.884000", "133525.884000", "133527.884000", "133529.884000", "133531.883000", "133533.884000", "133535.885000", "133537.885000", "133539.885000", "133541.885000", "133543.885000", "133545.885000", "133547.884000", "133549.884000", "133551.884000", "133553.885000", "133555.885000", "133557.884000", "133559.885000", "133601.885000", "133603.885000", "133605.883000", "133607.884000", "133609.885000", "133611.885000", "133613.885000", "133615.884000", "133617.885000", "133619.885000", "133621.885000", "133623.884000", "133625.885000", "133627.884000", "133629.884000", "133631.885000", "133633.885000", "133635.885000", "133637.885000", "133639.884000", "133641.884000", "133643.885000", "133645.884000", "133647.884000", "133649.885000", "133651.884000", "133653.885000", "133655.885000", "133657.884000", "133659.883000", "133701.885000", "133703.885000", "133705.884000", "133707.885000", "133709.885000", "133711.884000", "133713.885000", "133715.884000", "133717.885000", "133719.885000", "133721.885000", "133723.885000", "133725.885000", "133727.885000", "133729.885000", "133731.884000", "133733.884000", "133735.884000", "133737.884000", "133739.884000", "133741.885000", "133743.884000", "133745.884000", "133747.885000", "133749.884000", "133751.883000", "133753.884000", "133755.885000", "133757.885000", "133759.885000", "133801.885000", "133803.885000", "133805.885000", "133807.885000", "133809.883000", "133811.885000", "133813.885000", "133815.884000", "133817.885000", "133819.885000", "133821.884000", "133823.885000", "133825.884000", "133827.885000", "133829.884000", "133831.885000", "133833.885000", "133835.885000", "133837.885000", "133839.884000", "133841.884000", "133843.883000", "133845.884000", "133847.885000", "133849.885000", "133851.884000", "133853.885000", "133855.885000", "133857.885000", "133859.885000", "133901.884000", "133903.885000", "133905.885000", "133907.885000", "133909.884000", "133911.885000", "133913.886000", "133915.886000", "133917.885000", "133919.883000", "133921.885000", "133923.884000", "133925.884000", "133927.885000", "133929.885000", "133931.885000", "133933.885000", "133935.883000", "133937.885000", "133939.884000", "133941.884000", "133943.885000", "133945.885000", "133947.884000", "133949.884000", "133951.884000", "133953.884000", "133955.885000", "133957.885000", "133959.885000", "134001.899000", "134003.885000", "134005.885000", "134007.885000", "134009.884000", "134011.883000", "134013.885000", "134015.884000", "134017.885000", "134019.885000", "134021.884000", "134023.885000", "134025.885000", "134027.884000", "134029.884000", "134031.885000", "134033.885000", "134035.885000", "134037.885000", "134039.884000", "134041.884000", "134043.884000", "134045.884000", "134047.885000", "134049.885000", "134051.885000", "134053.884000", "134055.885000", "134057.885000", "134059.885000", "134101.884000", "134103.884000", "134105.885000", "134107.885000", "134109.884000", "134111.885000", "134113.885000", "134115.884000", "134117.885000", "134119.885000", "134121.883000", "134123.884000", "134125.884000", "134127.884000", "134129.884000", "134131.885000", "134133.885000", "134135.885000", "134137.885000", "134139.884000", "134141.884000", "134143.885000", "134145.884000", "134147.885000", "134149.885000", "134151.884000", "134153.885000", "134155.884000", "134157.885000", "134159.884000", "134201.885000", "134203.885000", "134205.884000", "134207.884000", "134209.885000", "134211.885000", "134213.883000", "134215.885000", "134217.885000", "134219.884000", "134221.884000", "134223.885000", "134225.885000", "134227.884000", "134229.885000", "134231.883000", "134233.885000", "134235.885000", "134237.885000", "134239.884000", "134241.884000", "134243.885000", "134245.885000", "134247.885000", "134249.883000", "134251.885000", "134253.885000", "134255.885000", "134257.885000", "134259.885000", "134301.885000", "134303.885000", "134305.884000", "134307.885000", "134309.885000", "134311.884000", "134313.884000", "134315.885000", "134317.885000", "134319.885000", "134321.885000", "134323.884000", "134325.885000", "134327.884000", "134329.885000", "134331.885000", "134333.885000", "134335.885000", "134337.885000", "134339.885000", "134341.883000", "134343.885000", "134345.601000"],
      "InstanceCreationTime": ["133516.389000", "133517.885000", "133519.885000", "133521.884000", "133523.884000", "133525.884000", "133527.884000", "133529.884000", "133531.883000", "133533.884000", "133535.885000", "133537.885000", "133539.885000", "133541.885000", "133543.885000", "133545.885000", "133547.884000", "133549.884000", "133551.884000", "133553.885000", "133555.885000", "133557.884000", "133559.885000", "133601.885000", "133603.885000", "133605.883000", "133607.884000", "133609.885000", "133611.885000", "133613.885000", "133615.884000", "133617.885000", "133619.885000", "133621.885000", "133623.884000", "133625.885000", "133627.884000", "133629.884000", "133631.885000", "133633.885000", "133635.885000", "133637.885000", "133639.884000", "133641.884000", "133643.885000", "133645.884000", "133647.884000", "133649.885000", "133651.884000", "133653.885000", "133655.885000", "133657.884000", "133659.883000", "133701.885000", "133703.885000", "133705.884000", "133707.885000", "133709.885000", "133711.884000", "133713.885000", "133715.884000", "133717.885000", "133719.885000", "133721.885000", "133723.885000", "133725.885000", "133727.885000", "133729.885000", "133731.884000", "133733.884000", "133735.884000", "133737.884000", "133739.884000", "133741.885000", "133743.884000", "133745.884000", "133747.885000", "133749.884000", "133751.883000", "133753.884000", "133755.885000", "133757.885000", "133759.885000", "133801.885000", "133803.885000", "133805.885000", "133807.885000", "133809.883000", "133811.885000", "133813.885000", "133815.884000", "133817.885000", "133819.885000", "133821.884000", "133823.885000", "133825.884000", "133827.885000", "133829.884000", "133831.885000", "133833.885000", "133835.885000", "133837.885000", "133839.884000", "133841.884000", "133843.883000", "133845.884000", "133847.885000", "133849.885000", "133851.884000", "133853.885000", "133855.885000", "133857.885000", "133859.885000", "133901.884000", "133903.885000", "133905.885000", "133907.885000", "133909.884000", "133911.885000", "133913.886000", "133915.886000", "133917.885000", "133919.883000", "133921.885000", "133923.884000", "133925.884000", "133927.885000", "133929.885000", "133931.885000", "133933.885000", "133935.883000", "133937.885000", "133939.884000", "133941.884000", "133943.885000", "133945.885000", "133947.884000", "133949.884000", "133951.884000", "133953.884000", "133955.885000", "133957.885000", "133959.885000", "134001.899000", "134003.885000", "134005.885000", "134007.885000", "134009.884000", "134011.883000", "134013.885000", "134015.884000", "134017.885000", "134019.885000", "134021.884000", "134023.885000", "134025.885000", "134027.884000", "134029.884000", "134031.885000", "134033.885000", "134035.885000", "134037.885000", "134039.884000", "134041.884000", "134043.884000", "134045.884000", "134047.885000", "134049.885000", "134051.885000", "134053.884000", "134055.885000", "134057.885000", "134059.885000", "134101.884000", "134103.884000", "134105.885000", "134107.885000", "134109.884000", "134111.885000", "134113.885000", "134115.884000", "134117.885000", "134119.885000", "134121.883000", "134123.884000", "134125.884000", "134127.884000", "134129.884000", "134131.885000", "134133.885000", "134135.885000", "134137.885000", "134139.884000", "134141.884000", "134143.885000", "134145.884000", "134147.885000", "134149.885000", "134151.884000", "134153.885000", "134155.884000", "134157.885000", "134159.884000", "134201.885000", "134203.885000", "134205.884000", "134207.884000", "134209.885000", "134211.885000", "134213.883000", "134215.885000", "134217.885000", "134219.884000", "134221.884000", "134223.885000", "134225.885000", "134227.884000", "134229.885000", "134231.883000", "134233.885000", "134235.885000", "134237.885000", "134239.884000", "134241.884000", "134243.885000", "134245.885000", "134247.885000", "134249.883000", "134251.885000", "134253.885000", "134255.885000", "134257.885000", "134259.885000", "134301.885000", "134303.885000", "134305.884000", "134307.885000", "134309.885000", "134311.884000", "134313.884000", "134315.885000", "134317.885000", "134319.885000", "134321.885000", "134323.884000", "134325.885000", "134327.884000", "134329.885000", "134331.885000", "134333.885000", "134335.885000", "134337.885000", "134339.885000", "134341.883000", "134343.885000", "134345.601000"],
      "InstanceNumber": [1, 2, 3, 4, 5, 6, 7, 8, 9, 10, 11, 12, 13, 14, 15, 16, 17, 18, 19, 20, 21, 22, 23, 24, 25, 26, 27, 28, 29, 30, 31, 32, 33, 34, 35, 36, 37, 38, 39, 40, 41, 42, 43, 44, 45, 46, 47, 48, 49, 50, 51, 52, 53, 54, 55, 56, 57, 58, 59, 60, 61, 62, 63, 64, 65, 66, 67, 68, 69, 70, 71, 72, 73, 74, 75, 76, 77, 78, 79, 80, 81, 82, 83, 84, 85, 86, 87, 88, 89, 90, 91, 92, 93, 94, 95, 96, 97, 98, 99, 100, 101, 102, 103, 104, 105, 106, 107, 108, 109, 110, 111, 112, 113, 114, 115, 116, 117, 118, 119, 120, 121, 122, 123, 124, 125, 126, 127, 128, 129, 130, 131, 132, 133, 134, 135, 136, 137, 138, 139, 140, 141, 142, 143, 144, 145, 146, 147, 148, 149, 150, 151, 152, 153, 154, 155, 156, 157, 158, 159, 160, 161, 162, 163, 164, 165, 166, 167, 168, 169, 170, 171, 172, 173, 174, 175, 176, 177, 178, 179, 180, 181, 182, 183, 184, 185, 186, 187, 188, 189, 190, 191, 192, 193, 194, 195, 196, 197, 198, 199, 200, 201, 202, 203, 204, 205, 206, 207, 208, 209, 210, 211, 212, 213, 214, 215, 216, 217, 218, 219, 220, 221, 222, 223, 224, 225, 226, 227, 228, 229, 230, 231, 232, 233, 234, 235, 236, 237, 238, 239, 240, 241, 242, 243, 244, 245, 246, 247, 248, 249, 250, 251, 252, 253, 254, 255, 256],
      "LargestImagePixelValue": [3893, 3812, 3789, 3812, 3803, 3795, 3831, 3787, 3805, 3764, 3788, 3829, 3806, 3832, 3827, 3816, 3781, 3817, 3793, 3824, 3793, 3819, 3816, 3793, 3801, 3794, 3782, 3842, 3804, 3827, 3787, 3826, 3806, 3838, 3802, 3823, 3796, 3814, 3781, 3798, 3804, 3818, 3812, 3828, 3816, 3837, 3803, 3836, 3806, 3806, 3803, 3807, 3813, 3823, 3828, 3811, 3811, 3813, 3797, 3804, 3781, 3803, 3832, 3813, 3828, 3817, 3793, 3809, 3835, 3822, 3804, 3831, 3800, 3796, 3812, 3800, 3800, 3826, 3821, 3818, 3798, 3798, 3822, 3835, 3811, 3832, 3798, 3828, 3842, 3820, 3851, 3808, 3825, 3830, 3817, 3823, 3825, 3860, 3823, 3817, 3833, 3870, 3844, 3822, 3838, 3836, 3834, 3824, 3802, 3836, 3825, 3860, 3819, 3832, 3844, 3812, 3864, 3812, 3818, 3833, 3845, 3825, 3840, 3828, 3847, 3825, 3825, 3837, 3823, 3833, 3842, 3823, 3846, 3856, 3847, 3840, 3852, 3867, 3898, 3859, 3888, 3896, 3866, 3852, 3849, 3829, 3861, 3829, 3841, 3862, 3851, 3843, 3843, 3867, 3901, 3876, 3855, 3860, 3879, 3872, 3891, 3841, 3843, 3865, 3865, 3842, 3870, 3830, 3862, 3910, 3887, 3852, 3906, 3915, 3879, 3854, 3856, 3854, 3871, 3863, 3851, 3820, 3853, 3864, 3854, 3892, 3857, 3861, 3872, 3883, 3875, 3876, 3858, 3857, 3874, 3868, 3894, 3883, 3879, 3832, 3880, 3844, 3871, 3837, 3901, 3840, 3843, 3875, 3890, 3858, 3876, 3884, 3847, 3872, 3858, 3874, 3852, 3862, 3859, 3852, 3856, 3895, 3871, 3851, 3857, 3857, 3868, 3859, 3847, 3846, 3854, 3857, 3909, 3881, 3881, 3889, 3871, 3870, 3831, 3856, 3863, 3872, 3873, 3832, 3874, 3890, 3877, 3885, 3862, 3865, 3846, 3869, 3893, 3878, 3874, 3874],
      "WindowCenter": [808.0, 808.0, 808.0, 808.0, 808.0, 808.0, 808.0, 808.0, 809.0, 808.0, 807.0, 808.0, 808.0, 809.0, 808.0, 808.0, 808.0, 808.0, 808.0, 808.0, 807.0, 807.0, 808.0, 807.0, 807.0, 807.0, 806.0, 806.0, 806.0, 806.0, 806.0, 806.0, 806.0, 805.0, 806.0, 806.0, 805.0, 805.0, 805.0, 806.0, 806.0, 806.0, 806.0, 806.0, 804.0, 804.0, 805.0, 806.0, 806.0, 806.0, 805.0, 806.0, 806.0, 805.0, 805.0, 805.0, 804.0, 804.0, 804.0, 804.0, 804.0, 805.0, 806.0, 806.0, 806.0, 806.0, 806.0, 806.0, 805.0, 805.0, 806.0, 806.0, 806.0, 805.0, 805.0, 805.0, 805.0, 805.0, 805.0, 804.0, 804.0, 805.0, 805.0, 806.0, 807.0, 807.0, 807.0, 807.0, 807.0, 807.0, 809.0, 809.0, 807.0, 807.0, 806.0, 807.0, 807.0, 808.0, 807.0, 808.0, 808.0, 807.0, 807.0, 806.0, 806.0, 806.0, 806.0, 806.0, 806.0, 807.0, 806.0, 807.0, 806.0, 806.0, 805.0, 805.0, 805.0, 806.0, 806.0, 806.0, 806.0, 806.0, 806.0, 807.0, 809.0, 809.0, 808.0, 807.0, 806.0, 807.0, 808.0, 808.0, 808.0, 808.0, 807.0, 807.0, 807.0, 808.0, 808.0, 809.0, 809.0, 811.0, 812.0, 810.0, 807.0, 806.0, 806.0, 806.0, 807.0, 808.0, 808.0, 808.0, 808.0, 809.0, 811.0, 809.0, 808.0, 807.0, 807.0, 809.0, 810.0, 809.0, 809.0, 808.0, 806.0, 806.0, 807.0, 806.0, 806.0, 807.0, 808.0, 808.0, 810.0, 812.0, 811.0, 808.0, 807.0, 806.0, 806.0, 807.0, 806.0, 806.0, 806.0, 808.0, 808.0, 807.0, 806.0, 807.0, 808.0, 810.0, 810.0, 808.0, 807.0, 808.0, 807.0, 809.0, 812.0, 812.0, 810.0, 808.0, 808.0, 808.0, 808.0, 807.0, 808.0, 808.0, 808.0, 810.0, 809.0, 807.0, 808.0, 808.0, 808.0, 810.0, 810.0, 809.0, 807.0, 806.0, 806.0, 807.0, 808.0, 809.0, 809.0, 808.0, 807.0, 807.0, 808.0, 808.0, 807.0, 806.0, 807.0, 807.0, 809.0, 812.0, 811.0, 809.0, 807.0, 806.0, 805.0, 805.0, 806.0, 806.0, 807.0, 808.0, 808.0, 810.0, 809.0, 808.0, 807.0, 808.0, 808.0, 810.0, 811.0, 808.0, 807.0, 806.0],
      "WindowWidth": [1776.0, 1774.0, 1774.0, 1775.0, 1775.0, 1776.0, 1776.0, 1777.0, 1777.0, 1774.0, 1772.0, 1775.0, 1777.0, 1778.0, 1777.0, 1775.0, 1775.0, 1774.0, 1775.0, 1775.0, 1773.0, 1773.0, 1775.0, 1773.0, 1773.0, 1773.0, 1770.0, 1770.0, 1769.0, 1770.0, 1771.0, 1771.0, 1769.0, 1768.0, 1770.0, 1769.0, 1768.0, 1767.0, 1766.0, 1769.0, 1770.0, 1772.0, 1771.0, 1769.0, 1765.0, 1766.0, 1767.0, 1771.0, 1769.0, 1770.0, 1768.0, 1769.0, 1769.0, 1768.0, 1767.0, 1767.0, 1765.0, 1764.0, 1763.0, 1763.0, 1763.0, 1766.0, 1769.0, 1769.0, 1771.0, 1772.0, 1771.0, 1769.0, 1767.0, 1768.0, 1769.0, 1771.0, 1769.0, 1768.0, 1768.0, 1768.0, 1766.0, 1767.0, 1767.0, 1764.0, 1765.0, 1767.0, 1768.0, 1770.0, 1773.0, 1774.0, 1772.0, 1772.0, 1774.0, 1775.0, 1778.0, 1779.0, 1774.0, 1772.0, 1770.0, 1774.0, 1774.0, 1775.0, 1774.0, 1775.0, 1776.0, 1775.0, 1774.0, 1771.0, 1769.0, 1769.0, 1769.0, 1769.0, 1771.0, 1774.0, 1771.0, 1772.0, 1769.0, 1770.0, 1768.0, 1766.0, 1769.0, 1770.0, 1770.0, 1769.0, 1772.0, 1769.0, 1772.0, 1775.0, 1779.0, 1779.0, 1775.0, 1772.0, 1769.0, 1772.0, 1776.0, 1777.0, 1775.0, 1777.0, 1774.0, 1772.0, 1772.0, 1775.0, 1777.0, 1778.0, 1780.0, 1787.0, 1788.0, 1782.0, 1773.0, 1768.0, 1770.0, 1770.0, 1773.0, 1774.0, 1776.0, 1775.0, 1775.0, 1780.0, 1784.0, 1780.0, 1775.0, 1773.0, 1774.0, 1778.0, 1783.0, 1780.0, 1778.0, 1775.0, 1770.0, 1770.0, 1773.0, 1769.0, 1770.0, 1773.0, 1775.0, 1776.0, 1783.0, 1789.0, 1786.0, 1776.0, 1772.0, 1770.0, 1771.0, 1771.0, 1770.0, 1770.0, 1771.0, 1775.0, 1775.0, 1772.0, 1770.0, 1773.0, 1776.0, 1782.0, 1781.0, 1777.0, 1773.0, 1774.0, 1775.0, 1779.0, 1787.0, 1787.0, 1780.0, 1775.0, 1776.0, 1776.0, 1775.0, 1772.0, 1775.0, 1775.0, 1777.0, 1781.0, 1778.0, 1774.0, 1774.0, 1775.0, 1777.0, 1783.0, 1783.0, 1779.0, 1773.0, 1771.0, 1770.0, 1772.0, 1775.0, 1780.0, 1779.0, 1775.0, 1773.0, 1773.0, 1777.0, 1777.0, 1772.0, 1770.0, 1772.0, 1773.0, 1780.0, 1788.0, 1786.0, 1778.0, 1771.0, 1769.0, 1768.0, 1767.0, 1771.0, 1771.0, 1774.0, 1775.0, 1776.0, 1781.0, 1779.0, 1775.0, 1772.0, 1774.0, 1777.0, 1782.0, 1784.0, 1777.0, 1772.0, 1770.0]
    },
    "slices": {}
  }
}