{
 "AcquisitionMatrixPE": 100,
 "AcquisitionNumber": 1,
 "AcquisitionTime": "14:25:26.255000",
 "BandwidthPerPixelPhaseEncode": 18.519,
 "BaseResolution": 100,
 "BodyPartExamined": "BRAIN",
 "ConsistencyInfo": "N4_VE11C_LATEST_20160120",
 "ConversionSoftware": "dcm2niix",
 "ConversionSoftwareVersion": "v1.0.20180622 GCC4.9.2",
 "DerivedVendorReportedEchoSpacing": 0.000539986,
 "DeviceSerialNumber": "166078",
 "DwellTime": 2.1e-06,
 "EchoTime": 0.034,
 "EchoTrainLength": 100,
 "EffectiveEchoSpacing": 0.000539986,
 "FlipAngle": 90,
 "ImageOrientationPatientDICOM": [
  1,
  0,
  0,
  0,
  0.981293,
  -0.192522
 ],
 "ImageType": [
  "ORIGINAL",
  "PRIMARY",
  "M",
  "ND",
  "MOSAIC"
 ],
 "InPlanePhaseEncodingDirectionDICOM": "COL",
 "InstitutionAddress": "Street_StreetNo_Bei_Jing_District_CN_ZIP",
 "InstitutionName": "BeiJing_Normal_University",
 "InstitutionalDepartmentName": "Department",
 "MRAcquisitionType": "2D",
 "MagneticFieldStrength": 3,
 "Manufacturer": "Siemens",
 "ManufacturersModelName": "Prisma",
 "Modality": "MR",
 "MultibandAccelerationFactor": 3,
 "PartialFourier": 1,
 "PatientPosition": "HFS",
 "PercentPhaseFOV": 100,
 "PhaseEncodingDirection": "j-",
 "PhaseEncodingSteps": 100,
 "PhaseResolution": 1,
 "PixelBandwidth": 2380,
 "ProcedureStepDescription": "BNU_P2018_64CH_Zhen.ZongLei",
 "ProtocolName": "bold_100x100_s3_2x2x2_static_256",
 "PulseSequenceDetails": "%SiemensSeq%_ep2d_bold",
 "ReceiveCoilActiveElements": "HC1-7;NC1",
 "ReceiveCoilName": "HeadNeck_64",
 "ReconMatrixPE": 100,
 "RepetitionTime": 2,
 "SAR": 0.0728372,
 "ScanOptions": "FS",
 "ScanningSequence": "EP",
 "SequenceName": "_epfid2d1_100",
 "SequenceVariant": "SK",
 "SeriesDescription": "bold_100x100_s3_2x2x2_static_256",
 "SeriesNumber": 12,
 "ShimSetting": [
  -5463,
  -11482,
  -1288,
  326,
  36,
  -205,
  -159,
  48
 ],
 "SliceThickness": 2,
 "SliceTiming": [
  1.485,
  0,
  0.99,
  0.0825,
  1.0725,
  0.165,
  1.155,
  0.2475,
  1.2375,
  0.33,
  1.32,
  0.4125,
  1.4025,
  0.5775,
  1.5675,
  0.66,
  1.65,
  0.7425,
  1.7325,
  0.825,
  1.815,
  0.9075,
  1.8975,
  0.495,
  1.485,
  0,
  0.99,
  0.0825,
  1.0725,
  0.165,
  1.155,
  0.2475,
  1.2375,
  0.33,
  1.32,
  0.4125,
  1.4025,
  0.5775,
  1.5675,
  0.66,
  1.65,
  0.7425,
  1.7325,
  0.825,
  1.815,
  0.9075,
  1.8975,
  0.495,
  1.485,
  0,
  0.99,
  0.0825,
  1.0725,
  0.165,
  1.155,
  0.2475,
  1.2375,
  0.33,
  1.32,
  0.4125,
  1.4025,
  0.5775,
  1.5675,
  0.66,
  1.65,
  0.7425,
  1.7325,
  0.825,
  1.815,
  0.9075,
  1.8975,
  0.495
 ],
 "SoftwareVersions": "syngo_MR_E11",
 "SpacingBetweenSlices": 2,
 "StationName": "AWP166078",
 "TaskName": "imagenet",
 "TotalReadoutTime": 0.0534586,
 "TxRefAmp": 208.17,
 "dcmmeta_affine": [
  [
   -2.0,
   0.0,
   0.0,
   102.03389739990234
  ],
  [
   0.0,
   1.9625853300094604,
   -0.3850439488887787,
   -83.61626434326172
  ],
  [
   0.0,
   0.3850439488887787,
   1.9625853300094604,
   -83.58009338378906
  ],
  [
   0.0,
   0.0,
   0.0,
   1.0
  ]
 ],
 "dcmmeta_reorient_transform": [
  [
   0.0,
   -1.0,
   0.0,
   99.0
  ],
  [
   1.0,
   0.0,
   0.0,
   0.0
  ],
  [
   0.0,
   0.0,
   1.0,
   0.0
  ],
  [
   0.0,
   0.0,
   0.0,
   1.0
  ]
 ],
 "dcmmeta_shape": [
  100,
  100,
  72,
  256
 ],
 "dcmmeta_slice_dim": 2,
 "dcmmeta_version": 0.6,
 "global": {
  "const": {
   "AcquisitionMatrix": [
    100,
    0,
    0,
    100
   ],
   "AngioFlag": "N",
   "BitsAllocated": 16,
   "BitsStored": 12,
   "BodyPartExamined": "BRAIN",
   "Columns": 900,
   "EchoNumbers": 1,
   "EchoTime": 34.0,
   "EchoTrainLength": 100,
   "FlipAngle": 90.0,
   "HighBit": 11,
   "ImageOrientationPatient": [
    1.0,
    0.0,
    0.0,
    0.0,
    0.98129266330938,
    -0.1925219700065
   ],
   "ImagePositionPatient": [
    -902.03389835358,
    -895.71381297118,
    108.55682897507
   ],
   "ImageType": [
    "ORIGINAL",
    "PRIMARY",
    "M",
    "ND",
    "MOSAIC"
   ],
   "ImagedNucleus": "1H",
   "ImagingFrequency": 123.257729,
   "InPlanePhaseEncodingDirection": "COL",
   "MRAcquisitionType": "2D",
   "MagneticFieldStrength": 3.0,
   "Manufacturer": "SIEMENS",
   "ManufacturerModelName": "Prisma",
   "Modality": "MR",
   "NumberOfAverages": 1.0,
   "NumberOfPhaseEncodingSteps": 100,
   "PercentPhaseFieldOfView": 100.0,
   "PercentSampling": 100.0,
   "PerformedProcedureStepStartTime": "130455.886000",
   "PhotometricInterpretation": "MONOCHROME2",
   "PixelBandwidth": 2380.0,
   "PixelRepresentation": 0,
   "PixelSpacing": [
    2.0,
    2.0
   ],
   "ProtocolName": "bold_100x100_s3_2x2x2_static_256",
   "RepetitionTime": 2000.0,
   "Rows": 900,
   "SAR": 0.07283716184881,
   "SamplesPerPixel": 1,
   "ScanOptions": "FS",
   "ScanningSequence": "EP",
   "SequenceName": "*epfid2d1_100",
   "SequenceVariant": "SK",
   "SeriesDescription": "bold_100x100_s3_2x2x2_static_256",
   "SeriesNumber": 12,
   "SeriesTime": "142528.360000",
   "SliceLocation": -65.91856800986,
   "SliceThickness": 2.0,
   "SmallestImagePixelValue": 0,
   "SoftwareVersions": "syngo MR E11",
   "SpacingBetweenSlices": 2.0000000142257,
   "SpecificCharacterSet": "ISO_IR 100",
   "StudyID": "1",
   "StudyTime": "130455.795000",
   "TransmitCoilName": "Body",
   "VariableFlipAngleFlag": "N",
   "WindowCenterWidthExplanation": "Algo1",
   "dBdt": 0.0
  },
  "slices": {}
 },
 "time": {
  "samples": {
   "AcquisitionNumber": [
    1,
    2,
    3,
    4,
    5,
    6,
    7,
    8,
    9,
    10,
    11,
    12,
    13,
    14,
    15,
    16,
    17,
    18,
    19,
    20,
    21,
    22,
    23,
    24,
    25,
    26,
    27,
    28,
    29,
    30,
    31,
    32,
    33,
    34,
    35,
    36,
    37,
    38,
    39,
    40,
    41,
    42,
    43,
    44,
    45,
    46,
    47,
    48,
    49,
    50,
    51,
    52,
    53,
    54,
    55,
    56,
    57,
    58,
    59,
    60,
    61,
    62,
    63,
    64,
    65,
    66,
    67,
    68,
    69,
    70,
    71,
    72,
    73,
    74,
    75,
    76,
    77,
    78,
    79,
    80,
    81,
    82,
    83,
    84,
    85,
    86,
    87,
    88,
    89,
    90,
    91,
    92,
    93,
    94,
    95,
    96,
    97,
    98,
    99,
    100,
    101,
    102,
    103,
    104,
    105,
    106,
    107,
    108,
    109,
    110,
    111,
    112,
    113,
    114,
    115,
    116,
    117,
    118,
    119,
    120,
    121,
    122,
    123,
    124,
    125,
    126,
    127,
    128,
    129,
    130,
    131,
    132,
    133,
    134,
    135,
    136,
    137,
    138,
    139,
    140,
    141,
    142,
    143,
    144,
    145,
    146,
    147,
    148,
    149,
    150,
    151,
    152,
    153,
    154,
    155,
    156,
    157,
    158,
    159,
    160,
    161,
    162,
    163,
    164,
    165,
    166,
    167,
    168,
    169,
    170,
    171,
    172,
    173,
    174,
    175,
    176,
    177,
    178,
    179,
    180,
    181,
    182,
    183,
    184,
    185,
    186,
    187,
    188,
    189,
    190,
    191,
    192,
    193,
    194,
    195,
    196,
    197,
    198,
    199,
    200,
    201,
    202,
    203,
    204,
    205,
    206,
    207,
    208,
    209,
    210,
    211,
    212,
    213,
    214,
    215,
    216,
    217,
    218,
    219,
    220,
    221,
    222,
    223,
    224,
    225,
    226,
    227,
    228,
    229,
    230,
    231,
    232,
    233,
    234,
    235,
    236,
    237,
    238,
    239,
    240,
    241,
    242,
    243,
    244,
    245,
    246,
    247,
    248,
    249,
    250,
    251,
    252,
    253,
    254,
    255,
    256
   ],
   "AcquisitionTime": [
    "142526.255000",
    "142528.255000",
    "142530.255000",
    "142532.255000",
    "142534.255000",
    "142536.255000",
    "142538.255000",
    "142540.255000",
    "142542.255000",
    "142544.255000",
    "142546.255000",
    "142548.255000",
    "142550.255000",
    "142552.255000",
    "142554.255000",
    "142556.255000",
    "142558.255000",
    "142600.255000",
    "142602.255000",
    "142604.255000",
    "142606.255000",
    "142608.255000",
    "142610.255000",
    "142612.255000",
    "142614.255000",
    "142616.255000",
    "142618.255000",
    "142620.255000",
    "142622.255000",
    "142624.255000",
    "142626.255000",
    "142628.255000",
    "142630.255000",
    "142632.255000",
    "142634.255000",
    "142636.255000",
    "142638.255000",
    "142640.255000",
    "142642.255000",
    "142644.255000",
    "142646.255000",
    "142648.255000",
    "142650.255000",
    "142652.255000",
    "142654.255000",
    "142656.255000",
    "142658.255000",
    "142700.255000",
    "142702.255000",
    "142704.255000",
    "142706.255000",
    "142708.255000",
    "142710.255000",
    "142712.255000",
    "142714.255000",
    "142716.255000",
    "142718.255000",
    "142720.255000",
    "142722.255000",
    "142724.255000",
    "142726.255000",
    "142728.255000",
    "142730.255000",
    "142732.255000",
    "142734.255000",
    "142736.255000",
    "142738.255000",
    "142740.255000",
    "142742.255000",
    "142744.255000",
    "142746.255000",
    "142748.255000",
    "142750.255000",
    "142752.255000",
    "142754.255000",
    "142756.255000",
    "142758.255000",
    "142800.255000",
    "142802.255000",
    "142804.255000",
    "142806.255000",
    "142808.255000",
    "142810.255000",
    "142812.255000",
    "142814.255000",
    "142816.255000",
    "142818.255000",
    "142820.255000",
    "142822.255000",
    "142824.255000",
    "142826.255000",
    "142828.255000",
    "142830.255000",
    "142832.255000",
    "142834.255000",
    "142836.255000",
    "142838.255000",
    "142840.255000",
    "142842.255000",
    "142844.255000",
    "142846.255000",
    "142848.255000",
    "142850.255000",
    "142852.255000",
    "142854.255000",
    "142856.255000",
    "142858.255000",
    "142900.255000",
    "142902.255000",
    "142904.255000",
    "142906.255000",
    "142908.255000",
    "142910.255000",
    "142912.255000",
    "142914.255000",
    "142916.255000",
    "142918.255000",
    "142920.255000",
    "142922.255000",
    "142924.255000",
    "142926.255000",
    "142928.255000",
    "142930.255000",
    "142932.255000",
    "142934.255000",
    "142936.255000",
    "142938.255000",
    "142940.255000",
    "142942.255000",
    "142944.255000",
    "142946.255000",
    "142948.255000",
    "142950.255000",
    "142952.255000",
    "142954.255000",
    "142956.255000",
    "142958.255000",
    "143000.255000",
    "143002.255000",
    "143004.255000",
    "143006.255000",
    "143008.255000",
    "143010.255000",
    "143012.255000",
    "143014.255000",
    "143016.255000",
    "143018.255000",
    "143020.255000",
    "143022.255000",
    "143024.255000",
    "143026.255000",
    "143028.255000",
    "143030.255000",
    "143032.255000",
    "143034.255000",
    "143036.255000",
    "143038.255000",
    "143040.255000",
    "143042.255000",
    "143044.255000",
    "143046.255000",
    "143048.255000",
    "143050.255000",
    "143052.255000",
    "143054.255000",
    "143056.255000",
    "143058.255000",
    "143100.255000",
    "143102.255000",
    "143104.255000",
    "143106.255000",
    "143108.255000",
    "143110.255000",
    "143112.255000",
    "143114.255000",
    "143116.255000",
    "143118.255000",
    "143120.255000",
    "143122.255000",
    "143124.255000",
    "143126.255000",
    "143128.255000",
    "143130.255000",
    "143132.255000",
    "143134.255000",
    "143136.255000",
    "143138.255000",
    "143140.255000",
    "143142.255000",
    "143144.255000",
    "143146.255000",
    "143148.255000",
    "143150.255000",
    "143152.255000",
    "143154.255000",
    "143156.255000",
    "143158.255000",
    "143200.255000",
    "143202.255000",
    "143204.255000",
    "143206.255000",
    "143208.255000",
    "143210.255000",
    "143212.255000",
    "143214.255000",
    "143216.255000",
    "143218.255000",
    "143220.255000",
    "143222.255000",
    "143224.255000",
    "143226.255000",
    "143228.255000",
    "143230.255000",
    "143232.255000",
    "143234.255000",
    "143236.255000",
    "143238.255000",
    "143240.255000",
    "143242.255000",
    "143244.255000",
    "143246.255000",
    "143248.255000",
    "143250.255000",
    "143252.255000",
    "143254.255000",
    "143256.255000",
    "143258.255000",
    "143300.255000",
    "143302.255000",
    "143304.255000",
    "143306.255000",
    "143308.255000",
    "143310.255000",
    "143312.255000",
    "143314.255000",
    "143316.255000",
    "143318.255000",
    "143320.255000",
    "143322.255000",
    "143324.255000",
    "143326.255000",
    "143328.255000",
    "143330.255000",
    "143332.255000",
    "143334.255000",
    "143336.255000",
    "143338.255000",
    "143340.255000",
    "143342.255000",
    "143344.255000",
    "143346.255000",
    "143348.255000",
    "143350.255000",
    "143352.255000",
    "143354.255000",
    "143356.255000"
   ],
   "ContentTime": [
    "142528.364000",
    "142529.860000",
    "142531.859000",
    "142533.859000",
    "142535.860000",
    "142537.860000",
    "142539.860000",
    "142541.860000",
    "142543.861000",
    "142545.859000",
    "142547.860000",
    "142549.860000",
    "142551.860000",
    "142553.860000",
    "142555.859000",
    "142557.861000",
    "142559.861000",
    "142601.861000",
    "142603.860000",
    "142605.860000",
    "142607.860000",
    "142609.860000",
    "142611.860000",
    "142613.859000",
    "142615.861000",
    "142617.861000",
    "142619.861000",
    "142621.859000",
    "142623.860000",
    "142625.860000",
    "142627.860000",
    "142629.860000",
    "142631.860000",
    "142633.861000",
    "142635.861000",
    "142637.859000",
    "142639.860000",
    "142641.860000",
    "142643.859000",
    "142645.860000",
    "142647.860000",
    "142649.860000",
    "142651.861000",
    "142653.861000",
    "142655.860000",
    "142657.859000",
    "142659.859000",
    "142701.859000",
    "142703.860000",
    "142705.860000",
    "142707.861000",
    "142709.861000",
    "142711.860000",
    "142713.859000",
    "142715.860000",
    "142717.859000",
    "142719.860000",
    "142721.859000",
    "142723.860000",
    "142725.860000",
    "142727.861000",
    "142729.861000",
    "142731.860000",
    "142733.860000",
    "142735.860000",
    "142737.860000",
    "142739.859000",
    "142741.860000",
    "142743.860000",
    "142745.860000",
    "142747.860000",
    "142749.860000",
    "142751.859000",
    "142753.859000",
    "142755.859000",
    "142757.860000",
    "142759.860000",
    "142801.861000",
    "142803.861000",
    "142805.860000",
    "142807.860000",
    "142809.860000",
    "142811.860000",
    "142813.860000",
    "142815.860000",
    "142817.860000",
    "142819.861000",
    "142821.860000",
    "142823.859000",
    "142825.860000",
    "142827.860000",
    "142829.860000",
    "142831.860000",
    "142833.860000",
    "142835.861000",
    "142837.860000",
    "142839.860000",
    "142841.860000",
    "142843.860000",
    "142845.860000",
    "142847.860000",
    "142849.860000",
    "142851.859000",
    "142853.861000",
    "142855.861000",
    "142857.859000",
    "142859.860000",
    "142901.860000",
    "142903.860000",
    "142905.860000",
    "142907.860000",
    "142909.859000",
    "142911.861000",
    "142913.861000",
    "142915.860000",
    "142917.860000",
    "142919.860000",
    "142921.860000",
    "142923.860000",
    "142925.859000",
    "142927.861000",
    "142929.861000",
    "142931.861000",
    "142933.860000",
    "142935.860000",
    "142937.860000",
    "142939.860000",
    "142941.860000",
    "142943.859000",
    "142945.861000",
    "142947.861000",
    "142949.861000",
    "142951.859000",
    "142953.860000",
    "142955.860000",
    "142957.860000",
    "142959.860000",
    "143001.859000",
    "143003.860000",
    "143005.861000",
    "143007.860000",
    "143009.860000",
    "143011.860000",
    "143013.860000",
    "143015.860000",
    "143017.860000",
    "143019.861000",
    "143021.861000",
    "143023.861000",
    "143025.860000",
    "143027.860000",
    "143029.860000",
    "143031.860000",
    "143033.860000",
    "143035.860000",
    "143037.861000",
    "143039.861000",
    "143041.861000",
    "143043.860000",
    "143045.860000",
    "143047.860000",
    "143049.859000",
    "143051.859000",
    "143053.859000",
    "143055.860000",
    "143057.861000",
    "143059.860000",
    "143101.859000",
    "143103.860000",
    "143105.860000",
    "143107.860000",
    "143109.860000",
    "143111.859000",
    "143113.860000",
    "143115.861000",
    "143117.860000",
    "143119.860000",
    "143121.859000",
    "143123.860000",
    "143125.860000",
    "143127.860000",
    "143129.860000",
    "143131.860000",
    "143133.861000",
    "143135.860000",
    "143137.860000",
    "143139.860000",
    "143141.860000",
    "143143.860000",
    "143145.860000",
    "143147.861000",
    "143149.861000",
    "143151.861000",
    "143153.860000",
    "143155.860000",
    "143157.860000",
    "143159.860000",
    "143201.860000",
    "143203.859000",
    "143205.861000",
    "143207.861000",
    "143209.861000",
    "143211.859000",
    "143213.860000",
    "143215.860000",
    "143217.860000",
    "143219.860000",
    "143221.860000",
    "143223.860000",
    "143225.861000",
    "143227.860000",
    "143229.860000",
    "143231.860000",
    "143233.860000",
    "143235.860000",
    "143237.860000",
    "143239.861000",
    "143241.860000",
    "143243.861000",
    "143245.860000",
    "143247.860000",
    "143249.860000",
    "143251.860000",
    "143253.860000",
    "143255.860000",
    "143257.861000",
    "143259.861000",
    "143301.861000",
    "143303.860000",
    "143305.860000",
    "143307.860000",
    "143309.860000",
    "143311.860000",
    "143313.860000",
    "143315.861000",
    "143317.861000",
    "143319.861000",
    "143321.860000",
    "143323.860000",
    "143325.859000",
    "143327.860000",
    "143329.860000",
    "143331.860000",
    "143333.861000",
    "143335.861000",
    "143337.860000",
    "143339.860000",
    "143341.860000",
    "143343.860000",
    "143345.860000",
    "143347.859000",
    "143349.860000",
    "143351.861000",
    "143353.861000",
    "143355.860000",
    "143357.539000"
   ],
   "InstanceCreationTime": [
    "142528.364000",
    "142529.860000",
    "142531.859000",
    "142533.859000",
    "142535.860000",
    "142537.860000",
    "142539.860000",
    "142541.860000",
    "142543.861000",
    "142545.859000",
    "142547.860000",
    "142549.860000",
    "142551.860000",
    "142553.860000",
    "142555.859000",
    "142557.861000",
    "142559.861000",
    "142601.861000",
    "142603.860000",
    "142605.860000",
    "142607.860000",
    "142609.860000",
    "142611.860000",
    "142613.859000",
    "142615.861000",
    "142617.861000",
    "142619.861000",
    "142621.859000",
    "142623.860000",
    "142625.860000",
    "142627.860000",
    "142629.860000",
    "142631.860000",
    "142633.861000",
    "142635.861000",
    "142637.859000",
    "142639.860000",
    "142641.860000",
    "142643.859000",
    "142645.860000",
    "142647.860000",
    "142649.860000",
    "142651.861000",
    "142653.861000",
    "142655.860000",
    "142657.859000",
    "142659.859000",
    "142701.859000",
    "142703.860000",
    "142705.860000",
    "142707.861000",
    "142709.861000",
    "142711.860000",
    "142713.859000",
    "142715.860000",
    "142717.859000",
    "142719.860000",
    "142721.859000",
    "142723.860000",
    "142725.860000",
    "142727.861000",
    "142729.861000",
    "142731.860000",
    "142733.860000",
    "142735.860000",
    "142737.860000",
    "142739.859000",
    "142741.860000",
    "142743.860000",
    "142745.860000",
    "142747.860000",
    "142749.860000",
    "142751.859000",
    "142753.859000",
    "142755.859000",
    "142757.860000",
    "142759.860000",
    "142801.861000",
    "142803.861000",
    "142805.860000",
    "142807.860000",
    "142809.860000",
    "142811.860000",
    "142813.860000",
    "142815.860000",
    "142817.860000",
    "142819.861000",
    "142821.860000",
    "142823.859000",
    "142825.860000",
    "142827.860000",
    "142829.860000",
    "142831.860000",
    "142833.860000",
    "142835.861000",
    "142837.860000",
    "142839.860000",
    "142841.860000",
    "142843.860000",
    "142845.860000",
    "142847.860000",
    "142849.860000",
    "142851.859000",
    "142853.861000",
    "142855.861000",
    "142857.859000",
    "142859.860000",
    "142901.860000",
    "142903.860000",
    "142905.860000",
    "142907.860000",
    "142909.859000",
    "142911.861000",
    "142913.861000",
    "142915.860000",
    "142917.860000",
    "142919.860000",
    "142921.860000",
    "142923.860000",
    "142925.859000",
    "142927.861000",
    "142929.861000",
    "142931.861000",
    "142933.860000",
    "142935.860000",
    "142937.860000",
    "142939.860000",
    "142941.860000",
    "142943.859000",
    "142945.861000",
    "142947.861000",
    "142949.861000",
    "142951.859000",
    "142953.860000",
    "142955.860000",
    "142957.860000",
    "142959.860000",
    "143001.859000",
    "143003.860000",
    "143005.861000",
    "143007.860000",
    "143009.860000",
    "143011.860000",
    "143013.860000",
    "143015.860000",
    "143017.860000",
    "143019.861000",
    "143021.861000",
    "143023.861000",
    "143025.860000",
    "143027.860000",
    "143029.860000",
    "143031.860000",
    "143033.860000",
    "143035.860000",
    "143037.861000",
    "143039.861000",
    "143041.861000",
    "143043.860000",
    "143045.860000",
    "143047.860000",
    "143049.859000",
    "143051.859000",
    "143053.859000",
    "143055.860000",
    "143057.861000",
    "143059.860000",
    "143101.859000",
    "143103.860000",
    "143105.860000",
    "143107.860000",
    "143109.860000",
    "143111.859000",
    "143113.860000",
    "143115.861000",
    "143117.860000",
    "143119.860000",
    "143121.859000",
    "143123.860000",
    "143125.860000",
    "143127.860000",
    "143129.860000",
    "143131.860000",
    "143133.861000",
    "143135.860000",
    "143137.860000",
    "143139.860000",
    "143141.860000",
    "143143.860000",
    "143145.860000",
    "143147.861000",
    "143149.861000",
    "143151.861000",
    "143153.860000",
    "143155.860000",
    "143157.860000",
    "143159.860000",
    "143201.860000",
    "143203.859000",
    "143205.861000",
    "143207.861000",
    "143209.861000",
    "143211.859000",
    "143213.860000",
    "143215.860000",
    "143217.860000",
    "143219.860000",
    "143221.860000",
    "143223.860000",
    "143225.861000",
    "143227.860000",
    "143229.860000",
    "143231.860000",
    "143233.860000",
    "143235.860000",
    "143237.860000",
    "143239.861000",
    "143241.860000",
    "143243.861000",
    "143245.860000",
    "143247.860000",
    "143249.860000",
    "143251.860000",
    "143253.860000",
    "143255.860000",
    "143257.861000",
    "143259.861000",
    "143301.861000",
    "143303.860000",
    "143305.860000",
    "143307.860000",
    "143309.860000",
    "143311.860000",
    "143313.860000",
    "143315.861000",
    "143317.861000",
    "143319.861000",
    "143321.860000",
    "143323.860000",
    "143325.859000",
    "143327.860000",
    "143329.860000",
    "143331.860000",
    "143333.861000",
    "143335.861000",
    "143337.860000",
    "143339.860000",
    "143341.860000",
    "143343.860000",
    "143345.860000",
    "143347.859000",
    "143349.860000",
    "143351.861000",
    "143353.861000",
    "143355.860000",
    "143357.539000"
   ],
   "InstanceNumber": [
    1,
    2,
    3,
    4,
    5,
    6,
    7,
    8,
    9,
    10,
    11,
    12,
    13,
    14,
    15,
    16,
    17,
    18,
    19,
    20,
    21,
    22,
    23,
    24,
    25,
    26,
    27,
    28,
    29,
    30,
    31,
    32,
    33,
    34,
    35,
    36,
    37,
    38,
    39,
    40,
    41,
    42,
    43,
    44,
    45,
    46,
    47,
    48,
    49,
    50,
    51,
    52,
    53,
    54,
    55,
    56,
    57,
    58,
    59,
    60,
    61,
    62,
    63,
    64,
    65,
    66,
    67,
    68,
    69,
    70,
    71,
    72,
    73,
    74,
    75,
    76,
    77,
    78,
    79,
    80,
    81,
    82,
    83,
    84,
    85,
    86,
    87,
    88,
    89,
    90,
    91,
    92,
    93,
    94,
    95,
    96,
    97,
    98,
    99,
    100,
    101,
    102,
    103,
    104,
    105,
    106,
    107,
    108,
    109,
    110,
    111,
    112,
    113,
    114,
    115,
    116,
    117,
    118,
    119,
    120,
    121,
    122,
    123,
    124,
    125,
    126,
    127,
    128,
    129,
    130,
    131,
    132,
    133,
    134,
    135,
    136,
    137,
    138,
    139,
    140,
    141,
    142,
    143,
    144,
    145,
    146,
    147,
    148,
    149,
    150,
    151,
    152,
    153,
    154,
    155,
    156,
    157,
    158,
    159,
    160,
    161,
    162,
    163,
    164,
    165,
    166,
    167,
    168,
    169,
    170,
    171,
    172,
    173,
    174,
    175,
    176,
    177,
    178,
    179,
    180,
    181,
    182,
    183,
    184,
    185,
    186,
    187,
    188,
    189,
    190,
    191,
    192,
    193,
    194,
    195,
    196,
    197,
    198,
    199,
    200,
    201,
    202,
    203,
    204,
    205,
    206,
    207,
    208,
    209,
    210,
    211,
    212,
    213,
    214,
    215,
    216,
    217,
    218,
    219,
    220,
    221,
    222,
    223,
    224,
    225,
    226,
    227,
    228,
    229,
    230,
    231,
    232,
    233,
    234,
    235,
    236,
    237,
    238,
    239,
    240,
    241,
    242,
    243,
    244,
    245,
    246,
    247,
    248,
    249,
    250,
    251,
    252,
    253,
    254,
    255,
    256
   ],
   "LargestImagePixelValue": [
    3986,
    3896,
    3845,
    3873,
    3859,
    3853,
    3846,
    3861,
    3872,
    3858,
    3878,
    3857,
    3852,
    3869,
    3848,
    3836,
    3846,
    3898,
    3830,
    3878,
    3838,
    3827,
    3816,
    3872,
    3860,
    3875,
    3885,
    3864,
    3865,
    3860,
    3849,
    3848,
    3825,
    3829,
    3858,
    3878,
    3887,
    3877,
    3862,
    3838,
    3859,
    3882,
    3839,
    3836,
    3849,
    3864,
    3836,
    3897,
    3854,
    3862,
    3856,
    3853,
    3852,
    3904,
    3865,
    3878,
    3840,
    3848,
    3858,
    3851,
    3892,
    3832,
    3843,
    3888,
    3897,
    3845,
    3920,
    3899,
    3853,
    3831,
    3861,
    3858,
    3905,
    3880,
    3919,
    3899,
    3889,
    3852,
    3912,
    3885,
    3864,
    3841,
    3889,
    3849,
    3838,
    3862,
    3877,
    3850,
    3921,
    3894,
    3910,
    3955,
    3888,
    3846,
    3811,
    3880,
    3860,
    3904,
    3852,
    3867,
    3839,
    3867,
    3895,
    3880,
    3846,
    3900,
    3893,
    3879,
    3843,
    3867,
    3946,
    3949,
    3938,
    3926,
    3948,
    3951,
    3956,
    3907,
    3958,
    3906,
    3910,
    3890,
    3906,
    3906,
    3880,
    3863,
    3899,
    3911,
    3888,
    3869,
    3883,
    3925,
    3957,
    3911,
    3924,
    3941,
    3931,
    3994,
    3961,
    3900,
    3933,
    3960,
    3987,
    3940,
    3899,
    3925,
    3919,
    3907,
    3961,
    3908,
    3960,
    3910,
    3911,
    3897,
    3904,
    3911,
    3909,
    3910,
    3925,
    3904,
    3882,
    3956,
    3927,
    3924,
    3910,
    3926,
    3917,
    3924,
    3906,
    3901,
    3884,
    3882,
    3860,
    3882,
    3888,
    3930,
    3884,
    3882,
    3898,
    3919,
    3905,
    3923,
    3909,
    3928,
    3901,
    3901,
    3939,
    3942,
    3933,
    3950,
    3937,
    3926,
    3923,
    3903,
    3874,
    3943,
    3940,
    3926,
    3948,
    3941,
    3906,
    3907,
    3928,
    3873,
    3861,
    3893,
    3896,
    3908,
    3890,
    3928,
    3976,
    3902,
    3938,
    3949,
    3916,
    3948,
    3951,
    3936,
    3944,
    3908,
    3957,
    3911,
    3895,
    3932,
    3915,
    3921,
    3912,
    3959,
    3919,
    3923,
    3921,
    3969,
    3936,
    3925,
    3917,
    3975,
    3954,
    3901,
    3866,
    3901,
    3932,
    3907,
    3906,
    3935,
    3915,
    3919,
    3909,
    3898,
    3888,
    3901,
    3931,
    3921,
    3892,
    3890,
    3891,
    3946
   ],
   "WindowCenter": [
    805.0,
    804.0,
    805.0,
    807.0,
    808.0,
    808.0,
    808.0,
    809.0,
    811.0,
    811.0,
    811.0,
    810.0,
    810.0,
    809.0,
    809.0,
    809.0,
    809.0,
    809.0,
    809.0,
    809.0,
    809.0,
    809.0,
    809.0,
    808.0,
    808.0,
    809.0,
    809.0,
    808.0,
    808.0,
    807.0,
    807.0,
    807.0,
    806.0,
    806.0,
    806.0,
    807.0,
    807.0,
    808.0,
    808.0,
    808.0,
    808.0,
    808.0,
    808.0,
    806.0,
    806.0,
    807.0,
    807.0,
    807.0,
    808.0,
    808.0,
    807.0,
    807.0,
    808.0,
    808.0,
    808.0,
    808.0,
    807.0,
    807.0,
    807.0,
    807.0,
    807.0,
    807.0,
    808.0,
    808.0,
    808.0,
    807.0,
    808.0,
    808.0,
    807.0,
    807.0,
    806.0,
    807.0,
    808.0,
    809.0,
    809.0,
    809.0,
    808.0,
    807.0,
    808.0,
    808.0,
    807.0,
    807.0,
    808.0,
    808.0,
    807.0,
    808.0,
    808.0,
    809.0,
    809.0,
    809.0,
    810.0,
    810.0,
    808.0,
    807.0,
    806.0,
    807.0,
    808.0,
    809.0,
    809.0,
    806.0,
    806.0,
    806.0,
    806.0,
    806.0,
    807.0,
    808.0,
    808.0,
    807.0,
    807.0,
    807.0,
    809.0,
    808.0,
    809.0,
    809.0,
    809.0,
    808.0,
    809.0,
    808.0,
    809.0,
    808.0,
    808.0,
    808.0,
    807.0,
    805.0,
    806.0,
