{
  "AcquisitionMatrixPE": 100,
  "AcquisitionNumber": 1,
  "AcquisitionTime": "14:16:2.112500",
  "BandwidthPerPixelPhaseEncode": 18.519,
  "BaseResolution": 100,
  "BodyPartExamined": "BRAIN",
  "ConsistencyInfo": "N4_VE11C_LATEST_20160120",
  "ConversionSoftware": "dcm2niix",
  "ConversionSoftwareVersion": "v1.0.20180622 GCC4.9.2",
  "DerivedVendorReportedEchoSpacing": 0.000539986,
  "DeviceSerialNumber": "166078",
  "DwellTime": 2.1e-06,
  "EchoTime": 0.034,
  "EchoTrainLength": 100,
  "EffectiveEchoSpacing": 0.000539986,
  "FlipAngle": 90,
  "ImageOrientationPatientDICOM": [1, 0, 0, 0, 0.981293, -0.192522],
  "ImageType": [
    "ORIGINAL",
    "PRIMARY",
    "M",
    "ND",
    "MOSAIC"
],
  "InPlanePhaseEncodingDirectionDICOM": "COL",
  "InstitutionAddress": "Street_StreetNo_Bei_Jing_District_CN_ZIP",
  "InstitutionName": "BeiJing_Normal_University",
  "InstitutionalDepartmentName": "Department",
  "MRAcquisitionType": "2D",
  "MagneticFieldStrength": 3,
  "Manufacturer": "Siemens",
  "ManufacturersModelName": "Prisma",
  "Modality": "MR",
  "MultibandAccelerationFactor": 3,
  "PartialFourier": 1,
  "PatientPosition": "HFS",
  "PercentPhaseFOV": 100,
  "PhaseEncodingDirection": "j-",
  "PhaseEncodingSteps": 100,
  "PhaseResolution": 1,
  "PixelBandwidth": 2380,
  "ProcedureStepDescription": "BNU_P2018_64CH_Zhen.ZongLei",
  "ProtocolName": "bold_100x100_s3_2x2x2_static_256",
  "PulseSequenceDetails": "%SiemensSeq%_ep2d_bold",
  "ReceiveCoilActiveElements": "HC1-7;NC1",
  "ReceiveCoilName": "HeadNeck_64",
  "ReconMatrixPE": 100,
  "RepetitionTime": 2,
  "SAR": 0.0728372,
  "ScanOptions": "FS",
  "ScanningSequence": "EP",
  "SequenceName": "_epfid2d1_100",
  "SequenceVariant": "SK",
  "SeriesDescription": "bold_100x100_s3_2x2x2_static_256",
  "SeriesNumber": 11,
  "ShimSetting": [-5463, -11482, -1288, 326, 36, -205, -159, 48],
  "SliceThickness": 2,
  "SliceTiming": [1.485, 0, 0.99, 0.0825, 1.0725, 0.165, 1.155, 0.2475, 1.2375, 0.33, 1.32, 0.4125, 1.4025, 0.5775, 1.5675, 0.66, 1.65, 0.7425, 1.7325, 0.825, 1.815, 0.9075, 1.8975, 0.495, 1.485, 0, 0.99, 0.0825, 1.0725, 0.165, 1.155, 0.2475, 1.2375, 0.33, 1.32, 0.4125, 1.4025, 0.5775, 1.5675, 0.66, 1.65, 0.7425, 1.7325, 0.825, 1.815, 0.9075, 1.8975, 0.495, 1.485, 0, 0.99, 0.0825, 1.0725, 0.165, 1.155, 0.2475, 1.2375, 0.33, 1.32, 0.4125, 1.4025, 0.5775, 1.5675, 0.66, 1.65, 0.7425, 1.7325, 0.825, 1.815, 0.9075, 1.8975, 0.495],
  "SoftwareVersions": "syngo_MR_E11",
  "SpacingBetweenSlices": 2,
  "StationName": "AWP166078",
  "TaskName": "naturalvision",
  "TotalReadoutTime": 0.0534586,
  "TxRefAmp": 208.17,
  "dcmmeta_affine": [
    [-2.0, 0.0, 0.0, 102.03389739990234],
    [0.0, 1.9625853300094604, -0.3850439488887787, -83.61626434326172],
    [0.0, 0.3850439488887787, 1.9625853300094604, -83.58009338378906],
    [0.0, 0.0, 0.0, 1.0]
],
  "dcmmeta_reorient_transform": [
    [0.0, -1.0, 0.0, 99.0],
    [1.0, 0.0, 0.0, 0.0],
    [0.0, 0.0, 1.0, 0.0],
    [0.0, 0.0, 0.0, 1.0]
],
  "dcmmeta_shape": [100, 100, 72, 256],
  "dcmmeta_slice_dim": 2,
  "dcmmeta_version": 0.6,
  "global": {
    "const": {
      "AcquisitionMatrix": [100, 0, 0, 100],
      "AngioFlag": "N",
      "BitsAllocated": 16,
      "BitsStored": 12,
      "BodyPartExamined": "BRAIN",
      "Columns": 900,
      "EchoNumbers": 1,
      "EchoTime": 34.0,
      "EchoTrainLength": 100,
      "FlipAngle": 90.0,
      "HighBit": 11,
      "ImageOrientationPatient": [1.0, 0.0, 0.0, 0.0, 0.98129266330938, -0.1925219700065],
      "ImagePositionPatient": [-902.03389835358, -895.71381297118, 108.55682897507],
      "ImageType": [
        "ORIGINAL",
        "PRIMARY",
        "M",
        "ND",
        "MOSAIC"
],
      "ImagedNucleus": "1H",
      "ImagingFrequency": 123.257726,
      "InPlanePhaseEncodingDirection": "COL",
      "MRAcquisitionType": "2D",
      "MagneticFieldStrength": 3.0,
      "Manufacturer": "SIEMENS",
      "ManufacturerModelName": "Prisma",
      "Modality": "MR",
      "NumberOfAverages": 1.0,
      "NumberOfPhaseEncodingSteps": 100,
      "PercentPhaseFieldOfView": 100.0,
      "PercentSampling": 100.0,
      "PerformedProcedureStepStartTime": "130455.886000",
      "PhotometricInterpretation": "MONOCHROME2",
      "PixelBandwidth": 2380.0,
      "PixelRepresentation": 0,
      "PixelSpacing": [2.0, 2.0],
      "ProtocolName": "bold_100x100_s3_2x2x2_static_256",
      "RepetitionTime": 2000.0,
      "Rows": 900,
      "SAR": 0.07283716184881,
      "SamplesPerPixel": 1,
      "ScanOptions": "FS",
      "ScanningSequence": "EP",
      "SequenceName": "*epfid2d1_100",
      "SequenceVariant": "SK",
      "SeriesDescription": "bold_100x100_s3_2x2x2_static_256",
      "SeriesNumber": 11,
      "SeriesTime": "141604.888000",
      "SliceLocation": -65.91856800986,
      "SliceThickness": 2.0,
      "SmallestImagePixelValue": 0,
      "SoftwareVersions": "syngo MR E11",
      "SpacingBetweenSlices": 2.0000000142257,
      "SpecificCharacterSet": "ISO_IR 100",
      "StudyID": "1",
      "StudyTime": "130455.795000",
      "TransmitCoilName": "Body",
      "VariableFlipAngleFlag": "N",
      "WindowCenterWidthExplanation": "Algo1",
      "dBdt": 0.0},
    "slices": {}
  },
  "time": {
    "samples": {
      "AcquisitionNumber": [1, 2, 3, 4, 5, 6, 7, 8, 9, 10, 11, 12, 13, 14, 15, 16, 17, 18, 19, 20, 21, 22, 23, 24, 25, 26, 27, 28, 29, 30, 31, 32, 33, 34, 35, 36, 37, 38, 39, 40, 41, 42, 43, 44, 45, 46, 47, 48, 49, 50, 51, 52, 53, 54, 55, 56, 57, 58, 59, 60, 61, 62, 63, 64, 65, 66, 67, 68, 69, 70, 71, 72, 73, 74, 75, 76, 77, 78, 79, 80, 81, 82, 83, 84, 85, 86, 87, 88, 89, 90, 91, 92, 93, 94, 95, 96, 97, 98, 99, 100, 101, 102, 103, 104, 105, 106, 107, 108, 109, 110, 111, 112, 113, 114, 115, 116, 117, 118, 119, 120, 121, 122, 123, 124, 125, 126, 127, 128, 129, 130, 131, 132, 133, 134, 135, 136, 137, 138, 139, 140, 141, 142, 143, 144, 145, 146, 147, 148, 149, 150, 151, 152, 153, 154, 155, 156, 157, 158, 159, 160, 161, 162, 163, 164, 165, 166, 167, 168, 169, 170, 171, 172, 173, 174, 175, 176, 177, 178, 179, 180, 181, 182, 183, 184, 185, 186, 187, 188, 189, 190, 191, 192, 193, 194, 195, 196, 197, 198, 199, 200, 201, 202, 203, 204, 205, 206, 207, 208, 209, 210, 211, 212, 213, 214, 215, 216, 217, 218, 219, 220, 221, 222, 223, 224, 225, 226, 227, 228, 229, 230, 231, 232, 233, 234, 235, 236, 237, 238, 239, 240, 241, 242, 243, 244, 245, 246, 247, 248, 249, 250, 251, 252, 253, 254, 255, 256],
      "AcquisitionTime": ["141602.112500", "141604.112500", "141606.112500", "141608.112500", "141610.112500", "141612.112500", "141614.112500", "141616.112500", "141618.112500", "141620.112500", "141622.112500", "141624.112500", "141626.112500", "141628.112500", "141630.112500", "141632.112500", "141634.112500", "141636.112500", "141638.112500", "141640.112500", "141642.112500", "141644.112500", "141646.112500", "141648.112500", "141650.112500", "141652.112500", "141654.112500", "141656.112500", "141658.112500", "141700.112500", "141702.112500", "141704.112500", "141706.112500", "141708.112500", "141710.112500", "141712.112500", "141714.112500", "141716.112500", "141718.112500", "141720.112500", "141722.112500", "141724.112500", "141726.112500", "141728.112500", "141730.112500", "141732.112500", "141734.112500", "141736.112500", "141738.112500", "141740.112500", "141742.112500", "141744.112500", "141746.112500", "141748.112500", "141750.112500", "141752.112500", "141754.112500", "141756.112500", "141758.112500", "141800.112500", "141802.112500", "141804.112500", "141806.112500", "141808.112500", "141810.112500", "141812.112500", "141814.112500", "141816.112500", "141818.112500", "141820.112500", "141822.112500", "141824.112500", "141826.112500", "141828.112500", "141830.112500", "141832.112500", "141834.112500", "141836.112500", "141838.112500", "141840.112500", "141842.112500", "141844.112500", "141846.112500", "141848.112500", "141850.112500", "141852.112500", "141854.112500", "141856.112500", "141858.112500", "141900.112500", "141902.112500", "141904.112500", "141906.112500", "141908.112500", "141910.112500", "141912.112500", "141914.112500", "141916.112500", "141918.112500", "141920.112500", "141922.112500", "141924.112500", "141926.112500", "141928.112500", "141930.112500", "141932.112500", "141934.112500", "141936.112500", "141938.112500", "141940.112500", "141942.112500", "141944.112500", "141946.112500", "141948.112500", "141950.112500", "141952.112500", "141954.112500", "141956.112500", "141958.112500", "142000.112500", "142002.112500", "142004.112500", "142006.112500", "142008.112500", "142010.112500", "142012.112500", "142014.112500", "142016.112500", "142018.112500", "142020.112500", "142022.112500", "142024.112500", "142026.112500", "142028.112500", "142030.112500", "142032.112500", "142034.112500", "142036.112500", "142038.112500", "142040.112500", "142042.112500", "142044.112500", "142046.112500", "142048.112500", "142050.112500", "142052.112500", "142054.112500", "142056.112500", "142058.112500", "142100.112500", "142102.112500", "142104.112500", "142106.112500", "142108.112500", "142110.112500", "142112.112500", "142114.112500", "142116.112500", "142118.112500", "142120.112500", "142122.112500", "142124.112500", "142126.112500", "142128.112500", "142130.112500", "142132.112500", "142134.112500", "142136.112500", "142138.112500", "142140.112500", "142142.112500", "142144.112500", "142146.112500", "142148.112500", "142150.112500", "142152.112500", "142154.112500", "142156.112500", "142158.112500", "142200.112500", "142202.112500", "142204.112500", "142206.112500", "142208.112500", "142210.112500", "142212.112500", "142214.112500", "142216.112500", "142218.112500", "142220.112500", "142222.112500", "142224.112500", "142226.112500", "142228.112500", "142230.112500", "142232.112500", "142234.112500", "142236.112500", "142238.112500", "142240.112500", "142242.112500", "142244.112500", "142246.112500", "142248.112500", "142250.112500", "142252.112500", "142254.112500", "142256.112500", "142258.112500", "142300.112500", "142302.112500", "142304.112500", "142306.112500", "142308.112500", "142310.112500", "142312.112500", "142314.112500", "142316.112500", "142318.112500", "142320.112500", "142322.112500", "142324.112500", "142326.112500", "142328.112500", "142330.112500", "142332.112500", "142334.112500", "142336.112500", "142338.112500", "142340.112500", "142342.112500", "142344.112500", "142346.112500", "142348.112500", "142350.112500", "142352.112500", "142354.112500", "142356.112500", "142358.112500", "142400.112500", "142402.112500", "142404.112500", "142406.112500", "142408.112500", "142410.112500", "142412.112500", "142414.112500", "142416.112500", "142418.112500", "142420.112500", "142422.112500", "142424.112500", "142426.112500", "142428.112500", "142430.112500", "142432.112500"],
      "ContentTime": ["141604.892000", "141606.388000", "141608.387000", "141610.387000", "141612.387000", "141614.387000", "141616.387000", "141618.387000", "141620.387000", "141622.387000", "141624.387000", "141626.388000", "141628.387000", "141630.388000", "141632.387000", "141634.387000", "141636.388000", "141638.387000", "141640.387000", "141642.388000", "141644.387000", "141646.387000", "141648.387000", "141650.388000", "141652.388000", "141654.388000", "141656.387000", "141658.388000", "141700.388000", "141702.387000", "141704.387000", "141706.388000", "141708.387000", "141710.387000", "141712.386000", "141714.387000", "141716.387000", "141718.388000", "141720.387000", "141722.388000", "141724.388000", "141726.388000", "141728.388000", "141730.386000", "141732.388000", "141734.388000", "141736.387000", "141738.387000", "141740.388000", "141742.388000", "141744.388000", "141746.387000", "141748.387000", "141750.388000", "141752.388000", "141754.387000", "141756.388000", "141758.388000", "141800.388000", "141802.388000", "141804.388000", "141806.388000", "141808.388000", "141810.387000", "141812.387000", "141814.388000", "141816.387000", "141818.387000", "141820.387000", "141822.386000", "141824.388000", "141826.387000", "141828.388000", "141830.388000", "141832.387000", "141834.387000", "141836.388000", "141838.388000", "141840.386000", "141842.387000", "141844.387000", "141846.388000", "141848.388000", "141850.387000", "141852.388000", "141854.388000", "141856.387000", "141858.388000", "141900.387000", "141902.387000", "141904.388000", "141906.387000", "141908.387000", "141910.387000", "141912.388000", "141914.387000", "141916.388000", "141918.388000", "141920.388000", "141922.388000", "141924.388000", "141926.387000", "141928.388000", "141930.387000", "141932.386000", "141934.388000", "141936.388000", "141938.388000", "141940.388000", "141942.387000", "141944.388000", "141946.387000", "141948.388000", "141950.387000", "141952.387000", "141954.387000", "141956.388000", "141958.388000", "142000.388000", "142002.387000", "142004.387000", "142006.388000", "142008.388000", "142010.387000", "142012.387000", "142014.387000", "142016.388000", "142018.388000", "142020.388000", "142022.387000", "142024.387000", "142026.387000", "142028.387000", "142030.388000", "142032.388000", "142034.388000", "142036.388000", "142038.387000", "142040.387000", "142042.387000", "142044.387000", "142046.387000", "142048.388000", "142050.388000", "142052.388000", "142054.387000", "142056.388000", "142058.387000", "142100.387000", "142102.387000", "142104.388000", "142106.388000", "142108.388000", "142110.387000", "142112.388000", "142114.387000", "142116.388000", "142118.387000", "142120.388000", "142122.388000", "142124.388000", "142126.388000", "142128.388000", "142130.388000", "142132.387000", "142134.388000", "142136.387000", "142138.388000", "142140.388000", "142142.388000", "142144.388000", "142146.387000", "142148.387000", "142150.388000", "142152.387000", "142154.388000", "142156.388000", "142158.388000", "142200.388000", "142202.388000", "142204.387000", "142206.388000", "142208.387000", "142210.388000", "142212.387000", "142214.387000", "142216.388000", "142218.388000", "142220.388000", "142222.388000", "142224.387000", "142226.387000", "142228.387000", "142230.388000", "142232.388000", "142234.388000", "142236.387000", "142238.388000", "142240.387000", "142242.388000", "142244.388000", "142246.388000", "142248.387000", "142250.388000", "142252.387000", "142254.388000", "142256.388000", "142258.388000", "142300.388000", "142302.387000", "142304.388000", "142306.388000", "142308.387000", "142310.388000", "142312.387000", "142314.388000", "142316.388000", "142318.387000", "142320.387000", "142322.387000", "142324.388000", "142326.388000", "142328.388000", "142330.388000", "142332.387000", "142334.388000", "142336.387000", "142338.388000", "142340.388000", "142342.387000", "142344.388000", "142346.387000", "142348.388000", "142350.388000", "142352.388000", "142354.387000", "142356.387000", "142358.387000", "142400.388000", "142402.387000", "142404.387000", "142406.388000", "142408.388000", "142410.388000", "142412.386000", "142414.387000", "142416.388000", "142418.388000", "142420.388000", "142422.387000", "142424.388000", "142426.387000", "142428.388000", "142430.388000", "142432.388000", "142434.069000"],
      "InstanceCreationTime": ["141604.892000", "141606.388000", "141608.387000", "141610.387000", "141612.387000", "141614.387000", "141616.387000", "141618.387000", "141620.387000", "141622.387000", "141624.387000", "141626.388000", "141628.387000", "141630.388000", "141632.387000", "141634.387000", "141636.388000", "141638.387000", "141640.387000", "141642.388000", "141644.387000", "141646.387000", "141648.387000", "141650.388000", "141652.388000", "141654.388000", "141656.387000", "141658.388000", "141700.388000", "141702.387000", "141704.387000", "141706.388000", "141708.387000", "141710.387000", "141712.386000", "141714.387000", "141716.387000", "141718.388000", "141720.387000", "141722.388000", "141724.388000", "141726.388000", "141728.388000", "141730.386000", "141732.388000", "141734.388000", "141736.387000", "141738.387000", "141740.388000", "141742.388000", "141744.388000", "141746.387000", "141748.387000", "141750.388000", "141752.388000", "141754.387000", "141756.388000", "141758.388000", "141800.388000", "141802.388000", "141804.388000", "141806.388000", "141808.388000", "141810.387000", "141812.387000", "141814.388000", "141816.387000", "141818.387000", "141820.387000", "141822.386000", "141824.388000", "141826.387000", "141828.388000", "141830.388000", "141832.387000", "141834.387000", "141836.388000", "141838.388000", "141840.386000", "141842.387000", "141844.387000", "141846.388000", "141848.388000", "141850.387000", "141852.388000", "141854.388000", "141856.387000", "141858.388000", "141900.387000", "141902.387000", "141904.388000", "141906.387000", "141908.387000", "141910.387000", "141912.388000", "141914.387000", "141916.388000", "141918.388000", "141920.388000", "141922.388000", "141924.388000", "141926.387000", "141928.388000", "141930.387000", "141932.386000", "141934.388000", "141936.388000", "141938.388000", "141940.388000", "141942.387000", "141944.388000", "141946.387000", "141948.388000", "141950.387000", "141952.387000", "141954.387000", "141956.388000", "141958.388000", "142000.388000", "142002.387000", "142004.387000", "142006.388000", "142008.388000", "142010.387000", "142012.387000", "142014.387000", "142016.388000", "142018.388000", "142020.388000", "142022.387000", "142024.387000", "142026.387000", "142028.387000", "142030.388000", "142032.388000", "142034.388000", "142036.388000", "142038.387000", "142040.387000", "142042.387000", "142044.387000", "142046.387000", "142048.388000", "142050.388000", "142052.388000", "142054.387000", "142056.388000", "142058.387000", "142100.387000", "142102.387000", "142104.388000", "142106.388000", "142108.388000", "142110.387000", "142112.388000", "142114.387000", "142116.388000", "142118.387000", "142120.388000", "142122.388000", "142124.388000", "142126.388000", "142128.388000", "142130.388000", "142132.387000", "142134.388000", "142136.387000", "142138.388000", "142140.388000", "142142.388000", "142144.388000", "142146.387000", "142148.387000", "142150.388000", "142152.387000", "142154.388000", "142156.388000", "142158.388000", "142200.388000", "142202.388000", "142204.387000", "142206.388000", "142208.387000", "142210.388000", "142212.387000", "142214.387000", "142216.388000", "142218.388000", "142220.388000", "142222.388000", "142224.387000", "142226.387000", "142228.387000", "142230.388000", "142232.388000", "142234.388000", "142236.387000", "142238.388000", "142240.387000", "142242.388000", "142244.388000", "142246.388000", "142248.387000", "142250.388000", "142252.387000", "142254.388000", "142256.388000", "142258.388000", "142300.388000", "142302.387000", "142304.388000", "142306.388000", "142308.387000", "142310.388000", "142312.387000", "142314.388000", "142316.388000", "142318.387000", "142320.387000", "142322.387000", "142324.388000", "142326.388000", "142328.388000", "142330.388000", "142332.387000", "142334.388000", "142336.387000", "142338.388000", "142340.388000", "142342.387000", "142344.388000", "142346.387000", "142348.388000", "142350.388000", "142352.388000", "142354.387000", "142356.387000", "142358.387000", "142400.388000", "142402.387000", "142404.387000", "142406.388000", "142408.388000", "142410.388000", "142412.386000", "142414.387000", "142416.388000", "142418.388000", "142420.388000", "142422.387000", "142424.388000", "142426.387000", "142428.388000", "142430.388000", "142432.388000", "142434.069000"],
      "InstanceNumber": [1, 2, 3, 4, 5, 6, 7, 8, 9, 10, 11, 12, 13, 14, 15, 16, 17, 18, 19, 20, 21, 22, 23, 24, 25, 26, 27, 28, 29, 30, 31, 32, 33, 34, 35, 36, 37, 38, 39, 40, 41, 42, 43, 44, 45, 46, 47, 48, 49, 50, 51, 52, 53, 54, 55, 56, 57, 58, 59, 60, 61, 62, 63, 64, 65, 66, 67, 68, 69, 70, 71, 72, 73, 74, 75, 76, 77, 78, 79, 80, 81, 82, 83, 84, 85, 86, 87, 88, 89, 90, 91, 92, 93, 94, 95, 96, 97, 98, 99, 100, 101, 102, 103, 104, 105, 106, 107, 108, 109, 110, 111, 112, 113, 114, 115, 116, 117, 118, 119, 120, 121, 122, 123, 124, 125, 126, 127, 128, 129, 130, 131, 132, 133, 134, 135, 136, 137, 138, 139, 140, 141, 142, 143, 144, 145, 146, 147, 148, 149, 150, 151, 152, 153, 154, 155, 156, 157, 158, 159, 160, 161, 162, 163, 164, 165, 166, 167, 168, 169, 170, 171, 172, 173, 174, 175, 176, 177, 178, 179, 180, 181, 182, 183, 184, 185, 186, 187, 188, 189, 190, 191, 192, 193, 194, 195, 196, 197, 198, 199, 200, 201, 202, 203, 204, 205, 206, 207, 208, 209, 210, 211, 212, 213, 214, 215, 216, 217, 218, 219, 220, 221, 222, 223, 224, 225, 226, 227, 228, 229, 230, 231, 232, 233, 234, 235, 236, 237, 238, 239, 240, 241, 242, 243, 244, 245, 246, 247, 248, 249, 250, 251, 252, 253, 254, 255, 256],
      "LargestImagePixelValue": [4003, 3950, 3944, 3939, 3920, 3927, 3929, 3929, 3916, 3905, 3891, 3937, 3931, 3914, 3922, 3913, 3871, 3904, 3925, 3921, 3906, 3901, 3897, 3938, 3913, 3903, 3919, 3922, 3901, 3897, 3913, 3909, 3923, 3936, 3909, 3900, 3926, 3921, 3884, 3956, 3926, 3913, 3937, 3930, 3963, 3918, 3901, 3955, 3913, 3898, 3931, 3908, 3904, 3888, 3880, 3917, 3895, 3898, 3904, 3950, 3930, 3896, 3925, 3888, 3875, 3872, 3878, 3927, 3929, 3966, 3924, 3917, 3946, 3974, 3953, 3904, 3958, 3942, 3907, 3894, 3924, 3909, 3897, 3924, 3946, 3941, 3929, 3966, 3935, 3883, 3991, 3962, 3908, 3933, 3964, 3981, 3955, 3931, 3913, 3967, 3931, 3934, 3936, 3953, 3925, 3966, 3935, 3956, 3958, 4003, 3933, 3923, 3936, 3939, 3949, 3926, 3917, 3964, 3921, 3910, 3907, 3942, 3933, 3950, 3931, 3926, 3955, 3942, 3943, 3925, 3908, 3923, 3923, 3914, 3929, 3907, 3903, 4001, 3950, 3930, 3963, 3932, 3950, 3911, 3900, 3937, 3905, 3952, 3933, 3946, 3927, 3948, 3982, 3936, 3931, 3938, 3978, 3947, 3971, 3955, 3923, 3905, 3992, 3940, 3913, 3900, 3939, 3953, 3923, 3908, 3889, 3899, 3944, 3931, 3920, 3926, 3953, 3924, 3926, 3977, 3961, 3942, 3931, 3906, 3940, 3972, 3969, 3954, 3930, 3993, 3962, 3962, 3929, 3913, 3967, 3955, 3935, 3914, 3891, 3957, 3916, 3915, 3894, 3930, 3932, 3927, 3914, 3964, 3939, 3955, 3910, 3949, 3944, 3896, 3937, 3856, 3841, 3836, 3853, 3837, 3836, 3863, 3859, 3847, 3838, 3841, 3860, 3839, 3892, 3857, 3831, 3884, 3829, 3822, 3879, 3869, 3836, 3806, 3908, 3862, 3891, 3840, 3853, 3836, 3903, 3868, 3848, 3892, 3859, 3859, 3902, 3840, 3839, 3864, 3888, 3861],
      "WindowCenter": [811.0, 810.0, 810.0, 811.0, 810.0, 810.0, 810.0, 811.0, 810.0, 809.0, 809.0, 810.0, 810.0, 810.0, 811.0, 810.0, 810.0, 809.0, 809.0, 809.0, 809.0, 809.0, 809.0, 810.0, 810.0, 809.0, 810.0, 811.0, 811.0, 810.0, 810.0, 810.0, 809.0, 809.0, 809.0, 809.0, 809.0, 809.0, 808.0, 808.0, 808.0, 809.0, 810.0, 810.0, 810.0, 810.0, 810.0, 810.0, 809.0, 809.0, 810.0, 810.0, 812.0, 811.0, 809.0, 808.0, 808.0, 808.0, 809.0, 809.0, 809.0, 809.0, 811.0, 810.0, 808.0, 807.0, 808.0, 809.0, 811.0, 810.0, 808.0, 808.0, 808.0, 809.0, 810.0, 810.0, 813.0, 812.0, 810.0, 809.0, 807.0, 807.0, 807.0, 807.0, 808.0, 808.0, 809.0, 809.0, 809.0, 809.0, 810.0, 810.0, 810.0, 811.0, 814.0, 815.0, 814.0, 813.0, 812.0, 812.0, 811.0, 811.0, 810.0, 809.0, 810.0, 811.0, 811.0, 811.0, 813.0, 813.0, 811.0, 810.0, 810.0, 810.0, 810.0, 810.0, 811.0, 813.0, 813.0, 811.0, 808.0, 808.0, 808.0, 808.0, 807.0, 807.0, 809.0, 811.0, 810.0, 810.0, 811.0, 811.0, 810.0, 808.0, 807.0, 808.0, 808.0, 809.0, 809.0, 810.0, 812.0, 813.0, 812.0, 811.0, 811.0, 811.0, 811.0, 810.0, 809.0, 809.0, 810.0, 811.0, 813.0, 811.0, 810.0, 808.0, 808.0, 808.0, 808.0, 809.0, 809.0, 809.0, 811.0, 813.0, 813.0, 812.0, 812.0, 812.0, 810.0, 808.0, 808.0, 808.0, 809.0, 810.0, 810.0, 809.0, 809.0, 809.0, 810.0, 812.0, 811.0, 811.0, 809.0, 809.0, 809.0, 810.0, 810.0, 810.0, 812.0, 814.0, 814.0, 813.0, 810.0, 810.0, 809.0, 809.0, 809.0, 809.0, 809.0, 809.0, 809.0, 809.0, 809.0, 809.0, 809.0, 808.0, 809.0, 809.0, 810.0, 810.0, 810.0, 809.0, 809.0, 807.0, 808.0, 810.0, 808.0, 806.0, 806.0, 807.0, 808.0, 809.0, 810.0, 810.0, 810.0, 810.0, 810.0, 810.0, 810.0, 810.0, 809.0, 809.0, 809.0, 809.0, 808.0, 808.0, 808.0, 809.0, 809.0, 809.0, 809.0, 809.0, 809.0, 808.0, 809.0, 808.0, 809.0, 809.0, 809.0, 808.0, 808.0, 809.0, 809.0, 809.0, 809.0, 809.0],
      "WindowWidth": [1784.0, 1781.0, 1781.0, 1783.0, 1782.0, 1780.0, 1780.0, 1783.0, 1782.0, 1778.0, 1779.0, 1780.0, 1782.0, 1783.0, 1784.0, 1782.0, 1780.0, 1778.0, 1779.0, 1778.0, 1777.0, 1777.0, 1780.0, 1783.0, 1780.0, 1779.0, 1781.0, 1784.0, 1782.0, 1781.0, 1780.0, 1780.0, 1778.0, 1778.0, 1778.0, 1778.0, 1778.0, 1777.0, 1776.0, 1775.0, 1776.0, 1779.0, 1781.0, 1782.0, 1782.0, 1783.0, 1781.0, 1780.0, 1779.0, 1779.0, 1780.0, 1782.0, 1787.0, 1783.0, 1778.0, 1775.0, 1773.0, 1774.0, 1777.0, 1778.0, 1779.0, 1778.0, 1784.0, 1779.0, 1774.0, 1772.0, 1775.0, 1779.0, 1783.0, 1780.0, 1776.0, 1774.0, 1776.0, 1778.0, 1780.0, 1781.0, 1789.0, 1788.0, 1781.0, 1776.0, 1773.0, 1772.0, 1772.0, 1773.0, 1774.0, 1774.0, 1776.0, 1779.0, 1779.0, 1777.0, 1780.0, 1780.0, 1780.0, 1786.0, 1795.0, 1796.0, 1793.0, 1791.0, 1788.0, 1786.0, 1783.0, 1783.0, 1781.0, 1778.0, 1779.0, 1782.0, 1783.0, 1784.0, 1789.0, 1790.0, 1783.0, 1780.0, 1780.0, 1780.0, 1779.0, 1779.0, 1782.0, 1790.0, 1790.0, 1783.0, 1775.0, 1774.0, 1776.0, 1774.0, 1773.0, 1773.0, 1779.0, 1783.0, 1782.0, 1781.0, 1783.0, 1784.0, 1780.0, 1775.0, 1772.0, 1774.0, 1774.0, 1778.0, 1779.0, 1781.0, 1787.0, 1790.0, 1787.0, 1782.0, 1782.0, 1784.0, 1783.0, 1779.0, 1778.0, 1778.0, 1780.0, 1784.0, 1788.0, 1783.0, 1779.0, 1775.0, 1775.0, 1774.0, 1776.0, 1777.0, 1778.0, 1779.0, 1785.0, 1788.0, 1788.0, 1787.0, 1787.0, 1785.0, 1779.0, 1775.0, 1774.0, 1775.0, 1777.0, 1781.0, 1779.0, 1776.0, 1777.0, 1777.0, 1782.0, 1787.0, 1784.0, 1783.0, 1778.0, 1777.0, 1778.0, 1780.0, 1780.0, 1781.0, 1787.0, 1792.0, 1793.0, 1788.0, 1781.0, 1779.0, 1778.0, 1777.0, 1777.0, 1777.0, 1778.0, 1778.0, 1778.0, 1777.0, 1779.0, 1777.0, 1777.0, 1775.0, 1777.0, 1779.0, 1782.0, 1782.0, 1782.0, 1779.0, 1778.0, 1771.0, 1777.0, 1781.0, 1773.0, 1769.0, 1769.0, 1771.0, 1774.0, 1776.0, 1778.0, 1778.0, 1779.0, 1779.0, 1779.0, 1778.0, 1779.0, 1779.0, 1778.0, 1777.0, 1775.0, 1775.0, 1775.0, 1773.0, 1773.0, 1775.0, 1777.0, 1776.0, 1776.0, 1775.0, 1776.0, 1775.0, 1776.0, 1775.0, 1777.0, 1776.0, 1776.0, 1775.0, 1775.0, 1776.0, 1777.0, 1777.0, 1778.0, 1776.0]
    },
    "slices": {}
  }
}