{
  "AcquisitionMatrixPE": 100,
  "AcquisitionNumber": 1,
  "AcquisitionTime": "13:54:28.465000",
  "BandwidthPerPixelPhaseEncode": 18.519,
  "BaseResolution": 100,
  "BodyPartExamined": "BRAIN",
  "ConsistencyInfo": "N4_VE11C_LATEST_20160120",
  "ConversionSoftware": "dcm2niix",
  "ConversionSoftwareVersion": "v1.0.20180622 GCC4.9.2",
  "DerivedVendorReportedEchoSpacing": 0.000539986,
  "DeviceSerialNumber": "166078",
  "DwellTime": 2.1e-06,
  "EchoTime": 0.034,
  "EchoTrainLength": 100,
  "EffectiveEchoSpacing": 0.000539986,
  "FlipAngle": 90,
  "ImageOrientationPatientDICOM": [1, 0, 0, 0, 0.981293, -0.192522],
  "ImageType": [
    "ORIGINAL",
    "PRIMARY",
    "M",
    "ND",
    "MOSAIC"
],
  "InPlanePhaseEncodingDirectionDICOM": "COL",
  "InstitutionAddress": "Street_StreetNo_Bei_Jing_District_CN_ZIP",
  "InstitutionName": "BeiJing_Normal_University",
  "InstitutionalDepartmentName": "Department",
  "MRAcquisitionType": "2D",
  "MagneticFieldStrength": 3,
  "Manufacturer": "Siemens",
  "ManufacturersModelName": "Prisma",
  "Modality": "MR",
  "MultibandAccelerationFactor": 3,
  "PartialFourier": 1,
  "PatientPosition": "HFS",
  "PercentPhaseFOV": 100,
  "PhaseEncodingDirection": "j-",
  "PhaseEncodingSteps": 100,
  "PhaseResolution": 1,
  "PixelBandwidth": 2380,
  "ProcedureStepDescription": "BNU_P2018_64CH_Zhen.ZongLei",
  "ProtocolName": "bold_100x100_s3_2x2x2_static_256",
  "PulseSequenceDetails": "%SiemensSeq%_ep2d_bold",
  "ReceiveCoilActiveElements": "HC1-7;NC1",
  "ReceiveCoilName": "HeadNeck_64",
  "ReconMatrixPE": 100,
  "RepetitionTime": 2,
  "SAR": 0.0728372,
  "ScanOptions": "FS",
  "ScanningSequence": "EP",
  "SequenceName": "_epfid2d1_100",
  "SequenceVariant": "SK",
  "SeriesDescription": "bold_100x100_s3_2x2x2_static_256",
  "SeriesNumber": 7,
  "ShimSetting": [-5463, -11482, -1288, 326, 36, -205, -159, 48],
  "SliceThickness": 2,
  "SliceTiming": [1.485, 0, 0.99, 0.0825, 1.0725, 0.165, 1.155, 0.2475, 1.2375, 0.33, 1.32, 0.4125, 1.4025, 0.5775, 1.5675, 0.66, 1.65, 0.7425, 1.7325, 0.825, 1.815, 0.9075, 1.8975, 0.495, 1.485, 0, 0.99, 0.0825, 1.0725, 0.165, 1.155, 0.2475, 1.2375, 0.33, 1.32, 0.4125, 1.4025, 0.5775, 1.5675, 0.66, 1.65, 0.7425, 1.7325, 0.825, 1.815, 0.9075, 1.8975, 0.495, 1.485, 0, 0.99, 0.0825, 1.0725, 0.165, 1.155, 0.2475, 1.2375, 0.33, 1.32, 0.4125, 1.4025, 0.5775, 1.5675, 0.66, 1.65, 0.7425, 1.7325, 0.825, 1.815, 0.9075, 1.8975, 0.495],
  "SoftwareVersions": "syngo_MR_E11",
  "SpacingBetweenSlices": 2,
  "StationName": "AWP166078",
  "TaskName": "naturalvision",
  "TotalReadoutTime": 0.0534586,
  "TxRefAmp": 208.17,
  "dcmmeta_affine": [
    [-2.0, 0.0, 0.0, 102.03389739990234],
    [0.0, 1.9625853300094604, -0.3850439488887787, -83.61626434326172],
    [0.0, 0.3850439488887787, 1.9625853300094604, -83.58009338378906],
    [0.0, 0.0, 0.0, 1.0]
],
  "dcmmeta_reorient_transform": [
    [0.0, -1.0, 0.0, 99.0],
    [1.0, 0.0, 0.0, 0.0],
    [0.0, 0.0, 1.0, 0.0],
    [0.0, 0.0, 0.0, 1.0]
],
  "dcmmeta_shape": [100, 100, 72, 256],
  "dcmmeta_slice_dim": 2,
  "dcmmeta_version": 0.6,
  "global": {
    "const": {
      "AcquisitionMatrix": [100, 0, 0, 100],
      "AngioFlag": "N",
      "BitsAllocated": 16,
      "BitsStored": 12,
      "BodyPartExamined": "BRAIN",
      "Columns": 900,
      "EchoNumbers": 1,
      "EchoTime": 34.0,
      "EchoTrainLength": 100,
      "FlipAngle": 90.0,
      "HighBit": 11,
      "ImageOrientationPatient": [1.0, 0.0, 0.0, 0.0, 0.98129266330938, -0.1925219700065],
      "ImagePositionPatient": [-902.03389835358, -895.71381297118, 108.55682897507],
      "ImageType": [
        "ORIGINAL",
        "PRIMARY",
        "M",
        "ND",
        "MOSAIC"
],
      "ImagedNucleus": "1H",
      "ImagingFrequency": 123.257722,
      "InPlanePhaseEncodingDirection": "COL",
      "MRAcquisitionType": "2D",
      "MagneticFieldStrength": 3.0,
      "Manufacturer": "SIEMENS",
      "ManufacturerModelName": "Prisma",
      "Modality": "MR",
      "NumberOfAverages": 1.0,
      "NumberOfPhaseEncodingSteps": 100,
      "PercentPhaseFieldOfView": 100.0,
      "PercentSampling": 100.0,
      "PerformedProcedureStepStartTime": "130455.886000",
      "PhotometricInterpretation": "MONOCHROME2",
      "PixelBandwidth": 2380.0,
      "PixelRepresentation": 0,
      "PixelSpacing": [2.0, 2.0],
      "ProtocolName": "bold_100x100_s3_2x2x2_static_256",
      "RepetitionTime": 2000.0,
      "Rows": 900,
      "SAR": 0.07283716184881,
      "SamplesPerPixel": 1,
      "ScanOptions": "FS",
      "ScanningSequence": "EP",
      "SequenceName": "*epfid2d1_100",
      "SequenceVariant": "SK",
      "SeriesDescription": "bold_100x100_s3_2x2x2_static_256",
      "SeriesNumber": 7,
      "SeriesTime": "135430.692000",
      "SliceLocation": -65.91856800986,
      "SliceThickness": 2.0,
      "SmallestImagePixelValue": 0,
      "SoftwareVersions": "syngo MR E11",
      "SpacingBetweenSlices": 2.0000000142257,
      "SpecificCharacterSet": "ISO_IR 100",
      "StudyID": "1",
      "StudyTime": "130455.795000",
      "TransmitCoilName": "Body",
      "VariableFlipAngleFlag": "N",
      "WindowCenterWidthExplanation": "Algo1",
      "dBdt": 0.0},
    "slices": {}
  },
  "time": {
    "samples": {
      "AcquisitionNumber": [1, 2, 3, 4, 5, 6, 7, 8, 9, 10, 11, 12, 13, 14, 15, 16, 17, 18, 19, 20, 21, 22, 23, 24, 25, 26, 27, 28, 29, 30, 31, 32, 33, 34, 35, 36, 37, 38, 39, 40, 41, 42, 43, 44, 45, 46, 47, 48, 49, 50, 51, 52, 53, 54, 55, 56, 57, 58, 59, 60, 61, 62, 63, 64, 65, 66, 67, 68, 69, 70, 71, 72, 73, 74, 75, 76, 77, 78, 79, 80, 81, 82, 83, 84, 85, 86, 87, 88, 89, 90, 91, 92, 93, 94, 95, 96, 97, 98, 99, 100, 101, 102, 103, 104, 105, 106, 107, 108, 109, 110, 111, 112, 113, 114, 115, 116, 117, 118, 119, 120, 121, 122, 123, 124, 125, 126, 127, 128, 129, 130, 131, 132, 133, 134, 135, 136, 137, 138, 139, 140, 141, 142, 143, 144, 145, 146, 147, 148, 149, 150, 151, 152, 153, 154, 155, 156, 157, 158, 159, 160, 161, 162, 163, 164, 165, 166, 167, 168, 169, 170, 171, 172, 173, 174, 175, 176, 177, 178, 179, 180, 181, 182, 183, 184, 185, 186, 187, 188, 189, 190, 191, 192, 193, 194, 195, 196, 197, 198, 199, 200, 201, 202, 203, 204, 205, 206, 207, 208, 209, 210, 211, 212, 213, 214, 215, 216, 217, 218, 219, 220, 221, 222, 223, 224, 225, 226, 227, 228, 229, 230, 231, 232, 233, 234, 235, 236, 237, 238, 239, 240, 241, 242, 243, 244, 245, 246, 247, 248, 249, 250, 251, 252, 253, 254, 255, 256],
      "AcquisitionTime": ["135428.465000", "135430.465000", "135432.465000", "135434.465000", "135436.465000", "135438.465000", "135440.465000", "135442.465000", "135444.465000", "135446.465000", "135448.465000", "135450.465000", "135452.465000", "135454.465000", "135456.465000", "135458.465000", "135500.465000", "135502.465000", "135504.465000", "135506.465000", "135508.465000", "135510.465000", "135512.465000", "135514.465000", "135516.465000", "135518.465000", "135520.465000", "135522.465000", "135524.465000", "135526.465000", "135528.465000", "135530.465000", "135532.465000", "135534.465000", "135536.465000", "135538.465000", "135540.465000", "135542.465000", "135544.465000", "135546.465000", "135548.465000", "135550.465000", "135552.465000", "135554.465000", "135556.465000", "135558.465000", "135600.465000", "135602.465000", "135604.465000", "135606.465000", "135608.465000", "135610.465000", "135612.465000", "135614.465000", "135616.465000", "135618.465000", "135620.465000", "135622.465000", "135624.465000", "135626.465000", "135628.465000", "135630.465000", "135632.465000", "135634.465000", "135636.465000", "135638.465000", "135640.465000", "135642.465000", "135644.465000", "135646.465000", "135648.465000", "135650.465000", "135652.465000", "135654.465000", "135656.465000", "135658.465000", "135700.465000", "135702.465000", "135704.465000", "135706.465000", "135708.465000", "135710.465000", "135712.465000", "135714.465000", "135716.465000", "135718.465000", "135720.465000", "135722.465000", "135724.465000", "135726.465000", "135728.465000", "135730.465000", "135732.465000", "135734.465000", "135736.465000", "135738.465000", "135740.465000", "135742.465000", "135744.465000", "135746.465000", "135748.465000", "135750.465000", "135752.465000", "135754.465000", "135756.465000", "135758.465000", "135800.465000", "135802.465000", "135804.465000", "135806.465000", "135808.465000", "135810.465000", "135812.465000", "135814.465000", "135816.465000", "135818.465000", "135820.465000", "135822.465000", "135824.465000", "135826.465000", "135828.465000", "135830.465000", "135832.465000", "135834.465000", "135836.465000", "135838.465000", "135840.465000", "135842.465000", "135844.465000", "135846.465000", "135848.465000", "135850.465000", "135852.465000", "135854.465000", "135856.465000", "135858.465000", "135900.465000", "135902.465000", "135904.465000", "135906.465000", "135908.465000", "135910.465000", "135912.465000", "135914.465000", "135916.465000", "135918.465000", "135920.465000", "135922.465000", "135924.465000", "135926.465000", "135928.465000", "135930.465000", "135932.465000", "135934.465000", "135936.465000", "135938.465000", "135940.465000", "135942.465000", "135944.465000", "135946.465000", "135948.465000", "135950.465000", "135952.465000", "135954.465000", "135956.465000", "135958.465000", "140000.465000", "140002.465000", "140004.465000", "140006.465000", "140008.465000", "140010.465000", "140012.465000", "140014.465000", "140016.465000", "140018.465000", "140020.465000", "140022.465000", "140024.465000", "140026.465000", "140028.465000", "140030.465000", "140032.465000", "140034.465000", "140036.465000", "140038.465000", "140040.465000", "140042.465000", "140044.465000", "140046.465000", "140048.465000", "140050.465000", "140052.465000", "140054.465000", "140056.465000", "140058.465000", "140100.465000", "140102.465000", "140104.465000", "140106.465000", "140108.465000", "140110.465000", "140112.465000", "140114.465000", "140116.465000", "140118.465000", "140120.465000", "140122.465000", "140124.465000", "140126.465000", "140128.465000", "140130.465000", "140132.465000", "140134.465000", "140136.465000", "140138.465000", "140140.465000", "140142.465000", "140144.465000", "140146.465000", "140148.465000", "140150.465000", "140152.465000", "140154.465000", "140156.465000", "140158.465000", "140200.465000", "140202.465000", "140204.465000", "140206.465000", "140208.465000", "140210.465000", "140212.465000", "140214.465000", "140216.465000", "140218.465000", "140220.465000", "140222.465000", "140224.465000", "140226.465000", "140228.465000", "140230.465000", "140232.465000", "140234.465000", "140236.465000", "140238.465000", "140240.465000", "140242.465000", "140244.465000", "140246.465000", "140248.465000", "140250.465000", "140252.465000", "140254.465000", "140256.465000", "140258.465000"],
      "ContentTime": ["135430.695000", "135432.178000", "135434.177000", "135436.178000", "135438.178000", "135440.177000", "135442.178000", "135444.178000", "135446.177000", "135448.177000", "135450.178000", "135452.178000", "135454.177000", "135456.177000", "135458.177000", "135500.178000", "135502.178000", "135504.176000", "135506.177000", "135508.178000", "135510.177000", "135512.178000", "135514.178000", "135516.178000", "135518.177000", "135520.177000", "135522.177000", "135524.178000", "135526.177000", "135528.177000", "135530.178000", "135532.178000", "135534.178000", "135536.177000", "135538.177000", "135540.178000", "135542.177000", "135544.178000", "135546.177000", "135548.178000", "135550.177000", "135552.177000", "135554.677000", "135556.177000", "135558.178000", "135600.178000", "135602.177000", "135604.177000", "135606.177000", "135608.177000", "135610.177000", "135612.677000", "135614.176000", "135616.177000", "135618.677000", "135620.177000", "135622.177000", "135624.177000", "135626.177000", "135628.178000", "135630.177000", "135632.678000", "135634.177000", "135636.177000", "135638.177000", "135640.177000", "135642.177000", "135644.177000", "135646.177000", "135648.178000", "135650.178000", "135652.177000", "135654.178000", "135656.178000", "135658.178000", "135700.177000", "135702.177000", "135704.177000", "135706.176000", "135708.177000", "135710.177000", "135712.178000", "135714.177000", "135716.178000", "135718.177000", "135720.178000", "135722.177000", "135724.178000", "135726.177000", "135728.178000", "135730.178000", "135732.177000", "135734.178000", "135736.178000", "135738.177000", "135740.177000", "135742.177000", "135744.177000", "135746.178000", "135748.177000", "135750.177000", "135752.178000", "135754.177000", "135756.177000", "135758.177000", "135800.178000", "135802.178000", "135804.678000", "135806.178000", "135808.177000", "135810.178000", "135812.178000", "135814.177000", "135816.176000", "135818.177000", "135820.678000", "135822.177000", "135824.177000", "135826.178000", "135828.177000", "135830.177000", "135832.177000", "135834.678000", "135836.178000", "135838.177000", "135840.177000", "135842.178000", "135844.177000", "135846.677000", "135848.177000", "135850.177000", "135852.177000", "135854.177000", "135856.177000", "135858.177000", "135900.177000", "135902.677000", "135904.177000", "135906.177000", "135908.177000", "135910.178000", "135912.177000", "135914.178000", "135916.177000", "135918.177000", "135920.677000", "135922.177000", "135924.177000", "135926.176000", "135928.178000", "135930.178000", "135932.178000", "135934.177000", "135936.177000", "135938.178000", "135940.178000", "135942.177000", "135944.177000", "135946.178000", "135948.178000", "135950.177000", "135952.178000", "135954.178000", "135956.178000", "135958.678000", "140000.177000", "140002.177000", "140004.178000", "140006.177000", "140008.178000", "140010.178000", "140012.177000", "140014.177000", "140016.177000", "140018.178000", "140020.177000", "140022.189000", "140024.177000", "140026.177000", "140028.178000", "140030.177000", "140032.178000", "140034.177000", "140036.177000", "140038.678000", "140040.177000", "140042.177000", "140044.177000", "140046.178000", "140048.177000", "140050.177000", "140052.678000", "140054.177000", "140056.177000", "140058.177000", "140100.178000", "140102.177000", "140104.178000", "140106.178000", "140108.177000", "140110.178000", "140112.178000", "140114.177000", "140116.177000", "140118.177000", "140120.177000", "140122.177000", "140124.177000", "140126.178000", "140128.178000", "140130.177000", "140132.677000", "140134.178000", "140136.178000", "140138.177000", "140140.177000", "140142.177000", "140144.177000", "140146.176000", "140148.177000", "140150.177000", "140152.178000", "140154.178000", "140156.178000", "140158.177000", "140200.178000", "140202.177000", "140204.177000", "140206.178000", "140208.178000", "140210.177000", "140212.178000", "140214.178000", "140216.677000", "140218.178000", "140220.178000", "140222.177000", "140224.178000", "140226.178000", "140228.177000", "140230.178000", "140232.178000", "140234.177000", "140236.178000", "140238.176000", "140240.178000", "140242.178000", "140244.178000", "140246.178000", "140248.678000", "140250.178000", "140252.177000", "140254.178000", "140256.177000", "140258.178000", "140300.089000"],
      "InstanceCreationTime": ["135430.695000", "135432.178000", "135434.177000", "135436.178000", "135438.178000", "135440.177000", "135442.178000", "135444.178000", "135446.177000", "135448.177000", "135450.178000", "135452.178000", "135454.177000", "135456.177000", "135458.177000", "135500.178000", "135502.178000", "135504.176000", "135506.177000", "135508.178000", "135510.177000", "135512.178000", "135514.178000", "135516.178000", "135518.177000", "135520.177000", "135522.177000", "135524.178000", "135526.177000", "135528.177000", "135530.178000", "135532.178000", "135534.178000", "135536.177000", "135538.177000", "135540.178000", "135542.177000", "135544.178000", "135546.177000", "135548.178000", "135550.177000", "135552.177000", "135554.677000", "135556.177000", "135558.178000", "135600.178000", "135602.177000", "135604.177000", "135606.177000", "135608.177000", "135610.177000", "135612.677000", "135614.176000", "135616.177000", "135618.677000", "135620.177000", "135622.177000", "135624.177000", "135626.177000", "135628.178000", "135630.177000", "135632.678000", "135634.177000", "135636.177000", "135638.177000", "135640.177000", "135642.177000", "135644.177000", "135646.177000", "135648.178000", "135650.178000", "135652.177000", "135654.178000", "135656.178000", "135658.178000", "135700.177000", "135702.177000", "135704.177000", "135706.176000", "135708.177000", "135710.177000", "135712.178000", "135714.177000", "135716.178000", "135718.177000", "135720.178000", "135722.177000", "135724.178000", "135726.177000", "135728.178000", "135730.178000", "135732.177000", "135734.178000", "135736.178000", "135738.177000", "135740.177000", "135742.177000", "135744.177000", "135746.178000", "135748.177000", "135750.177000", "135752.178000", "135754.177000", "135756.177000", "135758.177000", "135800.178000", "135802.178000", "135804.678000", "135806.178000", "135808.177000", "135810.178000", "135812.178000", "135814.177000", "135816.176000", "135818.177000", "135820.678000", "135822.177000", "135824.177000", "135826.178000", "135828.177000", "135830.177000", "135832.177000", "135834.678000", "135836.178000", "135838.177000", "135840.177000", "135842.178000", "135844.177000", "135846.677000", "135848.177000", "135850.177000", "135852.177000", "135854.177000", "135856.177000", "135858.177000", "135900.177000", "135902.677000", "135904.177000", "135906.177000", "135908.177000", "135910.178000", "135912.177000", "135914.178000", "135916.177000", "135918.177000", "135920.677000", "135922.177000", "135924.177000", "135926.176000", "135928.178000", "135930.178000", "135932.178000", "135934.177000", "135936.177000", "135938.178000", "135940.178000", "135942.177000", "135944.177000", "135946.178000", "135948.178000", "135950.177000", "135952.178000", "135954.178000", "135956.178000", "135958.678000", "140000.177000", "140002.177000", "140004.178000", "140006.177000", "140008.178000", "140010.178000", "140012.177000", "140014.177000", "140016.177000", "140018.178000", "140020.177000", "140022.189000", "140024.177000", "140026.177000", "140028.178000", "140030.177000", "140032.178000", "140034.177000", "140036.177000", "140038.678000", "140040.177000", "140042.177000", "140044.177000", "140046.178000", "140048.177000", "140050.177000", "140052.678000", "140054.177000", "140056.177000", "140058.177000", "140100.178000", "140102.177000", "140104.178000", "140106.178000", "140108.177000", "140110.178000", "140112.178000", "140114.177000", "140116.177000", "140118.177000", "140120.177000", "140122.177000", "140124.177000", "140126.178000", "140128.178000", "140130.177000", "140132.677000", "140134.178000", "140136.178000", "140138.177000", "140140.177000", "140142.177000", "140144.177000", "140146.176000", "140148.177000", "140150.177000", "140152.178000", "140154.178000", "140156.178000", "140158.177000", "140200.178000", "140202.177000", "140204.177000", "140206.178000", "140208.178000", "140210.177000", "140212.178000", "140214.178000", "140216.677000", "140218.178000", "140220.178000", "140222.177000", "140224.178000", "140226.178000", "140228.177000", "140230.178000", "140232.178000", "140234.177000", "140236.178000", "140238.176000", "140240.178000", "140242.178000", "140244.178000", "140246.178000", "140248.678000", "140250.178000", "140252.177000", "140254.178000", "140256.177000", "140258.178000", "140300.089000"],
      "InstanceNumber": [1, 2, 3, 4, 5, 6, 7, 8, 9, 10, 11, 12, 13, 14, 15, 16, 17, 18, 19, 20, 21, 22, 23, 24, 25, 26, 27, 28, 29, 30, 31, 32, 33, 34, 35, 36, 37, 38, 39, 40, 41, 42, 43, 44, 45, 46, 47, 48, 49, 50, 51, 52, 53, 54, 55, 56, 57, 58, 59, 60, 61, 62, 63, 64, 65, 66, 67, 68, 69, 70, 71, 72, 73, 74, 75, 76, 77, 78, 79, 80, 81, 82, 83, 84, 85, 86, 87, 88, 89, 90, 91, 92, 93, 94, 95, 96, 97, 98, 99, 100, 101, 102, 103, 104, 105, 106, 107, 108, 109, 110, 111, 112, 113, 114, 115, 116, 117, 118, 119, 120, 121, 122, 123, 124, 125, 126, 127, 128, 129, 130, 131, 132, 133, 134, 135, 136, 137, 138, 139, 140, 141, 142, 143, 144, 145, 146, 147, 148, 149, 150, 151, 152, 153, 154, 155, 156, 157, 158, 159, 160, 161, 162, 163, 164, 165, 166, 167, 168, 169, 170, 171, 172, 173, 174, 175, 176, 177, 178, 179, 180, 181, 182, 183, 184, 185, 186, 187, 188, 189, 190, 191, 192, 193, 194, 195, 196, 197, 198, 199, 200, 201, 202, 203, 204, 205, 206, 207, 208, 209, 210, 211, 212, 213, 214, 215, 216, 217, 218, 219, 220, 221, 222, 223, 224, 225, 226, 227, 228, 229, 230, 231, 232, 233, 234, 235, 236, 237, 238, 239, 240, 241, 242, 243, 244, 245, 246, 247, 248, 249, 250, 251, 252, 253, 254, 255, 256],
      "LargestImagePixelValue": [3956, 3881, 3848, 3879, 3860, 3864, 3877, 3825, 3860, 3872, 3835, 3886, 3870, 3913, 3870, 3855, 3868, 3879, 3865, 3872, 3862, 3861, 3863, 3880, 3895, 3841, 3882, 3837, 3883, 3841, 3854, 3847, 3856, 3853, 3889, 3861, 3862, 3872, 3842, 3865, 3857, 3894, 3878, 3857, 3897, 3884, 3872, 3896, 3871, 3898, 3853, 3889, 3863, 3872, 3882, 3887, 3851, 3887, 3857, 3874, 3877, 3867, 3868, 3884, 3843, 3834, 3841, 3868, 3906, 3894, 3882, 3866, 3840, 3885, 3887, 3879, 3836, 3866, 3870, 3826, 3839, 3873, 3907, 3910, 3873, 3887, 3921, 3913, 3871, 3912, 3913, 3881, 3869, 3916, 3942, 3933, 3890, 3926, 3944, 3952, 3873, 3865, 3817, 3879, 3885, 3874, 3850, 3902, 3920, 3906, 3881, 3914, 3899, 3929, 3953, 3945, 3897, 3942, 3861, 3906, 3921, 3946, 3910, 3910, 3970, 3958, 3921, 3890, 3887, 3919, 3903, 3960, 3971, 3965, 3896, 3881, 3849, 3893, 3882, 3867, 3893, 3951, 3948, 3901, 3904, 3863, 3880, 3893, 3853, 3898, 3900, 3886, 3904, 3893, 3904, 3896, 3945, 3907, 3873, 3871, 3822, 3855, 3889, 3908, 3896, 3868, 3919, 3947, 3894, 3874, 3834, 3924, 3889, 3902, 3843, 3907, 3882, 3871, 3941, 3909, 3888, 3928, 3899, 3862, 3868, 3896, 3928, 3934, 3935, 3911, 3919, 3884, 3888, 3859, 3862, 3900, 3899, 3895, 3862, 3898, 3920, 3887, 3915, 3898, 3895, 3865, 3917, 3928, 3933, 3899, 3878, 3910, 3869, 3894, 3859, 3875, 3904, 3897, 3903, 3931, 3916, 3934, 3890, 3855, 3883, 3928, 3941, 3869, 3834, 3908, 3943, 3924, 3938, 3901, 3957, 3944, 3933, 3910, 3854, 3893, 3894, 3883, 3866, 3883, 3859, 3870, 3927, 3911, 3879, 3868, 3878, 3905, 3934, 3895, 3889, 3894],
      "WindowCenter": [808.0, 807.0, 805.0, 805.0, 806.0, 807.0, 807.0, 808.0, 809.0, 809.0, 809.0, 810.0, 811.0, 810.0, 810.0, 810.0, 810.0, 809.0, 809.0, 808.0, 808.0, 810.0, 811.0, 810.0, 809.0, 807.0, 808.0, 809.0, 808.0, 808.0, 809.0, 808.0, 808.0, 808.0, 808.0, 808.0, 808.0, 808.0, 807.0, 808.0, 809.0, 811.0, 810.0, 808.0, 808.0, 809.0, 810.0, 811.0, 810.0, 808.0, 807.0, 807.0, 808.0, 807.0, 807.0, 807.0, 808.0, 809.0, 808.0, 808.0, 808.0, 808.0, 808.0, 808.0, 808.0, 808.0, 808.0, 809.0, 810.0, 810.0, 808.0, 806.0, 807.0, 807.0, 807.0, 807.0, 808.0, 808.0, 808.0, 806.0, 806.0, 807.0, 809.0, 811.0, 810.0, 809.0, 809.0, 809.0, 809.0, 812.0, 811.0, 810.0, 809.0, 810.0, 809.0, 809.0, 809.0, 810.0, 812.0, 813.0, 810.0, 808.0, 808.0, 807.0, 807.0, 806.0, 807.0, 807.0, 807.0, 807.0, 807.0, 809.0, 811.0, 812.0, 811.0, 811.0, 810.0, 810.0, 809.0, 810.0, 812.0, 811.0, 810.0, 810.0, 810.0, 811.0, 810.0, 809.0, 809.0, 808.0, 808.0, 810.0, 812.0, 812.0, 809.0, 808.0, 808.0, 808.0, 808.0, 809.0, 810.0, 811.0, 810.0, 809.0, 809.0, 808.0, 809.0, 810.0, 808.0, 809.0, 809.0, 808.0, 808.0, 809.0, 809.0, 810.0, 812.0, 813.0, 811.0, 810.0, 808.0, 809.0, 808.0, 808.0, 808.0, 808.0, 811.0, 811.0, 809.0, 808.0, 807.0, 808.0, 808.0, 808.0, 808.0, 809.0, 810.0, 810.0, 809.0, 808.0, 809.0, 811.0, 810.0, 809.0, 809.0, 809.0, 810.0, 812.0, 812.0, 809.0, 808.0, 806.0, 806.0, 806.0, 806.0, 806.0, 807.0, 807.0, 807.0, 808.0, 810.0, 810.0, 810.0, 809.0, 809.0, 810.0, 813.0, 813.0, 811.0, 809.0, 809.0, 809.0, 809.0, 809.0, 808.0, 808.0, 808.0, 808.0, 808.0, 810.0, 812.0, 813.0, 811.0, 808.0, 807.0, 808.0, 808.0, 807.0, 807.0, 808.0, 808.0, 808.0, 808.0, 809.0, 810.0, 813.0, 813.0, 810.0, 808.0, 807.0, 807.0, 806.0, 807.0, 808.0, 808.0, 810.0, 810.0, 808.0, 807.0, 807.0, 807.0, 808.0, 809.0, 809.0, 809.0, 808.0],
      "WindowWidth": [1777.0, 1771.0, 1767.0, 1765.0, 1768.0, 1770.0, 1772.0, 1774.0, 1777.0, 1777.0, 1779.0, 1782.0, 1783.0, 1782.0, 1781.0, 1780.0, 1780.0, 1778.0, 1776.0, 1774.0, 1775.0, 1780.0, 1783.0, 1780.0, 1777.0, 1773.0, 1777.0, 1777.0, 1776.0, 1774.0, 1777.0, 1776.0, 1774.0, 1775.0, 1776.0, 1777.0, 1775.0, 1775.0, 1774.0, 1775.0, 1780.0, 1783.0, 1781.0, 1776.0, 1775.0, 1779.0, 1782.0, 1785.0, 1780.0, 1775.0, 1772.0, 1774.0, 1774.0, 1773.0, 1773.0, 1772.0, 1775.0, 1777.0, 1777.0, 1776.0, 1774.0, 1775.0, 1776.0, 1774.0, 1775.0, 1775.0, 1776.0, 1778.0, 1784.0, 1782.0, 1774.0, 1771.0, 1771.0, 1772.0, 1772.0, 1772.0, 1775.0, 1776.0, 1774.0, 1769.0, 1770.0, 1775.0, 1780.0, 1785.0, 1783.0, 1778.0, 1777.0, 1777.0, 1779.0, 1787.0, 1786.0, 1781.0, 1779.0, 1780.0, 1778.0, 1778.0, 1778.0, 1782.0, 1789.0, 1791.0, 1781.0, 1774.0, 1774.0, 1773.0, 1771.0, 1770.0, 1773.0, 1773.0, 1772.0, 1772.0, 1774.0, 1779.0, 1785.0, 1788.0, 1786.0, 1784.0, 1779.0, 1780.0, 1778.0, 1782.0, 1786.0, 1784.0, 1780.0, 1781.0, 1781.0, 1784.0, 1782.0, 1777.0, 1776.0, 1776.0, 1776.0, 1781.0, 1789.0, 1787.0, 1779.0, 1775.0, 1774.0, 1775.0, 1775.0, 1777.0, 1781.0, 1785.0, 1782.0, 1777.0, 1777.0, 1777.0, 1778.0, 1780.0, 1776.0, 1777.0, 1779.0, 1776.0, 1776.0, 1777.0, 1777.0, 1781.0, 1788.0, 1789.0, 1783.0, 1779.0, 1776.0, 1777.0, 1776.0, 1776.0, 1776.0, 1775.0, 1783.0, 1785.0, 1778.0, 1773.0, 1772.0, 1776.0, 1775.0, 1775.0, 1774.0, 1778.0, 1781.0, 1780.0, 1779.0, 1776.0, 1779.0, 1783.0, 1783.0, 1776.0, 1776.0, 1777.0, 1781.0, 1788.0, 1787.0, 1777.0, 1774.0, 1770.0, 1769.0, 1769.0, 1768.0, 1770.0, 1771.0, 1772.0, 1772.0, 1776.0, 1782.0, 1781.0, 1780.0, 1778.0, 1779.0, 1781.0, 1789.0, 1790.0, 1783.0, 1778.0, 1777.0, 1778.0, 1780.0, 1779.0, 1775.0, 1774.0, 1775.0, 1775.0, 1776.0, 1781.0, 1787.0, 1790.0, 1784.0, 1774.0, 1772.0, 1775.0, 1775.0, 1772.0, 1772.0, 1776.0, 1776.0, 1774.0, 1776.0, 1778.0, 1781.0, 1792.0, 1789.0, 1781.0, 1773.0, 1772.0, 1772.0, 1770.0, 1773.0, 1774.0, 1776.0, 1781.0, 1782.0, 1776.0, 1770.0, 1773.0, 1773.0, 1776.0, 1777.0, 1777.0, 1776.0, 1773.0]
    },
    "slices": {}
  }
}