{
  "AcquisitionMatrixPE": 100,
  "AcquisitionNumber": 1,
  "AcquisitionTime": "14:06:35.630000",
  "BandwidthPerPixelPhaseEncode": 18.519,
  "BaseResolution": 100,
  "BodyPartExamined": "BRAIN",
  "ConsistencyInfo": "N4_VE11C_LATEST_20160120",
  "ConversionSoftware": "dcm2niix",
  "ConversionSoftwareVersion": "v1.0.20180622 GCC4.9.2",
  "DerivedVendorReportedEchoSpacing": 0.000539986,
  "DeviceSerialNumber": "166078",
  "DwellTime": 2.1e-06,
  "EchoTime": 0.034,
  "EchoTrainLength": 100,
  "EffectiveEchoSpacing": 0.000539986,
  "FlipAngle": 90,
  "ImageOrientationPatientDICOM": [1, 0, 0, 0, 0.981293, -0.192522],
  "ImageType": [
    "ORIGINAL",
    "PRIMARY",
    "M",
    "ND",
    "MOSAIC"
],
  "InPlanePhaseEncodingDirectionDICOM": "COL",
  "InstitutionAddress": "Street_StreetNo_Bei_Jing_District_CN_ZIP",
  "InstitutionName": "BeiJing_Normal_University",
  "InstitutionalDepartmentName": "Department",
  "MRAcquisitionType": "2D",
  "MagneticFieldStrength": 3,
  "Manufacturer": "Siemens",
  "ManufacturersModelName": "Prisma",
  "Modality": "MR",
  "MultibandAccelerationFactor": 3,
  "PartialFourier": 1,
  "PatientPosition": "HFS",
  "PercentPhaseFOV": 100,
  "PhaseEncodingDirection": "j-",
  "PhaseEncodingSteps": 100,
  "PhaseResolution": 1,
  "PixelBandwidth": 2380,
  "ProcedureStepDescription": "BNU_P2018_64CH_Zhen.ZongLei",
  "ProtocolName": "bold_100x100_s3_2x2x2_static_256",
  "PulseSequenceDetails": "%SiemensSeq%_ep2d_bold",
  "ReceiveCoilActiveElements": "HC1-7;NC1",
  "ReceiveCoilName": "HeadNeck_64",
  "ReconMatrixPE": 100,
  "RepetitionTime": 2,
  "SAR": 0.0728372,
  "ScanOptions": "FS",
  "ScanningSequence": "EP",
  "SequenceName": "_epfid2d1_100",
  "SequenceVariant": "SK",
  "SeriesDescription": "bold_100x100_s3_2x2x2_static_256",
  "SeriesNumber": 10,
  "ShimSetting": [-5463, -11482, -1288, 326, 36, -205, -159, 48],
  "SliceThickness": 2,
  "SliceTiming": [1.485, 0, 0.99, 0.0825, 1.0725, 0.165, 1.155, 0.2475, 1.2375, 0.33, 1.32, 0.4125, 1.4025, 0.5775, 1.5675, 0.66, 1.65, 0.7425, 1.7325, 0.825, 1.815, 0.9075, 1.8975, 0.495, 1.485, 0, 0.99, 0.0825, 1.0725, 0.165, 1.155, 0.2475, 1.2375, 0.33, 1.32, 0.4125, 1.4025, 0.5775, 1.5675, 0.66, 1.65, 0.7425, 1.7325, 0.825, 1.815, 0.9075, 1.8975, 0.495, 1.485, 0, 0.99, 0.0825, 1.0725, 0.165, 1.155, 0.2475, 1.2375, 0.33, 1.32, 0.4125, 1.4025, 0.5775, 1.5675, 0.66, 1.65, 0.7425, 1.7325, 0.825, 1.815, 0.9075, 1.8975, 0.495],
  "SoftwareVersions": "syngo_MR_E11",
  "SpacingBetweenSlices": 2,
  "StationName": "AWP166078",
  "TaskName": "naturalvision",
  "TotalReadoutTime": 0.0534586,
  "TxRefAmp": 208.17,
  "dcmmeta_affine": [
    [-2.0, 0.0, 0.0, 102.03389739990234],
    [0.0, 1.9625853300094604, -0.3850439488887787, -83.61626434326172],
    [0.0, 0.3850439488887787, 1.9625853300094604, -83.58009338378906],
    [0.0, 0.0, 0.0, 1.0]
],
  "dcmmeta_reorient_transform": [
    [0.0, -1.0, 0.0, 99.0],
    [1.0, 0.0, 0.0, 0.0],
    [0.0, 0.0, 1.0, 0.0],
    [0.0, 0.0, 0.0, 1.0]
],
  "dcmmeta_shape": [100, 100, 72, 256],
  "dcmmeta_slice_dim": 2,
  "dcmmeta_version": 0.6,
  "global": {
    "const": {
      "AcquisitionMatrix": [100, 0, 0, 100],
      "AngioFlag": "N",
      "BitsAllocated": 16,
      "BitsStored": 12,
      "BodyPartExamined": "BRAIN",
      "Columns": 900,
      "EchoNumbers": 1,
      "EchoTime": 34.0,
      "EchoTrainLength": 100,
      "FlipAngle": 90.0,
      "HighBit": 11,
      "ImageOrientationPatient": [1.0, 0.0, 0.0, 0.0, 0.98129266330938, -0.1925219700065],
      "ImagePositionPatient": [-902.03389835358, -895.71381297118, 108.55682897507],
      "ImageType": [
        "ORIGINAL",
        "PRIMARY",
        "M",
        "ND",
        "MOSAIC"
],
      "ImagedNucleus": "1H",
      "ImagingFrequency": 123.25772,
      "InPlanePhaseEncodingDirection": "COL",
      "MRAcquisitionType": "2D",
      "MagneticFieldStrength": 3.0,
      "Manufacturer": "SIEMENS",
      "ManufacturerModelName": "Prisma",
      "Modality": "MR",
      "NumberOfAverages": 1.0,
      "NumberOfPhaseEncodingSteps": 100,
      "PercentPhaseFieldOfView": 100.0,
      "PercentSampling": 100.0,
      "PerformedProcedureStepStartTime": "130455.886000",
      "PhotometricInterpretation": "MONOCHROME2",
      "PixelBandwidth": 2380.0,
      "PixelRepresentation": 0,
      "PixelSpacing": [2.0, 2.0],
      "ProtocolName": "bold_100x100_s3_2x2x2_static_256",
      "RepetitionTime": 2000.0,
      "Rows": 900,
      "SAR": 0.07283716184881,
      "SamplesPerPixel": 1,
      "ScanOptions": "FS",
      "ScanningSequence": "EP",
      "SequenceName": "*epfid2d1_100",
      "SequenceVariant": "SK",
      "SeriesDescription": "bold_100x100_s3_2x2x2_static_256",
      "SeriesNumber": 10,
      "SeriesTime": "140638.515000",
      "SliceLocation": -65.91856800986,
      "SliceThickness": 2.0,
      "SmallestImagePixelValue": 0,
      "SoftwareVersions": "syngo MR E11",
      "SpacingBetweenSlices": 2.0000000142257,
      "SpecificCharacterSet": "ISO_IR 100",
      "StudyID": "1",
      "StudyTime": "130455.795000",
      "TransmitCoilName": "Body",
      "VariableFlipAngleFlag": "N",
      "WindowCenterWidthExplanation": "Algo1",
      "dBdt": 0.0},
    "slices": {}
  },
  "time": {
    "samples": {
      "AcquisitionNumber": [1, 2, 3, 4, 5, 6, 7, 8, 9, 10, 11, 12, 13, 14, 15, 16, 17, 18, 19, 20, 21, 22, 23, 24, 25, 26, 27, 28, 29, 30, 31, 32, 33, 34, 35, 36, 37, 38, 39, 40, 41, 42, 43, 44, 45, 46, 47, 48, 49, 50, 51, 52, 53, 54, 55, 56, 57, 58, 59, 60, 61, 62, 63, 64, 65, 66, 67, 68, 69, 70, 71, 72, 73, 74, 75, 76, 77, 78, 79, 80, 81, 82, 83, 84, 85, 86, 87, 88, 89, 90, 91, 92, 93, 94, 95, 96, 97, 98, 99, 100, 101, 102, 103, 104, 105, 106, 107, 108, 109, 110, 111, 112, 113, 114, 115, 116, 117, 118, 119, 120, 121, 122, 123, 124, 125, 126, 127, 128, 129, 130, 131, 132, 133, 134, 135, 136, 137, 138, 139, 140, 141, 142, 143, 144, 145, 146, 147, 148, 149, 150, 151, 152, 153, 154, 155, 156, 157, 158, 159, 160, 161, 162, 163, 164, 165, 166, 167, 168, 169, 170, 171, 172, 173, 174, 175, 176, 177, 178, 179, 180, 181, 182, 183, 184, 185, 186, 187, 188, 189, 190, 191, 192, 193, 194, 195, 196, 197, 198, 199, 200, 201, 202, 203, 204, 205, 206, 207, 208, 209, 210, 211, 212, 213, 214, 215, 216, 217, 218, 219, 220, 221, 222, 223, 224, 225, 226, 227, 228, 229, 230, 231, 232, 233, 234, 235, 236, 237, 238, 239, 240, 241, 242, 243, 244, 245, 246, 247, 248, 249, 250, 251, 252, 253, 254, 255, 256],
      "AcquisitionTime": ["140635.630000", "140637.630000", "140639.630000", "140641.630000", "140643.630000", "140645.630000", "140647.630000", "140649.630000", "140651.630000", "140653.630000", "140655.630000", "140657.630000", "140659.630000", "140701.630000", "140703.630000", "140705.630000", "140707.630000", "140709.630000", "140711.630000", "140713.630000", "140715.630000", "140717.630000", "140719.630000", "140721.630000", "140723.630000", "140725.630000", "140727.630000", "140729.630000", "140731.630000", "140733.630000", "140735.630000", "140737.630000", "140739.630000", "140741.630000", "140743.630000", "140745.630000", "140747.630000", "140749.630000", "140751.630000", "140753.630000", "140755.630000", "140757.630000", "140759.630000", "140801.630000", "140803.630000", "140805.630000", "140807.630000", "140809.630000", "140811.630000", "140813.630000", "140815.630000", "140817.630000", "140819.630000", "140821.630000", "140823.630000", "140825.630000", "140827.630000", "140829.630000", "140831.630000", "140833.630000", "140835.630000", "140837.630000", "140839.630000", "140841.630000", "140843.630000", "140845.630000", "140847.630000", "140849.630000", "140851.630000", "140853.630000", "140855.630000", "140857.630000", "140859.630000", "140901.630000", "140903.630000", "140905.630000", "140907.630000", "140909.630000", "140911.630000", "140913.630000", "140915.630000", "140917.630000", "140919.630000", "140921.630000", "140923.630000", "140925.630000", "140927.630000", "140929.630000", "140931.630000", "140933.630000", "140935.630000", "140937.630000", "140939.630000", "140941.630000", "140943.630000", "140945.630000", "140947.630000", "140949.630000", "140951.630000", "140953.630000", "140955.630000", "140957.630000", "140959.630000", "141001.630000", "141003.630000", "141005.630000", "141007.630000", "141009.630000", "141011.630000", "141013.630000", "141015.630000", "141017.630000", "141019.630000", "141021.630000", "141023.630000", "141025.630000", "141027.630000", "141029.630000", "141031.630000", "141033.630000", "141035.630000", "141037.630000", "141039.630000", "141041.630000", "141043.630000", "141045.630000", "141047.630000", "141049.630000", "141051.630000", "141053.630000", "141055.630000", "141057.630000", "141059.630000", "141101.630000", "141103.630000", "141105.630000", "141107.630000", "141109.630000", "141111.630000", "141113.630000", "141115.630000", "141117.630000", "141119.630000", "141121.630000", "141123.630000", "141125.630000", "141127.630000", "141129.630000", "141131.630000", "141133.630000", "141135.630000", "141137.630000", "141139.630000", "141141.630000", "141143.630000", "141145.630000", "141147.630000", "141149.630000", "141151.630000", "141153.630000", "141155.630000", "141157.630000", "141159.630000", "141201.630000", "141203.630000", "141205.630000", "141207.630000", "141209.630000", "141211.630000", "141213.630000", "141215.630000", "141217.630000", "141219.630000", "141221.630000", "141223.630000", "141225.630000", "141227.630000", "141229.630000", "141231.630000", "141233.630000", "141235.630000", "141237.630000", "141239.630000", "141241.630000", "141243.630000", "141245.630000", "141247.630000", "141249.630000", "141251.630000", "141253.630000", "141255.630000", "141257.630000", "141259.630000", "141301.630000", "141303.630000", "141305.630000", "141307.630000", "141309.630000", "141311.630000", "141313.630000", "141315.630000", "141317.630000", "141319.630000", "141321.630000", "141323.630000", "141325.630000", "141327.630000", "141329.630000", "141331.630000", "141333.630000", "141335.630000", "141337.630000", "141339.630000", "141341.630000", "141343.630000", "141345.630000", "141347.630000", "141349.630000", "141351.630000", "141353.630000", "141355.630000", "141357.630000", "141359.630000", "141401.630000", "141403.630000", "141405.630000", "141407.630000", "141409.630000", "141411.630000", "141413.630000", "141415.630000", "141417.630000", "141419.630000", "141421.630000", "141423.630000", "141425.630000", "141427.630000", "141429.630000", "141431.630000", "141433.630000", "141435.630000", "141437.630000", "141439.630000", "141441.630000", "141443.630000", "141445.630000", "141447.630000", "141449.630000", "141451.630000", "141453.630000", "141455.630000", "141457.630000", "141459.630000", "141501.630000", "141503.630000", "141505.630000"],
      "ContentTime": ["140638.518000", "140640.013000", "140642.013000", "140644.014000", "140646.014000", "140648.014000", "140650.014000", "140652.014000", "140654.014000", "140656.014000", "140658.014000", "140700.014000", "140702.014000", "140704.013000", "140706.013000", "140708.014000", "140710.013000", "140712.013000", "140714.013000", "140716.013000", "140718.013000", "140720.014000", "140722.013000", "140724.013000", "140726.014000", "140728.013000", "140730.014000", "140732.014000", "140734.014000", "140736.014000", "140738.014000", "140740.013000", "140742.014000", "140744.013000", "140746.013000", "140748.014000", "140750.014000", "140752.014000", "140754.014000", "140756.014000", "140758.014000", "140800.014000", "140802.014000", "140804.013000", "140806.014000", "140808.013000", "140810.013000", "140812.014000", "140814.013000", "140816.013000", "140818.013000", "140820.014000", "140822.013000", "140824.013000", "140826.014000", "140828.013000", "140830.013000", "140832.013000", "140834.013000", "140836.013000", "140838.013000", "140840.013000", "140842.014000", "140844.013000", "140846.014000", "140848.014000", "140850.013000", "140852.013000", "140854.013000", "140856.014000", "140858.014000", "140900.013000", "140902.014000", "140904.014000", "140906.013000", "140908.014000", "140910.013000", "140912.014000", "140914.014000", "140916.014000", "140918.014000", "140920.014000", "140922.013000", "140924.014000", "140926.013000", "140928.013000", "140930.014000", "140932.014000", "140934.014000", "140936.013000", "140938.014000", "140940.014000", "140942.013000", "140944.013000", "140946.014000", "140948.013000", "140950.013000", "140952.014000", "140954.014000", "140956.014000", "140958.013000", "141000.013000", "141002.013000", "141004.014000", "141006.014000", "141008.014000", "141010.014000", "141012.013000", "141014.014000", "141016.013000", "141018.013000", "141020.014000", "141022.014000", "141024.014000", "141026.014000", "141028.013000", "141030.014000", "141032.013000", "141034.013000", "141036.013000", "141038.014000", "141040.013000", "141042.014000", "141044.013000", "141046.014000", "141048.014000", "141050.013000", "141052.014000", "141054.013000", "141056.013000", "141058.013000", "141100.014000", "141102.014000", "141104.014000", "141106.014000", "141108.014000", "141110.014000", "141112.013000", "141114.014000", "141116.013000", "141118.013000", "141120.014000", "141122.014000", "141124.014000", "141126.014000", "141128.014000", "141130.013000", "141132.014000", "141134.013000", "141136.013000", "141138.013000", "141140.014000", "141142.013000", "141144.014000", "141146.013000", "141148.014000", "141150.013000", "141152.014000", "141154.014000", "141156.014000", "141158.013000", "141200.013000", "141202.014000", "141204.014000", "141206.014000", "141208.014000", "141210.013000", "141212.014000", "141214.014000", "141216.014000", "141218.014000", "141220.013000", "141222.014000", "141224.013000", "141226.014000", "141228.013000", "141230.014000", "141232.013000", "141234.014000", "141236.014000", "141238.014000", "141240.013000", "141242.014000", "141244.014000", "141246.014000", "141248.013000", "141250.014000", "141252.014000", "141254.013000", "141256.013000", "141258.013000", "141300.014000", "141302.013000", "141304.014000", "141306.014000", "141308.014000", "141310.014000", "141312.014000", "141314.013000", "141316.014000", "141318.014000", "141320.014000", "141322.014000", "141324.014000", "141326.015000", "141328.013000", "141330.014000", "141332.014000", "141334.013000", "141336.014000", "141338.013000", "141340.014000", "141342.013000", "141344.013000", "141346.014000", "141348.014000", "141350.014000", "141352.014000", "141354.013000", "141356.014000", "141358.014000", "141400.014000", "141402.014000", "141404.013000", "141406.014000", "141408.013000", "141410.014000", "141412.013000", "141414.013000", "141416.014000", "141418.014000", "141420.014000", "141422.014000", "141424.013000", "141426.014000", "141428.014000", "141430.014000", "141432.014000", "141434.013000", "141436.014000", "141438.014000", "141440.013000", "141442.014000", "141444.013000", "141446.014000", "141448.014000", "141450.014000", "141452.014000", "141454.013000", "141456.013000", "141458.013000", "141500.014000", "141502.013000", "141504.014000", "141506.014000", "141507.591000"],
      "InstanceCreationTime": ["140638.518000", "140640.013000", "140642.013000", "140644.014000", "140646.014000", "140648.014000", "140650.014000", "140652.014000", "140654.014000", "140656.014000", "140658.014000", "140700.014000", "140702.014000", "140704.013000", "140706.013000", "140708.014000", "140710.013000", "140712.013000", "140714.013000", "140716.013000", "140718.013000", "140720.014000", "140722.013000", "140724.013000", "140726.014000", "140728.013000", "140730.014000", "140732.014000", "140734.014000", "140736.014000", "140738.014000", "140740.013000", "140742.014000", "140744.013000", "140746.013000", "140748.014000", "140750.014000", "140752.014000", "140754.014000", "140756.014000", "140758.014000", "140800.014000", "140802.014000", "140804.013000", "140806.014000", "140808.013000", "140810.013000", "140812.014000", "140814.013000", "140816.013000", "140818.013000", "140820.014000", "140822.013000", "140824.013000", "140826.014000", "140828.013000", "140830.013000", "140832.013000", "140834.013000", "140836.013000", "140838.013000", "140840.013000", "140842.014000", "140844.013000", "140846.014000", "140848.014000", "140850.013000", "140852.013000", "140854.013000", "140856.014000", "140858.014000", "140900.013000", "140902.014000", "140904.014000", "140906.013000", "140908.014000", "140910.013000", "140912.014000", "140914.014000", "140916.014000", "140918.014000", "140920.014000", "140922.013000", "140924.014000", "140926.013000", "140928.013000", "140930.014000", "140932.014000", "140934.014000", "140936.013000", "140938.014000", "140940.014000", "140942.013000", "140944.013000", "140946.014000", "140948.013000", "140950.013000", "140952.014000", "140954.014000", "140956.014000", "140958.013000", "141000.013000", "141002.013000", "141004.014000", "141006.014000", "141008.014000", "141010.014000", "141012.013000", "141014.014000", "141016.013000", "141018.013000", "141020.014000", "141022.014000", "141024.014000", "141026.014000", "141028.013000", "141030.014000", "141032.013000", "141034.013000", "141036.013000", "141038.014000", "141040.013000", "141042.014000", "141044.013000", "141046.014000", "141048.014000", "141050.013000", "141052.014000", "141054.013000", "141056.013000", "141058.013000", "141100.014000", "141102.014000", "141104.014000", "141106.014000", "141108.014000", "141110.014000", "141112.013000", "141114.014000", "141116.013000", "141118.013000", "141120.014000", "141122.014000", "141124.014000", "141126.014000", "141128.014000", "141130.013000", "141132.014000", "141134.013000", "141136.013000", "141138.013000", "141140.014000", "141142.013000", "141144.014000", "141146.013000", "141148.014000", "141150.013000", "141152.014000", "141154.014000", "141156.014000", "141158.013000", "141200.013000", "141202.014000", "141204.014000", "141206.014000", "141208.014000", "141210.013000", "141212.014000", "141214.014000", "141216.014000", "141218.014000", "141220.013000", "141222.014000", "141224.013000", "141226.014000", "141228.013000", "141230.014000", "141232.013000", "141234.014000", "141236.014000", "141238.014000", "141240.013000", "141242.014000", "141244.014000", "141246.014000", "141248.013000", "141250.014000", "141252.014000", "141254.013000", "141256.013000", "141258.013000", "141300.014000", "141302.013000", "141304.014000", "141306.014000", "141308.014000", "141310.014000", "141312.014000", "141314.013000", "141316.014000", "141318.014000", "141320.014000", "141322.014000", "141324.014000", "141326.015000", "141328.013000", "141330.014000", "141332.014000", "141334.013000", "141336.014000", "141338.013000", "141340.014000", "141342.013000", "141344.013000", "141346.014000", "141348.014000", "141350.014000", "141352.014000", "141354.013000", "141356.014000", "141358.014000", "141400.014000", "141402.014000", "141404.013000", "141406.014000", "141408.013000", "141410.014000", "141412.013000", "141414.013000", "141416.014000", "141418.014000", "141420.014000", "141422.014000", "141424.013000", "141426.014000", "141428.014000", "141430.014000", "141432.014000", "141434.013000", "141436.014000", "141438.014000", "141440.013000", "141442.014000", "141444.013000", "141446.014000", "141448.014000", "141450.014000", "141452.014000", "141454.013000", "141456.013000", "141458.013000", "141500.014000", "141502.013000", "141504.014000", "141506.014000", "141507.591000"],
      "InstanceNumber": [1, 2, 3, 4, 5, 6, 7, 8, 9, 10, 11, 12, 13, 14, 15, 16, 17, 18, 19, 20, 21, 22, 23, 24, 25, 26, 27, 28, 29, 30, 31, 32, 33, 34, 35, 36, 37, 38, 39, 40, 41, 42, 43, 44, 45, 46, 47, 48, 49, 50, 51, 52, 53, 54, 55, 56, 57, 58, 59, 60, 61, 62, 63, 64, 65, 66, 67, 68, 69, 70, 71, 72, 73, 74, 75, 76, 77, 78, 79, 80, 81, 82, 83, 84, 85, 86, 87, 88, 89, 90, 91, 92, 93, 94, 95, 96, 97, 98, 99, 100, 101, 102, 103, 104, 105, 106, 107, 108, 109, 110, 111, 112, 113, 114, 115, 116, 117, 118, 119, 120, 121, 122, 123, 124, 125, 126, 127, 128, 129, 130, 131, 132, 133, 134, 135, 136, 137, 138, 139, 140, 141, 142, 143, 144, 145, 146, 147, 148, 149, 150, 151, 152, 153, 154, 155, 156, 157, 158, 159, 160, 161, 162, 163, 164, 165, 166, 167, 168, 169, 170, 171, 172, 173, 174, 175, 176, 177, 178, 179, 180, 181, 182, 183, 184, 185, 186, 187, 188, 189, 190, 191, 192, 193, 194, 195, 196, 197, 198, 199, 200, 201, 202, 203, 204, 205, 206, 207, 208, 209, 210, 211, 212, 213, 214, 215, 216, 217, 218, 219, 220, 221, 222, 223, 224, 225, 226, 227, 228, 229, 230, 231, 232, 233, 234, 235, 236, 237, 238, 239, 240, 241, 242, 243, 244, 245, 246, 247, 248, 249, 250, 251, 252, 253, 254, 255, 256],
      "LargestImagePixelValue": [3907, 3785, 3820, 3795, 3790, 3855, 3818, 3803, 3791, 3820, 3797, 3837, 3843, 3796, 3838, 3833, 3811, 3836, 3804, 3860, 3825, 3831, 3831, 3834, 3828, 3826, 3844, 3823, 3834, 3813, 3813, 3828, 3815, 3813, 3850, 3834, 3838, 3841, 3839, 3796, 3825, 3848, 3844, 3811, 3782, 3828, 3818, 3823, 3823, 3803, 3856, 3826, 3784, 3839, 3834, 3818, 3809, 3824, 3815, 3841, 3803, 3821, 3851, 3848, 3805, 3879, 3862, 3835, 3853, 3829, 3828, 3789, 3886, 3905, 3833, 3827, 3924, 3837, 3855, 3824, 3891, 3956, 3893, 3876, 3885, 3856, 3854, 3845, 3850, 3873, 3866, 3858, 3826, 3867, 3925, 3910, 3816, 3851, 3846, 3887, 3855, 3835, 3870, 3823, 3843, 3807, 3868, 3857, 3908, 3920, 3961, 3931, 3926, 3942, 3940, 3933, 3884, 3905, 3867, 3885, 3838, 3829, 3927, 3934, 3882, 3934, 3900, 3900, 3854, 3898, 3876, 3900, 3909, 3961, 3899, 3903, 3947, 3937, 3993, 3936, 3900, 3904, 3895, 3964, 3954, 3921, 3920, 3934, 3915, 3898, 3864, 3947, 3934, 3969, 3937, 3867, 3864, 3863, 3921, 3934, 3892, 3892, 3941, 3950, 3893, 3908, 3926, 3913, 3912, 3871, 3922, 3891, 3966, 3928, 3883, 3898, 3877, 3857, 3866, 3870, 3908, 3902, 3871, 3835, 3879, 3868, 3838, 3858, 3898, 3900, 3892, 3940, 3893, 3857, 3909, 3919, 3895, 3884, 3937, 3894, 3901, 3875, 3918, 3910, 3897, 3936, 3904, 3876, 3890, 3892, 3881, 3855, 3864, 3881, 3906, 3924, 3930, 3911, 3939, 3905, 3918, 3917, 3913, 3923, 3921, 3917, 3874, 3852, 3876, 3901, 3923, 3893, 3889, 3853, 3874, 3888, 3906, 3875, 3892, 3875, 3843, 3843, 3894, 3842, 3876, 3895, 3855, 3831, 3838, 3833, 3850, 3895, 3902, 3855, 3866, 3916],
      "WindowCenter": [803.0, 803.0, 804.0, 805.0, 806.0, 806.0, 807.0, 807.0, 807.0, 806.0, 807.0, 808.0, 807.0, 807.0, 807.0, 808.0, 808.0, 808.0, 808.0, 809.0, 808.0, 809.0, 810.0, 810.0, 809.0, 808.0, 808.0, 807.0, 807.0, 807.0, 807.0, 807.0, 807.0, 807.0, 808.0, 807.0, 807.0, 806.0, 806.0, 805.0, 806.0, 806.0, 807.0, 806.0, 805.0, 805.0, 805.0, 805.0, 806.0, 805.0, 805.0, 805.0, 805.0, 806.0, 807.0, 806.0, 805.0, 806.0, 807.0, 808.0, 807.0, 807.0, 806.0, 807.0, 807.0, 806.0, 806.0, 807.0, 809.0, 808.0, 807.0, 807.0, 807.0, 807.0, 807.0, 809.0, 809.0, 808.0, 808.0, 807.0, 807.0, 808.0, 808.0, 809.0, 809.0, 809.0, 807.0, 806.0, 806.0, 807.0, 807.0, 810.0, 809.0, 807.0, 807.0, 806.0, 806.0, 806.0, 806.0, 806.0, 806.0, 806.0, 806.0, 804.0, 804.0, 805.0, 806.0, 806.0, 807.0, 808.0, 809.0, 811.0, 812.0, 810.0, 809.0, 809.0, 809.0, 809.0, 808.0, 807.0, 807.0, 806.0, 808.0, 808.0, 809.0, 810.0, 809.0, 808.0, 807.0, 806.0, 806.0, 806.0, 806.0, 806.0, 809.0, 809.0, 810.0, 812.0, 812.0, 810.0, 808.0, 808.0, 808.0, 808.0, 808.0, 807.0, 807.0, 807.0, 806.0, 806.0, 806.0, 808.0, 809.0, 812.0, 811.0, 808.0, 807.0, 806.0, 806.0, 807.0, 808.0, 809.0, 810.0, 809.0, 808.0, 810.0, 810.0, 810.0, 810.0, 810.0, 812.0, 813.0, 812.0, 810.0, 809.0, 809.0, 808.0, 807.0, 807.0, 807.0, 807.0, 807.0, 807.0, 807.0, 806.0, 806.0, 806.0, 806.0, 807.0, 808.0, 809.0, 809.0, 809.0, 809.0, 811.0, 812.0, 812.0, 810.0, 810.0, 810.0, 808.0, 808.0, 809.0, 808.0, 809.0, 808.0, 809.0, 808.0, 808.0, 808.0, 808.0, 808.0, 808.0, 809.0, 811.0, 810.0, 810.0, 810.0, 810.0, 809.0, 809.0, 809.0, 809.0, 810.0, 811.0, 810.0, 810.0, 810.0, 810.0, 812.0, 814.0, 812.0, 809.0, 808.0, 808.0, 807.0, 807.0, 808.0, 809.0, 808.0, 808.0, 807.0, 808.0, 808.0, 810.0, 810.0, 808.0, 807.0, 807.0, 807.0, 806.0, 806.0, 806.0, 806.0, 807.0, 808.0],
      "WindowWidth": [1759.0, 1759.0, 1763.0, 1765.0, 1766.0, 1767.0, 1769.0, 1770.0, 1769.0, 1767.0, 1771.0, 1773.0, 1772.0, 1771.0, 1772.0, 1773.0, 1774.0, 1775.0, 1775.0, 1776.0, 1775.0, 1776.0, 1780.0, 1780.0, 1776.0, 1774.0, 1774.0, 1772.0, 1772.0, 1771.0, 1771.0, 1772.0, 1771.0, 1772.0, 1773.0, 1772.0, 1771.0, 1769.0, 1768.0, 1766.0, 1768.0, 1770.0, 1770.0, 1768.0, 1765.0, 1764.0, 1766.0, 1766.0, 1767.0, 1766.0, 1766.0, 1765.0, 1764.0, 1767.0, 1772.0, 1769.0, 1766.0, 1769.0, 1773.0, 1776.0, 1772.0, 1770.0, 1769.0, 1770.0, 1770.0, 1770.0, 1770.0, 1773.0, 1777.0, 1773.0, 1770.0, 1770.0, 1772.0, 1773.0, 1772.0, 1777.0, 1778.0, 1775.0, 1773.0, 1772.0, 1771.0, 1774.0, 1774.0, 1777.0, 1778.0, 1776.0, 1772.0, 1768.0, 1769.0, 1770.0, 1773.0, 1779.0, 1776.0, 1770.0, 1770.0, 1769.0, 1769.0, 1769.0, 1768.0, 1767.0, 1768.0, 1767.0, 1767.0, 1763.0, 1762.0, 1766.0, 1770.0, 1769.0, 1771.0, 1774.0, 1779.0, 1785.0, 1786.0, 1782.0, 1777.0, 1779.0, 1779.0, 1778.0, 1773.0, 1770.0, 1769.0, 1768.0, 1773.0, 1774.0, 1777.0, 1780.0, 1776.0, 1774.0, 1770.0, 1769.0, 1770.0, 1768.0, 1768.0, 1769.0, 1776.0, 1777.0, 1782.0, 1786.0, 1788.0, 1781.0, 1773.0, 1773.0, 1773.0, 1774.0, 1773.0, 1773.0, 1771.0, 1770.0, 1770.0, 1769.0, 1769.0, 1775.0, 1779.0, 1786.0, 1784.0, 1774.0, 1769.0, 1768.0, 1769.0, 1773.0, 1775.0, 1778.0, 1779.0, 1778.0, 1776.0, 1779.0, 1782.0, 1779.0, 1780.0, 1780.0, 1786.0, 1790.0, 1786.0, 1781.0, 1778.0, 1777.0, 1772.0, 1770.0, 1772.0, 1772.0, 1772.0, 1772.0, 1772.0, 1770.0, 1769.0, 1768.0, 1769.0, 1768.0, 1772.0, 1774.0, 1776.0, 1777.0, 1777.0, 1777.0, 1784.0, 1787.0, 1784.0, 1781.0, 1780.0, 1779.0, 1775.0, 1775.0, 1776.0, 1775.0, 1776.0, 1774.0, 1776.0, 1774.0, 1774.0, 1773.0, 1775.0, 1774.0, 1773.0, 1778.0, 1782.0, 1781.0, 1781.0, 1780.0, 1781.0, 1777.0, 1776.0, 1776.0, 1777.0, 1781.0, 1784.0, 1781.0, 1779.0, 1779.0, 1781.0, 1788.0, 1792.0, 1786.0, 1777.0, 1774.0, 1773.0, 1771.0, 1771.0, 1774.0, 1777.0, 1774.0, 1772.0, 1770.0, 1774.0, 1774.0, 1779.0, 1779.0, 1773.0, 1769.0, 1769.0, 1769.0, 1768.0, 1767.0, 1768.0, 1769.0, 1772.0, 1775.0]
    },
    "slices": {}
  }
}