{
  "AcquisitionMatrixPE": 100,
  "AcquisitionNumber": 1,
  "AcquisitionTime": "13:16:23.895000",
  "BandwidthPerPixelPhaseEncode": 18.519,
  "BaseResolution": 100,
  "BodyPartExamined": "BRAIN",
  "ConsistencyInfo": "N4_VE11C_LATEST_20160120",
  "ConversionSoftware": "dcm2niix",
  "ConversionSoftwareVersion": "v1.0.20180622 GCC4.9.2",
  "DerivedVendorReportedEchoSpacing": 0.000539986,
  "DeviceSerialNumber": "166078",
  "DwellTime": 2.1e-06,
  "EchoTime": 0.034,
  "EchoTrainLength": 100,
  "EffectiveEchoSpacing": 0.000539986,
  "FlipAngle": 90,
  "ImageOrientationPatientDICOM": [1, 0, 0, 0, 0.981293, -0.192522],
  "ImageType": [
    "ORIGINAL",
    "PRIMARY",
    "M",
    "ND",
    "MOSAIC"
],
  "InPlanePhaseEncodingDirectionDICOM": "COL",
  "InstitutionAddress": "Street_StreetNo_Bei_Jing_District_CN_ZIP",
  "InstitutionName": "BeiJing_Normal_University",
  "InstitutionalDepartmentName": "Department",
  "MRAcquisitionType": "2D",
  "MagneticFieldStrength": 3,
  "Manufacturer": "Siemens",
  "ManufacturersModelName": "Prisma",
  "Modality": "MR",
  "MultibandAccelerationFactor": 3,
  "PartialFourier": 1,
  "PatientPosition": "HFS",
  "PercentPhaseFOV": 100,
  "PhaseEncodingDirection": "j-",
  "PhaseEncodingSteps": 100,
  "PhaseResolution": 1,
  "PixelBandwidth": 2380,
  "ProcedureStepDescription": "BNU_P2018_64CH_Zhen.ZongLei",
  "ProtocolName": "bold_100x100_s3_2x2x2_static_256",
  "PulseSequenceDetails": "%SiemensSeq%_ep2d_bold",
  "ReceiveCoilActiveElements": "HC1-7;NC1",
  "ReceiveCoilName": "HeadNeck_64",
  "ReconMatrixPE": 100,
  "RepetitionTime": 2,
  "SAR": 0.0728372,
  "ScanOptions": "FS",
  "ScanningSequence": "EP",
  "SequenceName": "_epfid2d1_100",
  "SequenceVariant": "SK",
  "SeriesDescription": "bold_100x100_s3_2x2x2_static_256",
  "SeriesNumber": 3,
  "ShimSetting": [-5463, -11482, -1288, 326, 36, -205, -159, 48],
  "SliceThickness": 2,
  "SliceTiming": [1.485, 0, 0.99, 0.0825, 1.0725, 0.165, 1.155, 0.2475, 1.2375, 0.33, 1.32, 0.4125, 1.4025, 0.5775, 1.5675, 0.66, 1.65, 0.7425, 1.7325, 0.825, 1.815, 0.9075, 1.8975, 0.495, 1.485, 0, 0.99, 0.0825, 1.0725, 0.165, 1.155, 0.2475, 1.2375, 0.33, 1.32, 0.4125, 1.4025, 0.5775, 1.5675, 0.66, 1.65, 0.7425, 1.7325, 0.825, 1.815, 0.9075, 1.8975, 0.495, 1.485, 0, 0.99, 0.0825, 1.0725, 0.165, 1.155, 0.2475, 1.2375, 0.33, 1.32, 0.4125, 1.4025, 0.5775, 1.5675, 0.66, 1.65, 0.7425, 1.7325, 0.825, 1.815, 0.9075, 1.8975, 0.495],
  "SoftwareVersions": "syngo_MR_E11",
  "SpacingBetweenSlices": 2,
  "StationName": "AWP166078",
  "TaskName": "naturalvision",
  "TotalReadoutTime": 0.0534586,
  "TxRefAmp": 208.17,
  "dcmmeta_affine": [
    [-2.0, 0.0, 0.0, 102.03389739990234],
    [0.0, 1.9625853300094604, -0.3850439488887787, -83.61626434326172],
    [0.0, 0.3850439488887787, 1.9625853300094604, -83.58009338378906],
    [0.0, 0.0, 0.0, 1.0]
],
  "dcmmeta_reorient_transform": [
    [0.0, -1.0, 0.0, 99.0],
    [1.0, 0.0, 0.0, 0.0],
    [0.0, 0.0, 1.0, 0.0],
    [0.0, 0.0, 0.0, 1.0]
],
  "dcmmeta_shape": [100, 100, 72, 256],
  "dcmmeta_slice_dim": 2,
  "dcmmeta_version": 0.6,
  "global": {
    "const": {
      "AcquisitionMatrix": [100, 0, 0, 100],
      "AngioFlag": "N",
      "BitsAllocated": 16,
      "BitsStored": 12,
      "BodyPartExamined": "BRAIN",
      "Columns": 900,
      "EchoNumbers": 1,
      "EchoTime": 34.0,
      "EchoTrainLength": 100,
      "FlipAngle": 90.0,
      "HighBit": 11,
      "ImageOrientationPatient": [1.0, 0.0, 0.0, 0.0, 0.98129266330938, -0.1925219700065],
      "ImagePositionPatient": [-902.03389835358, -895.71381297118, 108.55682897507],
      "ImageType": [
        "ORIGINAL",
        "PRIMARY",
        "M",
        "ND",
        "MOSAIC"
],
      "ImagedNucleus": "1H",
      "ImagingFrequency": 123.257696,
      "InPlanePhaseEncodingDirection": "COL",
      "MRAcquisitionType": "2D",
      "MagneticFieldStrength": 3.0,
      "Manufacturer": "SIEMENS",
      "ManufacturerModelName": "Prisma",
      "Modality": "MR",
      "NumberOfAverages": 1.0,
      "NumberOfPhaseEncodingSteps": 100,
      "PercentPhaseFieldOfView": 100.0,
      "PercentSampling": 100.0,
      "PerformedProcedureStepStartTime": "130455.886000",
      "PhotometricInterpretation": "MONOCHROME2",
      "PixelBandwidth": 2380.0,
      "PixelRepresentation": 0,
      "PixelSpacing": [2.0, 2.0],
      "ProtocolName": "bold_100x100_s3_2x2x2_static_256",
      "RepetitionTime": 2000.0,
      "Rows": 900,
      "SAR": 0.07283716184881,
      "SamplesPerPixel": 1,
      "ScanOptions": "FS",
      "ScanningSequence": "EP",
      "SequenceName": "*epfid2d1_100",
      "SequenceVariant": "SK",
      "SeriesDescription": "bold_100x100_s3_2x2x2_static_256",
      "SeriesNumber": 3,
      "SeriesTime": "131626.031000",
      "SliceLocation": -65.91856800986,
      "SliceThickness": 2.0,
      "SmallestImagePixelValue": 0,
      "SoftwareVersions": "syngo MR E11",
      "SpacingBetweenSlices": 2.0000000142257,
      "SpecificCharacterSet": "ISO_IR 100",
      "StudyID": "1",
      "StudyTime": "130455.795000",
      "TransmitCoilName": "Body",
      "VariableFlipAngleFlag": "N",
      "WindowCenterWidthExplanation": "Algo1",
      "dBdt": 0.0},
    "slices": {}
  },
  "time": {
    "samples": {
      "AcquisitionNumber": [1, 2, 3, 4, 5, 6, 7, 8, 9, 10, 11, 12, 13, 14, 15, 16, 17, 18, 19, 20, 21, 22, 23, 24, 25, 26, 27, 28, 29, 30, 31, 32, 33, 34, 35, 36, 37, 38, 39, 40, 41, 42, 43, 44, 45, 46, 47, 48, 49, 50, 51, 52, 53, 54, 55, 56, 57, 58, 59, 60, 61, 62, 63, 64, 65, 66, 67, 68, 69, 70, 71, 72, 73, 74, 75, 76, 77, 78, 79, 80, 81, 82, 83, 84, 85, 86, 87, 88, 89, 90, 91, 92, 93, 94, 95, 96, 97, 98, 99, 100, 101, 102, 103, 104, 105, 106, 107, 108, 109, 110, 111, 112, 113, 114, 115, 116, 117, 118, 119, 120, 121, 122, 123, 124, 125, 126, 127, 128, 129, 130, 131, 132, 133, 134, 135, 136, 137, 138, 139, 140, 141, 142, 143, 144, 145, 146, 147, 148, 149, 150, 151, 152, 153, 154, 155, 156, 157, 158, 159, 160, 161, 162, 163, 164, 165, 166, 167, 168, 169, 170, 171, 172, 173, 174, 175, 176, 177, 178, 179, 180, 181, 182, 183, 184, 185, 186, 187, 188, 189, 190, 191, 192, 193, 194, 195, 196, 197, 198, 199, 200, 201, 202, 203, 204, 205, 206, 207, 208, 209, 210, 211, 212, 213, 214, 215, 216, 217, 218, 219, 220, 221, 222, 223, 224, 225, 226, 227, 228, 229, 230, 231, 232, 233, 234, 235, 236, 237, 238, 239, 240, 241, 242, 243, 244, 245, 246, 247, 248, 249, 250, 251, 252, 253, 254, 255, 256],
      "AcquisitionTime": ["131623.895000", "131625.895000", "131627.895000", "131629.895000", "131631.895000", "131633.895000", "131635.895000", "131637.895000", "131639.895000", "131641.895000", "131643.895000", "131645.895000", "131647.895000", "131649.895000", "131651.895000", "131653.895000", "131655.895000", "131657.895000", "131659.895000", "131701.895000", "131703.895000", "131705.895000", "131707.895000", "131709.895000", "131711.895000", "131713.895000", "131715.895000", "131717.895000", "131719.895000", "131721.895000", "131723.895000", "131725.895000", "131727.895000", "131729.895000", "131731.895000", "131733.895000", "131735.895000", "131737.895000", "131739.895000", "131741.895000", "131743.895000", "131745.895000", "131747.895000", "131749.895000", "131751.895000", "131753.895000", "131755.895000", "131757.895000", "131759.895000", "131801.895000", "131803.895000", "131805.895000", "131807.895000", "131809.895000", "131811.895000", "131813.895000", "131815.895000", "131817.895000", "131819.895000", "131821.895000", "131823.895000", "131825.895000", "131827.895000", "131829.895000", "131831.895000", "131833.895000", "131835.895000", "131837.895000", "131839.895000", "131841.895000", "131843.895000", "131845.895000", "131847.895000", "131849.895000", "131851.895000", "131853.895000", "131855.895000", "131857.895000", "131859.895000", "131901.895000", "131903.895000", "131905.895000", "131907.895000", "131909.895000", "131911.895000", "131913.895000", "131915.895000", "131917.895000", "131919.895000", "131921.895000", "131923.895000", "131925.895000", "131927.895000", "131929.895000", "131931.895000", "131933.895000", "131935.895000", "131937.895000", "131939.895000", "131941.895000", "131943.895000", "131945.895000", "131947.895000", "131949.895000", "131951.895000", "131953.895000", "131955.895000", "131957.895000", "131959.895000", "132001.895000", "132003.895000", "132005.895000", "132007.895000", "132009.895000", "132011.895000", "132013.895000", "132015.895000", "132017.895000", "132019.895000", "132021.895000", "132023.895000", "132025.895000", "132027.895000", "132029.895000", "132031.895000", "132033.895000", "132035.895000", "132037.895000", "132039.895000", "132041.895000", "132043.895000", "132045.895000", "132047.895000", "132049.895000", "132051.895000", "132053.895000", "132055.895000", "132057.895000", "132059.895000", "132101.895000", "132103.895000", "132105.895000", "132107.895000", "132109.895000", "132111.895000", "132113.895000", "132115.895000", "132117.895000", "132119.895000", "132121.895000", "132123.895000", "132125.895000", "132127.895000", "132129.895000", "132131.895000", "132133.895000", "132135.895000", "132137.895000", "132139.895000", "132141.895000", "132143.895000", "132145.895000", "132147.895000", "132149.895000", "132151.895000", "132153.895000", "132155.895000", "132157.895000", "132159.895000", "132201.895000", "132203.895000", "132205.895000", "132207.895000", "132209.895000", "132211.895000", "132213.895000", "132215.895000", "132217.895000", "132219.895000", "132221.895000", "132223.895000", "132225.895000", "132227.895000", "132229.895000", "132231.895000", "132233.895000", "132235.895000", "132237.895000", "132239.895000", "132241.895000", "132243.895000", "132245.895000", "132247.895000", "132249.895000", "132251.895000", "132253.895000", "132255.895000", "132257.895000", "132259.895000", "132301.895000", "132303.895000", "132305.895000", "132307.895000", "132309.895000", "132311.895000", "132313.895000", "132315.895000", "132317.895000", "132319.895000", "132321.895000", "132323.895000", "132325.895000", "132327.895000", "132329.895000", "132331.895000", "132333.895000", "132335.895000", "132337.895000", "132339.895000", "132341.895000", "132343.895000", "132345.895000", "132347.895000", "132349.895000", "132351.895000", "132353.895000", "132355.895000", "132357.895000", "132359.895000", "132401.895000", "132403.895000", "132405.895000", "132407.895000", "132409.895000", "132411.895000", "132413.895000", "132415.895000", "132417.895000", "132419.895000", "132421.895000", "132423.895000", "132425.895000", "132427.895000", "132429.895000", "132431.895000", "132433.895000", "132435.895000", "132437.895000", "132439.895000", "132441.895000", "132443.895000", "132445.895000", "132447.895000", "132449.895000", "132451.895000", "132453.895000"],
      "ContentTime": ["131626.035000", "131627.530000", "131629.530000", "131631.530000", "131633.530000", "131635.530000", "131637.532000", "131639.531000", "131641.530000", "131643.531000", "131645.530000", "131647.530000", "131649.530000", "131651.530000", "131653.530000", "131655.531000", "131657.531000", "131659.531000", "131701.531000", "131703.530000", "131705.530000", "131707.531000", "131709.530000", "131711.531000", "131713.532000", "131715.530000", "131717.530000", "131719.530000", "131721.530000", "131723.530000", "131725.530000", "131727.530000", "131729.532000", "131731.531000", "131733.531000", "131735.531000", "131737.530000", "131739.531000", "131741.530000", "131743.530000", "131745.530000", "131747.532000", "131749.531000", "131751.530000", "131753.531000", "131755.530000", "131757.530000", "131759.531000", "131801.531000", "131803.531000", "131805.531000", "131807.532000", "131809.531000", "131811.531000", "131813.531000", "131815.531000", "131817.531000", "131819.530000", "131821.531000", "131823.531000", "131825.530000", "131827.530000", "131829.531000", "131831.531000", "131833.531000", "131835.530000", "131837.530000", "131839.531000", "131841.531000", "131843.531000", "131845.530000", "131847.531000", "131849.530000", "131851.530000", "131853.530000", "131855.531000", "131857.531000", "131859.532000", "131901.531000", "131903.531000", "131905.531000", "131907.530000", "131909.530000", "131911.530000", "131913.530000", "131915.532000", "131917.531000", "131919.530000", "131921.530000", "131923.530000", "131925.530000", "131927.530000", "131929.530000", "131931.531000", "131933.531000", "131935.531000", "131937.531000", "131939.531000", "131941.530000", "131943.531000", "131945.531000", "131947.530000", "131949.531000", "131951.531000", "131953.531000", "131955.530000", "131957.530000", "131959.531000", "132001.531000", "132003.531000", "132005.530000", "132007.531000", "132009.531000", "132011.530000", "132013.530000", "132015.531000", "132017.531000", "132019.530000", "132021.531000", "132023.531000", "132025.532000", "132027.531000", "132029.531000", "132031.530000", "132033.531000", "132035.530000", "132037.531000", "132039.530000", "132041.531000", "132043.532000", "132045.530000", "132047.531000", "132049.531000", "132051.530000", "132053.530000", "132055.531000", "132057.530000", "132059.531000", "132101.531000", "132103.530000", "132105.531000", "132107.531000", "132109.530000", "132111.531000", "132113.530000", "132115.531000", "132117.532000", "132119.532000", "132121.531000", "132123.531000", "132125.531000", "132127.530000", "132129.531000", "132131.531000", "132133.531000", "132135.531000", "132137.532000", "132139.531000", "132141.531000", "132143.531000", "132145.531000", "132147.530000", "132149.530000", "132151.531000", "132153.531000", "132155.530000", "132157.530000", "132159.530000", "132201.531000", "132203.530000", "132205.530000", "132207.531000", "132209.531000", "132211.531000", "132213.530000", "132215.530000", "132217.530000", "132219.530000", "132221.531000", "132223.530000", "132225.530000", "132227.531000", "132229.532000", "132231.531000", "132233.530000", "132235.530000", "132237.530000", "132239.531000", "132241.530000", "132243.531000", "132245.532000", "132247.531000", "132249.530000", "132251.531000", "132253.531000", "132255.531000", "132257.531000", "132259.530000", "132301.532000", "132303.531000", "132305.531000", "132307.530000", "132309.531000", "132311.530000", "132313.530000", "132315.531000", "132317.531000", "132319.532000", "132321.531000", "132323.530000", "132325.531000", "132327.531000", "132329.530000", "132331.530000", "132333.531000", "132335.531000", "132337.531000", "132339.531000", "132341.531000", "132343.531000", "132345.531000", "132347.530000", "132349.531000", "132351.531000", "132353.531000", "132355.532000", "132357.531000", "132359.530000", "132401.531000", "132403.530000", "132405.530000", "132407.531000", "132409.531000", "132411.532000", "132413.531000", "132415.530000", "132417.531000", "132419.531000", "132421.531000", "132423.531000", "132425.531000", "132427.530000", "132429.531000", "132431.532000", "132433.530000", "132435.531000", "132437.531000", "132439.530000", "132441.531000", "132443.530000", "132445.531000", "132447.532000", "132449.532000", "132451.530000", "132453.531000", "132455.291000"],
      "InstanceCreationTime": ["131626.035000", "131627.530000", "131629.530000", "131631.530000", "131633.530000", "131635.530000", "131637.532000", "131639.531000", "131641.530000", "131643.531000", "131645.530000", "131647.530000", "131649.530000", "131651.530000", "131653.530000", "131655.531000", "131657.531000", "131659.531000", "131701.531000", "131703.530000", "131705.530000", "131707.531000", "131709.530000", "131711.531000", "131713.532000", "131715.530000", "131717.530000", "131719.530000", "131721.530000", "131723.530000", "131725.530000", "131727.530000", "131729.532000", "131731.531000", "131733.531000", "131735.531000", "131737.530000", "131739.531000", "131741.530000", "131743.530000", "131745.530000", "131747.532000", "131749.531000", "131751.530000", "131753.531000", "131755.530000", "131757.530000", "131759.531000", "131801.531000", "131803.531000", "131805.531000", "131807.532000", "131809.531000", "131811.531000", "131813.531000", "131815.531000", "131817.531000", "131819.530000", "131821.531000", "131823.531000", "131825.530000", "131827.530000", "131829.531000", "131831.531000", "131833.531000", "131835.530000", "131837.530000", "131839.531000", "131841.531000", "131843.531000", "131845.530000", "131847.531000", "131849.530000", "131851.530000", "131853.530000", "131855.531000", "131857.531000", "131859.532000", "131901.531000", "131903.531000", "131905.531000", "131907.530000", "131909.530000", "131911.530000", "131913.530000", "131915.532000", "131917.531000", "131919.530000", "131921.530000", "131923.530000", "131925.530000", "131927.530000", "131929.530000", "131931.531000", "131933.531000", "131935.531000", "131937.531000", "131939.531000", "131941.530000", "131943.531000", "131945.531000", "131947.530000", "131949.531000", "131951.531000", "131953.531000", "131955.530000", "131957.530000", "131959.531000", "132001.531000", "132003.531000", "132005.530000", "132007.531000", "132009.531000", "132011.530000", "132013.530000", "132015.531000", "132017.531000", "132019.530000", "132021.531000", "132023.531000", "132025.532000", "132027.531000", "132029.531000", "132031.530000", "132033.531000", "132035.530000", "132037.531000", "132039.530000", "132041.531000", "132043.532000", "132045.530000", "132047.531000", "132049.531000", "132051.530000", "132053.530000", "132055.531000", "132057.530000", "132059.531000", "132101.531000", "132103.530000", "132105.531000", "132107.531000", "132109.530000", "132111.531000", "132113.530000", "132115.531000", "132117.532000", "132119.532000", "132121.531000", "132123.531000", "132125.531000", "132127.530000", "132129.531000", "132131.531000", "132133.531000", "132135.531000", "132137.532000", "132139.531000", "132141.531000", "132143.531000", "132145.531000", "132147.530000", "132149.530000", "132151.531000", "132153.531000", "132155.530000", "132157.530000", "132159.530000", "132201.531000", "132203.530000", "132205.530000", "132207.531000", "132209.531000", "132211.531000", "132213.530000", "132215.530000", "132217.530000", "132219.530000", "132221.531000", "132223.530000", "132225.530000", "132227.531000", "132229.532000", "132231.531000", "132233.530000", "132235.530000", "132237.530000", "132239.531000", "132241.530000", "132243.531000", "132245.532000", "132247.531000", "132249.530000", "132251.531000", "132253.531000", "132255.531000", "132257.531000", "132259.530000", "132301.532000", "132303.531000", "132305.531000", "132307.530000", "132309.531000", "132311.530000", "132313.530000", "132315.531000", "132317.531000", "132319.532000", "132321.531000", "132323.530000", "132325.531000", "132327.531000", "132329.530000", "132331.530000", "132333.531000", "132335.531000", "132337.531000", "132339.531000", "132341.531000", "132343.531000", "132345.531000", "132347.530000", "132349.531000", "132351.531000", "132353.531000", "132355.532000", "132357.531000", "132359.530000", "132401.531000", "132403.530000", "132405.530000", "132407.531000", "132409.531000", "132411.532000", "132413.531000", "132415.530000", "132417.531000", "132419.531000", "132421.531000", "132423.531000", "132425.531000", "132427.530000", "132429.531000", "132431.532000", "132433.530000", "132435.531000", "132437.531000", "132439.530000", "132441.531000", "132443.530000", "132445.531000", "132447.532000", "132449.532000", "132451.530000", "132453.531000", "132455.291000"],
      "InstanceNumber": [1, 2, 3, 4, 5, 6, 7, 8, 9, 10, 11, 12, 13, 14, 15, 16, 17, 18, 19, 20, 21, 22, 23, 24, 25, 26, 27, 28, 29, 30, 31, 32, 33, 34, 35, 36, 37, 38, 39, 40, 41, 42, 43, 44, 45, 46, 47, 48, 49, 50, 51, 52, 53, 54, 55, 56, 57, 58, 59, 60, 61, 62, 63, 64, 65, 66, 67, 68, 69, 70, 71, 72, 73, 74, 75, 76, 77, 78, 79, 80, 81, 82, 83, 84, 85, 86, 87, 88, 89, 90, 91, 92, 93, 94, 95, 96, 97, 98, 99, 100, 101, 102, 103, 104, 105, 106, 107, 108, 109, 110, 111, 112, 113, 114, 115, 116, 117, 118, 119, 120, 121, 122, 123, 124, 125, 126, 127, 128, 129, 130, 131, 132, 133, 134, 135, 136, 137, 138, 139, 140, 141, 142, 143, 144, 145, 146, 147, 148, 149, 150, 151, 152, 153, 154, 155, 156, 157, 158, 159, 160, 161, 162, 163, 164, 165, 166, 167, 168, 169, 170, 171, 172, 173, 174, 175, 176, 177, 178, 179, 180, 181, 182, 183, 184, 185, 186, 187, 188, 189, 190, 191, 192, 193, 194, 195, 196, 197, 198, 199, 200, 201, 202, 203, 204, 205, 206, 207, 208, 209, 210, 211, 212, 213, 214, 215, 216, 217, 218, 219, 220, 221, 222, 223, 224, 225, 226, 227, 228, 229, 230, 231, 232, 233, 234, 235, 236, 237, 238, 239, 240, 241, 242, 243, 244, 245, 246, 247, 248, 249, 250, 251, 252, 253, 254, 255, 256],
      "LargestImagePixelValue": [3904, 3872, 3802, 3813, 3796, 3786, 3821, 3796, 3822, 3809, 3872, 3799, 3783, 3787, 3809, 3814, 3794, 3792, 3808, 3840, 3818, 3822, 3802, 3774, 3779, 3791, 3762, 3817, 3807, 3799, 3822, 3788, 3801, 3829, 3791, 3834, 3816, 3824, 3834, 3799, 3795, 3822, 3798, 3802, 3813, 3822, 3836, 3832, 3844, 3806, 3836, 3808, 3798, 3824, 3808, 3821, 3824, 3820, 3834, 3836, 3813, 3813, 3830, 3808, 3838, 3819, 3806, 3811, 3817, 3833, 3816, 3818, 3806, 3844, 3799, 3822, 3801, 3800, 3807, 3820, 3820, 3807, 3850, 3812, 3828, 3809, 3793, 3831, 3835, 3810, 3804, 3826, 3798, 3798, 3841, 3793, 3819, 3816, 3817, 3813, 3803, 3833, 3823, 3813, 3811, 3823, 3809, 3811, 3828, 3827, 3811, 3841, 3826, 3819, 3821, 3838, 3822, 3799, 3813, 3825, 3803, 3824, 3819, 3817, 3812, 3828, 3796, 3802, 3810, 3822, 3830, 3823, 3831, 3800, 3811, 3784, 3814, 3826, 3808, 3803, 3800, 3840, 3802, 3812, 3836, 3796, 3861, 3813, 3793, 3833, 3804, 3832, 3800, 3814, 3808, 3834, 3825, 3833, 3829, 3819, 3845, 3840, 3824, 3832, 3819, 3856, 3784, 3834, 3848, 3827, 3824, 3846, 3841, 3837, 3858, 3823, 3851, 3849, 3840, 3855, 3868, 3843, 3839, 3878, 3842, 3844, 3835, 3833, 3826, 3869, 3852, 3832, 3843, 3841, 3820, 3836, 3838, 3831, 3850, 3836, 3832, 3833, 3863, 3843, 3838, 3848, 3835, 3831, 3852, 3857, 3847, 3832, 3838, 3848, 3804, 3833, 3835, 3826, 3871, 3845, 3830, 3854, 3839, 3833, 3818, 3822, 3841, 3821, 3812, 3823, 3862, 3825, 3804, 3825, 3837, 3838, 3830, 3811, 3830, 3823, 3830, 3830, 3819, 3858, 3837, 3869, 3825, 3853, 3858, 3846, 3839, 3856, 3868, 3868, 3845, 3852],
      "WindowCenter": [805.0, 804.0, 803.0, 804.0, 804.0, 803.0, 804.0, 804.0, 804.0, 804.0, 805.0, 805.0, 806.0, 806.0, 805.0, 805.0, 804.0, 804.0, 804.0, 804.0, 803.0, 804.0, 805.0, 805.0, 805.0, 805.0, 805.0, 804.0, 805.0, 805.0, 805.0, 805.0, 805.0, 804.0, 805.0, 804.0, 804.0, 804.0, 805.0, 804.0, 805.0, 805.0, 805.0, 804.0, 804.0, 805.0, 805.0, 806.0, 806.0, 805.0, 805.0, 804.0, 804.0, 805.0, 805.0, 804.0, 804.0, 804.0, 804.0, 804.0, 805.0, 805.0, 806.0, 805.0, 805.0, 804.0, 803.0, 802.0, 802.0, 803.0, 804.0, 804.0, 803.0, 804.0, 804.0, 804.0, 804.0, 805.0, 805.0, 804.0, 804.0, 804.0, 804.0, 805.0, 805.0, 804.0, 804.0, 805.0, 805.0, 805.0, 804.0, 804.0, 804.0, 804.0, 805.0, 804.0, 805.0, 805.0, 805.0, 805.0, 806.0, 806.0, 806.0, 805.0, 803.0, 803.0, 804.0, 804.0, 805.0, 805.0, 805.0, 805.0, 804.0, 804.0, 804.0, 803.0, 803.0, 803.0, 804.0, 804.0, 804.0, 804.0, 804.0, 803.0, 804.0, 804.0, 805.0, 805.0, 805.0, 805.0, 806.0, 806.0, 806.0, 806.0, 806.0, 806.0, 806.0, 806.0, 805.0, 804.0, 805.0, 805.0, 805.0, 805.0, 805.0, 805.0, 806.0, 806.0, 807.0, 807.0, 806.0, 806.0, 806.0, 807.0, 807.0, 807.0, 806.0, 807.0, 807.0, 807.0, 807.0, 808.0, 807.0, 806.0, 806.0, 806.0, 806.0, 805.0, 805.0, 805.0, 807.0, 807.0, 807.0, 807.0, 807.0, 808.0, 808.0, 807.0, 807.0, 807.0, 808.0, 808.0, 808.0, 808.0, 807.0, 808.0, 808.0, 807.0, 806.0, 806.0, 806.0, 807.0, 807.0, 808.0, 807.0, 807.0, 806.0, 806.0, 806.0, 806.0, 806.0, 806.0, 807.0, 808.0, 808.0, 809.0, 809.0, 808.0, 808.0, 809.0, 808.0, 807.0, 807.0, 807.0, 806.0, 807.0, 807.0, 807.0, 807.0, 807.0, 806.0, 806.0, 806.0, 806.0, 806.0, 807.0, 807.0, 806.0, 806.0, 806.0, 807.0, 806.0, 806.0, 806.0, 806.0, 806.0, 805.0, 806.0, 807.0, 806.0, 806.0, 806.0, 806.0, 807.0, 808.0, 807.0, 807.0, 806.0, 806.0, 807.0, 807.0, 807.0, 807.0, 807.0, 807.0, 807.0],
      "WindowWidth": [1769.0, 1767.0, 1764.0, 1765.0, 1767.0, 1764.0, 1766.0, 1767.0, 1766.0, 1765.0, 1769.0, 1769.0, 1771.0, 1771.0, 1770.0, 1769.0, 1766.0, 1766.0, 1765.0, 1766.0, 1764.0, 1767.0, 1768.0, 1769.0, 1769.0, 1769.0, 1767.0, 1767.0, 1767.0, 1768.0, 1770.0, 1769.0, 1768.0, 1767.0, 1768.0, 1767.0, 1767.0, 1767.0, 1769.0, 1766.0, 1768.0, 1768.0, 1770.0, 1766.0, 1767.0, 1769.0, 1770.0, 1772.0, 1772.0, 1770.0, 1770.0, 1766.0, 1765.0, 1768.0, 1767.0, 1766.0, 1764.0, 1764.0, 1766.0, 1767.0, 1767.0, 1770.0, 1771.0, 1769.0, 1767.0, 1766.0, 1763.0, 1759.0, 1757.0, 1762.0, 1764.0, 1763.0, 1763.0, 1765.0, 1765.0, 1765.0, 1765.0, 1767.0, 1767.0, 1765.0, 1765.0, 1764.0, 1766.0, 1767.0, 1767.0, 1765.0, 1766.0, 1768.0, 1769.0, 1767.0, 1766.0, 1765.0, 1763.0, 1763.0, 1767.0, 1765.0, 1768.0, 1767.0, 1769.0, 1768.0, 1770.0, 1771.0, 1770.0, 1767.0, 1762.0, 1763.0, 1765.0, 1766.0, 1767.0, 1768.0, 1768.0, 1766.0, 1765.0, 1766.0, 1764.0, 1763.0, 1760.0, 1761.0, 1765.0, 1764.0, 1765.0, 1765.0, 1764.0, 1763.0, 1764.0, 1764.0, 1767.0, 1768.0, 1767.0, 1768.0, 1769.0, 1770.0, 1770.0, 1770.0, 1771.0, 1770.0, 1771.0, 1770.0, 1768.0, 1765.0, 1765.0, 1766.0, 1767.0, 1768.0, 1766.0, 1767.0, 1770.0, 1771.0, 1772.0, 1771.0, 1771.0, 1771.0, 1769.0, 1772.0, 1772.0, 1773.0, 1770.0, 1772.0, 1772.0, 1772.0, 1774.0, 1775.0, 1772.0, 1771.0, 1771.0, 1770.0, 1768.0, 1767.0, 1766.0, 1766.0, 1771.0, 1773.0, 1773.0, 1771.0, 1773.0, 1775.0, 1775.0, 1773.0, 1771.0, 1773.0, 1776.0, 1776.0, 1775.0, 1775.0, 1774.0, 1775.0, 1774.0, 1772.0, 1768.0, 1770.0, 1770.0, 1772.0, 1773.0, 1775.0, 1774.0, 1772.0, 1770.0, 1770.0, 1769.0, 1770.0, 1769.0, 1770.0, 1773.0, 1775.0, 1776.0, 1778.0, 1777.0, 1775.0, 1775.0, 1778.0, 1775.0, 1773.0, 1772.0, 1772.0, 1770.0, 1773.0, 1773.0, 1774.0, 1774.0, 1771.0, 1771.0, 1770.0, 1770.0, 1769.0, 1770.0, 1772.0, 1773.0, 1770.0, 1770.0, 1770.0, 1773.0, 1770.0, 1769.0, 1769.0, 1769.0, 1768.0, 1767.0, 1769.0, 1771.0, 1770.0, 1770.0, 1768.0, 1770.0, 1772.0, 1774.0, 1773.0, 1772.0, 1769.0, 1769.0, 1771.0, 1772.0, 1772.0, 1771.0, 1771.0, 1770.0, 1772.0]
    },
    "slices": {}
  }
}