{
 "AcquisitionMatrixPE": 100,
 "AcquisitionNumber": 1,
 "AcquisitionTime": "14:44:13.920000",
 "BandwidthPerPixelPhaseEncode": 18.519,
 "BaseResolution": 100,
 "BodyPartExamined": "BRAIN",
 "ConsistencyInfo": "N4_VE11C_LATEST_20160120",
 "ConversionSoftware": "dcm2niix",
 "ConversionSoftwareVersion": "v1.0.20180622 GCC4.9.2",
 "DerivedVendorReportedEchoSpacing": 0.000539986,
 "DeviceSerialNumber": "166078",
 "DwellTime": 2.1e-06,
 "EchoTime": 0.034,
 "EchoTrainLength": 100,
 "EffectiveEchoSpacing": 0.000539986,
 "FlipAngle": 90,
 "ImageOrientationPatientDICOM": [
  1,
  0,
  0,
  0,
  0.981293,
  -0.192522
 ],
 "ImageType": [
  "ORIGINAL",
  "PRIMARY",
  "M",
  "ND",
  "MOSAIC"
 ],
 "InPlanePhaseEncodingDirectionDICOM": "COL",
 "InstitutionAddress": "Street_StreetNo_Bei_Jing_District_CN_ZIP",
 "InstitutionName": "BeiJing_Normal_University",
 "InstitutionalDepartmentName": "Department",
 "MRAcquisitionType": "2D",
 "MagneticFieldStrength": 3,
 "Manufacturer": "Siemens",
 "ManufacturersModelName": "Prisma",
 "Modality": "MR",
 "MultibandAccelerationFactor": 3,
 "PartialFourier": 1,
 "PatientPosition": "HFS",
 "PercentPhaseFOV": 100,
 "PhaseEncodingDirection": "j-",
 "PhaseEncodingSteps": 100,
 "PhaseResolution": 1,
 "PixelBandwidth": 2380,
 "ProcedureStepDescription": "BNU_P2018_64CH_Zhen.ZongLei",
 "ProtocolName": "bold_100x100_s3_2x2x2_static_256",
 "PulseSequenceDetails": "%SiemensSeq%_ep2d_bold",
 "ReceiveCoilActiveElements": "HC1-7;NC1",
 "ReceiveCoilName": "HeadNeck_64",
 "ReconMatrixPE": 100,
 "RepetitionTime": 2,
 "SAR": 0.0728372,
 "ScanOptions": "FS",
 "ScanningSequence": "EP",
 "SequenceName": "_epfid2d1_100",
 "SequenceVariant": "SK",
 "SeriesDescription": "bold_100x100_s3_2x2x2_static_256",
 "SeriesNumber": 14,
 "ShimSetting": [
  -5463,
  -11482,
  -1288,
  326,
  36,
  -205,
  -159,
  48
 ],
 "SliceThickness": 2,
 "SliceTiming": [
  1.485,
  0,
  0.99,
  0.0825,
  1.0725,
  0.165,
  1.155,
  0.2475,
  1.2375,
  0.33,
  1.32,
  0.4125,
  1.4025,
  0.5775,
  1.5675,
  0.66,
  1.65,
  0.7425,
  1.7325,
  0.825,
  1.815,
  0.9075,
  1.8975,
  0.495,
  1.485,
  0,
  0.99,
  0.0825,
  1.0725,
  0.165,
  1.155,
  0.2475,
  1.2375,
  0.33,
  1.32,
  0.4125,
  1.4025,
  0.5775,
  1.5675,
  0.66,
  1.65,
  0.7425,
  1.7325,
  0.825,
  1.815,
  0.9075,
  1.8975,
  0.495,
  1.485,
  0,
  0.99,
  0.0825,
  1.0725,
  0.165,
  1.155,
  0.2475,
  1.2375,
  0.33,
  1.32,
  0.4125,
  1.4025,
  0.5775,
  1.5675,
  0.66,
  1.65,
  0.7425,
  1.7325,
  0.825,
  1.815,
  0.9075,
  1.8975,
  0.495
 ],
 "SoftwareVersions": "syngo_MR_E11",
 "SpacingBetweenSlices": 2,
 "StationName": "AWP166078",
 "TaskName": "imagenet",
 "TotalReadoutTime": 0.0534586,
 "TxRefAmp": 208.17,
 "dcmmeta_affine": [
  [
   -2.0,
   0.0,
   0.0,
   102.03389739990234
  ],
  [
   0.0,
   1.9625853300094604,
   -0.3850439488887787,
   -83.61626434326172
  ],
  [
   0.0,
   0.3850439488887787,
   1.9625853300094604,
   -83.58009338378906
  ],
  [
   0.0,
   0.0,
   0.0,
   1.0
  ]
 ],
 "dcmmeta_reorient_transform": [
  [
   0.0,
   -1.0,
   0.0,
   99.0
  ],
  [
   1.0,
   0.0,
   0.0,
   0.0
  ],
  [
   0.0,
   0.0,
   1.0,
   0.0
  ],
  [
   0.0,
   0.0,
   0.0,
   1.0
  ]
 ],
 "dcmmeta_shape": [
  100,
  100,
  72,
  256
 ],
 "dcmmeta_slice_dim": 2,
 "dcmmeta_version": 0.6,
 "global": {
  "const": {
   "AcquisitionMatrix": [
    100,
    0,
    0,
    100
   ],
   "AngioFlag": "N",
   "BitsAllocated": 16,
   "BitsStored": 12,
   "BodyPartExamined": "BRAIN",
   "Columns": 900,
   "EchoNumbers": 1,
   "EchoTime": 34.0,
   "EchoTrainLength": 100,
   "FlipAngle": 90.0,
   "HighBit": 11,
   "ImageOrientationPatient": [
    1.0,
    0.0,
    0.0,
    0.0,
    0.98129266330938,
    -0.1925219700065
   ],
   "ImagePositionPatient": [
    -902.03389835358,
    -895.71381297118,
    108.55682897507
   ],
   "ImageType": [
    "ORIGINAL",
    "PRIMARY",
    "M",
    "ND",
    "MOSAIC"
   ],
   "ImagedNucleus": "1H",
   "ImagingFrequency": 123.257732,
   "InPlanePhaseEncodingDirection": "COL",
   "MRAcquisitionType": "2D",
   "MagneticFieldStrength": 3.0,
   "Manufacturer": "SIEMENS",
   "ManufacturerModelName": "Prisma",
   "Modality": "MR",
   "NumberOfAverages": 1.0,
   "NumberOfPhaseEncodingSteps": 100,
   "PercentPhaseFieldOfView": 100.0,
   "PercentSampling": 100.0,
   "PerformedProcedureStepStartTime": "130455.886000",
   "PhotometricInterpretation": "MONOCHROME2",
   "PixelBandwidth": 2380.0,
   "PixelRepresentation": 0,
   "PixelSpacing": [
    2.0,
    2.0
   ],
   "ProtocolName": "bold_100x100_s3_2x2x2_static_256",
   "RepetitionTime": 2000.0,
   "Rows": 900,
   "SAR": 0.07283716184881,
   "SamplesPerPixel": 1,
   "ScanOptions": "FS",
   "ScanningSequence": "EP",
   "SequenceName": "*epfid2d1_100",
   "SequenceVariant": "SK",
   "SeriesDescription": "bold_100x100_s3_2x2x2_static_256",
   "SeriesNumber": 14,
   "SeriesTime": "144416.420000",
   "SliceLocation": -65.91856800986,
   "SliceThickness": 2.0,
   "SmallestImagePixelValue": 0,
   "SoftwareVersions": "syngo MR E11",
   "SpacingBetweenSlices": 2.0000000142257,
   "SpecificCharacterSet": "ISO_IR 100",
   "StudyID": "1",
   "StudyTime": "130455.795000",
   "TransmitCoilName": "Body",
   "VariableFlipAngleFlag": "N",
   "WindowCenterWidthExplanation": "Algo1",
   "dBdt": 0.0
  },
  "slices": {}
 },
 "time": {
  "samples": {
   "AcquisitionNumber": [
    1,
    2,
    3,
    4,
    5,
    6,
    7,
    8,
    9,
    10,
    11,
    12,
    13,
    14,
    15,
    16,
    17,
    18,
    19,
    20,
    21,
    22,
    23,
    24,
    25,
    26,
    27,
    28,
    29,
    30,
    31,
    32,
    33,
    34,
    35,
    36,
    37,
    38,
    39,
    40,
    41,
    42,
    43,
    44,
    45,
    46,
    47,
    48,
    49,
    50,
    51,
    52,
    53,
    54,
    55,
    56,
    57,
    58,
    59,
    60,
    61,
    62,
    63,
    64,
    65,
    66,
    67,
    68,
    69,
    70,
    71,
    72,
    73,
    74,
    75,
    76,
    77,
    78,
    79,
    80,
    81,
    82,
    83,
    84,
    85,
    86,
    87,
    88,
    89,
    90,
    91,
    92,
    93,
    94,
    95,
    96,
    97,
    98,
    99,
    100,
    101,
    102,
    103,
    104,
    105,
    106,
    107,
    108,
    109,
    110,
    111,
    112,
    113,
    114,
    115,
    116,
    117,
    118,
    119,
    120,
    121,
    122,
    123,
    124,
    125,
    126,
    127,
    128,
    129,
    130,
    131,
    132,
    133,
    134,
    135,
    136,
    137,
    138,
    139,
    140,
    141,
    142,
    143,
    144,
    145,
    146,
    147,
    148,
    149,
    150,
    151,
    152,
    153,
    154,
    155,
    156,
    157,
    158,
    159,
    160,
    161,
    162,
    163,
    164,
    165,
    166,
    167,
    168,
    169,
    170,
    171,
    172,
    173,
    174,
    175,
    176,
    177,
    178,
    179,
    180,
    181,
    182,
    183,
    184,
    185,
    186,
    187,
    188,
    189,
    190,
    191,
    192,
    193,
    194,
    195,
    196,
    197,
    198,
    199,
    200,
    201,
    202,
    203,
    204,
    205,
    206,
    207,
    208,
    209,
    210,
    211,
    212,
    213,
    214,
    215,
    216,
    217,
    218,
    219,
    220,
    221,
    222,
    223,
    224,
    225,
    226,
    227,
    228,
    229,
    230,
    231,
    232,
    233,
    234,
    235,
    236,
    237,
    238,
    239,
    240,
    241,
    242,
    243,
    244,
    245,
    246,
    247,
    248,
    249,
    250,
    251,
    252,
    253,
    254,
    255,
    256
   ],
   "AcquisitionTime": [
    "144413.920000",
    "144415.920000",
    "144417.920000",
    "144419.920000",
    "144421.920000",
    "144423.920000",
    "144425.920000",
    "144427.920000",
    "144429.920000",
    "144431.920000",
    "144433.920000",
    "144435.920000",
    "144437.920000",
    "144439.920000",
    "144441.920000",
    "144443.920000",
    "144445.920000",
    "144447.920000",
    "144449.920000",
    "144451.920000",
    "144453.920000",
    "144455.920000",
    "144457.920000",
    "144459.920000",
    "144501.920000",
    "144503.920000",
    "144505.920000",
    "144507.920000",
    "144509.920000",
    "144511.920000",
    "144513.920000",
    "144515.920000",
    "144517.920000",
    "144519.920000",
    "144521.920000",
    "144523.920000",
    "144525.920000",
    "144527.920000",
    "144529.920000",
    "144531.920000",
    "144533.920000",
    "144535.920000",
    "144537.920000",
    "144539.920000",
    "144541.920000",
    "144543.920000",
    "144545.920000",
    "144547.920000",
    "144549.920000",
    "144551.920000",
    "144553.920000",
    "144555.920000",
    "144557.920000",
    "144559.920000",
    "144601.920000",
    "144603.920000",
    "144605.920000",
    "144607.920000",
    "144609.920000",
    "144611.920000",
    "144613.920000",
    "144615.920000",
    "144617.920000",
    "144619.920000",
    "144621.920000",
    "144623.920000",
    "144625.920000",
    "144627.920000",
    "144629.920000",
    "144631.920000",
    "144633.920000",
    "144635.920000",
    "144637.920000",
    "144639.920000",
    "144641.920000",
    "144643.920000",
    "144645.920000",
    "144647.920000",
    "144649.920000",
    "144651.920000",
    "144653.920000",
    "144655.920000",
    "144657.920000",
    "144659.920000",
    "144701.920000",
    "144703.920000",
    "144705.920000",
    "144707.920000",
    "144709.920000",
    "144711.920000",
    "144713.920000",
    "144715.920000",
    "144717.920000",
    "144719.920000",
    "144721.920000",
    "144723.920000",
    "144725.920000",
    "144727.920000",
    "144729.920000",
    "144731.920000",
    "144733.920000",
    "144735.920000",
    "144737.920000",
    "144739.920000",
    "144741.920000",
    "144743.920000",
    "144745.920000",
    "144747.920000",
    "144749.920000",
    "144751.920000",
    "144753.920000",
    "144755.920000",
    "144757.920000",
    "144759.920000",
    "144801.920000",
    "144803.920000",
    "144805.920000",
    "144807.920000",
    "144809.920000",
    "144811.920000",
    "144813.920000",
    "144815.920000",
    "144817.920000",
    "144819.920000",
    "144821.920000",
    "144823.920000",
    "144825.920000",
    "144827.920000",
    "144829.920000",
    "144831.920000",
    "144833.920000",
    "144835.920000",
    "144837.920000",
    "144839.920000",
    "144841.920000",
    "144843.920000",
    "144845.920000",
    "144847.920000",
    "144849.920000",
    "144851.920000",
    "144853.920000",
    "144855.920000",
    "144857.920000",
    "144859.920000",
    "144901.920000",
    "144903.920000",
    "144905.920000",
    "144907.920000",
    "144909.920000",
    "144911.920000",
    "144913.920000",
    "144915.920000",
    "144917.920000",
    "144919.920000",
    "144921.920000",
    "144923.920000",
    "144925.920000",
    "144927.920000",
    "144929.920000",
    "144931.920000",
    "144933.920000",
    "144935.920000",
    "144937.920000",
    "144939.920000",
    "144941.920000",
    "144943.920000",
    "144945.920000",
    "144947.920000",
    "144949.920000",
    "144951.920000",
    "144953.920000",
    "144955.920000",
    "144957.920000",
    "144959.920000",
    "145001.920000",
    "145003.920000",
    "145005.920000",
    "145007.920000",
    "145009.920000",
    "145011.920000",
    "145013.920000",
    "145015.920000",
    "145017.920000",
    "145019.920000",
    "145021.920000",
    "145023.920000",
    "145025.920000",
    "145027.920000",
    "145029.920000",
    "145031.920000",
    "145033.920000",
    "145035.920000",
    "145037.920000",
    "145039.920000",
    "145041.920000",
    "145043.920000",
    "145045.920000",
    "145047.920000",
    "145049.920000",
    "145051.920000",
    "145053.920000",
    "145055.920000",
    "145057.920000",
    "145059.920000",
    "145101.920000",
    "145103.920000",
    "145105.920000",
    "145107.920000",
    "145109.920000",
    "145111.920000",
    "145113.920000",
    "145115.920000",
    "145117.920000",
    "145119.920000",
    "145121.920000",
    "145123.920000",
    "145125.920000",
    "145127.920000",
    "145129.920000",
    "145131.920000",
    "145133.920000",
    "145135.920000",
    "145137.920000",
    "145139.920000",
    "145141.920000",
    "145143.920000",
    "145145.920000",
    "145147.920000",
    "145149.920000",
    "145151.920000",
    "145153.920000",
    "145155.920000",
    "145157.920000",
    "145159.920000",
    "145201.920000",
    "145203.920000",
    "145205.920000",
    "145207.920000",
    "145209.920000",
    "145211.920000",
    "145213.920000",
    "145215.920000",
    "145217.920000",
    "145219.920000",
    "145221.920000",
    "145223.920000",
    "145225.920000",
    "145227.920000",
    "145229.920000",
    "145231.920000",
    "145233.920000",
    "145235.920000",
    "145237.920000",
    "145239.920000",
    "145241.920000",
    "145243.920000"
   ],
   "ContentTime": [
    "144416.424000",
    "144417.919000",
    "144419.920000",
    "144421.919000",
    "144423.920000",
    "144425.920000",
    "144427.920000",
    "144429.920000",
    "144431.920000",
    "144433.919000",
    "144435.920000",
    "144437.920000",
    "144439.919000",
    "144441.919000",
    "144443.920000",
    "144445.920000",
    "144447.920000",
    "144449.919000",
    "144451.920000",
    "144453.920000",
    "144455.920000",
    "144457.920000",
    "144459.920000",
    "144501.920000",
    "144503.919000",
    "144505.919000",
    "144507.920000",
    "144509.920000",
    "144511.920000",
    "144513.919000",
    "144515.920000",
    "144517.919000",
    "144519.919000",
    "144521.920000",
    "144523.919000",
    "144525.919000",
    "144527.919000",
    "144529.919000",
    "144531.919000",
    "144533.919000",
    "144535.920000",
    "144537.919000",
    "144539.920000",
    "144541.920000",
    "144543.919000",
    "144545.919000",
    "144547.920000",
    "144549.920000",
    "144551.919000",
    "144553.919000",
    "144555.919000",
    "144557.919000",
    "144559.920000",
    "144601.920000",
    "144603.921000",
    "144605.920000",
    "144607.919000",
    "144609.919000",
    "144611.919000",
    "144613.919000",
    "144615.920000",
    "144617.919000",
    "144619.920000",
    "144621.919000",
    "144623.920000",
    "144625.919000",
    "144627.919000",
    "144629.919000",
    "144631.919000",
    "144633.920000",
    "144635.919000",
    "144637.919000",
    "144639.920000",
    "144641.919000",
    "144643.920000",
    "144645.919000",
    "144647.919000",
    "144649.919000",
    "144651.920000",
    "144653.920000",
    "144655.919000",
    "144657.920000",
    "144659.919000",
    "144701.919000",
    "144703.920000",
    "144705.920000",
    "144707.919000",
    "144709.919000",
    "144711.920000",
    "144713.921000",
    "144715.919000",
    "144717.919000",
    "144719.920000",
    "144721.919000",
    "144723.919000",
    "144725.919000",
    "144727.919000",
    "144729.920000",
    "144731.919000",
    "144733.920000",
    "144735.919000",
    "144737.920000",
    "144739.919000",
    "144741.920000",
    "144743.920000",
    "144745.919000",
    "144747.940000",
    "144749.920000",
    "144751.919000",
    "144753.919000",
    "144755.919000",
    "144757.920000",
    "144759.919000",
    "144801.920000",
    "144803.920000",
    "144805.920000",
    "144807.919000",
    "144809.919000",
    "144811.919000",
    "144813.919000",
    "144815.920000",
    "144817.920000",
    "144819.920000",
    "144821.919000",
    "144823.920000",
    "144825.919000",
    "144827.919000",
    "144829.920000",
    "144831.919000",
    "144833.920000",
    "144835.920000",
    "144837.920000",
    "144839.920000",
    "144841.920000",
    "144843.920000",
    "144845.919000",
    "144847.920000",
    "144849.919000",
    "144852.420000",
    "144853.919000",
    "144855.920000",
    "144857.920000",
    "144859.920000",
    "144901.920000",
    "144903.919000",
    "144905.919000",
    "144907.920000",
    "144909.919000",
    "144911.920000",
    "144913.920000",
    "144915.920000",
    "144917.920000",
    "144919.920000",
    "144921.919000",
    "144923.947000",
    "144925.920000",
    "144927.920000",
    "144929.919000",
    "144931.919000",
    "144933.921000",
    "144935.920000",
    "144937.920000",
    "144939.919000",
    "144941.919000",
    "144943.919000",
    "144945.920000",
    "144947.920000",
    "144949.920000",
    "144951.920000",
    "144953.919000",
    "144955.919000",
    "144957.919000",
    "144959.919000",
    "145001.920000",
    "145003.919000",
    "145005.919000",
    "145007.920000",
    "145009.920000",
    "145011.919000",
    "145013.919000",
    "145015.919000",
    "145017.919000",
    "145019.919000",
    "145021.919000",
    "145023.919000",
    "145025.919000",
    "145027.919000",
    "145029.919000",
    "145031.920000",
    "145033.920000",
    "145035.919000",
    "145037.920000",
    "145039.920000",
    "145041.920000",
    "145043.920000",
    "145045.919000",
    "145047.920000",
    "145049.920000",
    "145051.920000",
    "145053.919000",
    "145055.919000",
    "145057.920000",
    "145059.919000",
    "145101.920000",
    "145103.920000",
    "145105.920000",
    "145107.920000",
    "145109.920000",
    "145111.920000",
    "145113.920000",
    "145115.920000",
    "145117.920000",
    "145119.919000",
    "145121.919000",
    "145123.919000",
    "145125.919000",
    "145127.920000",
    "145129.919000",
    "145131.919000",
    "145133.920000",
    "145135.920000",
    "145137.920000",
    "145139.919000",
    "145141.920000",
    "145143.920000",
    "145145.920000",
    "145147.919000",
    "145149.919000",
    "145151.920000",
    "145153.921000",
    "145155.919000",
    "145157.920000",
    "145159.919000",
    "145201.919000",
    "145203.920000",
    "145206.419000",
    "145207.919000",
    "145209.920000",
    "145211.920000",
    "145213.920000",
    "145215.919000",
    "145217.920000",
    "145219.919000",
    "145221.919000",
    "145223.920000",
    "145225.919000",
    "145227.919000",
    "145229.920000",
    "145231.920000",
    "145233.920000",
    "145235.920000",
    "145237.919000",
    "145239.919000",
    "145241.920000",
    "145243.919000",
    "145245.802000"
   ],
   "InstanceCreationTime": [
    "144416.424000",
    "144417.919000",
    "144419.920000",
    "144421.919000",
    "144423.920000",
    "144425.920000",
    "144427.920000",
    "144429.920000",
    "144431.920000",
    "144433.919000",
    "144435.920000",
    "144437.920000",
    "144439.919000",
    "144441.919000",
    "144443.920000",
    "144445.920000",
    "144447.920000",
    "144449.919000",
    "144451.920000",
    "144453.920000",
    "144455.920000",
    "144457.920000",
    "144459.920000",
    "144501.920000",
    "144503.919000",
    "144505.919000",
    "144507.920000",
    "144509.920000",
    "144511.920000",
    "144513.919000",
    "144515.920000",
    "144517.919000",
    "144519.919000",
    "144521.920000",
    "144523.919000",
    "144525.919000",
    "144527.919000",
    "144529.919000",
    "144531.919000",
    "144533.919000",
    "144535.920000",
    "144537.919000",
    "144539.920000",
    "144541.920000",
    "144543.919000",
    "144545.919000",
    "144547.920000",
    "144549.920000",
    "144551.919000",
    "144553.919000",
    "144555.919000",
    "144557.919000",
    "144559.920000",
    "144601.920000",
    "144603.921000",
    "144605.920000",
    "144607.919000",
    "144609.919000",
    "144611.919000",
    "144613.919000",
    "144615.920000",
    "144617.919000",
    "144619.920000",
    "144621.919000",
    "144623.920000",
    "144625.919000",
    "144627.919000",
    "144629.919000",
    "144631.919000",
    "144633.920000",
    "144635.919000",
    "144637.919000",
    "144639.920000",
    "144641.919000",
    "144643.920000",
    "144645.919000",
    "144647.919000",
    "144649.919000",
    "144651.920000",
    "144653.920000",
    "144655.919000",
    "144657.920000",
    "144659.919000",
    "144701.919000",
    "144703.920000",
    "144705.920000",
    "144707.919000",
    "144709.919000",
    "144711.920000",
    "144713.921000",
    "144715.919000",
    "144717.919000",
    "144719.920000",
    "144721.919000",
    "144723.919000",
    "144725.919000",
    "144727.919000",
    "144729.920000",
    "144731.919000",
    "144733.920000",
    "144735.919000",
    "144737.920000",
    "144739.919000",
    "144741.920000",
    "144743.920000",
    "144745.919000",
    "144747.940000",
    "144749.920000",
    "144751.919000",
    "144753.919000",
    "144755.919000",
    "144757.920000",
    "144759.919000",
    "144801.920000",
    "144803.920000",
    "144805.920000",
    "144807.919000",
    "144809.919000",
    "144811.919000",
    "144813.919000",
    "144815.920000",
    "144817.920000",
    "144819.920000",
    "144821.919000",
    "144823.920000",
    "144825.919000",
    "144827.919000",
    "144829.920000",
    "144831.919000",
    "144833.920000",
    "144835.920000",
    "144837.920000",
    "144839.920000",
    "144841.920000",
    "144843.920000",
    "144845.919000",
    "144847.920000",
    "144849.919000",
    "144852.420000",
    "144853.919000",
    "144855.920000",
    "144857.920000",
    "144859.920000",
    "144901.920000",
    "144903.919000",
    "144905.919000",
    "144907.920000",
    "144909.919000",
    "144911.920000",
    "144913.920000",
    "144915.920000",
    "144917.920000",
    "144919.920000",
    "144921.919000",
    "144923.947000",
    "144925.920000",
    "144927.920000",
    "144929.919000",
    "144931.919000",
    "144933.921000",
    "144935.920000",
    "144937.920000",
    "144939.919000",
    "144941.919000",
    "144943.919000",
    "144945.920000",
    "144947.920000",
    "144949.920000",
    "144951.920000",
    "144953.919000",
    "144955.919000",
    "144957.919000",
    "144959.919000",
    "145001.920000",
    "145003.919000",
    "145005.919000",
    "145007.920000",
    "145009.920000",
    "145011.919000",
    "145013.919000",
    "145015.919000",
    "145017.919000",
    "145019.919000",
    "145021.919000",
    "145023.919000",
    "145025.919000",
    "145027.919000",
    "145029.919000",
    "145031.920000",
    "145033.920000",
    "145035.919000",
    "145037.920000",
    "145039.920000",
    "145041.920000",
    "145043.920000",
    "145045.919000",
    "145047.920000",
    "145049.920000",
    "145051.920000",
    "145053.919000",
    "145055.919000",
    "145057.920000",
    "145059.919000",
    "145101.920000",
    "145103.920000",
    "145105.920000",
    "145107.920000",
    "145109.920000",
    "145111.920000",
    "145113.920000",
    "145115.920000",
    "145117.920000",
    "145119.919000",
    "145121.919000",
    "145123.919000",
    "145125.919000",
    "145127.920000",
    "145129.919000",
    "145131.919000",
    "145133.920000",
    "145135.920000",
    "145137.920000",
    "145139.919000",
    "145141.920000",
    "145143.920000",
    "145145.920000",
    "145147.919000",
    "145149.919000",
    "145151.920000",
    "145153.921000",
    "145155.919000",
    "145157.920000",
    "145159.919000",
    "145201.919000",
    "145203.920000",
    "145206.419000",
    "145207.919000",
    "145209.920000",
    "145211.920000",
    "145213.920000",
    "145215.919000",
    "145217.920000",
    "145219.919000",
    "145221.919000",
    "145223.920000",
    "145225.919000",
    "145227.919000",
    "145229.920000",
    "145231.920000",
    "145233.920000",
    "145235.920000",
    "145237.919000",
    "145239.919000",
    "145241.920000",
    "145243.919000",
    "145245.802000"
   ],
   "InstanceNumber": [
    1,
    2,
    3,
    4,
    5,
    6,
    7,
    8,
    9,
    10,
    11,
    12,
    13,
    14,
    15,
    16,
    17,
    18,
    19,
    20,
    21,
    22,
    23,
    24,
    25,
    26,
    27,
    28,
    29,
    30,
    31,
    32,
    33,
    34,
    35,
    36,
    37,
    38,
    39,
    40,
    41,
    42,
    43,
    44,
    45,
    46,
    47,
    48,
    49,
    50,
    51,
    52,
    53,
    54,
    55,
    56,
    57,
    58,
    59,
    60,
    61,
    62,
    63,
    64,
    65,
    66,
    67,
    68,
    69,
    70,
    71,
    72,
    73,
    74,
    75,
    76,
    77,
    78,
    79,
    80,
    81,
    82,
    83,
    84,
    85,
    86,
    87,
    88,
    89,
    90,
    91,
    92,
    93,
    94,
    95,
    96,
    97,
    98,
    99,
    100,
    101,
    102,
    103,
    104,
    105,
    106,
    107,
    108,
    109,
    110,
    111,
    112,
    113,
    114,
    115,
    116,
    117,
    118,
    119,
    120,
    121,
    122,
    123,
    124,
    125,
    126,
    127,
    128,
    129,
    130,
    131,
    132,
    133,
    134,
    135,
    136,
    137,
    138,
    139,
    140,
    141,
    142,
    143,
    144,
    145,
    146,
    147,
    148,
    149,
    150,
    151,
    152,
    153,
    154,
    155,
    156,
    157,
    158,
    159,
    160,
    161,
    162,
    163,
    164,
    165,
    166,
    167,
    168,
    169,
    170,
    171,
    172,
    173,
    174,
    175,
    176,
    177,
    178,
    179,
    180,
    181,
    182,
    183,
    184,
    185,
    186,
    187,
    188,
    189,
    190,
    191,
    192,
    193,
    194,
    195,
    196,
    197,
    198,
    199,
    200,
    201,
    202,
    203,
    204,
    205,
    206,
    207,
    208,
    209,
    210,
    211,
    212,
    213,
    214,
    215,
    216,
    217,
    218,
    219,
    220,
    221,
    222,
    223,
    224,
    225,
    226,
    227,
    228,
    229,
    230,
    231,
    232,
    233,
    234,
    235,
    236,
    237,
    238,
    239,
    240,
    241,
    242,
    243,
    244,
    245,
    246,
    247,
    248,
    249,
    250,
    251,
    252,
    253,
    254,
    255,
    256
   ],
   "LargestImagePixelValue": [
    3963,
    3924,
    3888,
    3875,
    3894,
    3880,
    3890,
    3905,
    3868,
    3879,
    3882,
    3905,
    3879,
    3881,
    3918,
    3886,
    3884,
    3888,
    3891,
    3829,
    3882,
    3886,
    3894,
    3848,
    3921,
    3889,
    3850,
    3884,
    3866,
    3871,
    3887,
    3874,
    3893,
    3872,
    3835,
    3874,
    3901,
    3904,
    3873,
    3842,
    3875,
    3876,
    3867,
    3886,
    3845,
    3876,
    3886,
    3874,
    3884,
    3869,
    3879,
    3893,
    3876,
    3857,
    3897,
    3922,
    3894,
    3876,
    3889,
    3879,
    3900,
    3874,
    3870,
    3882,
    3888,
    3862,
    3897,
    3894,
    3876,
    3870,
    3936,
    3898,
    3885,
    3850,
    3860,
    3866,
    3881,
    3873,
    3861,
    3858,
    3854,
    3860,
    3845,
    3833,
    3872,
    3893,
    3859,
    3897,
    3867,
    3835,
    3894,
    3890,
    3910,
    3885,
    3862,
    3848,
    3888,
    3889,
    3883,
    3874,
    3873,
    3885,
    3871,
    3908,
    3905,
    3909,
    3871,
    3874,
    3853,
    3878,
    3879,
    3881,
    3864,
    3894,
    3885,
    3860,
    3885,
    3903,
    3881,
    3874,
    3906,
    3907,
    3891,
    3859,
    3849,
    3896,
    3875,
    3894,
    3866,
    3880,
    3882,
    3904,
    3872,
    3891,
    3867,
    3916,
    3870,
    3918,
    3910,
    3887,
    3879,
    3886,
    3912,
    3885,
    3867,
    3872,
    3887,
    3857,
    3912,
    3911,
    3889,
    3855,
    3901,
    3920,
    3894,
    3899,
    3884,
    3947,
    3896,
    3887,
    3901,
    3865,
    3879,
    3845,
    3872,
    3874,
    3858,
    3865,
    3901,
    3876,
    3897,
    3888,
    3936,
    3919,
    3888,
    3896,
    3880,
    3881,
    3911,
    3855,
    3883,
    3873,
    3865,
    3857,
    3905,
    3892,
    3882,
    3862,
    3857,
    3834,
    3880,
    3856,
    3882,
    3879,
    3893,
    3865,
    3872,
    3880,
    3875,
    3881,
    3893,
    3853,
    3873,
    3830,
    3918,
    3868,
    3879,
    3848,
    3863,
    3848,
    3867,
    3829,
    3869,
    3841,
    3855,
    3867,
    3837,
    3860,
    3835,
    3853,
    3899,
    3829,
    3847,
    3835,
    3839,
    3846,
    3847,
    3854,
    3843,
    3821,
    3875,
    3838,
    3887,
    3841,
    3856,
    3848,
    3833,
    3868,
    3858,
    3827,
    3872,
    3850,
    3858,
    3837,
    3856,
    3856,
    3867,
    3833,
    3829,
    3820,
    3835,
    3854,
    3841,
    3851,
    3842,
    3819
   ],
   "WindowCenter": [
    815.0,
    813.0,
    813.0,
    813.0,
    812.0,
    813.0,
    812.0,
    812.0,
    811.0,
    812.0,
    812.0,
    812.0,
    812.0,
    811.0,
    811.0,
    811.0,
    811.0,
    811.0,
    811.0,
    811.0,
    812.0,
    811.0,
    811.0,
    811.0,
    812.0,
    812.0,
    811.0,
    810.0,
    811.0,
    811.0,
    811.0,
    810.0,
    810.0,
    810.0,
    811.0,
    810.0,
    811.0,
    811.0,
    811.0,
    811.0,
    811.0,
    811.0,
    812.0,
    812.0,
    810.0,
    810.0,
    810.0,
    810.0,
    810.0,
    810.0,
    810.0,
    810.0,
    810.0,
    810.0,
    811.0,
    813.0,
    812.0,
    812.0,
    812.0,
    813.0,
    813.0,
    812.0,
    812.0,
    811.0,
    811.0,
    811.0,
    811.0,
    810.0,
    810.0,
    810.0,
    812.0,
    813.0,
    812.0,
    811.0,
    811.0,
    810.0,
    809.0,
    809.0,
    810.0,
    810.0,
    810.0,
    809.0,
    810.0,
    810.0,
    811.0,
    811.0,
    812.0,
    813.0,
    813.0,
    811.0,
    811.0,
    812.0,
    813.0,
    813.0,
    813.0,
    812.0,
    812.0,
    812.0,
    812.0,
    812.0,
    812.0,
    812.0,
    812.0,
    812.0,
    813.0,
    814.0,
    813.0,
    813.0,
    812.0,
    812.0,
    811.0,
    811.0,
    811.0,
    811.0,
    812.0,
    811.0,
    810.0,
    811.0,
    812.0,
    812.0,
    813.0,
    813.0,
    812.0,
    812.0,
    812.0,
