{
 "AcquisitionMatrixPE": 100,
 "AcquisitionNumber": 1,
 "AcquisitionTime": "14:30:21.425000",
 "BandwidthPerPixelPhaseEncode": 18.519,
 "BaseResolution": 100,
 "BodyPartExamined": "BRAIN",
 "ConsistencyInfo": "N4_VE11C_LATEST_20160120",
 "ConversionSoftware": "dcm2niix",
 "ConversionSoftwareVersion": "v1.0.20180622 GCC4.9.2",
 "DerivedVendorReportedEchoSpacing": 0.000539986,
 "DeviceSerialNumber": "166078",
 "DwellTime": 2.1e-06,
 "EchoTime": 0.034,
 "EchoTrainLength": 100,
 "EffectiveEchoSpacing": 0.000539986,
 "FlipAngle": 90,
 "ImageOrientationPatientDICOM": [
  0.999794,
  -0.00593045,
  -0.0193959,
  1.61691e-08,
  0.956297,
  -0.292396
 ],
 "ImageType": [
  "ORIGINAL",
  "PRIMARY",
  "M",
  "ND",
  "MOSAIC"
 ],
 "InPlanePhaseEncodingDirectionDICOM": "COL",
 "InstitutionAddress": "Street_StreetNo_Bei_Jing_District_CN_ZIP",
 "InstitutionName": "BeiJing_Normal_University",
 "InstitutionalDepartmentName": "Department",
 "MRAcquisitionType": "2D",
 "MagneticFieldStrength": 3,
 "Manufacturer": "Siemens",
 "ManufacturersModelName": "Prisma",
 "Modality": "MR",
 "MultibandAccelerationFactor": 3,
 "PartialFourier": 1,
 "PatientPosition": "HFS",
 "PercentPhaseFOV": 100,
 "PhaseEncodingDirection": "j-",
 "PhaseEncodingSteps": 100,
 "PhaseResolution": 1,
 "PixelBandwidth": 2380,
 "ProcedureStepDescription": "BNU_P2018_64CH_Zhen.ZongLei",
 "ProtocolName": "bold_100x100_s3_2x2x2_static_256",
 "PulseSequenceDetails": "%SiemensSeq%_ep2d_bold",
 "ReceiveCoilActiveElements": "HC1-7;NC1",
 "ReceiveCoilName": "HeadNeck_64",
 "ReconMatrixPE": 100,
 "RepetitionTime": 2,
 "SAR": 0.0851948,
 "ScanOptions": "FS",
 "ScanningSequence": "EP",
 "SequenceName": "_epfid2d1_100",
 "SequenceVariant": "SK",
 "SeriesDescription": "bold_100x100_s3_2x2x2_static_256",
 "SeriesNumber": 13,
 "ShimSetting": [
  -5468,
  -11479,
  -1287,
  439,
  -31,
  -204,
  -175,
  81
 ],
 "SliceThickness": 2,
 "SliceTiming": [
  1.485,
  0,
  0.99,
  0.0825,
  1.0725,
  0.165,
  1.155,
  0.2475,
  1.2375,
  0.33,
  1.32,
  0.4125,
  1.4025,
  0.5775,
  1.5675,
  0.66,
  1.65,
  0.7425,
  1.7325,
  0.825,
  1.815,
  0.9075,
  1.8975,
  0.495,
  1.485,
  0,
  0.99,
  0.0825,
  1.0725,
  0.165,
  1.155,
  0.2475,
  1.2375,
  0.33,
  1.32,
  0.4125,
  1.4025,
  0.5775,
  1.5675,
  0.66,
  1.65,
  0.7425,
  1.7325,
  0.825,
  1.815,
  0.9075,
  1.8975,
  0.495,
  1.485,
  0,
  0.99,
  0.0825,
  1.0725,
  0.165,
  1.155,
  0.2475,
  1.2375,
  0.33,
  1.32,
  0.4125,
  1.4025,
  0.5775,
  1.5675,
  0.66,
  1.65,
  0.7425,
  1.7325,
  0.825,
  1.815,
  0.9075,
  1.8975,
  0.495
 ],
 "SoftwareVersions": "syngo_MR_E11",
 "SpacingBetweenSlices": 2,
 "StationName": "AWP166078",
 "TaskName": "imagenet",
 "TotalReadoutTime": 0.0534586,
 "TxRefAmp": 234.941,
 "dcmmeta_affine": [
  [
   -1.9995886087417603,
   3.233824585890943e-08,
   -0.04056449607014656,
   102.9927978515625
  ],
  [
   0.011860907077789307,
   1.9125949144363403,
   -0.5846707224845886,
   -74.04572296142578
  ],
  [
   -0.0387917160987854,
   0.5847910046577454,
   1.9122015237808228,
   -104.4664535522461
  ],
  [
   0.0,
   0.0,
   0.0,
   1.0
  ]
 ],
 "dcmmeta_reorient_transform": [
  [
   0.0,
   -1.0,
   0.0,
   99.0
  ],
  [
   1.0,
   0.0,
   0.0,
   0.0
  ],
  [
   0.0,
   0.0,
   1.0,
   0.0
  ],
  [
   0.0,
   0.0,
   0.0,
   1.0
  ]
 ],
 "dcmmeta_shape": [
  100,
  100,
  72,
  256
 ],
 "dcmmeta_slice_dim": 2,
 "dcmmeta_version": 0.6,
 "global": {
  "const": {
   "AcquisitionMatrix": [
    100,
    0,
    0,
    100
   ],
   "AngioFlag": "N",
   "BitsAllocated": 16,
   "BitsStored": 12,
   "BodyPartExamined": "BRAIN",
   "Columns": 900,
   "EchoNumbers": 1,
   "EchoTime": 34.0,
   "EchoTrainLength": 100,
   "FlipAngle": 90.0,
   "HighBit": 11,
   "ImageOrientationPatient": [
    0.99979429406131,
    -0.0059304533705,
    -0.0193958574254,
    1.6169123e-08,
    0.95629748037654,
    -0.292395501035
   ],
   "ImagePositionPatient": [
    -902.82824662186,
    -875.5948029889,
    202.86094087607
   ],
   "ImageType": [
    "ORIGINAL",
    "PRIMARY",
    "M",
    "ND",
    "MOSAIC"
   ],
   "ImagedNucleus": "1H",
   "ImagingFrequency": 123.25778,
   "InPlanePhaseEncodingDirection": "COL",
   "MRAcquisitionType": "2D",
   "MagneticFieldStrength": 3.0,
   "Manufacturer": "SIEMENS",
   "ManufacturerModelName": "Prisma",
   "Modality": "MR",
   "NumberOfAverages": 1.0,
   "NumberOfPhaseEncodingSteps": 100,
   "PercentPhaseFieldOfView": 100.0,
   "PercentSampling": 100.0,
   "PerformedProcedureStepStartTime": "125824.699000",
   "PhotometricInterpretation": "MONOCHROME2",
   "PixelBandwidth": 2380.0,
   "PixelRepresentation": 0,
   "PixelSpacing": [
    2.0,
    2.0
   ],
   "ProtocolName": "bold_100x100_s3_2x2x2_static_256",
   "RepetitionTime": 2000.0,
   "Rows": 900,
   "SAR": 0.08519474933953,
   "SamplesPerPixel": 1,
   "ScanOptions": "FS",
   "ScanningSequence": "EP",
   "SequenceName": "*epfid2d1_100",
   "SequenceVariant": "SK",
   "SeriesDescription": "bold_100x100_s3_2x2x2_static_256",
   "SeriesNumber": 13,
   "SeriesTime": "143024.100000",
   "SliceLocation": -80.323201300752,
   "SliceThickness": 2.0,
   "SmallestImagePixelValue": 0,
   "SoftwareVersions": "syngo MR E11",
   "SpacingBetweenSlices": 1.9999999959971,
   "SpecificCharacterSet": "ISO_IR 100",
   "StudyID": "1",
   "StudyTime": "125824.589000",
   "TransmitCoilName": "Body",
   "VariableFlipAngleFlag": "N",
   "WindowCenterWidthExplanation": "Algo1",
   "dBdt": 0.0
  },
  "slices": {}
 },
 "time": {
  "samples": {
   "AcquisitionNumber": [
    1,
    2,
    3,
    4,
    5,
    6,
    7,
    8,
    9,
    10,
    11,
    12,
    13,
    14,
    15,
    16,
    17,
    18,
    19,
    20,
    21,
    22,
    23,
    24,
    25,
    26,
    27,
    28,
    29,
    30,
    31,
    32,
    33,
    34,
    35,
    36,
    37,
    38,
    39,
    40,
    41,
    42,
    43,
    44,
    45,
    46,
    47,
    48,
    49,
    50,
    51,
    52,
    53,
    54,
    55,
    56,
    57,
    58,
    59,
    60,
    61,
    62,
    63,
    64,
    65,
    66,
    67,
    68,
    69,
    70,
    71,
    72,
    73,
    74,
    75,
    76,
    77,
    78,
    79,
    80,
    81,
    82,
    83,
    84,
    85,
    86,
    87,
    88,
    89,
    90,
    91,
    92,
    93,
    94,
    95,
    96,
    97,
    98,
    99,
    100,
    101,
    102,
    103,
    104,
    105,
    106,
    107,
    108,
    109,
    110,
    111,
    112,
    113,
    114,
    115,
    116,
    117,
    118,
    119,
    120,
    121,
    122,
    123,
    124,
    125,
    126,
    127,
    128,
    129,
    130,
    131,
    132,
    133,
    134,
    135,
    136,
    137,
    138,
    139,
    140,
    141,
    142,
    143,
    144,
    145,
    146,
    147,
    148,
    149,
    150,
    151,
    152,
    153,
    154,
    155,
    156,
    157,
    158,
    159,
    160,
    161,
    162,
    163,
    164,
    165,
    166,
    167,
    168,
    169,
    170,
    171,
    172,
    173,
    174,
    175,
    176,
    177,
    178,
    179,
    180,
    181,
    182,
    183,
    184,
    185,
    186,
    187,
    188,
    189,
    190,
    191,
    192,
    193,
    194,
    195,
    196,
    197,
    198,
    199,
    200,
    201,
    202,
    203,
    204,
    205,
    206,
    207,
    208,
    209,
    210,
    211,
    212,
    213,
    214,
    215,
    216,
    217,
    218,
    219,
    220,
    221,
    222,
    223,
    224,
    225,
    226,
    227,
    228,
    229,
    230,
    231,
    232,
    233,
    234,
    235,
    236,
    237,
    238,
    239,
    240,
    241,
    242,
    243,
    244,
    245,
    246,
    247,
    248,
    249,
    250,
    251,
    252,
    253,
    254,
    255,
    256
   ],
   "AcquisitionTime": [
    "143021.425000",
    "143023.425000",
    "143025.425000",
    "143027.425000",
    "143029.425000",
    "143031.425000",
    "143033.425000",
    "143035.425000",
    "143037.425000",
    "143039.425000",
    "143041.425000",
    "143043.425000",
    "143045.425000",
    "143047.425000",
    "143049.425000",
    "143051.425000",
    "143053.425000",
    "143055.425000",
    "143057.425000",
    "143059.425000",
    "143101.425000",
    "143103.425000",
    "143105.425000",
    "143107.425000",
    "143109.425000",
    "143111.425000",
    "143113.425000",
    "143115.425000",
    "143117.425000",
    "143119.425000",
    "143121.425000",
    "143123.425000",
    "143125.425000",
    "143127.425000",
    "143129.425000",
    "143131.425000",
    "143133.425000",
    "143135.425000",
    "143137.425000",
    "143139.425000",
    "143141.425000",
    "143143.425000",
    "143145.425000",
    "143147.425000",
    "143149.425000",
    "143151.425000",
    "143153.425000",
    "143155.425000",
    "143157.425000",
    "143159.425000",
    "143201.425000",
    "143203.425000",
    "143205.425000",
    "143207.425000",
    "143209.425000",
    "143211.425000",
    "143213.425000",
    "143215.425000",
    "143217.425000",
    "143219.425000",
    "143221.425000",
    "143223.425000",
    "143225.425000",
    "143227.425000",
    "143229.425000",
    "143231.425000",
    "143233.425000",
    "143235.425000",
    "143237.425000",
    "143239.425000",
    "143241.425000",
    "143243.425000",
    "143245.425000",
    "143247.425000",
    "143249.425000",
    "143251.425000",
    "143253.425000",
    "143255.425000",
    "143257.425000",
    "143259.425000",
    "143301.425000",
    "143303.425000",
    "143305.425000",
    "143307.425000",
    "143309.425000",
    "143311.425000",
    "143313.425000",
    "143315.425000",
    "143317.425000",
    "143319.425000",
    "143321.425000",
    "143323.425000",
    "143325.425000",
    "143327.425000",
    "143329.425000",
    "143331.425000",
    "143333.425000",
    "143335.425000",
    "143337.425000",
    "143339.425000",
    "143341.425000",
    "143343.425000",
    "143345.425000",
    "143347.425000",
    "143349.425000",
    "143351.425000",
    "143353.425000",
    "143355.425000",
    "143357.425000",
    "143359.425000",
    "143401.425000",
    "143403.425000",
    "143405.425000",
    "143407.425000",
    "143409.425000",
    "143411.425000",
    "143413.425000",
    "143415.425000",
    "143417.425000",
    "143419.425000",
    "143421.425000",
    "143423.425000",
    "143425.425000",
    "143427.425000",
    "143429.425000",
    "143431.425000",
    "143433.425000",
    "143435.425000",
    "143437.425000",
    "143439.425000",
    "143441.425000",
    "143443.425000",
    "143445.425000",
    "143447.425000",
    "143449.425000",
    "143451.425000",
    "143453.425000",
    "143455.425000",
    "143457.425000",
    "143459.425000",
    "143501.425000",
    "143503.425000",
    "143505.425000",
    "143507.425000",
    "143509.425000",
    "143511.425000",
    "143513.425000",
    "143515.425000",
    "143517.425000",
    "143519.425000",
    "143521.425000",
    "143523.425000",
    "143525.425000",
    "143527.425000",
    "143529.425000",
    "143531.425000",
    "143533.425000",
    "143535.425000",
    "143537.425000",
    "143539.425000",
    "143541.425000",
    "143543.425000",
    "143545.425000",
    "143547.425000",
    "143549.425000",
    "143551.425000",
    "143553.425000",
    "143555.425000",
    "143557.425000",
    "143559.425000",
    "143601.425000",
    "143603.425000",
    "143605.425000",
    "143607.425000",
    "143609.425000",
    "143611.425000",
    "143613.425000",
    "143615.425000",
    "143617.425000",
    "143619.425000",
    "143621.425000",
    "143623.425000",
    "143625.425000",
    "143627.425000",
    "143629.425000",
    "143631.425000",
    "143633.425000",
    "143635.425000",
    "143637.425000",
    "143639.425000",
    "143641.425000",
    "143643.425000",
    "143645.425000",
    "143647.425000",
    "143649.425000",
    "143651.425000",
    "143653.425000",
    "143655.425000",
    "143657.425000",
    "143659.425000",
    "143701.425000",
    "143703.425000",
    "143705.425000",
    "143707.425000",
    "143709.425000",
    "143711.425000",
    "143713.425000",
    "143715.425000",
    "143717.425000",
    "143719.425000",
    "143721.425000",
    "143723.425000",
    "143725.425000",
    "143727.425000",
    "143729.425000",
    "143731.425000",
    "143733.425000",
    "143735.425000",
    "143737.425000",
    "143739.425000",
    "143741.425000",
    "143743.425000",
    "143745.425000",
    "143747.425000",
    "143749.425000",
    "143751.425000",
    "143753.425000",
    "143755.425000",
    "143757.425000",
    "143759.425000",
    "143801.425000",
    "143803.425000",
    "143805.425000",
    "143807.425000",
    "143809.425000",
    "143811.425000",
    "143813.425000",
    "143815.425000",
    "143817.425000",
    "143819.425000",
    "143821.425000",
    "143823.425000",
    "143825.425000",
    "143827.425000",
    "143829.425000",
    "143831.425000",
    "143833.425000",
    "143835.425000",
    "143837.425000",
    "143839.425000",
    "143841.425000",
    "143843.425000",
    "143845.425000",
    "143847.425000",
    "143849.425000",
    "143851.425000"
   ],
   "ContentTime": [
    "143024.104000",
    "143025.599000",
    "143027.599000",
    "143029.599000",
    "143031.599000",
    "143033.599000",
    "143035.601000",
    "143037.600000",
    "143039.600000",
    "143041.599000",
    "143043.599000",
    "143045.599000",
    "143047.599000",
    "143049.599000",
    "143051.600000",
    "143053.600000",
    "143055.600000",
    "143058.119000",
    "143059.599000",
    "143101.599000",
    "143103.599000",
    "143105.599000",
    "143107.599000",
    "143109.600000",
    "143111.600000",
    "143113.599000",
    "143115.599000",
    "143117.599000",
    "143119.599000",
    "143121.599000",
    "143123.600000",
    "143125.599000",
    "143127.600000",
    "143129.601000",
    "143131.600000",
    "143133.599000",
    "143135.600000",
    "143137.599000",
    "143139.600000",
    "143141.599000",
    "143143.600000",
    "143145.601000",
    "143147.600000",
    "143149.600000",
    "143151.600000",
    "143153.599000",
    "143155.599000",
    "143157.599000",
    "143159.599000",
    "143201.600000",
    "143203.600000",
    "143205.601000",
    "143207.600000",
    "143209.600000",
    "143211.600000",
    "143213.599000",
    "143215.600000",
    "143217.599000",
    "143219.600000",
    "143221.601000",
    "143223.600000",
    "143225.600000",
    "143227.599000",
    "143229.599000",
    "143231.599000",
    "143233.600000",
    "143235.600000",
    "143237.602000",
    "143239.601000",
    "143241.600000",
    "143243.600000",
    "143245.600000",
    "143247.599000",
    "143249.600000",
    "143251.600000",
    "143253.599000",
    "143255.600000",
    "143257.600000",
    "143259.599000",
    "143301.600000",
    "143303.599000",
    "143305.599000",
    "143307.599000",
    "143309.599000",
    "143311.600000",
    "143313.601000",
    "143315.600000",
    "143317.599000",
    "143319.599000",
    "143321.600000",
    "143323.599000",
    "143325.599000",
    "143327.599000",
    "143329.600000",
    "143331.600000",
    "143333.600000",
    "143335.600000",
    "143337.599000",
    "143339.599000",
    "143341.599000",
    "143343.600000",
    "143345.600000",
    "143347.600000",
    "143349.600000",
    "143351.599000",
    "143353.599000",
    "143355.599000",
    "143357.599000",
    "143359.600000",
    "143401.600000",
    "143403.599000",
    "143405.600000",
    "143407.600000",
    "143409.599000",
    "143411.599000",
    "143413.599000",
    "143415.599000",
    "143417.599000",
    "143419.599000",
    "143421.601000",
    "143423.600000",
    "143425.601000",
    "143427.600000",
    "143429.599000",
    "143431.600000",
    "143433.600000",
    "143435.599000",
    "143437.600000",
    "143439.601000",
    "143441.601000",
    "143443.599000",
    "143445.600000",
    "143447.600000",
    "143449.600000",
    "143451.599000",
    "143454.100000",
    "143455.599000",
    "143457.601000",
    "143459.601000",
    "143501.599000",
    "143503.600000",
    "143505.600000",
    "143507.599000",
    "143509.600000",
    "143511.600000",
    "143513.599000",
    "143515.601000",
    "143517.600000",
    "143519.600000",
    "143522.100000",
    "143523.599000",
    "143525.600000",
    "143527.599000",
    "143529.600000",
    "143531.601000",
    "143533.600000",
    "143535.600000",
    "143537.599000",
    "143539.599000",
    "143541.600000",
    "143543.600000",
    "143545.599000",
    "143547.619000",
    "143549.600000",
    "143551.601000",
    "143553.600000",
    "143555.600000",
    "143557.599000",
    "143559.600000",
    "143601.600000",
    "143603.600000",
    "143605.600000",
    "143607.600000",
    "143609.601000",
    "143611.599000",
    "143613.599000",
    "143615.600000",
    "143617.599000",
    "143619.600000",
    "143621.599000",
    "143623.600000",
    "143625.600000",
    "143627.601000",
    "143629.600000",
    "143631.600000",
    "143633.600000",
    "143635.599000",
    "143637.599000",
    "143639.600000",
    "143641.600000",
    "143643.601000",
    "143645.601000",
    "143647.599000",
    "143649.600000",
    "143651.600000",
    "143653.600000",
    "143655.600000",
    "143657.600000",
    "143659.601000",
    "143701.601000",
    "143703.600000",
    "143705.599000",
    "143707.600000",
    "143709.600000",
    "143711.599000",
    "143713.600000",
    "143715.600000",
    "143717.600000",
    "143719.601000",
    "143721.600000",
    "143723.599000",
    "143725.600000",
    "143727.600000",
    "143729.601000",
    "143731.600000",
    "143733.600000",
    "143735.601000",
    "143737.600000",
    "143739.600000",
    "143741.599000",
    "143743.600000",
    "143745.600000",
    "143747.600000",
    "143749.599000",
    "143751.600000",
    "143753.600000",
    "143755.600000",
    "143757.600000",
    "143759.600000",
    "143801.600000",
    "143803.600000",
    "143805.600000",
    "143807.600000",
    "143809.601000",
    "143811.601000",
    "143814.100000",
    "143815.600000",
    "143817.599000",
    "143819.599000",
    "143821.600000",
    "143823.600000",
    "143825.600000",
    "143827.612000",
    "143829.600000",
    "143831.600000",
    "143833.600000",
    "143835.599000",
    "143837.600000",
    "143839.600000",
    "143841.600000",
    "143843.601000",
    "143845.601000",
    "143847.601000",
    "143849.599000",
    "143851.600000",
    "143853.484000"
   ],
   "InstanceCreationTime": [
    "143024.104000",
    "143025.599000",
    "143027.599000",
    "143029.599000",
    "143031.599000",
    "143033.599000",
    "143035.601000",
    "143037.600000",
    "143039.600000",
    "143041.599000",
    "143043.599000",
    "143045.599000",
    "143047.599000",
    "143049.599000",
    "143051.600000",
    "143053.600000",
    "143055.600000",
    "143058.119000",
    "143059.599000",
    "143101.599000",
    "143103.599000",
    "143105.599000",
    "143107.599000",
    "143109.600000",
    "143111.600000",
    "143113.599000",
    "143115.599000",
    "143117.599000",
    "143119.599000",
    "143121.599000",
    "143123.600000",
    "143125.599000",
    "143127.600000",
    "143129.601000",
    "143131.600000",
    "143133.599000",
    "143135.600000",
    "143137.599000",
    "143139.600000",
    "143141.599000",
    "143143.600000",
    "143145.601000",
    "143147.600000",
    "143149.600000",
    "143151.600000",
    "143153.599000",
    "143155.599000",
    "143157.599000",
    "143159.599000",
    "143201.600000",
    "143203.600000",
    "143205.601000",
    "143207.600000",
    "143209.600000",
    "143211.600000",
    "143213.599000",
    "143215.600000",
    "143217.599000",
    "143219.600000",
    "143221.601000",
    "143223.600000",
    "143225.600000",
    "143227.599000",
    "143229.599000",
    "143231.599000",
    "143233.600000",
    "143235.600000",
    "143237.602000",
    "143239.601000",
    "143241.600000",
    "143243.600000",
    "143245.600000",
    "143247.599000",
    "143249.600000",
    "143251.600000",
    "143253.599000",
    "143255.600000",
    "143257.600000",
    "143259.599000",
    "143301.600000",
    "143303.599000",
    "143305.599000",
    "143307.599000",
    "143309.599000",
    "143311.600000",
    "143313.601000",
    "143315.600000",
    "143317.599000",
    "143319.599000",
    "143321.600000",
    "143323.599000",
    "143325.599000",
    "143327.599000",
    "143329.600000",
    "143331.600000",
    "143333.600000",
    "143335.600000",
    "143337.599000",
    "143339.599000",
    "143341.599000",
    "143343.600000",
    "143345.600000",
    "143347.600000",
    "143349.600000",
    "143351.599000",
    "143353.599000",
    "143355.599000",
    "143357.599000",
    "143359.600000",
    "143401.600000",
    "143403.599000",
    "143405.600000",
    "143407.600000",
    "143409.599000",
    "143411.599000",
    "143413.599000",
    "143415.599000",
    "143417.599000",
    "143419.599000",
    "143421.601000",
    "143423.600000",
    "143425.601000",
    "143427.600000",
    "143429.599000",
    "143431.600000",
    "143433.600000",
    "143435.599000",
    "143437.600000",
    "143439.601000",
    "143441.601000",
    "143443.599000",
    "143445.600000",
    "143447.600000",
    "143449.600000",
    "143451.599000",
    "143454.100000",
    "143455.599000",
    "143457.601000",
    "143459.601000",
    "143501.599000",
    "143503.600000",
    "143505.600000",
    "143507.599000",
    "143509.600000",
    "143511.600000",
    "143513.599000",
    "143515.601000",
    "143517.600000",
    "143519.600000",
    "143522.100000",
    "143523.599000",
    "143525.600000",
    "143527.599000",
    "143529.600000",
    "143531.601000",
    "143533.600000",
    "143535.600000",
    "143537.599000",
    "143539.599000",
    "143541.600000",
    "143543.600000",
    "143545.599000",
    "143547.619000",
    "143549.600000",
    "143551.601000",
    "143553.600000",
    "143555.600000",
    "143557.599000",
    "143559.600000",
    "143601.600000",
    "143603.600000",
    "143605.600000",
    "143607.600000",
    "143609.601000",
    "143611.599000",
    "143613.599000",
    "143615.600000",
    "143617.599000",
    "143619.600000",
    "143621.599000",
    "143623.600000",
    "143625.600000",
    "143627.601000",
    "143629.600000",
    "143631.600000",
    "143633.600000",
    "143635.599000",
    "143637.599000",
    "143639.600000",
    "143641.600000",
    "143643.601000",
    "143645.601000",
    "143647.599000",
    "143649.600000",
    "143651.600000",
    "143653.600000",
    "143655.600000",
    "143657.600000",
    "143659.601000",
    "143701.601000",
    "143703.600000",
    "143705.599000",
    "143707.600000",
    "143709.600000",
    "143711.599000",
    "143713.600000",
    "143715.600000",
    "143717.600000",
    "143719.601000",
    "143721.600000",
    "143723.599000",
    "143725.600000",
    "143727.600000",
    "143729.601000",
    "143731.600000",
    "143733.600000",
    "143735.601000",
    "143737.600000",
    "143739.600000",
    "143741.599000",
    "143743.600000",
    "143745.600000",
    "143747.600000",
    "143749.599000",
    "143751.600000",
    "143753.600000",
    "143755.600000",
    "143757.600000",
    "143759.600000",
    "143801.600000",
    "143803.600000",
    "143805.600000",
    "143807.600000",
    "143809.601000",
    "143811.601000",
    "143814.100000",
    "143815.600000",
    "143817.599000",
    "143819.599000",
    "143821.600000",
    "143823.600000",
    "143825.600000",
    "143827.612000",
    "143829.600000",
    "143831.600000",
    "143833.600000",
    "143835.599000",
    "143837.600000",
    "143839.600000",
    "143841.600000",
    "143843.601000",
    "143845.601000",
    "143847.601000",
    "143849.599000",
    "143851.600000",
    "143853.484000"
   ],
   "InstanceNumber": [
    1,
    2,
    3,
    4,
    5,
    6,
    7,
    8,
    9,
    10,
    11,
    12,
    13,
    14,
    15,
    16,
    17,
    18,
    19,
    20,
    21,
    22,
    23,
    24,
    25,
    26,
    27,
    28,
    29,
    30,
    31,
    32,
    33,
    34,
    35,
    36,
    37,
    38,
    39,
    40,
    41,
    42,
    43,
    44,
    45,
    46,
    47,
    48,
    49,
    50,
    51,
    52,
    53,
    54,
    55,
    56,
    57,
    58,
    59,
    60,
    61,
    62,
    63,
    64,
    65,
    66,
    67,
    68,
    69,
    70,
    71,
    72,
    73,
    74,
    75,
    76,
    77,
    78,
    79,
    80,
    81,
    82,
    83,
    84,
    85,
    86,
    87,
    88,
    89,
    90,
    91,
    92,
    93,
    94,
    95,
    96,
    97,
    98,
    99,
    100,
    101,
    102,
    103,
    104,
    105,
    106,
    107,
    108,
    109,
    110,
    111,
    112,
    113,
    114,
    115,
    116,
    117,
    118,
    119,
    120,
    121,
    122,
    123,
    124,
    125,
    126,
    127,
    128,
    129,
    130,
    131,
    132,
    133,
    134,
    135,
    136,
    137,
    138,
    139,
    140,
    141,
    142,
    143,
    144,
    145,
    146,
    147,
    148,
    149,
    150,
    151,
    152,
    153,
    154,
    155,
    156,
    157,
    158,
    159,
    160,
    161,
    162,
    163,
    164,
    165,
    166,
    167,
    168,
    169,
    170,
    171,
    172,
    173,
    174,
    175,
    176,
    177,
    178,
    179,
    180,
    181,
    182,
    183,
    184,
    185,
    186,
    187,
    188,
    189,
    190,
    191,
    192,
    193,
    194,
    195,
    196,
    197,
    198,
    199,
    200,
    201,
    202,
    203,
    204,
    205,
    206,
    207,
    208,
    209,
    210,
    211,
    212,
    213,
    214,
    215,
    216,
    217,
    218,
    219,
    220,
    221,
    222,
    223,
    224,
    225,
    226,
    227,
    228,
    229,
    230,
    231,
    232,
    233,
    234,
    235,
    236,
    237,
    238,
    239,
    240,
    241,
    242,
    243,
    244,
    245,
    246,
    247,
    248,
    249,
    250,
    251,
    252,
    253,
    254,
    255,
    256
   ],
   "LargestImagePixelValue": [
    3019,
    3026,
    2977,
    2970,
    2978,
    2933,
    2929,
    2936,
    2945,
    2952,
    2947,
    2984,
    2980,
    2982,
    2985,
    2947,
    2957,
    2966,
    2973,
    2934,
    2957,
    2959,
    2965,
    2962,
    2952,
    2961,
    2978,
    2974,
    2942,
    2954,
    2998,
    2973,
    2988,
    2965,
    2978,
    3000,
    2992,
    2957,
    2922,
    2942,
    2933,
    2939,
    2941,
    2947,
    2944,
    2977,
    2970,
    2984,
    2954,
    2953,
    2947,
    2913,
    2935,
    2934,
    2952,
    2931,
    2987,
    2984,
    2947,
    2979,
    2978,
    2967,
    2955,
    2967,
    2976,
    2972,
    2998,
    2981,
    2938,
    2950,
    2957,
    2969,
    2946,
    2985,
    2971,
    2931,
    2942,
    2936,
    2929,
    2932,
    2925,
    2954,
    2942,
    2977,
    2976,
    2959,
    2959,
    2968,
    2975,
    3027,
    3005,
    2957,
    2954,
    2987,
    2958,
    2961,
    2960,
    2974,
    2975,
    2981,
    2962,
    2983,
    2948,
    2977,
    2977,
    2994,
    2997,
    3017,
    2976,
    2988,
    2966,
    2951,
    2940,
    2949,
    2930,
    2961,
    2947,
    2967,
    2959,
    2983,
    2956,
    2969,
    2949,
    2980,
    2992,
    2979,
    2976,
    2974,
    2960,
    2966,
    2942,
    2961,
    2943,
    2965,
    2938,
    2929,
    2948,
    2979,
    2953,
    2936,
    2926,
    2934,
    2961,
    2936,
    2935,
    2959,
    2965,
    2961,
    2964,
    2979,
    2942,
    2968,
    2992,
    2941,
    2956,
    2966,
    2975,
    2954,
    2940,
    2972,
    2951,
    2946,
    2942,
    2986,
    2983,
    2962,
    2959,
    2946,
    2958,
    2985,
    2977,
    2958,
    2947,
    2929,
    2940,
    2951,
    2951,
    2940,
    2949,
    2971,
    2944,
    2977,
    2955,
    2928,
    2951,
    2931,
    2920,
    2952,
    2965,
    2927,
    2935,
    2928,
    2938,
    2914,
    2938,
    2935,
    2929,
    2964,
    2921,
    2942,
    2965,
    2952,
    2953,
    2937,
    2935,
    2950,
    2937,
    2940,
    2980,
    2977,
    2956,
    2977,
    2986,
    2971,
    2968,
    2962,
    2938,
    2941,
    2945,
    2953,
    2938,
    2996,
    2964,
    2950,
    2963,
    2956,
    2933,
    2920,
    2935,
    2916,
    2922,
    2963,
    2993,
    2969,
    2949,
    2962,
    2980,
    2964,
    2943,
    2982,
    2978,
    2987,
    2937,
    2952,
    2930,
    2939,
    2963,
    2980,
    3016,
    2973,
    2966,
    3016,
    3004,
    3022,
    2964,
    2956
   ],
   "WindowCenter": [
    783.0,
    781.0,
    779.0,
    779.0,
    779.0,
    778.0,
    778.0,
    778.0,
    778.0,
    778.0,
    778.0,
    777.0,
    778.0,
    777.0,
    778.0,
    778.0,
    778.0,
    778.0,
    779.0,
    778.0,
    778.0,
    778.0,
    779.0,
    779.0,
    778.0,
    778.0,
    778.0,
    778.0,
    778.0,
    779.0,
    780.0,
    779.0,
    778.0,
    777.0,
    777.0,
    777.0,
    777.0,
    776.0,
    775.0,
    775.0,
    775.0,
    775.0,
    775.0,
    775.0,
    776.0,
    777.0,
    777.0,
    777.0,
    776.0,
    777.0,
    777.0,
    775.0,
    774.0,
    775.0,
    776.0,
    777.0,
    777.0,
    778.0,
    778.0,
    777.0,
    777.0,
    778.0,
    779.0,
    779.0,
    779.0,
    778.0,
    778.0,
    777.0,
    776.0,
    777.0,
    777.0,
    777.0,
    777.0,
    778.0,
    778.0,
    777.0,
    776.0,
    776.0,
    774.0,
    774.0,
    774.0,
    775.0,
    775.0,
    775.0,
    776.0,
    775.0,
    775.0,
    775.0,
    776.0,
    777.0,
    778.0,
    777.0,
    776.0,
    775.0,
    775.0,
    776.0,
    776.0,
    776.0,
    775.0,
    775.0,
    775.0,
    776.0,
    776.0,
    776.0,
    777.0,
    778.0,
    778.0,
    777.0,
    777.0,
