{
 "AcquisitionMatrixPE": 100,
 "AcquisitionNumber": 1,
 "AcquisitionTime": "14:01:0.530000",
 "BandwidthPerPixelPhaseEncode": 18.519,
 "BaseResolution": 100,
 "BodyPartExamined": "BRAIN",
 "ConsistencyInfo": "N4_VE11C_LATEST_20160120",
 "ConversionSoftware": "dcm2niix",
 "ConversionSoftwareVersion": "v1.0.20180622 GCC4.9.2",
 "DerivedVendorReportedEchoSpacing": 0.000539986,
 "DeviceSerialNumber": "166078",
 "DwellTime": 2.1e-06,
 "EchoTime": 0.034,
 "EchoTrainLength": 100,
 "EffectiveEchoSpacing": 0.000539986,
 "FlipAngle": 90,
 "ImageOrientationPatientDICOM": [
  0.999794,
  -0.00593045,
  -0.0193959,
  1.61691e-08,
  0.956297,
  -0.292396
 ],
 "ImageType": [
  "ORIGINAL",
  "PRIMARY",
  "M",
  "ND",
  "MOSAIC"
 ],
 "InPlanePhaseEncodingDirectionDICOM": "COL",
 "InstitutionAddress": "Street_StreetNo_Bei_Jing_District_CN_ZIP",
 "InstitutionName": "BeiJing_Normal_University",
 "InstitutionalDepartmentName": "Department",
 "MRAcquisitionType": "2D",
 "MagneticFieldStrength": 3,
 "Manufacturer": "Siemens",
 "ManufacturersModelName": "Prisma",
 "Modality": "MR",
 "MultibandAccelerationFactor": 3,
 "PartialFourier": 1,
 "PatientPosition": "HFS",
 "PercentPhaseFOV": 100,
 "PhaseEncodingDirection": "j-",
 "PhaseEncodingSteps": 100,
 "PhaseResolution": 1,
 "PixelBandwidth": 2380,
 "ProcedureStepDescription": "BNU_P2018_64CH_Zhen.ZongLei",
 "ProtocolName": "bold_100x100_s3_2x2x2_static_256",
 "PulseSequenceDetails": "%SiemensSeq%_ep2d_bold",
 "ReceiveCoilActiveElements": "HC1-7;NC1",
 "ReceiveCoilName": "HeadNeck_64",
 "ReconMatrixPE": 100,
 "RepetitionTime": 2,
 "SAR": 0.0851948,
 "ScanOptions": "FS",
 "ScanningSequence": "EP",
 "SequenceName": "_epfid2d1_100",
 "SequenceVariant": "SK",
 "SeriesDescription": "bold_100x100_s3_2x2x2_static_256",
 "SeriesNumber": 10,
 "ShimSetting": [
  -5468,
  -11479,
  -1287,
  439,
  -31,
  -204,
  -175,
  81
 ],
 "SliceThickness": 2,
 "SliceTiming": [
  1.485,
  0,
  0.99,
  0.0825,
  1.0725,
  0.165,
  1.155,
  0.2475,
  1.2375,
  0.33,
  1.32,
  0.4125,
  1.4025,
  0.5775,
  1.5675,
  0.66,
  1.65,
  0.7425,
  1.7325,
  0.825,
  1.815,
  0.9075,
  1.8975,
  0.495,
  1.485,
  0,
  0.99,
  0.0825,
  1.0725,
  0.165,
  1.155,
  0.2475,
  1.2375,
  0.33,
  1.32,
  0.4125,
  1.4025,
  0.5775,
  1.5675,
  0.66,
  1.65,
  0.7425,
  1.7325,
  0.825,
  1.815,
  0.9075,
  1.8975,
  0.495,
  1.485,
  0,
  0.99,
  0.0825,
  1.0725,
  0.165,
  1.155,
  0.2475,
  1.2375,
  0.33,
  1.32,
  0.4125,
  1.4025,
  0.5775,
  1.5675,
  0.66,
  1.65,
  0.7425,
  1.7325,
  0.825,
  1.815,
  0.9075,
  1.8975,
  0.495
 ],
 "SoftwareVersions": "syngo_MR_E11",
 "SpacingBetweenSlices": 2,
 "StationName": "AWP166078",
 "TaskName": "imagenet",
 "TotalReadoutTime": 0.0534586,
 "TxRefAmp": 234.941,
 "dcmmeta_affine": [
  [
   -1.9995886087417603,
   3.233824585890943e-08,
   -0.04056449607014656,
   102.9927978515625
  ],
  [
   0.011860907077789307,
   1.9125949144363403,
   -0.5846707224845886,
   -74.04572296142578
  ],
  [
   -0.0387917160987854,
   0.5847910046577454,
   1.9122015237808228,
   -104.4664535522461
  ],
  [
   0.0,
   0.0,
   0.0,
   1.0
  ]
 ],
 "dcmmeta_reorient_transform": [
  [
   0.0,
   -1.0,
   0.0,
   99.0
  ],
  [
   1.0,
   0.0,
   0.0,
   0.0
  ],
  [
   0.0,
   0.0,
   1.0,
   0.0
  ],
  [
   0.0,
   0.0,
   0.0,
   1.0
  ]
 ],
 "dcmmeta_shape": [
  100,
  100,
  72,
  256
 ],
 "dcmmeta_slice_dim": 2,
 "dcmmeta_version": 0.6,
 "global": {
  "const": {
   "AcquisitionMatrix": [
    100,
    0,
    0,
    100
   ],
   "AngioFlag": "N",
   "BitsAllocated": 16,
   "BitsStored": 12,
   "BodyPartExamined": "BRAIN",
   "Columns": 900,
   "EchoNumbers": 1,
   "EchoTime": 34.0,
   "EchoTrainLength": 100,
   "FlipAngle": 90.0,
   "HighBit": 11,
   "ImageOrientationPatient": [
    0.99979429406131,
    -0.0059304533705,
    -0.0193958574254,
    1.6169123e-08,
    0.95629748037654,
    -0.292395501035
   ],
   "ImagePositionPatient": [
    -902.82824662186,
    -875.5948029889,
    202.86094087607
   ],
   "ImageType": [
    "ORIGINAL",
    "PRIMARY",
    "M",
    "ND",
    "MOSAIC"
   ],
   "ImagedNucleus": "1H",
   "ImagingFrequency": 123.25777,
   "InPlanePhaseEncodingDirection": "COL",
   "MRAcquisitionType": "2D",
   "MagneticFieldStrength": 3.0,
   "Manufacturer": "SIEMENS",
   "ManufacturerModelName": "Prisma",
   "Modality": "MR",
   "NumberOfAverages": 1.0,
   "NumberOfPhaseEncodingSteps": 100,
   "PercentPhaseFieldOfView": 100.0,
   "PercentSampling": 100.0,
   "PerformedProcedureStepStartTime": "125824.699000",
   "PhotometricInterpretation": "MONOCHROME2",
   "PixelBandwidth": 2380.0,
   "PixelRepresentation": 0,
   "PixelSpacing": [
    2.0,
    2.0
   ],
   "ProtocolName": "bold_100x100_s3_2x2x2_static_256",
   "RepetitionTime": 2000.0,
   "Rows": 900,
   "SAR": 0.08519474933953,
   "SamplesPerPixel": 1,
   "ScanOptions": "FS",
   "ScanningSequence": "EP",
   "SequenceName": "*epfid2d1_100",
   "SequenceVariant": "SK",
   "SeriesDescription": "bold_100x100_s3_2x2x2_static_256",
   "SeriesNumber": 10,
   "SeriesTime": "140103.558000",
   "SliceLocation": -80.323201300752,
   "SliceThickness": 2.0,
   "SmallestImagePixelValue": 0,
   "SoftwareVersions": "syngo MR E11",
   "SpacingBetweenSlices": 1.9999999959971,
   "SpecificCharacterSet": "ISO_IR 100",
   "StudyID": "1",
   "StudyTime": "125824.589000",
   "TransmitCoilName": "Body",
   "VariableFlipAngleFlag": "N",
   "WindowCenterWidthExplanation": "Algo1",
   "dBdt": 0.0
  },
  "slices": {}
 },
 "time": {
  "samples": {
   "AcquisitionNumber": [
    1,
    2,
    3,
    4,
    5,
    6,
    7,
    8,
    9,
    10,
    11,
    12,
    13,
    14,
    15,
    16,
    17,
    18,
    19,
    20,
    21,
    22,
    23,
    24,
    25,
    26,
    27,
    28,
    29,
    30,
    31,
    32,
    33,
    34,
    35,
    36,
    37,
    38,
    39,
    40,
    41,
    42,
    43,
    44,
    45,
    46,
    47,
    48,
    49,
    50,
    51,
    52,
    53,
    54,
    55,
    56,
    57,
    58,
    59,
    60,
    61,
    62,
    63,
    64,
    65,
    66,
    67,
    68,
    69,
    70,
    71,
    72,
    73,
    74,
    75,
    76,
    77,
    78,
    79,
    80,
    81,
    82,
    83,
    84,
    85,
    86,
    87,
    88,
    89,
    90,
    91,
    92,
    93,
    94,
    95,
    96,
    97,
    98,
    99,
    100,
    101,
    102,
    103,
    104,
    105,
    106,
    107,
    108,
    109,
    110,
    111,
    112,
    113,
    114,
    115,
    116,
    117,
    118,
    119,
    120,
    121,
    122,
    123,
    124,
    125,
    126,
    127,
    128,
    129,
    130,
    131,
    132,
    133,
    134,
    135,
    136,
    137,
    138,
    139,
    140,
    141,
    142,
    143,
    144,
    145,
    146,
    147,
    148,
    149,
    150,
    151,
    152,
    153,
    154,
    155,
    156,
    157,
    158,
    159,
    160,
    161,
    162,
    163,
    164,
    165,
    166,
    167,
    168,
    169,
    170,
    171,
    172,
    173,
    174,
    175,
    176,
    177,
    178,
    179,
    180,
    181,
    182,
    183,
    184,
    185,
    186,
    187,
    188,
    189,
    190,
    191,
    192,
    193,
    194,
    195,
    196,
    197,
    198,
    199,
    200,
    201,
    202,
    203,
    204,
    205,
    206,
    207,
    208,
    209,
    210,
    211,
    212,
    213,
    214,
    215,
    216,
    217,
    218,
    219,
    220,
    221,
    222,
    223,
    224,
    225,
    226,
    227,
    228,
    229,
    230,
    231,
    232,
    233,
    234,
    235,
    236,
    237,
    238,
    239,
    240,
    241,
    242,
    243,
    244,
    245,
    246,
    247,
    248,
    249,
    250,
    251,
    252,
    253,
    254,
    255,
    256
   ],
   "AcquisitionTime": [
    "140100.530000",
    "140102.530000",
    "140104.530000",
    "140106.530000",
    "140108.530000",
    "140110.530000",
    "140112.530000",
    "140114.530000",
    "140116.530000",
    "140118.530000",
    "140120.530000",
    "140122.530000",
    "140124.530000",
    "140126.530000",
    "140128.530000",
    "140130.530000",
    "140132.530000",
    "140134.530000",
    "140136.530000",
    "140138.530000",
    "140140.530000",
    "140142.530000",
    "140144.530000",
    "140146.530000",
    "140148.530000",
    "140150.530000",
    "140152.530000",
    "140154.530000",
    "140156.530000",
    "140158.530000",
    "140200.530000",
    "140202.530000",
    "140204.530000",
    "140206.530000",
    "140208.530000",
    "140210.530000",
    "140212.530000",
    "140214.530000",
    "140216.530000",
    "140218.530000",
    "140220.530000",
    "140222.530000",
    "140224.530000",
    "140226.530000",
    "140228.530000",
    "140230.530000",
    "140232.530000",
    "140234.530000",
    "140236.530000",
    "140238.530000",
    "140240.530000",
    "140242.530000",
    "140244.530000",
    "140246.530000",
    "140248.530000",
    "140250.530000",
    "140252.530000",
    "140254.530000",
    "140256.530000",
    "140258.530000",
    "140300.530000",
    "140302.530000",
    "140304.530000",
    "140306.530000",
    "140308.530000",
    "140310.530000",
    "140312.530000",
    "140314.530000",
    "140316.530000",
    "140318.530000",
    "140320.530000",
    "140322.530000",
    "140324.530000",
    "140326.530000",
    "140328.530000",
    "140330.530000",
    "140332.530000",
    "140334.530000",
    "140336.530000",
    "140338.530000",
    "140340.530000",
    "140342.530000",
    "140344.530000",
    "140346.530000",
    "140348.530000",
    "140350.530000",
    "140352.530000",
    "140354.530000",
    "140356.530000",
    "140358.530000",
    "140400.530000",
    "140402.530000",
    "140404.530000",
    "140406.530000",
    "140408.530000",
    "140410.530000",
    "140412.530000",
    "140414.530000",
    "140416.530000",
    "140418.530000",
    "140420.530000",
    "140422.530000",
    "140424.530000",
    "140426.530000",
    "140428.530000",
    "140430.530000",
    "140432.530000",
    "140434.530000",
    "140436.530000",
    "140438.530000",
    "140440.530000",
    "140442.530000",
    "140444.530000",
    "140446.530000",
    "140448.530000",
    "140450.530000",
    "140452.530000",
    "140454.530000",
    "140456.530000",
    "140458.530000",
    "140500.530000",
    "140502.530000",
    "140504.530000",
    "140506.530000",
    "140508.530000",
    "140510.530000",
    "140512.530000",
    "140514.530000",
    "140516.530000",
    "140518.530000",
    "140520.530000",
    "140522.530000",
    "140524.530000",
    "140526.530000",
    "140528.530000",
    "140530.530000",
    "140532.530000",
    "140534.530000",
    "140536.530000",
    "140538.530000",
    "140540.530000",
    "140542.530000",
    "140544.530000",
    "140546.530000",
    "140548.530000",
    "140550.530000",
    "140552.530000",
    "140554.530000",
    "140556.530000",
    "140558.530000",
    "140600.530000",
    "140602.530000",
    "140604.530000",
    "140606.530000",
    "140608.530000",
    "140610.530000",
    "140612.530000",
    "140614.530000",
    "140616.530000",
    "140618.530000",
    "140620.530000",
    "140622.530000",
    "140624.530000",
    "140626.530000",
    "140628.530000",
    "140630.530000",
    "140632.530000",
    "140634.530000",
    "140636.530000",
    "140638.530000",
    "140640.530000",
    "140642.530000",
    "140644.530000",
    "140646.530000",
    "140648.530000",
    "140650.530000",
    "140652.530000",
    "140654.530000",
    "140656.530000",
    "140658.530000",
    "140700.530000",
    "140702.530000",
    "140704.530000",
    "140706.530000",
    "140708.530000",
    "140710.530000",
    "140712.530000",
    "140714.530000",
    "140716.530000",
    "140718.530000",
    "140720.530000",
    "140722.530000",
    "140724.530000",
    "140726.530000",
    "140728.530000",
    "140730.530000",
    "140732.530000",
    "140734.530000",
    "140736.530000",
    "140738.530000",
    "140740.530000",
    "140742.530000",
    "140744.530000",
    "140746.530000",
    "140748.530000",
    "140750.530000",
    "140752.530000",
    "140754.530000",
    "140756.530000",
    "140758.530000",
    "140800.530000",
    "140802.530000",
    "140804.530000",
    "140806.530000",
    "140808.530000",
    "140810.530000",
    "140812.530000",
    "140814.530000",
    "140816.530000",
    "140818.530000",
    "140820.530000",
    "140822.530000",
    "140824.530000",
    "140826.530000",
    "140828.530000",
    "140830.530000",
    "140832.530000",
    "140834.530000",
    "140836.530000",
    "140838.530000",
    "140840.530000",
    "140842.530000",
    "140844.530000",
    "140846.530000",
    "140848.530000",
    "140850.530000",
    "140852.530000",
    "140854.530000",
    "140856.530000",
    "140858.530000",
    "140900.530000",
    "140902.530000",
    "140904.530000",
    "140906.530000",
    "140908.530000",
    "140910.530000",
    "140912.530000",
    "140914.530000",
    "140916.530000",
    "140918.530000",
    "140920.530000",
    "140922.530000",
    "140924.530000",
    "140926.530000",
    "140928.530000",
    "140930.530000"
   ],
   "ContentTime": [
    "140103.561000",
    "140105.056000",
    "140107.056000",
    "140109.058000",
    "140111.057000",
    "140113.057000",
    "140115.056000",
    "140117.057000",
    "140119.056000",
    "140121.056000",
    "140122.556000",
    "140125.056000",
    "140126.558000",
    "140129.057000",
    "140131.057000",
    "140133.057000",
    "140134.557000",
    "140137.056000",
    "140139.056000",
    "140141.057000",
    "140143.056000",
    "140145.057000",
    "140147.058000",
    "140149.058000",
    "140151.057000",
    "140153.056000",
    "140155.056000",
    "140156.556000",
    "140159.057000",
    "140200.556000",
    "140202.557000",
    "140205.058000",
    "140207.056000",
    "140208.556000",
    "140211.056000",
    "140213.056000",
    "140214.557000",
    "140217.057000",
    "140219.057000",
    "140220.558000",
    "140222.557000",
    "140225.056000",
    "140227.056000",
    "140229.056000",
    "140230.556000",
    "140233.057000",
    "140234.557000",
    "140237.057000",
    "140239.057000",
    "140240.558000",
    "140242.556000",
    "140244.557000",
    "140247.056000",
    "140249.056000",
    "140251.056000",
    "140253.057000",
    "140254.557000",
    "140257.057000",
    "140259.058000",
    "140301.056000",
    "140302.557000",
    "140305.056000",
    "140307.057000",
    "140309.056000",
    "140311.057000",
    "140312.558000",
    "140315.058000",
    "140317.057000",
    "140318.556000",
    "140320.556000",
    "140322.557000",
    "140325.056000",
    "140327.057000",
    "140328.557000",
    "140330.558000",
    "140332.557000",
    "140334.556000",
    "140336.556000",
    "140339.056000",
    "140341.056000",
    "140343.057000",
    "140345.057000",
    "140346.557000",
    "140349.058000",
    "140350.557000",
    "140353.056000",
    "140355.056000",
    "140357.056000",
    "140359.057000",
    "140400.557000",
    "140403.057000",
    "140405.058000",
    "140407.058000",
    "140408.558000",
    "140411.056000",
    "140413.056000",
    "140415.056000",
    "140417.057000",
    "140419.056000",
    "140420.558000",
    "140423.058000",
    "140425.057000",
    "140426.557000",
    "140429.056000",
    "140431.056000",
    "140433.057000",
    "140435.056000",
    "140437.056000",
    "140439.058000",
    "140441.057000",
    "140443.058000",
    "140444.557000",
    "140447.056000",
    "140448.557000",
    "140451.056000",
    "140453.057000",
    "140455.056000",
    "140456.557000",
    "140459.057000",
    "140501.058000",
    "140502.556000",
    "140504.556000",
    "140506.557000",
    "140508.556000",
    "140511.057000",
    "140513.058000",
    "140515.058000",
    "140517.058000",
    "140519.058000",
    "140521.056000",
    "140523.056000",
    "140525.057000",
    "140527.057000",
    "140529.057000",
    "140531.057000",
    "140533.058000",
    "140534.558000",
    "140537.057000",
    "140539.056000",
    "140541.057000",
    "140542.556000",
    "140545.056000",
    "140546.556000",
    "140549.058000",
    "140551.057000",
    "140553.058000",
    "140555.057000",
    "140556.556000",
    "140559.056000",
    "140600.557000",
    "140602.557000",
    "140605.056000",
    "140607.057000",
    "140609.057000",
    "140610.557000",
    "140612.557000",
    "140615.056000",
    "140617.056000",
    "140619.057000",
    "140621.057000",
    "140623.057000",
    "140625.057000",
    "140627.058000",
    "140629.057000",
    "140631.057000",
    "140632.557000",
    "140635.056000",
    "140637.056000",
    "140639.056000",
    "140640.557000",
    "140642.557000",
    "140645.058000",
    "140647.057000",
    "140649.056000",
    "140651.056000",
    "140653.056000",
    "140654.556000",
    "140657.057000",
    "140659.057000",
    "140700.558000",
    "140703.057000",
    "140705.057000",
    "140707.056000",
    "140709.056000",
    "140711.056000",
    "140713.057000",
    "140715.056000",
    "140717.058000",
    "140719.057000",
    "140721.058000",
    "140723.056000",
    "140725.056000",
    "140727.056000",
    "140728.557000",
    "140731.056000",
    "140733.057000",
    "140735.058000",
    "140737.057000",
    "140739.058000",
    "140741.057000",
    "140743.056000",
    "140745.057000",
    "140746.556000",
    "140748.557000",
    "140750.557000",
    "140753.058000",
    "140755.057000",
    "140757.057000",
    "140758.557000",
    "140800.556000",
    "140802.556000",
    "140805.057000",
    "140807.057000",
    "140809.057000",
    "140811.058000",
    "140813.058000",
    "140815.056000",
    "140817.056000",
    "140819.057000",
    "140821.057000",
    "140822.557000",
    "140825.057000",
    "140827.058000",
    "140829.057000",
    "140830.558000",
    "140832.556000",
    "140835.057000",
    "140837.057000",
    "140839.056000",
    "140841.056000",
    "140843.057000",
    "140844.557000",
    "140847.057000",
    "140849.057000",
    "140851.056000",
    "140853.056000",
    "140855.057000",
    "140857.057000",
    "140859.057000",
    "140901.057000",
    "140903.057000",
    "140904.558000",
    "140907.057000",
    "140908.556000",
    "140911.057000",
    "140913.057000",
    "140915.057000",
    "140917.057000",
    "140919.057000",
    "140921.057000",
    "140923.057000",
    "140925.056000",
    "140926.557000",
    "140929.057000",
    "140931.056000",
    "140932.589000"
   ],
   "InstanceCreationTime": [
    "140103.561000",
    "140105.056000",
    "140107.056000",
    "140109.058000",
    "140111.057000",
    "140113.057000",
    "140115.056000",
    "140117.057000",
    "140119.056000",
    "140121.056000",
    "140122.556000",
    "140125.056000",
    "140126.558000",
    "140129.057000",
    "140131.057000",
    "140133.057000",
    "140134.557000",
    "140137.056000",
    "140139.056000",
    "140141.057000",
    "140143.056000",
    "140145.057000",
    "140147.058000",
    "140149.058000",
    "140151.057000",
    "140153.056000",
    "140155.056000",
    "140156.556000",
    "140159.057000",
    "140200.556000",
    "140202.557000",
    "140205.058000",
    "140207.056000",
    "140208.556000",
    "140211.056000",
    "140213.056000",
    "140214.557000",
    "140217.057000",
    "140219.057000",
    "140220.558000",
    "140222.557000",
    "140225.056000",
    "140227.056000",
    "140229.056000",
    "140230.556000",
    "140233.057000",
    "140234.557000",
    "140237.057000",
    "140239.057000",
    "140240.558000",
    "140242.556000",
    "140244.557000",
    "140247.056000",
    "140249.056000",
    "140251.056000",
    "140253.057000",
    "140254.557000",
    "140257.057000",
    "140259.058000",
    "140301.056000",
    "140302.557000",
    "140305.056000",
    "140307.057000",
    "140309.056000",
    "140311.057000",
    "140312.558000",
    "140315.058000",
    "140317.057000",
    "140318.556000",
    "140320.556000",
    "140322.557000",
    "140325.056000",
    "140327.057000",
    "140328.557000",
    "140330.558000",
    "140332.557000",
    "140334.556000",
    "140336.556000",
    "140339.056000",
    "140341.056000",
    "140343.057000",
    "140345.057000",
    "140346.557000",
    "140349.058000",
    "140350.557000",
    "140353.056000",
    "140355.056000",
    "140357.056000",
    "140359.057000",
    "140400.557000",
    "140403.057000",
    "140405.058000",
    "140407.058000",
    "140408.558000",
    "140411.056000",
    "140413.056000",
    "140415.056000",
    "140417.057000",
    "140419.056000",
    "140420.558000",
    "140423.058000",
    "140425.057000",
    "140426.557000",
    "140429.056000",
    "140431.056000",
    "140433.057000",
    "140435.056000",
    "140437.056000",
    "140439.058000",
    "140441.057000",
    "140443.058000",
    "140444.557000",
    "140447.056000",
    "140448.557000",
    "140451.056000",
    "140453.057000",
    "140455.056000",
    "140456.557000",
    "140459.057000",
    "140501.058000",
    "140502.556000",
    "140504.556000",
    "140506.557000",
    "140508.556000",
    "140511.057000",
    "140513.058000",
    "140515.058000",
    "140517.058000",
    "140519.058000",
    "140521.056000",
    "140523.056000",
    "140525.057000",
    "140527.057000",
    "140529.057000",
    "140531.057000",
    "140533.058000",
    "140534.558000",
    "140537.057000",
    "140539.056000",
    "140541.057000",
    "140542.556000",
    "140545.056000",
    "140546.556000",
    "140549.058000",
    "140551.057000",
    "140553.058000",
    "140555.057000",
    "140556.556000",
    "140559.056000",
    "140600.557000",
    "140602.557000",
    "140605.056000",
    "140607.057000",
    "140609.057000",
    "140610.557000",
    "140612.557000",
    "140615.056000",
    "140617.056000",
    "140619.057000",
    "140621.057000",
    "140623.057000",
    "140625.057000",
    "140627.058000",
    "140629.057000",
    "140631.057000",
    "140632.557000",
    "140635.056000",
    "140637.056000",
    "140639.056000",
    "140640.557000",
    "140642.557000",
    "140645.058000",
    "140647.057000",
    "140649.056000",
    "140651.056000",
    "140653.056000",
    "140654.556000",
    "140657.057000",
    "140659.057000",
    "140700.558000",
    "140703.057000",
    "140705.057000",
    "140707.056000",
    "140709.056000",
    "140711.056000",
    "140713.057000",
    "140715.056000",
    "140717.058000",
    "140719.057000",
    "140721.058000",
    "140723.056000",
    "140725.056000",
    "140727.056000",
    "140728.557000",
    "140731.056000",
    "140733.057000",
    "140735.058000",
    "140737.057000",
    "140739.058000",
    "140741.057000",
    "140743.056000",
    "140745.057000",
    "140746.556000",
    "140748.557000",
    "140750.557000",
    "140753.058000",
    "140755.057000",
    "140757.057000",
    "140758.557000",
    "140800.556000",
    "140802.556000",
    "140805.057000",
    "140807.057000",
    "140809.057000",
    "140811.058000",
    "140813.058000",
    "140815.056000",
    "140817.056000",
    "140819.057000",
    "140821.057000",
    "140822.557000",
    "140825.057000",
    "140827.058000",
    "140829.057000",
    "140830.558000",
    "140832.556000",
    "140835.057000",
    "140837.057000",
    "140839.056000",
    "140841.056000",
    "140843.057000",
    "140844.557000",
    "140847.057000",
    "140849.057000",
    "140851.056000",
    "140853.056000",
    "140855.057000",
    "140857.057000",
    "140859.057000",
    "140901.057000",
    "140903.057000",
    "140904.558000",
    "140907.057000",
    "140908.556000",
    "140911.057000",
    "140913.057000",
    "140915.057000",
    "140917.057000",
    "140919.057000",
    "140921.057000",
    "140923.057000",
    "140925.056000",
    "140926.557000",
    "140929.057000",
    "140931.056000",
    "140932.589000"
   ],
   "InstanceNumber": [
    1,
    2,
    3,
    4,
    5,
    6,
    7,
    8,
    9,
    10,
    11,
    12,
    13,
    14,
    15,
    16,
    17,
    18,
    19,
    20,
    21,
    22,
    23,
    24,
    25,
    26,
    27,
    28,
    29,
    30,
    31,
    32,
    33,
    34,
    35,
    36,
    37,
    38,
    39,
    40,
    41,
    42,
    43,
    44,
    45,
    46,
    47,
    48,
    49,
    50,
    51,
    52,
    53,
    54,
    55,
    56,
    57,
    58,
    59,
    60,
    61,
    62,
    63,
    64,
    65,
    66,
    67,
    68,
    69,
    70,
    71,
    72,
    73,
    74,
    75,
    76,
    77,
    78,
    79,
    80,
    81,
    82,
    83,
    84,
    85,
    86,
    87,
    88,
    89,
    90,
    91,
    92,
    93,
    94,
    95,
    96,
    97,
    98,
    99,
    100,
    101,
    102,
    103,
    104,
    105,
    106,
    107,
    108,
    109,
    110,
    111,
    112,
    113,
    114,
    115,
    116,
    117,
    118,
    119,
    120,
    121,
    122,
    123,
    124,
    125,
    126,
    127,
    128,
    129,
    130,
    131,
    132,
    133,
    134,
    135,
    136,
    137,
    138,
    139,
    140,
    141,
    142,
    143,
    144,
    145,
    146,
    147,
    148,
    149,
    150,
    151,
    152,
    153,
    154,
    155,
    156,
    157,
    158,
    159,
    160,
    161,
    162,
    163,
    164,
    165,
    166,
    167,
    168,
    169,
    170,
    171,
    172,
    173,
    174,
    175,
    176,
    177,
    178,
    179,
    180,
    181,
    182,
    183,
    184,
    185,
    186,
    187,
    188,
    189,
    190,
    191,
    192,
    193,
    194,
    195,
    196,
    197,
    198,
    199,
    200,
    201,
    202,
    203,
    204,
    205,
    206,
    207,
    208,
    209,
    210,
    211,
    212,
    213,
    214,
    215,
    216,
    217,
    218,
    219,
    220,
    221,
    222,
    223,
    224,
    225,
    226,
    227,
    228,
    229,
    230,
    231,
    232,
    233,
    234,
    235,
    236,
    237,
    238,
    239,
    240,
    241,
    242,
    243,
    244,
    245,
    246,
    247,
    248,
    249,
    250,
    251,
    252,
    253,
    254,
    255,
    256
   ],
   "LargestImagePixelValue": [
    2980,
    2983,
    2957,
    2948,
    2956,
    2966,
    2999,
    2998,
    2985,
    2945,
    2951,
    2955,
    2980,
    2984,
    2953,
    2941,
    2964,
    2938,
    2956,
    2979,
    2943,
    2952,
    2935,
    2948,
    2933,
    2983,
    2967,
    2933,
    2933,
    2940,
    2933,
    2955,
    2952,
    2950,
    2938,
    2946,
    2978,
    2954,
    2952,
    2943,
    2945,
    2950,
    2969,
    2980,
    2944,
    2932,
    2953,
    2951,
    2932,
    2963,
    2936,
    2937,
    2946,
    2971,
    2947,
    2946,
    2968,
    2951,
    2947,
    2977,
    2952,
    2968,
    2953,
    2935,
    2958,
    2960,
    2984,
    2974,
    2969,
    2969,
    2956,
    2977,
    2963,
    2939,
    2970,
    2961,
    2957,
    2973,
    3000,
    2970,
    2954,
    2988,
    2986,
    2967,
    2962,
    2973,
    2960,
    2991,
    2961,
    2974,
    2971,
    2977,
    2962,
    2970,
    2976,
    2960,
    2946,
    2966,
    2970,
    2972,
    2955,
    2947,
    2950,
    2975,
    2961,
    2973,
    2982,
    2972,
    2956,
    2955,
    2966,
    2962,
    2959,
    2950,
    2999,
    2979,
    2985,
    2962,
    2967,
    2975,
    2992,
    2960,
    2949,
    2989,
    2988,
    2971,
    2958,
    2980,
    2985,
    3002,
    2966,
    2995,
    3000,
    2971,
    2979,
    2991,
    2987,
    2967,
    2979,
    2979,
    2973,
    2984,
    2957,
    2980,
    2994,
    2996,
    2953,
    2964,
    2957,
    2953,
    2967,
    2975,
    2975,
    2971,
    2988,
    2984,
    2982,
    2972,
    2991,
    2999,
    2998,
    2980,
    2978,
    2974,
    2989,
    2982,
    2960,
    2977,
    2971,
    2975,
    2967,
    2991,
    2963,
    2994,
    2987,
    3005,
    2974,
    2989,
    2961,
    2984,
    2958,
    2985,
    2989,
    2981,
    2964,
    2992,
    2991,
    2957,
    2959,
    2970,
    2972,
    2947,
    2969,
    2950,
    2987,
    2983,
    3000,
    2985,
    2990,
    2974,
    2944,
    2968,
    2960,
    2975,
    2945,
    2984,
    2975,
    2944,
    2990,
    2985,
    2980,
    2981,
    2959,
    2986,
    2972,
    2979,
    2967,
    2973,
    2962,
    2992,
    2966,
    2977,
    2986,
    2963,
    2943,
    2949,
    2982,
    3001,
    2990,
    2979,
    2967,
    3001,
    2957,
    2985,
    2989,
    2966,
    2976,
    2987,
    3005,
    2988,
    2964,
    2990,
    2951,
    2976,
    2973,
    2982,
    2981,
    2989,
    3001,
    2949,
    2990,
    2973,
    2957,
    2986,
    2982,
    3006
   ],
   "WindowCenter": [
    780.0,
    779.0,
    778.0,
    777.0,
    777.0,
    778.0,
    779.0,
    779.0,
    778.0,
    778.0,
    779.0,
    779.0,
    780.0,
    780.0,
    780.0,
    779.0,
    779.0,
    778.0,
    778.0,
    777.0,
    777.0,
    778.0,
    778.0,
    777.0,
    777.0,
    779.0,
    779.0,
    777.0,
    777.0,
    778.0,
    778.0,
    777.0,
    776.0,
    776.0,
    777.0,
    777.0,
    777.0,
    777.0,
    776.0,
    776.0,
    775.0,
    775.0,
    775.0,
    776.0,
    776.0,
    776.0,
    776.0,
    776.0,
    777.0,
    777.0,
    776.0,
    774.0,
    776.0,
    778.0,
    778.0,
    777.0,
    777.0,
    777.0,
    778.0,
    778.0,
    778.0,
    778.0,
    777.0,
    778.0,
    779.0,
    779.0,
    778.0,
    777.0,
    777.0,
    777.0,
    776.0,
    777.0,
    777.0,
    777.0,
    777.0,
    776.0,
    776.0,
    776.0,
    776.0,
    776.0,
    777.0,
    778.0,
    778.0,
    777.0,
    777.0,
    777.0,
    777.0,
    778.0,
    778.0,
    777.0,
    776.0,
    776.0,
    777.0,
    778.0,
    778.0,
    776.0,
    775.0,
    775.0,
    777.0,
    777.0,
    776.0,
    775.0,
    775.0,
    775.0,
    776.0,
    776.0,
    776.0,
    775.0,
    776.0,
    776.0,
