{
 "AcquisitionMatrixPE": 100,
 "AcquisitionNumber": 1,
 "AcquisitionTime": "14:40:2.810000",
 "BandwidthPerPixelPhaseEncode": 18.519,
 "BaseResolution": 100,
 "BodyPartExamined": "BRAIN",
 "ConsistencyInfo": "N4_VE11C_LATEST_20160120",
 "ConversionSoftware": "dcm2niix",
 "ConversionSoftwareVersion": "v1.0.20180622 GCC4.9.2",
 "DerivedVendorReportedEchoSpacing": 0.000539986,
 "DeviceSerialNumber": "166078",
 "DwellTime": 2.1e-06,
 "EchoTime": 0.034,
 "EchoTrainLength": 100,
 "EffectiveEchoSpacing": 0.000539986,
 "FlipAngle": 90,
 "ImageOrientationPatientDICOM": [
  0.999794,
  -0.00593045,
  -0.0193959,
  1.61691e-08,
  0.956297,
  -0.292396
 ],
 "ImageType": [
  "ORIGINAL",
  "PRIMARY",
  "M",
  "ND",
  "MOSAIC"
 ],
 "InPlanePhaseEncodingDirectionDICOM": "COL",
 "InstitutionAddress": "Street_StreetNo_Bei_Jing_District_CN_ZIP",
 "InstitutionName": "BeiJing_Normal_University",
 "InstitutionalDepartmentName": "Department",
 "MRAcquisitionType": "2D",
 "MagneticFieldStrength": 3,
 "Manufacturer": "Siemens",
 "ManufacturersModelName": "Prisma",
 "Modality": "MR",
 "MultibandAccelerationFactor": 3,
 "PartialFourier": 1,
 "PatientPosition": "HFS",
 "PercentPhaseFOV": 100,
 "PhaseEncodingDirection": "j-",
 "PhaseEncodingSteps": 100,
 "PhaseResolution": 1,
 "PixelBandwidth": 2380,
 "ProcedureStepDescription": "BNU_P2018_64CH_Zhen.ZongLei",
 "ProtocolName": "bold_100x100_s3_2x2x2_static_256",
 "PulseSequenceDetails": "%SiemensSeq%_ep2d_bold",
 "ReceiveCoilActiveElements": "HC1-7;NC1",
 "ReceiveCoilName": "HeadNeck_64",
 "ReconMatrixPE": 100,
 "RepetitionTime": 2,
 "SAR": 0.0851948,
 "ScanOptions": "FS",
 "ScanningSequence": "EP",
 "SequenceName": "_epfid2d1_100",
 "SequenceVariant": "SK",
 "SeriesDescription": "bold_100x100_s3_2x2x2_static_256",
 "SeriesNumber": 14,
 "ShimSetting": [
  -5468,
  -11479,
  -1287,
  439,
  -31,
  -204,
  -175,
  81
 ],
 "SliceThickness": 2,
 "SliceTiming": [
  1.485,
  0,
  0.99,
  0.0825,
  1.0725,
  0.165,
  1.155,
  0.2475,
  1.2375,
  0.33,
  1.32,
  0.4125,
  1.4025,
  0.5775,
  1.5675,
  0.66,
  1.65,
  0.7425,
  1.7325,
  0.825,
  1.815,
  0.9075,
  1.8975,
  0.495,
  1.485,
  0,
  0.99,
  0.0825,
  1.0725,
  0.165,
  1.155,
  0.2475,
  1.2375,
  0.33,
  1.32,
  0.4125,
  1.4025,
  0.5775,
  1.5675,
  0.66,
  1.65,
  0.7425,
  1.7325,
  0.825,
  1.815,
  0.9075,
  1.8975,
  0.495,
  1.485,
  0,
  0.99,
  0.0825,
  1.0725,
  0.165,
  1.155,
  0.2475,
  1.2375,
  0.33,
  1.32,
  0.4125,
  1.4025,
  0.5775,
  1.5675,
  0.66,
  1.65,
  0.7425,
  1.7325,
  0.825,
  1.815,
  0.9075,
  1.8975,
  0.495
 ],
 "SoftwareVersions": "syngo_MR_E11",
 "SpacingBetweenSlices": 2,
 "StationName": "AWP166078",
 "TaskName": "imagenet",
 "TotalReadoutTime": 0.0534586,
 "TxRefAmp": 234.941,
 "dcmmeta_affine": [
  [
   -1.9995886087417603,
   3.233824585890943e-08,
   -0.04056449607014656,
   102.9927978515625
  ],
  [
   0.011860907077789307,
   1.9125949144363403,
   -0.5846707224845886,
   -74.04572296142578
  ],
  [
   -0.0387917160987854,
   0.5847910046577454,
   1.9122015237808228,
   -104.4664535522461
  ],
  [
   0.0,
   0.0,
   0.0,
   1.0
  ]
 ],
 "dcmmeta_reorient_transform": [
  [
   0.0,
   -1.0,
   0.0,
   99.0
  ],
  [
   1.0,
   0.0,
   0.0,
   0.0
  ],
  [
   0.0,
   0.0,
   1.0,
   0.0
  ],
  [
   0.0,
   0.0,
   0.0,
   1.0
  ]
 ],
 "dcmmeta_shape": [
  100,
  100,
  72,
  256
 ],
 "dcmmeta_slice_dim": 2,
 "dcmmeta_version": 0.6,
 "global": {
  "const": {
   "AcquisitionMatrix": [
    100,
    0,
    0,
    100
   ],
   "AngioFlag": "N",
   "BitsAllocated": 16,
   "BitsStored": 12,
   "BodyPartExamined": "BRAIN",
   "Columns": 900,
   "EchoNumbers": 1,
   "EchoTime": 34.0,
   "EchoTrainLength": 100,
   "FlipAngle": 90.0,
   "HighBit": 11,
   "ImageOrientationPatient": [
    0.99979429406131,
    -0.0059304533705,
    -0.0193958574254,
    1.6169123e-08,
    0.95629748037654,
    -0.292395501035
   ],
   "ImagePositionPatient": [
    -902.82824662186,
    -875.5948029889,
    202.86094087607
   ],
   "ImageType": [
    "ORIGINAL",
    "PRIMARY",
    "M",
    "ND",
    "MOSAIC"
   ],
   "ImagedNucleus": "1H",
   "ImagingFrequency": 123.257781,
   "InPlanePhaseEncodingDirection": "COL",
   "MRAcquisitionType": "2D",
   "MagneticFieldStrength": 3.0,
   "Manufacturer": "SIEMENS",
   "ManufacturerModelName": "Prisma",
   "Modality": "MR",
   "NumberOfAverages": 1.0,
   "NumberOfPhaseEncodingSteps": 100,
   "PercentPhaseFieldOfView": 100.0,
   "PercentSampling": 100.0,
   "PerformedProcedureStepStartTime": "125824.699000",
   "PhotometricInterpretation": "MONOCHROME2",
   "PixelBandwidth": 2380.0,
   "PixelRepresentation": 0,
   "PixelSpacing": [
    2.0,
    2.0
   ],
   "ProtocolName": "bold_100x100_s3_2x2x2_static_256",
   "RepetitionTime": 2000.0,
   "Rows": 900,
   "SAR": 0.08519474933953,
   "SamplesPerPixel": 1,
   "ScanOptions": "FS",
   "ScanningSequence": "EP",
   "SequenceName": "*epfid2d1_100",
   "SequenceVariant": "SK",
   "SeriesDescription": "bold_100x100_s3_2x2x2_static_256",
   "SeriesNumber": 14,
   "SeriesTime": "144005.370000",
   "SliceLocation": -80.323201300752,
   "SliceThickness": 2.0,
   "SmallestImagePixelValue": 0,
   "SoftwareVersions": "syngo MR E11",
   "SpacingBetweenSlices": 1.9999999959971,
   "SpecificCharacterSet": "ISO_IR 100",
   "StudyID": "1",
   "StudyTime": "125824.589000",
   "TransmitCoilName": "Body",
   "VariableFlipAngleFlag": "N",
   "WindowCenterWidthExplanation": "Algo1",
   "dBdt": 0.0
  },
  "slices": {}
 },
 "time": {
  "samples": {
   "AcquisitionNumber": [
    1,
    2,
    3,
    4,
    5,
    6,
    7,
    8,
    9,
    10,
    11,
    12,
    13,
    14,
    15,
    16,
    17,
    18,
    19,
    20,
    21,
    22,
    23,
    24,
    25,
    26,
    27,
    28,
    29,
    30,
    31,
    32,
    33,
    34,
    35,
    36,
    37,
    38,
    39,
    40,
    41,
    42,
    43,
    44,
    45,
    46,
    47,
    48,
    49,
    50,
    51,
    52,
    53,
    54,
    55,
    56,
    57,
    58,
    59,
    60,
    61,
    62,
    63,
    64,
    65,
    66,
    67,
    68,
    69,
    70,
    71,
    72,
    73,
    74,
    75,
    76,
    77,
    78,
    79,
    80,
    81,
    82,
    83,
    84,
    85,
    86,
    87,
    88,
    89,
    90,
    91,
    92,
    93,
    94,
    95,
    96,
    97,
    98,
    99,
    100,
    101,
    102,
    103,
    104,
    105,
    106,
    107,
    108,
    109,
    110,
    111,
    112,
    113,
    114,
    115,
    116,
    117,
    118,
    119,
    120,
    121,
    122,
    123,
    124,
    125,
    126,
    127,
    128,
    129,
    130,
    131,
    132,
    133,
    134,
    135,
    136,
    137,
    138,
    139,
    140,
    141,
    142,
    143,
    144,
    145,
    146,
    147,
    148,
    149,
    150,
    151,
    152,
    153,
    154,
    155,
    156,
    157,
    158,
    159,
    160,
    161,
    162,
    163,
    164,
    165,
    166,
    167,
    168,
    169,
    170,
    171,
    172,
    173,
    174,
    175,
    176,
    177,
    178,
    179,
    180,
    181,
    182,
    183,
    184,
    185,
    186,
    187,
    188,
    189,
    190,
    191,
    192,
    193,
    194,
    195,
    196,
    197,
    198,
    199,
    200,
    201,
    202,
    203,
    204,
    205,
    206,
    207,
    208,
    209,
    210,
    211,
    212,
    213,
    214,
    215,
    216,
    217,
    218,
    219,
    220,
    221,
    222,
    223,
    224,
    225,
    226,
    227,
    228,
    229,
    230,
    231,
    232,
    233,
    234,
    235,
    236,
    237,
    238,
    239,
    240,
    241,
    242,
    243,
    244,
    245,
    246,
    247,
    248,
    249,
    250,
    251,
    252,
    253,
    254,
    255,
    256
   ],
   "AcquisitionTime": [
    "144002.810000",
    "144004.810000",
    "144006.810000",
    "144008.810000",
    "144010.810000",
    "144012.810000",
    "144014.810000",
    "144016.810000",
    "144018.810000",
    "144020.810000",
    "144022.810000",
    "144024.810000",
    "144026.810000",
    "144028.810000",
    "144030.810000",
    "144032.810000",
    "144034.810000",
    "144036.810000",
    "144038.810000",
    "144040.810000",
    "144042.810000",
    "144044.810000",
    "144046.810000",
    "144048.810000",
    "144050.810000",
    "144052.810000",
    "144054.810000",
    "144056.810000",
    "144058.810000",
    "144100.810000",
    "144102.810000",
    "144104.810000",
    "144106.810000",
    "144108.810000",
    "144110.810000",
    "144112.810000",
    "144114.810000",
    "144116.810000",
    "144118.810000",
    "144120.810000",
    "144122.810000",
    "144124.810000",
    "144126.810000",
    "144128.810000",
    "144130.810000",
    "144132.810000",
    "144134.810000",
    "144136.810000",
    "144138.810000",
    "144140.810000",
    "144142.810000",
    "144144.810000",
    "144146.810000",
    "144148.810000",
    "144150.810000",
    "144152.810000",
    "144154.810000",
    "144156.810000",
    "144158.810000",
    "144200.810000",
    "144202.810000",
    "144204.810000",
    "144206.810000",
    "144208.810000",
    "144210.810000",
    "144212.810000",
    "144214.810000",
    "144216.810000",
    "144218.810000",
    "144220.810000",
    "144222.810000",
    "144224.810000",
    "144226.810000",
    "144228.810000",
    "144230.810000",
    "144232.810000",
    "144234.810000",
    "144236.810000",
    "144238.810000",
    "144240.810000",
    "144242.810000",
    "144244.810000",
    "144246.810000",
    "144248.810000",
    "144250.810000",
    "144252.810000",
    "144254.810000",
    "144256.810000",
    "144258.810000",
    "144300.810000",
    "144302.810000",
    "144304.810000",
    "144306.810000",
    "144308.810000",
    "144310.810000",
    "144312.810000",
    "144314.810000",
    "144316.810000",
    "144318.810000",
    "144320.810000",
    "144322.810000",
    "144324.810000",
    "144326.810000",
    "144328.810000",
    "144330.810000",
    "144332.810000",
    "144334.810000",
    "144336.810000",
    "144338.810000",
    "144340.810000",
    "144342.810000",
    "144344.810000",
    "144346.810000",
    "144348.810000",
    "144350.810000",
    "144352.810000",
    "144354.810000",
    "144356.810000",
    "144358.810000",
    "144400.810000",
    "144402.810000",
    "144404.810000",
    "144406.810000",
    "144408.810000",
    "144410.810000",
    "144412.810000",
    "144414.810000",
    "144416.810000",
    "144418.810000",
    "144420.810000",
    "144422.810000",
    "144424.810000",
    "144426.810000",
    "144428.810000",
    "144430.810000",
    "144432.810000",
    "144434.810000",
    "144436.810000",
    "144438.810000",
    "144440.810000",
    "144442.810000",
    "144444.810000",
    "144446.810000",
    "144448.810000",
    "144450.810000",
    "144452.810000",
    "144454.810000",
    "144456.810000",
    "144458.810000",
    "144500.810000",
    "144502.810000",
    "144504.810000",
    "144506.810000",
    "144508.810000",
    "144510.810000",
    "144512.810000",
    "144514.810000",
    "144516.810000",
    "144518.810000",
    "144520.810000",
    "144522.810000",
    "144524.810000",
    "144526.810000",
    "144528.810000",
    "144530.810000",
    "144532.810000",
    "144534.810000",
    "144536.810000",
    "144538.810000",
    "144540.810000",
    "144542.810000",
    "144544.810000",
    "144546.810000",
    "144548.810000",
    "144550.810000",
    "144552.810000",
    "144554.810000",
    "144556.810000",
    "144558.810000",
    "144600.810000",
    "144602.810000",
    "144604.810000",
    "144606.810000",
    "144608.810000",
    "144610.810000",
    "144612.810000",
    "144614.810000",
    "144616.810000",
    "144618.810000",
    "144620.810000",
    "144622.810000",
    "144624.810000",
    "144626.810000",
    "144628.810000",
    "144630.810000",
    "144632.810000",
    "144634.810000",
    "144636.810000",
    "144638.810000",
    "144640.810000",
    "144642.810000",
    "144644.810000",
    "144646.810000",
    "144648.810000",
    "144650.810000",
    "144652.810000",
    "144654.810000",
    "144656.810000",
    "144658.810000",
    "144700.810000",
    "144702.810000",
    "144704.810000",
    "144706.810000",
    "144708.810000",
    "144710.810000",
    "144712.810000",
    "144714.810000",
    "144716.810000",
    "144718.810000",
    "144720.810000",
    "144722.810000",
    "144724.810000",
    "144726.810000",
    "144728.810000",
    "144730.810000",
    "144732.810000",
    "144734.810000",
    "144736.810000",
    "144738.810000",
    "144740.810000",
    "144742.810000",
    "144744.810000",
    "144746.810000",
    "144748.810000",
    "144750.810000",
    "144752.810000",
    "144754.810000",
    "144756.810000",
    "144758.810000",
    "144800.810000",
    "144802.810000",
    "144804.810000",
    "144806.810000",
    "144808.810000",
    "144810.810000",
    "144812.810000",
    "144814.810000",
    "144816.810000",
    "144818.810000",
    "144820.810000",
    "144822.810000",
    "144824.810000",
    "144826.810000",
    "144828.810000",
    "144830.810000",
    "144832.810000"
   ],
   "ContentTime": [
    "144005.374000",
    "144006.869000",
    "144008.870000",
    "144010.869000",
    "144012.870000",
    "144014.870000",
    "144016.870000",
    "144018.870000",
    "144020.871000",
    "144022.869000",
    "144024.869000",
    "144026.870000",
    "144028.870000",
    "144030.871000",
    "144032.871000",
    "144034.871000",
    "144036.870000",
    "144038.871000",
    "144040.870000",
    "144042.870000",
    "144044.870000",
    "144046.870000",
    "144048.871000",
    "144050.870000",
    "144052.871000",
    "144054.870000",
    "144056.870000",
    "144058.870000",
    "144100.870000",
    "144102.869000",
    "144104.870000",
    "144106.870000",
    "144108.872000",
    "144110.871000",
    "144112.871000",
    "144114.869000",
    "144116.870000",
    "144118.869000",
    "144120.870000",
    "144122.871000",
    "144124.870000",
    "144126.870000",
    "144128.870000",
    "144130.871000",
    "144132.869000",
    "144134.870000",
    "144136.869000",
    "144138.870000",
    "144140.870000",
    "144142.871000",
    "144144.871000",
    "144146.871000",
    "144148.871000",
    "144150.870000",
    "144152.870000",
    "144154.869000",
    "144156.871000",
    "144158.871000",
    "144200.870000",
    "144202.870000",
    "144204.870000",
    "144206.871000",
    "144208.870000",
    "144210.870000",
    "144212.870000",
    "144214.870000",
    "144216.871000",
    "144218.870000",
    "144220.870000",
    "144222.870000",
    "144224.870000",
    "144226.869000",
    "144228.869000",
    "144230.872000",
    "144232.870000",
    "144234.871000",
    "144236.870000",
    "144238.871000",
    "144240.870000",
    "144242.869000",
    "144244.870000",
    "144246.870000",
    "144248.871000",
    "144250.870000",
    "144252.870000",
    "144254.871000",
    "144256.870000",
    "144258.870000",
    "144300.870000",
    "144302.869000",
    "144304.870000",
    "144306.871000",
    "144308.870000",
    "144310.870000",
    "144312.870000",
    "144314.871000",
    "144316.870000",
    "144318.869000",
    "144320.869000",
    "144322.869000",
    "144324.871000",
    "144326.871000",
    "144328.870000",
    "144330.870000",
    "144332.870000",
    "144334.869000",
    "144336.869000",
    "144338.870000",
    "144340.871000",
    "144342.871000",
    "144344.871000",
    "144346.870000",
    "144348.870000",
    "144350.871000",
    "144352.870000",
    "144354.869000",
    "144356.869000",
    "144358.871000",
    "144400.871000",
    "144402.871000",
    "144404.871000",
    "144406.871000",
    "144408.871000",
    "144410.869000",
    "144412.869000",
    "144414.870000",
    "144416.871000",
    "144418.870000",
    "144420.870000",
    "144422.870000",
    "144424.871000",
    "144426.871000",
    "144428.870000",
    "144430.870000",
    "144432.870000",
    "144434.870000",
    "144436.871000",
    "144438.870000",
    "144440.870000",
    "144442.870000",
    "144444.869000",
    "144446.869000",
    "144448.870000",
    "144450.871000",
    "144452.871000",
    "144454.871000",
    "144456.871000",
    "144458.871000",
    "144500.871000",
    "144502.869000",
    "144504.869000",
    "144506.870000",
    "144508.871000",
    "144510.870000",
    "144512.870000",
    "144514.870000",
    "144516.871000",
    "144518.871000",
    "144520.870000",
    "144522.869000",
    "144524.870000",
    "144526.871000",
    "144528.871000",
    "144530.871000",
    "144532.871000",
    "144534.870000",
    "144536.870000",
    "144538.870000",
    "144540.869000",
    "144542.870000",
    "144544.871000",
    "144546.870000",
    "144548.870000",
    "144550.871000",
    "144552.870000",
    "144554.870000",
    "144556.870000",
    "144558.869000",
    "144600.870000",
    "144602.871000",
    "144604.870000",
    "144606.871000",
    "144608.870000",
    "144610.871000",
    "144612.870000",
    "144614.870000",
    "144616.870000",
    "144618.870000",
    "144620.871000",
    "144622.871000",
    "144624.870000",
    "144626.871000",
    "144628.871000",
    "144630.870000",
    "144632.870000",
    "144634.870000",
    "144636.871000",
    "144638.871000",
    "144640.871000",
    "144642.870000",
    "144644.871000",
    "144646.870000",
    "144648.870000",
    "144650.870000",
    "144652.870000",
    "144654.871000",
    "144656.870000",
    "144658.871000",
    "144700.871000",
    "144702.871000",
    "144704.870000",
    "144706.869000",
    "144708.870000",
    "144710.871000",
    "144712.871000",
    "144714.871000",
    "144716.871000",
    "144718.871000",
    "144720.871000",
    "144722.870000",
    "144724.879000",
    "144726.870000",
    "144728.871000",
    "144730.871000",
    "144732.871000",
    "144734.871000",
    "144736.871000",
    "144738.870000",
    "144740.870000",
    "144742.869000",
    "144744.869000",
    "144746.871000",
    "144748.871000",
    "144750.871000",
    "144752.871000",
    "144754.871000",
    "144756.870000",
    "144758.870000",
    "144800.870000",
    "144802.870000",
    "144804.871000",
    "144806.871000",
    "144808.871000",
    "144810.871000",
    "144812.871000",
    "144814.870000",
    "144816.870000",
    "144818.869000",
    "144820.871000",
    "144822.871000",
    "144824.871000",
    "144826.871000",
    "144828.871000",
    "144830.871000",
    "144832.869000",
    "144834.664000"
   ],
   "InstanceCreationTime": [
    "144005.374000",
    "144006.869000",
    "144008.870000",
    "144010.869000",
    "144012.870000",
    "144014.870000",
    "144016.870000",
    "144018.870000",
    "144020.871000",
    "144022.869000",
    "144024.869000",
    "144026.870000",
    "144028.870000",
    "144030.871000",
    "144032.871000",
    "144034.871000",
    "144036.870000",
    "144038.871000",
    "144040.870000",
    "144042.870000",
    "144044.870000",
    "144046.870000",
    "144048.871000",
    "144050.870000",
    "144052.871000",
    "144054.870000",
    "144056.870000",
    "144058.870000",
    "144100.870000",
    "144102.869000",
    "144104.870000",
    "144106.870000",
    "144108.872000",
    "144110.871000",
    "144112.871000",
    "144114.869000",
    "144116.870000",
    "144118.869000",
    "144120.870000",
    "144122.871000",
    "144124.870000",
    "144126.870000",
    "144128.870000",
    "144130.871000",
    "144132.869000",
    "144134.870000",
    "144136.869000",
    "144138.870000",
    "144140.870000",
    "144142.871000",
    "144144.871000",
    "144146.871000",
    "144148.871000",
    "144150.870000",
    "144152.870000",
    "144154.869000",
    "144156.871000",
    "144158.871000",
    "144200.870000",
    "144202.870000",
    "144204.870000",
    "144206.871000",
    "144208.870000",
    "144210.870000",
    "144212.870000",
    "144214.870000",
    "144216.871000",
    "144218.870000",
    "144220.870000",
    "144222.870000",
    "144224.870000",
    "144226.869000",
    "144228.869000",
    "144230.872000",
    "144232.870000",
    "144234.871000",
    "144236.870000",
    "144238.871000",
    "144240.870000",
    "144242.869000",
    "144244.870000",
    "144246.870000",
    "144248.871000",
    "144250.870000",
    "144252.870000",
    "144254.871000",
    "144256.870000",
    "144258.870000",
    "144300.870000",
    "144302.869000",
    "144304.870000",
    "144306.871000",
    "144308.870000",
    "144310.870000",
    "144312.870000",
    "144314.871000",
    "144316.870000",
    "144318.869000",
    "144320.869000",
    "144322.869000",
    "144324.871000",
    "144326.871000",
    "144328.870000",
    "144330.870000",
    "144332.870000",
    "144334.869000",
    "144336.869000",
    "144338.870000",
    "144340.871000",
    "144342.871000",
    "144344.871000",
    "144346.870000",
    "144348.870000",
    "144350.871000",
    "144352.870000",
    "144354.869000",
    "144356.869000",
    "144358.871000",
    "144400.871000",
    "144402.871000",
    "144404.871000",
    "144406.871000",
    "144408.871000",
    "144410.869000",
    "144412.869000",
    "144414.870000",
    "144416.871000",
    "144418.870000",
    "144420.870000",
    "144422.870000",
    "144424.871000",
    "144426.871000",
    "144428.870000",
    "144430.870000",
    "144432.870000",
    "144434.870000",
    "144436.871000",
    "144438.870000",
    "144440.870000",
    "144442.870000",
    "144444.869000",
    "144446.869000",
    "144448.870000",
    "144450.871000",
    "144452.871000",
    "144454.871000",
    "144456.871000",
    "144458.871000",
    "144500.871000",
    "144502.869000",
    "144504.869000",
    "144506.870000",
    "144508.871000",
    "144510.870000",
    "144512.870000",
    "144514.870000",
    "144516.871000",
    "144518.871000",
    "144520.870000",
    "144522.869000",
    "144524.870000",
    "144526.871000",
    "144528.871000",
    "144530.871000",
    "144532.871000",
    "144534.870000",
    "144536.870000",
    "144538.870000",
    "144540.869000",
    "144542.870000",
    "144544.871000",
    "144546.870000",
    "144548.870000",
    "144550.871000",
    "144552.870000",
    "144554.870000",
    "144556.870000",
    "144558.869000",
    "144600.870000",
    "144602.871000",
    "144604.870000",
    "144606.871000",
    "144608.870000",
    "144610.871000",
    "144612.870000",
    "144614.870000",
    "144616.870000",
    "144618.870000",
    "144620.871000",
    "144622.871000",
    "144624.870000",
    "144626.871000",
    "144628.871000",
    "144630.870000",
    "144632.870000",
    "144634.870000",
    "144636.871000",
    "144638.871000",
    "144640.871000",
    "144642.870000",
    "144644.871000",
    "144646.870000",
    "144648.870000",
    "144650.870000",
    "144652.870000",
    "144654.871000",
    "144656.870000",
    "144658.871000",
    "144700.871000",
    "144702.871000",
    "144704.870000",
    "144706.869000",
    "144708.870000",
    "144710.871000",
    "144712.871000",
    "144714.871000",
    "144716.871000",
    "144718.871000",
    "144720.871000",
    "144722.870000",
    "144724.879000",
    "144726.870000",
    "144728.871000",
    "144730.871000",
    "144732.871000",
    "144734.871000",
    "144736.871000",
    "144738.870000",
    "144740.870000",
    "144742.869000",
    "144744.869000",
    "144746.871000",
    "144748.871000",
    "144750.871000",
    "144752.871000",
    "144754.871000",
    "144756.870000",
    "144758.870000",
    "144800.870000",
    "144802.870000",
    "144804.871000",
    "144806.871000",
    "144808.871000",
    "144810.871000",
    "144812.871000",
    "144814.870000",
    "144816.870000",
    "144818.869000",
    "144820.871000",
    "144822.871000",
    "144824.871000",
    "144826.871000",
    "144828.871000",
    "144830.871000",
    "144832.869000",
    "144834.664000"
   ],
   "InstanceNumber": [
    1,
    2,
    3,
    4,
    5,
    6,
    7,
    8,
    9,
    10,
    11,
    12,
    13,
    14,
    15,
    16,
    17,
    18,
    19,
    20,
    21,
    22,
    23,
    24,
    25,
    26,
    27,
    28,
    29,
    30,
    31,
    32,
    33,
    34,
    35,
    36,
    37,
    38,
    39,
    40,
    41,
    42,
    43,
    44,
    45,
    46,
    47,
    48,
    49,
    50,
    51,
    52,
    53,
    54,
    55,
    56,
    57,
    58,
    59,
    60,
    61,
    62,
    63,
    64,
    65,
    66,
    67,
    68,
    69,
    70,
    71,
    72,
    73,
    74,
    75,
    76,
    77,
    78,
    79,
    80,
    81,
    82,
    83,
    84,
    85,
    86,
    87,
    88,
    89,
    90,
    91,
    92,
    93,
    94,
    95,
    96,
    97,
    98,
    99,
    100,
    101,
    102,
    103,
    104,
    105,
    106,
    107,
    108,
    109,
    110,
    111,
    112,
    113,
    114,
    115,
    116,
    117,
    118,
    119,
    120,
    121,
    122,
    123,
    124,
    125,
    126,
    127,
    128,
    129,
    130,
    131,
    132,
    133,
    134,
    135,
    136,
    137,
    138,
    139,
    140,
    141,
    142,
    143,
    144,
    145,
    146,
    147,
    148,
    149,
    150,
    151,
    152,
    153,
    154,
    155,
    156,
    157,
    158,
    159,
    160,
    161,
    162,
    163,
    164,
    165,
    166,
    167,
    168,
    169,
    170,
    171,
    172,
    173,
    174,
    175,
    176,
    177,
    178,
    179,
    180,
    181,
    182,
    183,
    184,
    185,
    186,
    187,
    188,
    189,
    190,
    191,
    192,
    193,
    194,
    195,
    196,
    197,
    198,
    199,
    200,
    201,
    202,
    203,
    204,
    205,
    206,
    207,
    208,
    209,
    210,
    211,
    212,
    213,
    214,
    215,
    216,
    217,
    218,
    219,
    220,
    221,
    222,
    223,
    224,
    225,
    226,
    227,
    228,
    229,
    230,
    231,
    232,
    233,
    234,
    235,
    236,
    237,
    238,
    239,
    240,
    241,
    242,
    243,
    244,
    245,
    246,
    247,
    248,
    249,
    250,
    251,
    252,
    253,
    254,
    255,
    256
   ],
   "LargestImagePixelValue": [
    3102,
    3063,
    3072,
    3028,
    3011,
    3009,
    3015,
    3002,
    3005,
    2997,
    3021,
    3021,
    3031,
    3027,
    3014,
    3013,
    3013,
    3015,
    2978,
    2931,
    2944,
    2965,
    2982,
    2989,
    2945,
    2945,
    2957,
    3004,
    2995,
    3012,
    3015,
    3027,
    3037,
    3023,
    3043,
    3036,
    3036,
    3005,
    2992,
    3010,
    3019,
    3017,
    3023,
    3038,
    3001,
    3001,
    3005,
    3021,
    2991,
    2943,
    2976,
    3012,
    2974,
    2987,
    2969,
    2994,
    3005,
    3002,
    3007,
    2988,
    3026,
    3021,
    3030,
    3002,
    3053,
    3068,
    3036,
    3065,
    3037,
    3005,
    2955,
    2966,
    2961,
    2980,
    2973,
    2993,
    3050,
    3082,
    3043,
    3031,
    3013,
    2995,
    3017,
    2980,
    2971,
    2999,
    3004,
    2964,
    3001,
    3023,
    2986,
    3025,
    3065,
    3063,
    3087,
    3117,
    3105,
    3089,
    3093,
    3062,
    3049,
    3048,
    3044,
    3047,
    3015,
    3015,
    3039,
    3059,
    3059,
    3035,
    3026,
    3027,
    3026,
    3010,
    2981,
    3005,
    2989,
    3018,
    3046,
    3028,
    2999,
    3025,
    3029,
    3014,
    3016,
    3055,
    3078,
    3033,
    3009,
    3023,
    2993,
    2980,
    2987,
    3012,
    3079,
    3039,
    3035,
    3033,
    3076,
    3012,
    3006,
    2958,
    2993,
    3015,
    3013,
    3049,
    3009,
    3010,
    3003,
    3006,
    3006,
    3028,
    3060,
    2967,
    2983,
    3034,
    3071,
    3022,
    2959,
    2950,
    2976,
    2978,
    2952,
    2975,
    2978,
    3036,
    3027,
    3022,
    3023,
    3067,
    3023,
    3038,
    3041,
    3027,
    3023,
    3033,
    3059,
    3090,
    3051,
    3064,
    3026,
    3006,
    3010,
    3028,
    3073,
    3048,
    3000,
    2994,
    2972,
    3010,
    3062,
    3031,
    2997,
    3011,
    3009,
    3008,
    3010,
    3012,
    2983,
    3024,
    3065,
    3014,
    2975,
    2984,
    2999,
    3009,
    3027,
    3012,
    2999,
    3002,
    3014,
    3036,
    3084,
    3045,
    3004,
    2996,
    3044,
    3074,
    3011,
    3027,
    3091,
    3089,
    3070,
    3034,
    3040,
    3051,
    3058,
    3033,
    2978,
    3015,
    3057,
    2984,
    2991,
    3014,
    3049,
    2995,
    3001,
    3021,
    3001,
    3046,
    2992,
    2999,
    3014,
    3022,
    2981,
    2961,
    3051,
    3037,
    2997,
    2989,
    2995,
    3042,
    3026,
    3000,
    2994,
    2986
   ],
   "WindowCenter": [
    785.0,
    783.0,
    783.0,
    782.0,
    781.0,
    781.0,
    782.0,
    782.0,
    782.0,
    781.0,
    781.0,
    782.0,
    783.0,
    782.0,
    782.0,
    781.0,
    780.0,
    780.0,
    779.0,
    777.0,
    777.0,
    778.0,
    779.0,
    779.0,
    778.0,
    777.0,
    778.0,
    780.0,
    780.0,
    779.0,
    779.0,
    779.0,
    779.0,
    780.0,
    781.0,
    782.0,
    782.0,
    781.0,
    781.0,
    781.0,
    781.0,
    781.0,
    781.0,
    780.0,
    779.0,
    780.0,
    781.0,
    781.0,
    780.0,
    778.0,
    778.0,
    780.0,
    780.0,
    779.0,
    779.0,
    781.0,
    781.0,
    781.0,
    781.0,
    780.0,
    780.0,
    781.0,
    783.0,
    782.0,
    782.0,
    781.0,
    780.0,
    780.0,
    779.0,
    780.0,
    780.0,
    779.0,
    778.0,
    778.0,
    778.0,
    778.0,
    778.0,
    779.0,
    779.0,
    779.0,
    778.0,
    777.0,
    777.0,
    777.0,
    778.0,
    778.0,
    777.0,
    777.0,
    778.0,
    779.0,
    778.0,
    778.0,
    778.0,
    779.0,
    780.0,
    780.0,
    779.0,
    779.0,
    780.0,
    779.0,
    779.0,
    779.0,
    779.0,
    779.0,
    778.0,
    779.0,
    780.0,
    780.0,
    780.0,
