{
 "AcquisitionMatrixPE": 100,
 "AcquisitionNumber": 1,
 "AcquisitionTime": "15:18:52.100000",
 "BandwidthPerPixelPhaseEncode": 18.519,
 "BaseResolution": 100,
 "BodyPartExamined": "BRAIN",
 "ConsistencyInfo": "N4_VE11C_LATEST_20160120",
 "ConversionSoftware": "dcm2niix",
 "ConversionSoftwareVersion": "v1.0.20180622 GCC4.9.2",
 "DerivedVendorReportedEchoSpacing": 0.000539986,
 "DeviceSerialNumber": "166078",
 "DwellTime": 2.1e-06,
 "EchoTime": 0.034,
 "EchoTrainLength": 100,
 "EffectiveEchoSpacing": 0.000539986,
 "FlipAngle": 90,
 "ImageOrientationPatientDICOM": [
  1,
  0,
  0,
  0,
  0.966823,
  -0.255446
 ],
 "ImageType": [
  "ORIGINAL",
  "PRIMARY",
  "M",
  "ND",
  "MOSAIC"
 ],
 "InPlanePhaseEncodingDirectionDICOM": "COL",
 "InstitutionAddress": "Street_StreetNo_Bei_Jing_District_CN_ZIP",
 "InstitutionName": "BeiJing_Normal_University",
 "InstitutionalDepartmentName": "Department",
 "MRAcquisitionType": "2D",
 "MagneticFieldStrength": 3,
 "Manufacturer": "Siemens",
 "ManufacturersModelName": "Prisma",
 "Modality": "MR",
 "MultibandAccelerationFactor": 3,
 "PartialFourier": 1,
 "PatientPosition": "HFS",
 "PercentPhaseFOV": 100,
 "PhaseEncodingDirection": "j-",
 "PhaseEncodingSteps": 100,
 "PhaseResolution": 1,
 "PixelBandwidth": 2380,
 "ProcedureStepDescription": "BNU_P2018_64CH_Zhen.ZongLei",
 "ProtocolName": "bold_100x100_s3_2x2x2_static_256",
 "PulseSequenceDetails": "%SiemensSeq%_ep2d_bold",
 "ReceiveCoilActiveElements": "HC1-7;NC1",
 "ReceiveCoilName": "HeadNeck_64",
 "ReconMatrixPE": 100,
 "RepetitionTime": 2,
 "SAR": 0.0860847,
 "ScanOptions": "FS",
 "ScanningSequence": "EP",
 "SequenceName": "_epfid2d1_100",
 "SequenceVariant": "SK",
 "SeriesDescription": "bold_100x100_s3_2x2x2_static_256",
 "SeriesNumber": 5,
 "ShimSetting": [
  -5471,
  -11503,
  -1236,
  217,
  -150,
  -424,
  -93,
  13
 ],
 "SliceThickness": 2,
 "SliceTiming": [
  1.485,
  0,
  0.99,
  0.0825,
  1.0725,
  0.165,
  1.155,
  0.2475,
  1.2375,
  0.33,
  1.32,
  0.4125,
  1.4025,
  0.5775,
  1.5675,
  0.66,
  1.65,
  0.7425,
  1.7325,
  0.825,
  1.815,
  0.9075,
  1.8975,
  0.495,
  1.485,
  0,
  0.99,
  0.0825,
  1.0725,
  0.165,
  1.155,
  0.2475,
  1.2375,
  0.33,
  1.32,
  0.4125,
  1.4025,
  0.5775,
  1.5675,
  0.66,
  1.65,
  0.7425,
  1.7325,
  0.825,
  1.815,
  0.9075,
  1.8975,
  0.495,
  1.485,
  0,
  0.99,
  0.0825,
  1.0725,
  0.165,
  1.155,
  0.2475,
  1.2375,
  0.33,
  1.32,
  0.4125,
  1.4025,
  0.5775,
  1.5675,
  0.66,
  1.65,
  0.7425,
  1.7325,
  0.825,
  1.815,
  0.9075,
  1.8975,
  0.495
 ],
 "SoftwareVersions": "syngo_MR_E11",
 "SpacingBetweenSlices": 2,
 "StationName": "AWP166078",
 "TaskName": "imagenet",
 "TotalReadoutTime": 0.0534586,
 "TxRefAmp": 247.435,
 "dcmmeta_affine": [
  [
   -2.0,
   0.0,
   0.0,
   102.03389739990234
  ],
  [
   0.0,
   1.93364679813385,
   -0.5108914971351624,
   -74.67015838623047
  ],
  [
   0.0,
   0.5108914971351624,
   1.9336466789245605,
   -95.6539306640625
  ],
  [
   0.0,
   0.0,
   0.0,
   1.0
  ]
 ],
 "dcmmeta_reorient_transform": [
  [
   0.0,
   -1.0,
   0.0,
   99.0
  ],
  [
   1.0,
   0.0,
   0.0,
   0.0
  ],
  [
   0.0,
   0.0,
   1.0,
   0.0
  ],
  [
   0.0,
   0.0,
   0.0,
   1.0
  ]
 ],
 "dcmmeta_shape": [
  100,
  100,
  72,
  256
 ],
 "dcmmeta_slice_dim": 2,
 "dcmmeta_version": 0.6,
 "global": {
  "const": {
   "AcquisitionMatrix": [
    100,
    0,
    0,
    100
   ],
   "AngioFlag": "N",
   "BitsAllocated": 16,
   "BitsStored": 12,
   "BodyPartExamined": "BRAIN",
   "Columns": 900,
   "EchoNumbers": 1,
   "EchoTime": 34.0,
   "EchoTrainLength": 100,
   "FlipAngle": 90.0,
   "HighBit": 11,
   "ImageOrientationPatient": [
    1.0,
    0.0,
    0.0,
    0.0,
    0.96682339000573,
    -0.2554457526322
   ],
   "ImagePositionPatient": [
    -902.03389835358,
    -890.21958799246,
    159.28093048175
   ],
   "ImageType": [
    "ORIGINAL",
    "PRIMARY",
    "M",
    "ND",
    "MOSAIC"
   ],
   "ImagedNucleus": "1H",
   "ImagingFrequency": 123.257729,
   "InPlanePhaseEncodingDirection": "COL",
   "MRAcquisitionType": "2D",
   "MagneticFieldStrength": 3.0,
   "Manufacturer": "SIEMENS",
   "ManufacturerModelName": "Prisma",
   "Modality": "MR",
   "NumberOfAverages": 1.0,
   "NumberOfPhaseEncodingSteps": 100,
   "PercentPhaseFieldOfView": 100.0,
   "PercentSampling": 100.0,
   "PerformedProcedureStepStartTime": "145716.168000",
   "PhotometricInterpretation": "MONOCHROME2",
   "PixelBandwidth": 2380.0,
   "PixelRepresentation": 0,
   "PixelSpacing": [
    2.0,
    2.0
   ],
   "ProtocolName": "bold_100x100_s3_2x2x2_static_256",
   "RepetitionTime": 2000.0,
   "Rows": 900,
   "SAR": 0.08608472486551,
   "SamplesPerPixel": 1,
   "ScanOptions": "FS",
   "ScanningSequence": "EP",
   "SequenceName": "*epfid2d1_100",
   "SequenceVariant": "SK",
   "SeriesDescription": "bold_100x100_s3_2x2x2_static_256",
   "SeriesNumber": 5,
   "SeriesTime": "151855.283000",
   "SliceLocation": -73.406283491006,
   "SliceThickness": 2.0,
   "SmallestImagePixelValue": 0,
   "SoftwareVersions": "syngo MR E11",
   "SpacingBetweenSlices": 1.9999999458571,
   "SpecificCharacterSet": "ISO_IR 100",
   "StudyID": "1",
   "StudyTime": "145716.108000",
   "TransmitCoilName": "Body",
   "VariableFlipAngleFlag": "N",
   "WindowCenterWidthExplanation": "Algo1",
   "dBdt": 0.0
  },
  "slices": {}
 },
 "time": {
  "samples": {
   "AcquisitionNumber": [
    1,
    2,
    3,
    4,
    5,
    6,
    7,
    8,
    9,
    10,
    11,
    12,
    13,
    14,
    15,
    16,
    17,
    18,
    19,
    20,
    21,
    22,
    23,
    24,
    25,
    26,
    27,
    28,
    29,
    30,
    31,
    32,
    33,
    34,
    35,
    36,
    37,
    38,
    39,
    40,
    41,
    42,
    43,
    44,
    45,
    46,
    47,
    48,
    49,
    50,
    51,
    52,
    53,
    54,
    55,
    56,
    57,
    58,
    59,
    60,
    61,
    62,
    63,
    64,
    65,
    66,
    67,
    68,
    69,
    70,
    71,
    72,
    73,
    74,
    75,
    76,
    77,
    78,
    79,
    80,
    81,
    82,
    83,
    84,
    85,
    86,
    87,
    88,
    89,
    90,
    91,
    92,
    93,
    94,
    95,
    96,
    97,
    98,
    99,
    100,
    101,
    102,
    103,
    104,
    105,
    106,
    107,
    108,
    109,
    110,
    111,
    112,
    113,
    114,
    115,
    116,
    117,
    118,
    119,
    120,
    121,
    122,
    123,
    124,
    125,
    126,
    127,
    128,
    129,
    130,
    131,
    132,
    133,
    134,
    135,
    136,
    137,
    138,
    139,
    140,
    141,
    142,
    143,
    144,
    145,
    146,
    147,
    148,
    149,
    150,
    151,
    152,
    153,
    154,
    155,
    156,
    157,
    158,
    159,
    160,
    161,
    162,
    163,
    164,
    165,
    166,
    167,
    168,
    169,
    170,
    171,
    172,
    173,
    174,
    175,
    176,
    177,
    178,
    179,
    180,
    181,
    182,
    183,
    184,
    185,
    186,
    187,
    188,
    189,
    190,
    191,
    192,
    193,
    194,
    195,
    196,
    197,
    198,
    199,
    200,
    201,
    202,
    203,
    204,
    205,
    206,
    207,
    208,
    209,
    210,
    211,
    212,
    213,
    214,
    215,
    216,
    217,
    218,
    219,
    220,
    221,
    222,
    223,
    224,
    225,
    226,
    227,
    228,
    229,
    230,
    231,
    232,
    233,
    234,
    235,
    236,
    237,
    238,
    239,
    240,
    241,
    242,
    243,
    244,
    245,
    246,
    247,
    248,
    249,
    250,
    251,
    252,
    253,
    254,
    255,
    256
   ],
   "AcquisitionTime": [
    "151852.100000",
    "151854.100000",
    "151856.100000",
    "151858.100000",
    "151900.100000",
    "151902.100000",
    "151904.100000",
    "151906.100000",
    "151908.100000",
    "151910.100000",
    "151912.100000",
    "151914.100000",
    "151916.100000",
    "151918.100000",
    "151920.100000",
    "151922.100000",
    "151924.100000",
    "151926.100000",
    "151928.100000",
    "151930.100000",
    "151932.100000",
    "151934.100000",
    "151936.100000",
    "151938.100000",
    "151940.100000",
    "151942.100000",
    "151944.100000",
    "151946.100000",
    "151948.100000",
    "151950.100000",
    "151952.100000",
    "151954.100000",
    "151956.100000",
    "151958.100000",
    "152000.100000",
    "152002.100000",
    "152004.100000",
    "152006.100000",
    "152008.100000",
    "152010.100000",
    "152012.100000",
    "152014.100000",
    "152016.100000",
    "152018.100000",
    "152020.100000",
    "152022.100000",
    "152024.100000",
    "152026.100000",
    "152028.100000",
    "152030.100000",
    "152032.100000",
    "152034.100000",
    "152036.100000",
    "152038.100000",
    "152040.100000",
    "152042.100000",
    "152044.100000",
    "152046.100000",
    "152048.100000",
    "152050.100000",
    "152052.100000",
    "152054.100000",
    "152056.100000",
    "152058.100000",
    "152100.100000",
    "152102.100000",
    "152104.100000",
    "152106.100000",
    "152108.100000",
    "152110.100000",
    "152112.100000",
    "152114.100000",
    "152116.100000",
    "152118.100000",
    "152120.100000",
    "152122.100000",
    "152124.100000",
    "152126.100000",
    "152128.100000",
    "152130.100000",
    "152132.100000",
    "152134.100000",
    "152136.100000",
    "152138.100000",
    "152140.100000",
    "152142.100000",
    "152144.100000",
    "152146.100000",
    "152148.100000",
    "152150.100000",
    "152152.100000",
    "152154.100000",
    "152156.100000",
    "152158.100000",
    "152200.100000",
    "152202.100000",
    "152204.100000",
    "152206.100000",
    "152208.100000",
    "152210.100000",
    "152212.100000",
    "152214.100000",
    "152216.100000",
    "152218.100000",
    "152220.100000",
    "152222.100000",
    "152224.100000",
    "152226.100000",
    "152228.100000",
    "152230.100000",
    "152232.100000",
    "152234.100000",
    "152236.100000",
    "152238.100000",
    "152240.100000",
    "152242.100000",
    "152244.100000",
    "152246.100000",
    "152248.100000",
    "152250.100000",
    "152252.100000",
    "152254.100000",
    "152256.100000",
    "152258.100000",
    "152300.100000",
    "152302.100000",
    "152304.100000",
    "152306.100000",
    "152308.100000",
    "152310.100000",
    "152312.100000",
    "152314.100000",
    "152316.100000",
    "152318.100000",
    "152320.100000",
    "152322.100000",
    "152324.100000",
    "152326.100000",
    "152328.100000",
    "152330.100000",
    "152332.100000",
    "152334.100000",
    "152336.100000",
    "152338.100000",
    "152340.100000",
    "152342.100000",
    "152344.100000",
    "152346.100000",
    "152348.100000",
    "152350.100000",
    "152352.100000",
    "152354.100000",
    "152356.100000",
    "152358.100000",
    "152400.100000",
    "152402.100000",
    "152404.100000",
    "152406.100000",
    "152408.100000",
    "152410.100000",
    "152412.100000",
    "152414.100000",
    "152416.100000",
    "152418.100000",
    "152420.100000",
    "152422.100000",
    "152424.100000",
    "152426.100000",
    "152428.100000",
    "152430.100000",
    "152432.100000",
    "152434.100000",
    "152436.100000",
    "152438.100000",
    "152440.100000",
    "152442.100000",
    "152444.100000",
    "152446.100000",
    "152448.100000",
    "152450.100000",
    "152452.100000",
    "152454.100000",
    "152456.100000",
    "152458.100000",
    "152500.100000",
    "152502.100000",
    "152504.100000",
    "152506.100000",
    "152508.100000",
    "152510.100000",
    "152512.100000",
    "152514.100000",
    "152516.100000",
    "152518.100000",
    "152520.100000",
    "152522.100000",
    "152524.100000",
    "152526.100000",
    "152528.100000",
    "152530.100000",
    "152532.100000",
    "152534.100000",
    "152536.100000",
    "152538.100000",
    "152540.100000",
    "152542.100000",
    "152544.100000",
    "152546.100000",
    "152548.100000",
    "152550.100000",
    "152552.100000",
    "152554.100000",
    "152556.100000",
    "152558.100000",
    "152600.100000",
    "152602.100000",
    "152604.100000",
    "152606.100000",
    "152608.100000",
    "152610.100000",
    "152612.100000",
    "152614.100000",
    "152616.100000",
    "152618.100000",
    "152620.100000",
    "152622.100000",
    "152624.100000",
    "152626.100000",
    "152628.100000",
    "152630.100000",
    "152632.100000",
    "152634.100000",
    "152636.100000",
    "152638.100000",
    "152640.100000",
    "152642.100000",
    "152644.100000",
    "152646.100000",
    "152648.100000",
    "152650.100000",
    "152652.100000",
    "152654.100000",
    "152656.100000",
    "152658.100000",
    "152700.100000",
    "152702.100000",
    "152704.100000",
    "152706.100000",
    "152708.100000",
    "152710.100000",
    "152712.100000",
    "152714.100000",
    "152716.100000",
    "152718.100000",
    "152720.100000",
    "152722.100000"
   ],
   "ContentTime": [
    "151855.287000",
    "151856.783000",
    "151858.783000",
    "151900.784000",
    "151902.783000",
    "151904.784000",
    "151906.783000",
    "151908.783000",
    "151910.783000",
    "151912.783000",
    "151914.784000",
    "151916.784000",
    "151918.783000",
    "151920.783000",
    "151922.783000",
    "151924.784000",
    "151926.784000",
    "151928.782000",
    "151930.783000",
    "151932.784000",
    "151934.783000",
    "151936.783000",
    "151938.783000",
    "151940.783000",
    "151942.783000",
    "151944.783000",
    "151946.782000",
    "151948.783000",
    "151950.784000",
    "151952.784000",
    "151954.784000",
    "151956.783000",
    "151958.784000",
    "152000.784000",
    "152002.783000",
    "152004.783000",
    "152006.784000",
    "152008.783000",
    "152010.784000",
    "152012.783000",
    "152014.783000",
    "152016.784000",
    "152018.783000",
    "152020.783000",
    "152022.782000",
    "152024.783000",
    "152026.783000",
    "152028.784000",
    "152030.783000",
    "152032.783000",
    "152034.783000",
    "152036.783000",
    "152038.782000",
    "152040.782000",
    "152042.783000",
    "152044.784000",
    "152046.784000",
    "152048.783000",
    "152050.784000",
    "152052.783000",
    "152054.782000",
    "152056.782000",
    "152058.783000",
    "152100.783000",
    "152102.784000",
    "152104.784000",
    "152106.783000",
    "152108.783000",
    "152110.783000",
    "152112.783000",
    "152114.782000",
    "152116.783000",
    "152118.784000",
    "152120.783000",
    "152122.784000",
    "152124.784000",
    "152126.784000",
    "152128.784000",
    "152130.783000",
    "152132.783000",
    "152134.784000",
    "152136.784000",
    "152138.783000",
    "152140.783000",
    "152142.783000",
    "152144.783000",
    "152146.783000",
    "152148.783000",
    "152150.784000",
    "152152.785000",
    "152154.784000",
    "152156.785000",
    "152158.784000",
    "152200.784000",
    "152202.784000",
    "152204.782000",
    "152206.783000",
    "152208.783000",
    "152210.784000",
    "152212.784000",
    "152214.784000",
    "152216.783000",
    "152218.783000",
    "152220.784000",
    "152222.783000",
    "152224.783000",
    "152226.784000",
    "152228.784000",
    "152230.783000",
    "152232.784000",
    "152234.783000",
    "152236.783000",
    "152238.783000",
    "152240.783000",
    "152242.783000",
    "152244.784000",
    "152246.784000",
    "152248.784000",
    "152250.783000",
    "152252.784000",
    "152254.784000",
    "152256.784000",
    "152258.783000",
    "152300.782000",
    "152302.784000",
    "152304.783000",
    "152306.784000",
    "152308.783000",
    "152310.783000",
    "152312.784000",
    "152314.782000",
    "152316.783000",
    "152318.784000",
    "152320.783000",
    "152322.783000",
    "152324.784000",
    "152326.783000",
    "152328.783000",
    "152330.784000",
    "152332.782000",
    "152334.783000",
    "152336.784000",
    "152338.784000",
    "152340.784000",
    "152342.783000",
    "152344.783000",
    "152346.783000",
    "152348.783000",
    "152350.783000",
    "152352.782000",
    "152354.784000",
    "152356.784000",
    "152358.784000",
    "152400.783000",
    "152402.784000",
    "152404.783000",
    "152406.783000",
    "152408.782000",
    "152410.783000",
    "152412.784000",
    "152414.784000",
    "152416.784000",
    "152418.784000",
    "152420.784000",
    "152422.783000",
    "152424.782000",
    "152426.783000",
    "152428.784000",
    "152430.783000",
    "152432.783000",
    "152434.784000",
    "152436.784000",
    "152438.783000",
    "152440.783000",
    "152442.783000",
    "152444.783000",
    "152446.783000",
    "152448.784000",
    "152450.784000",
    "152452.783000",
    "152454.784000",
    "152456.783000",
    "152458.784000",
    "152500.782000",
    "152502.783000",
    "152504.784000",
    "152506.784000",
    "152508.784000",
    "152510.784000",
    "152512.784000",
    "152514.783000",
    "152516.783000",
    "152518.782000",
    "152520.782000",
    "152522.784000",
    "152524.784000",
    "152526.784000",
    "152528.784000",
    "152530.784000",
    "152532.783000",
    "152534.783000",
    "152536.782000",
    "152538.783000",
    "152540.783000",
    "152542.783000",
    "152544.783000",
    "152546.783000",
    "152548.783000",
    "152550.783000",
    "152552.783000",
    "152554.782000",
    "152556.784000",
    "152558.783000",
    "152600.783000",
    "152602.783000",
    "152604.783000",
    "152606.783000",
    "152608.784000",
    "152610.783000",
    "152612.783000",
    "152614.795000",
    "152616.783000",
    "152618.783000",
    "152620.783000",
    "152622.784000",
    "152624.784000",
    "152626.783000",
    "152628.782000",
    "152630.783000",
    "152632.783000",
    "152634.784000",
    "152636.784000",
    "152638.784000",
    "152640.784000",
    "152642.783000",
    "152644.783000",
    "152646.782000",
    "152648.784000",
    "152650.784000",
    "152652.783000",
    "152654.783000",
    "152656.784000",
    "152658.784000",
    "152700.784000",
    "152702.783000",
    "152704.783000",
    "152706.784000",
    "152708.784000",
    "152710.784000",
    "152712.783000",
    "152714.784000",
    "152716.783000",
    "152718.783000",
    "152720.783000",
    "152722.782000",
    "152724.346000"
   ],
   "InstanceCreationTime": [
    "151855.287000",
    "151856.783000",
    "151858.783000",
    "151900.784000",
    "151902.783000",
    "151904.784000",
    "151906.783000",
    "151908.783000",
    "151910.783000",
    "151912.783000",
    "151914.784000",
    "151916.784000",
    "151918.783000",
    "151920.783000",
    "151922.783000",
    "151924.784000",
    "151926.784000",
    "151928.782000",
    "151930.783000",
    "151932.784000",
    "151934.783000",
    "151936.783000",
    "151938.783000",
    "151940.783000",
    "151942.783000",
    "151944.783000",
    "151946.782000",
    "151948.783000",
    "151950.784000",
    "151952.784000",
    "151954.784000",
    "151956.783000",
    "151958.784000",
    "152000.784000",
    "152002.783000",
    "152004.783000",
    "152006.784000",
    "152008.783000",
    "152010.784000",
    "152012.783000",
    "152014.783000",
    "152016.784000",
    "152018.783000",
    "152020.783000",
    "152022.782000",
    "152024.783000",
    "152026.783000",
    "152028.784000",
    "152030.783000",
    "152032.783000",
    "152034.783000",
    "152036.783000",
    "152038.782000",
    "152040.782000",
    "152042.783000",
    "152044.784000",
    "152046.784000",
    "152048.783000",
    "152050.784000",
    "152052.783000",
    "152054.782000",
    "152056.782000",
    "152058.783000",
    "152100.783000",
    "152102.784000",
    "152104.784000",
    "152106.783000",
    "152108.783000",
    "152110.783000",
    "152112.783000",
    "152114.782000",
    "152116.783000",
    "152118.784000",
    "152120.783000",
    "152122.784000",
    "152124.784000",
    "152126.784000",
    "152128.784000",
    "152130.783000",
    "152132.783000",
    "152134.784000",
    "152136.784000",
    "152138.783000",
    "152140.783000",
    "152142.783000",
    "152144.783000",
    "152146.783000",
    "152148.783000",
    "152150.784000",
    "152152.785000",
    "152154.784000",
    "152156.785000",
    "152158.784000",
    "152200.784000",
    "152202.784000",
    "152204.782000",
    "152206.783000",
    "152208.783000",
    "152210.784000",
    "152212.784000",
    "152214.784000",
    "152216.783000",
    "152218.783000",
    "152220.784000",
    "152222.783000",
    "152224.783000",
    "152226.784000",
    "152228.784000",
    "152230.783000",
    "152232.784000",
    "152234.783000",
    "152236.783000",
    "152238.783000",
    "152240.783000",
    "152242.783000",
    "152244.784000",
    "152246.784000",
    "152248.784000",
    "152250.783000",
    "152252.784000",
    "152254.784000",
    "152256.784000",
    "152258.783000",
    "152300.782000",
    "152302.784000",
    "152304.783000",
    "152306.784000",
    "152308.783000",
    "152310.783000",
    "152312.784000",
    "152314.782000",
    "152316.783000",
    "152318.784000",
    "152320.783000",
    "152322.783000",
    "152324.784000",
    "152326.783000",
    "152328.783000",
    "152330.784000",
    "152332.782000",
    "152334.783000",
    "152336.784000",
    "152338.784000",
    "152340.784000",
    "152342.783000",
    "152344.783000",
    "152346.783000",
    "152348.783000",
    "152350.783000",
    "152352.782000",
    "152354.784000",
    "152356.784000",
    "152358.784000",
    "152400.783000",
    "152402.784000",
    "152404.783000",
    "152406.783000",
    "152408.782000",
    "152410.783000",
    "152412.784000",
    "152414.784000",
    "152416.784000",
    "152418.784000",
    "152420.784000",
    "152422.783000",
    "152424.782000",
    "152426.783000",
    "152428.784000",
    "152430.783000",
    "152432.783000",
    "152434.784000",
    "152436.784000",
    "152438.783000",
    "152440.783000",
    "152442.783000",
    "152444.783000",
    "152446.783000",
    "152448.784000",
    "152450.784000",
    "152452.783000",
    "152454.784000",
    "152456.783000",
    "152458.784000",
    "152500.782000",
    "152502.783000",
    "152504.784000",
    "152506.784000",
    "152508.784000",
    "152510.784000",
    "152512.784000",
    "152514.783000",
    "152516.783000",
    "152518.782000",
    "152520.782000",
    "152522.784000",
    "152524.784000",
    "152526.784000",
    "152528.784000",
    "152530.784000",
    "152532.783000",
    "152534.783000",
    "152536.782000",
    "152538.783000",
    "152540.783000",
    "152542.783000",
    "152544.783000",
    "152546.783000",
    "152548.783000",
    "152550.783000",
    "152552.783000",
    "152554.782000",
    "152556.784000",
    "152558.783000",
    "152600.783000",
    "152602.783000",
    "152604.783000",
    "152606.783000",
    "152608.784000",
    "152610.783000",
    "152612.783000",
    "152614.795000",
    "152616.783000",
    "152618.783000",
    "152620.783000",
    "152622.784000",
    "152624.784000",
    "152626.783000",
    "152628.782000",
    "152630.783000",
    "152632.783000",
    "152634.784000",
    "152636.784000",
    "152638.784000",
    "152640.784000",
    "152642.783000",
    "152644.783000",
    "152646.782000",
    "152648.784000",
    "152650.784000",
    "152652.783000",
    "152654.783000",
    "152656.784000",
    "152658.784000",
    "152700.784000",
    "152702.783000",
    "152704.783000",
    "152706.784000",
    "152708.784000",
    "152710.784000",
    "152712.783000",
    "152714.784000",
    "152716.783000",
    "152718.783000",
    "152720.783000",
    "152722.782000",
    "152724.346000"
   ],
   "InstanceNumber": [
    1,
    2,
    3,
    4,
    5,
    6,
    7,
    8,
    9,
    10,
    11,
    12,
    13,
    14,
    15,
    16,
    17,
    18,
    19,
    20,
    21,
    22,
    23,
    24,
    25,
    26,
    27,
    28,
    29,
    30,
    31,
    32,
    33,
    34,
    35,
    36,
    37,
    38,
    39,
    40,
    41,
    42,
    43,
    44,
    45,
    46,
    47,
    48,
    49,
    50,
    51,
    52,
    53,
    54,
    55,
    56,
    57,
    58,
    59,
    60,
    61,
    62,
    63,
    64,
    65,
    66,
    67,
    68,
    69,
    70,
    71,
    72,
    73,
    74,
    75,
    76,
    77,
    78,
    79,
    80,
    81,
    82,
    83,
    84,
    85,
    86,
    87,
    88,
    89,
    90,
    91,
    92,
    93,
    94,
    95,
    96,
    97,
    98,
    99,
    100,
    101,
    102,
    103,
    104,
    105,
    106,
    107,
    108,
    109,
    110,
    111,
    112,
    113,
    114,
    115,
    116,
    117,
    118,
    119,
    120,
    121,
    122,
    123,
    124,
    125,
    126,
    127,
    128,
    129,
    130,
    131,
    132,
    133,
    134,
    135,
    136,
    137,
    138,
    139,
    140,
    141,
    142,
    143,
    144,
    145,
    146,
    147,
    148,
    149,
    150,
    151,
    152,
    153,
    154,
    155,
    156,
    157,
    158,
    159,
    160,
    161,
    162,
    163,
    164,
    165,
    166,
    167,
    168,
    169,
    170,
    171,
    172,
    173,
    174,
    175,
    176,
    177,
    178,
    179,
    180,
    181,
    182,
    183,
    184,
    185,
    186,
    187,
    188,
    189,
    190,
    191,
    192,
    193,
    194,
    195,
    196,
    197,
    198,
    199,
    200,
    201,
    202,
    203,
    204,
    205,
    206,
    207,
    208,
    209,
    210,
    211,
    212,
    213,
    214,
    215,
    216,
    217,
    218,
    219,
    220,
    221,
    222,
    223,
    224,
    225,
    226,
    227,
    228,
    229,
    230,
    231,
    232,
    233,
    234,
    235,
    236,
    237,
    238,
    239,
    240,
    241,
    242,
    243,
    244,
    245,
    246,
    247,
    248,
    249,
    250,
    251,
    252,
    253,
    254,
    255,
    256
   ],
   "LargestImagePixelValue": [
    3648,
    3748,
    3666,
    3889,
    3995,
    3764,
    3722,
    3776,
    3746,
    3759,
    3812,
    3993,
    4077,
    4095,
    3989,
    3805,
    3698,
    3715,
    3754,
    4006,
    3802,
    3770,
    3812,
    3725,
    3793,
    4000,
    4019,
    3954,
    3709,
    3712,
    3673,
    3755,
    3878,
    3735,
    3720,
    3860,
    3753,
    3778,
    3739,
    4023,
    3783,
    3970,
    3981,
    3844,
    4092,
    3940,
    3955,
    3706,
    3927,
    3788,
    3860,
    3696,
    3774,
    3669,
    3882,
    3746,
    3827,
    3810,
    3711,
    3823,
    3795,
    3765,
    3763,
    3808,
    3745,
    3878,
    3902,
    3954,
    3991,
    3855,
    3721,
    3888,
    3856,
    3762,
    3779,
    3807,
    3873,
    3947,
    3713,
    3861,
    3894,
    3733,
    3754,
    3701,
    3909,
    3935,
    3724,
    3738,
    3683,
    3718,
    3685,
    3668,
    3695,
    3700,
    3681,
    3751,
    3933,
    3819,
    3719,
    3768,
    3738,
    3753,
    3774,
    3720,
    3771,
    3762,
    3700,
    3746,
    3768,
    3758,
    3856,
    3913,
    3789,
    3780,
    3729,
    3754,
    3751,
    3695,
    3658,
    3803,
    3714,
    3751,
    3737,
    3883,
    3744,
    3746,
    3764,
    3799,
    3783,
    3913,
    3767,
    3779,
    3812,
    3788,
    3820,
    3788,
    3885,
    3815,
    3816,
    3790,
    3848,
    3801,
    3777,
    3796,
    3800,
    3778,
    3835,
    3833,
    3850,
    3832,
    3972,
    3837,
    3788,
    3749,
    3777,
    3770,
    3731,
    3732,
    3900,
    3764,
    3801,
    3799,
    3837,
    3858,
    3811,
    3828,
    3820,
    3805,
    3796,
    3821,
    3811,
    3804,
    3801,
    3798,
    3804,
    3816,
    3793,
    3785,
    3824,
    3833,
    3850,
    3842,
    3802,
    3756,
    3823,
    3821,
    3838,
    3808,
    3802,
    3822,
    3804,
    3811,
    3826,
    3864,
    3795,
    3820,
    3719,
    3822,
    3803,
    3845,
    3832,
    3785,
    3797,
    3793,
    3813,
    3813,
    3778,
    3752,
    3794,
    3749,
    3748,
    3782,
    3816,
    3914,
    3912,
    3836,
    3795,
    3754,
    3760,
    3788,
    3883,
    3827,
    3861,
    3806,
    3812,
    3852,
    3843,
    3830,
    3852,
    3869,
    3790,
    3766,
    3796,
    3821,
    3768,
    3771,
    3781,
    3813,
    3775,
    3777,
    3859,
    3930,
    3730,
    3761,
    3780,
    3757,
    3811,
    3775,
    3806,
    3800,
    3776,
    3797,
    3824,
    3902,
    3810,
    3767
   ],
   "WindowCenter": [
    813.0,
    811.0,
    810.0,
    813.0,
    814.0,
    811.0,
    810.0,
    811.0,
    811.0,
    810.0,
    812.0,
    813.0,
    813.0,
    812.0,
    812.0,
    812.0,
    812.0,
    810.0,
    810.0,
    812.0,
    811.0,
    810.0,
    810.0,
    809.0,
    810.0,
    812.0,
    812.0,
    812.0,
    812.0,
    813.0,
    812.0,
    810.0,
    811.0,
    811.0,
    810.0,
    809.0,
    807.0,
    808.0,
    808.0,
    810.0,
    808.0,
    809.0,
    811.0,
    811.0,
    812.0,
    810.0,
    811.0,
    811.0,
    815.0,
    814.0,
    814.0,
    812.0,
    813.0,
    813.0,
    814.0,
    813.0,
    814.0,
    812.0,
    811.0,
    812.0,
    811.0,
    811.0,
    811.0,
    810.0,
    811.0,
    813.0,
    812.0,
    812.0,
    812.0,
    813.0,
    814.0,
    813.0,
    812.0,
    809.0,
    809.0,
    810.0,
    812.0,
    812.0,
    812.0,
    812.0,
    811.0,
    810.0,
    812.0,
    812.0,
    812.0,
    811.0,
    810.0,
    812.0,
    814.0,
    814.0,
    813.0,
    811.0,
    811.0,
    810.0,
    809.0,
    810.0,
    811.0,
    810.0,
    812.0,
    813.0,
    810.0,
    808.0,
    810.0,
    813.0,
    813.0,
    811.0,
    810.0,
    812.0,
    813.0,
    813.0,
    814.0,
    814.0,
    813.0,
    812.0,
    811.0,
    810.0,
    810.0,
    808.0,
    808.0,
    810.0,
    809.0,
    808.0,
    809.0,
    811.0,
    812.0,
