{
  "AcquisitionMatrixPE": 100,
  "AcquisitionNumber": 1,
  "AcquisitionTime": "16:18:56.225000",
  "BandwidthPerPixelPhaseEncode": 18.519,
  "BaseResolution": 100,
  "BodyPartExamined": "BRAIN",
  "ConsistencyInfo": "N4_VE11C_LATEST_20160120",
  "ConversionSoftware": "dcm2niix",
  "ConversionSoftwareVersion": "v1.0.20180622 GCC4.9.2",
  "DerivedVendorReportedEchoSpacing": 0.000539986,
  "DeviceSerialNumber": "166078",
  "DwellTime": 2.1e-06,
  "EchoTime": 0.034,
  "EchoTrainLength": 100,
  "EffectiveEchoSpacing": 0.000539986,
  "FlipAngle": 90,
  "ImageOrientationPatientDICOM": [1, 0, 0, 0, 0.966823, -0.255446],
  "ImageType": [
    "ORIGINAL",
    "PRIMARY",
    "M",
    "ND",
    "MOSAIC"
],
  "InPlanePhaseEncodingDirectionDICOM": "COL",
  "InstitutionAddress": "Street_StreetNo_Bei_Jing_District_CN_ZIP",
  "InstitutionName": "BeiJing_Normal_University",
  "InstitutionalDepartmentName": "Department",
  "MRAcquisitionType": "2D",
  "MagneticFieldStrength": 3,
  "Manufacturer": "Siemens",
  "ManufacturersModelName": "Prisma",
  "Modality": "MR",
  "MultibandAccelerationFactor": 3,
  "PartialFourier": 1,
  "PatientPosition": "HFS",
  "PercentPhaseFOV": 100,
  "PhaseEncodingDirection": "j-",
  "PhaseEncodingSteps": 100,
  "PhaseResolution": 1,
  "PixelBandwidth": 2380,
  "ProcedureStepDescription": "BNU_P2018_64CH_Zhen.ZongLei",
  "ProtocolName": "bold_100x100_s3_2x2x2_static_256",
  "PulseSequenceDetails": "%SiemensSeq%_ep2d_bold",
  "ReceiveCoilActiveElements": "HC1-7;NC1",
  "ReceiveCoilName": "HeadNeck_64",
  "ReconMatrixPE": 100,
  "RepetitionTime": 2,
  "SAR": 0.0860847,
  "ScanOptions": "FS",
  "ScanningSequence": "EP",
  "SequenceName": "_epfid2d1_100",
  "SequenceVariant": "SK",
  "SeriesDescription": "bold_100x100_s3_2x2x2_static_256",
  "SeriesNumber": 13,
  "ShimSetting": [-5471, -11503, -1236, 217, -150, -424, -93, 13],
  "SliceThickness": 2,
  "SliceTiming": [1.4825, 0, 0.9875, 0.0825, 1.07, 0.165, 1.1525, 0.2475, 1.235, 0.33, 1.3175, 0.4125, 1.4, 0.5775, 1.565, 0.66, 1.6475, 0.74, 1.73, 0.8225, 1.8125, 0.905, 1.895, 0.495, 1.4825, 0, 0.9875, 0.0825, 1.07, 0.165, 1.1525, 0.2475, 1.235, 0.33, 1.3175, 0.4125, 1.4, 0.5775, 1.565, 0.66, 1.6475, 0.74, 1.73, 0.8225, 1.8125, 0.905, 1.895, 0.495, 1.4825, 0, 0.9875, 0.0825, 1.07, 0.165, 1.1525, 0.2475, 1.235, 0.33, 1.3175, 0.4125, 1.4, 0.5775, 1.565, 0.66, 1.6475, 0.74, 1.73, 0.8225, 1.8125, 0.905, 1.895, 0.495],
  "SoftwareVersions": "syngo_MR_E11",
  "SpacingBetweenSlices": 2,
  "StationName": "AWP166078",
  "TaskName": "naturalvision",
  "TotalReadoutTime": 0.0534586,
  "TxRefAmp": 247.435,
  "dcmmeta_affine": [
    [-2.0, 0.0, 0.0, 102.03389739990234],
    [0.0, 1.93364679813385, -0.5108914971351624, -74.67015838623047],
    [0.0, 0.5108914971351624, 1.9336466789245605, -95.6539306640625],
    [0.0, 0.0, 0.0, 1.0]
],
  "dcmmeta_reorient_transform": [
    [0.0, -1.0, 0.0, 99.0],
    [1.0, 0.0, 0.0, 0.0],
    [0.0, 0.0, 1.0, 0.0],
    [0.0, 0.0, 0.0, 1.0]
],
  "dcmmeta_shape": [100, 100, 72, 256],
  "dcmmeta_slice_dim": 2,
  "dcmmeta_version": 0.6,
  "global": {
    "const": {
      "AcquisitionMatrix": [100, 0, 0, 100],
      "AngioFlag": "N",
      "BitsAllocated": 16,
      "BitsStored": 12,
      "BodyPartExamined": "BRAIN",
      "Columns": 900,
      "EchoNumbers": 1,
      "EchoTime": 34.0,
      "EchoTrainLength": 100,
      "FlipAngle": 90.0,
      "HighBit": 11,
      "ImageOrientationPatient": [1.0, 0.0, 0.0, 0.0, 0.96682339000573, -0.2554457526322],
      "ImagePositionPatient": [-902.03389835358, -890.21958799246, 159.28093048175],
      "ImageType": [
        "ORIGINAL",
        "PRIMARY",
        "M",
        "ND",
        "MOSAIC"
],
      "ImagedNucleus": "1H",
      "ImagingFrequency": 123.257735,
      "InPlanePhaseEncodingDirection": "COL",
      "MRAcquisitionType": "2D",
      "MagneticFieldStrength": 3.0,
      "Manufacturer": "SIEMENS",
      "ManufacturerModelName": "Prisma",
      "Modality": "MR",
      "NumberOfAverages": 1.0,
      "NumberOfPhaseEncodingSteps": 100,
      "PercentPhaseFieldOfView": 100.0,
      "PercentSampling": 100.0,
      "PerformedProcedureStepStartTime": "145716.168000",
      "PhotometricInterpretation": "MONOCHROME2",
      "PixelBandwidth": 2380.0,
      "PixelRepresentation": 0,
      "PixelSpacing": [2.0, 2.0],
      "ProtocolName": "bold_100x100_s3_2x2x2_static_256",
      "RepetitionTime": 2000.0,
      "Rows": 900,
      "SAR": 0.08608472486551,
      "SamplesPerPixel": 1,
      "ScanOptions": "FS",
      "ScanningSequence": "EP",
      "SequenceName": "*epfid2d1_100",
      "SequenceVariant": "SK",
      "SeriesDescription": "bold_100x100_s3_2x2x2_static_256",
      "SeriesNumber": 13,
      "SeriesTime": "161858.834000",
      "SliceLocation": -73.406283491006,
      "SliceThickness": 2.0,
      "SmallestImagePixelValue": 0,
      "SoftwareVersions": "syngo MR E11",
      "SpacingBetweenSlices": 1.9999999458571,
      "SpecificCharacterSet": "ISO_IR 100",
      "StudyID": "1",
      "StudyTime": "145716.108000",
      "TransmitCoilName": "Body",
      "VariableFlipAngleFlag": "N",
      "WindowCenterWidthExplanation": "Algo1",
      "dBdt": 0.0},
    "slices": {}
  },
  "time": {
    "samples": {
      "AcquisitionNumber": [1, 2, 3, 4, 5, 6, 7, 8, 9, 10, 11, 12, 13, 14, 15, 16, 17, 18, 19, 20, 21, 22, 23, 24, 25, 26, 27, 28, 29, 30, 31, 32, 33, 34, 35, 36, 37, 38, 39, 40, 41, 42, 43, 44, 45, 46, 47, 48, 49, 50, 51, 52, 53, 54, 55, 56, 57, 58, 59, 60, 61, 62, 63, 64, 65, 66, 67, 68, 69, 70, 71, 72, 73, 74, 75, 76, 77, 78, 79, 80, 81, 82, 83, 84, 85, 86, 87, 88, 89, 90, 91, 92, 93, 94, 95, 96, 97, 98, 99, 100, 101, 102, 103, 104, 105, 106, 107, 108, 109, 110, 111, 112, 113, 114, 115, 116, 117, 118, 119, 120, 121, 122, 123, 124, 125, 126, 127, 128, 129, 130, 131, 132, 133, 134, 135, 136, 137, 138, 139, 140, 141, 142, 143, 144, 145, 146, 147, 148, 149, 150, 151, 152, 153, 154, 155, 156, 157, 158, 159, 160, 161, 162, 163, 164, 165, 166, 167, 168, 169, 170, 171, 172, 173, 174, 175, 176, 177, 178, 179, 180, 181, 182, 183, 184, 185, 186, 187, 188, 189, 190, 191, 192, 193, 194, 195, 196, 197, 198, 199, 200, 201, 202, 203, 204, 205, 206, 207, 208, 209, 210, 211, 212, 213, 214, 215, 216, 217, 218, 219, 220, 221, 222, 223, 224, 225, 226, 227, 228, 229, 230, 231, 232, 233, 234, 235, 236, 237, 238, 239, 240, 241, 242, 243, 244, 245, 246, 247, 248, 249, 250, 251, 252, 253, 254, 255, 256],
      "AcquisitionTime": ["161856.225000", "161858.225000", "161900.225000", "161902.225000", "161904.225000", "161906.225000", "161908.225000", "161910.225000", "161912.225000", "161914.225000", "161916.225000", "161918.225000", "161920.225000", "161922.225000", "161924.225000", "161926.225000", "161928.225000", "161930.225000", "161932.225000", "161934.225000", "161936.225000", "161938.225000", "161940.225000", "161942.225000", "161944.225000", "161946.225000", "161948.225000", "161950.225000", "161952.225000", "161954.225000", "161956.225000", "161958.225000", "162000.225000", "162002.225000", "162004.225000", "162006.225000", "162008.225000", "162010.225000", "162012.225000", "162014.225000", "162016.225000", "162018.225000", "162020.225000", "162022.225000", "162024.225000", "162026.225000", "162028.225000", "162030.225000", "162032.225000", "162034.225000", "162036.225000", "162038.225000", "162040.225000", "162042.225000", "162044.225000", "162046.225000", "162048.225000", "162050.225000", "162052.225000", "162054.225000", "162056.225000", "162058.225000", "162100.225000", "162102.225000", "162104.225000", "162106.225000", "162108.225000", "162110.225000", "162112.225000", "162114.225000", "162116.225000", "162118.225000", "162120.225000", "162122.225000", "162124.225000", "162126.225000", "162128.225000", "162130.225000", "162132.225000", "162134.225000", "162136.225000", "162138.225000", "162140.225000", "162142.225000", "162144.225000", "162146.225000", "162148.225000", "162150.225000", "162152.225000", "162154.225000", "162156.225000", "162158.225000", "162200.225000", "162202.225000", "162204.225000", "162206.225000", "162208.225000", "162210.225000", "162212.225000", "162214.225000", "162216.225000", "162218.225000", "162220.225000", "162222.225000", "162224.225000", "162226.225000", "162228.225000", "162230.225000", "162232.225000", "162234.225000", "162236.225000", "162238.225000", "162240.225000", "162242.225000", "162244.225000", "162246.225000", "162248.225000", "162250.225000", "162252.225000", "162254.225000", "162256.225000", "162258.225000", "162300.225000", "162302.225000", "162304.225000", "162306.225000", "162308.225000", "162310.225000", "162312.225000", "162314.225000", "162316.225000", "162318.225000", "162320.225000", "162322.225000", "162324.225000", "162326.225000", "162328.225000", "162330.225000", "162332.225000", "162334.225000", "162336.225000", "162338.225000", "162340.225000", "162342.225000", "162344.225000", "162346.225000", "162348.225000", "162350.225000", "162352.225000", "162354.225000", "162356.225000", "162358.225000", "162400.225000", "162402.225000", "162404.225000", "162406.225000", "162408.225000", "162410.225000", "162412.225000", "162414.225000", "162416.225000", "162418.225000", "162420.225000", "162422.225000", "162424.225000", "162426.225000", "162428.225000", "162430.225000", "162432.225000", "162434.225000", "162436.225000", "162438.225000", "162440.225000", "162442.225000", "162444.225000", "162446.225000", "162448.225000", "162450.225000", "162452.225000", "162454.225000", "162456.225000", "162458.225000", "162500.225000", "162502.225000", "162504.225000", "162506.225000", "162508.225000", "162510.225000", "162512.225000", "162514.225000", "162516.225000", "162518.225000", "162520.225000", "162522.225000", "162524.225000", "162526.225000", "162528.225000", "162530.225000", "162532.225000", "162534.225000", "162536.225000", "162538.225000", "162540.225000", "162542.225000", "162544.225000", "162546.225000", "162548.225000", "162550.225000", "162552.225000", "162554.225000", "162556.225000", "162558.225000", "162600.225000", "162602.225000", "162604.225000", "162606.225000", "162608.225000", "162610.225000", "162612.225000", "162614.225000", "162616.225000", "162618.225000", "162620.225000", "162622.225000", "162624.225000", "162626.225000", "162628.225000", "162630.225000", "162632.225000", "162634.225000", "162636.225000", "162638.225000", "162640.225000", "162642.225000", "162644.225000", "162646.225000", "162648.225000", "162650.225000", "162652.225000", "162654.225000", "162656.225000", "162658.225000", "162700.225000", "162702.225000", "162704.225000", "162706.225000", "162708.225000", "162710.225000", "162712.225000", "162714.225000", "162716.225000", "162718.225000", "162720.225000", "162722.225000", "162724.225000", "162726.225000"],
      "ContentTime": ["161858.838000", "161900.333000", "161902.333000", "161904.333000", "161906.333000", "161908.333000", "161910.333000", "161912.332000", "161914.332000", "161916.334000", "161918.333000", "161920.333000", "161922.333000", "161924.334000", "161926.332000", "161928.333000", "161930.333000", "161932.333000", "161934.334000", "161936.354000", "161938.334000", "161940.334000", "161942.334000", "161944.333000", "161946.333000", "161948.333000", "161950.332000", "161952.333000", "161954.334000", "161956.334000", "161958.334000", "162000.333000", "162002.333000", "162004.333000", "162006.332000", "162008.333000", "162010.334000", "162012.334000", "162014.334000", "162016.334000", "162018.332000", "162020.333000", "162022.333000", "162024.333000", "162026.334000", "162028.333000", "162030.334000", "162032.333000", "162034.334000", "162036.333000", "162038.332000", "162040.332000", "162042.332000", "162044.334000", "162046.334000", "162048.334000", "162050.334000", "162052.334000", "162054.332000", "162056.333000", "162058.333000", "162100.332000", "162102.333000", "162104.334000", "162106.334000", "162108.334000", "162110.333000", "162112.333000", "162114.333000", "162116.333000", "162118.333000", "162120.334000", "162122.334000", "162124.333000", "162126.333000", "162128.332000", "162130.332000", "162132.332000", "162134.332000", "162136.333000", "162138.333000", "162140.333000", "162142.334000", "162144.333000", "162146.333000", "162148.333000", "162150.333000", "162152.333000", "162154.334000", "162156.354000", "162158.334000", "162200.333000", "162202.334000", "162204.333000", "162206.333000", "162208.332000", "162210.334000", "162212.334000", "162214.333000", "162216.334000", "162218.334000", "162220.333000", "162222.333000", "162224.333000", "162226.332000", "162228.334000", "162230.334000", "162232.333000", "162234.333000", "162236.333000", "162238.333000", "162240.333000", "162242.333000", "162244.333000", "162246.334000", "162248.334000", "162250.333000", "162252.334000", "162254.334000", "162256.333000", "162258.333000", "162300.332000", "162302.332000", "162304.334000", "162306.334000", "162308.333000", "162310.333000", "162312.333000", "162314.332000", "162316.333000", "162318.333000", "162320.334000", "162322.334000", "162324.334000", "162326.333000", "162328.333000", "162330.334000", "162332.333000", "162334.333000", "162336.333000", "162338.333000", "162340.333000", "162342.334000", "162344.334000", "162346.333000", "162348.333000", "162350.332000", "162352.333000", "162354.333000", "162356.333000", "162358.334000", "162400.334000", "162402.333000", "162404.333000", "162406.332000", "162408.333000", "162410.333000", "162412.333000", "162414.333000", "162416.333000", "162418.334000", "162420.334000", "162422.333000", "162424.333000", "162426.333000", "162428.332000", "162430.334000", "162432.334000", "162434.334000", "162436.334000", "162438.334000", "162440.333000", "162442.332000", "162444.332000", "162446.332000", "162448.333000", "162450.333000", "162452.333000", "162454.333000", "162456.333000", "162458.332000", "162500.333000", "162502.333000", "162504.333000", "162506.334000", "162508.333000", "162510.334000", "162512.334000", "162514.334000", "162516.333000", "162518.333000", "162520.333000", "162522.333000", "162524.334000", "162526.334000", "162528.333000", "162530.334000", "162532.334000", "162534.333000", "162536.333000", "162538.333000", "162540.334000", "162542.333000", "162544.334000", "162546.334000", "162548.334000", "162550.333000", "162552.333000", "162554.332000", "162556.333000", "162558.333000", "162600.334000", "162602.334000", "162604.334000", "162606.333000", "162608.332000", "162610.333000", "162612.332000", "162614.333000", "162616.334000", "162618.352000", "162620.333000", "162622.333000", "162624.333000", "162626.332000", "162628.333000", "162630.333000", "162632.332000", "162634.353000", "162636.334000", "162638.334000", "162640.334000", "162642.334000", "162644.333000", "162646.333000", "162648.333000", "162650.334000", "162652.334000", "162654.333000", "162656.334000", "162658.333000", "162700.333000", "162702.332000", "162704.333000", "162706.333000", "162708.334000", "162710.333000", "162712.334000", "162714.334000", "162716.334000", "162718.333000", "162720.333000", "162722.332000", "162724.332000", "162726.333000", "162728.021000"],
      "InstanceCreationTime": ["161858.838000", "161900.333000", "161902.333000", "161904.333000", "161906.333000", "161908.333000", "161910.333000", "161912.332000", "161914.332000", "161916.334000", "161918.333000", "161920.333000", "161922.333000", "161924.334000", "161926.332000", "161928.333000", "161930.333000", "161932.333000", "161934.334000", "161936.354000", "161938.334000", "161940.334000", "161942.334000", "161944.333000", "161946.333000", "161948.333000", "161950.332000", "161952.333000", "161954.334000", "161956.334000", "161958.334000", "162000.333000", "162002.333000", "162004.333000", "162006.332000", "162008.333000", "162010.334000", "162012.334000", "162014.334000", "162016.334000", "162018.332000", "162020.333000", "162022.333000", "162024.333000", "162026.334000", "162028.333000", "162030.334000", "162032.333000", "162034.334000", "162036.333000", "162038.332000", "162040.332000", "162042.332000", "162044.334000", "162046.334000", "162048.334000", "162050.334000", "162052.334000", "162054.332000", "162056.333000", "162058.333000", "162100.332000", "162102.333000", "162104.334000", "162106.334000", "162108.334000", "162110.333000", "162112.333000", "162114.333000", "162116.333000", "162118.333000", "162120.334000", "162122.334000", "162124.333000", "162126.333000", "162128.332000", "162130.332000", "162132.332000", "162134.332000", "162136.333000", "162138.333000", "162140.333000", "162142.334000", "162144.333000", "162146.333000", "162148.333000", "162150.333000", "162152.333000", "162154.334000", "162156.354000", "162158.334000", "162200.333000", "162202.334000", "162204.333000", "162206.333000", "162208.332000", "162210.334000", "162212.334000", "162214.333000", "162216.334000", "162218.334000", "162220.333000", "162222.333000", "162224.333000", "162226.332000", "162228.334000", "162230.334000", "162232.333000", "162234.333000", "162236.333000", "162238.333000", "162240.333000", "162242.333000", "162244.333000", "162246.334000", "162248.334000", "162250.333000", "162252.334000", "162254.334000", "162256.333000", "162258.333000", "162300.332000", "162302.332000", "162304.334000", "162306.334000", "162308.333000", "162310.333000", "162312.333000", "162314.332000", "162316.333000", "162318.333000", "162320.334000", "162322.334000", "162324.334000", "162326.333000", "162328.333000", "162330.334000", "162332.333000", "162334.333000", "162336.333000", "162338.333000", "162340.333000", "162342.334000", "162344.334000", "162346.333000", "162348.333000", "162350.332000", "162352.333000", "162354.333000", "162356.333000", "162358.334000", "162400.334000", "162402.333000", "162404.333000", "162406.332000", "162408.333000", "162410.333000", "162412.333000", "162414.333000", "162416.333000", "162418.334000", "162420.334000", "162422.333000", "162424.333000", "162426.333000", "162428.332000", "162430.334000", "162432.334000", "162434.334000", "162436.334000", "162438.334000", "162440.333000", "162442.332000", "162444.332000", "162446.332000", "162448.333000", "162450.333000", "162452.333000", "162454.333000", "162456.333000", "162458.332000", "162500.333000", "162502.333000", "162504.333000", "162506.334000", "162508.333000", "162510.334000", "162512.334000", "162514.334000", "162516.333000", "162518.333000", "162520.333000", "162522.333000", "162524.334000", "162526.334000", "162528.333000", "162530.334000", "162532.334000", "162534.333000", "162536.333000", "162538.333000", "162540.334000", "162542.333000", "162544.334000", "162546.334000", "162548.334000", "162550.333000", "162552.333000", "162554.332000", "162556.333000", "162558.333000", "162600.334000", "162602.334000", "162604.334000", "162606.333000", "162608.332000", "162610.333000", "162612.332000", "162614.333000", "162616.334000", "162618.352000", "162620.333000", "162622.333000", "162624.333000", "162626.332000", "162628.333000", "162630.333000", "162632.332000", "162634.353000", "162636.334000", "162638.334000", "162640.334000", "162642.334000", "162644.333000", "162646.333000", "162648.333000", "162650.334000", "162652.334000", "162654.333000", "162656.334000", "162658.333000", "162700.333000", "162702.332000", "162704.333000", "162706.333000", "162708.334000", "162710.333000", "162712.334000", "162714.334000", "162716.334000", "162718.333000", "162720.333000", "162722.332000", "162724.332000", "162726.333000", "162728.021000"],
      "InstanceNumber": [1, 2, 3, 4, 5, 6, 7, 8, 9, 10, 11, 12, 13, 14, 15, 16, 17, 18, 19, 20, 21, 22, 23, 24, 25, 26, 27, 28, 29, 30, 31, 32, 33, 34, 35, 36, 37, 38, 39, 40, 41, 42, 43, 44, 45, 46, 47, 48, 49, 50, 51, 52, 53, 54, 55, 56, 57, 58, 59, 60, 61, 62, 63, 64, 65, 66, 67, 68, 69, 70, 71, 72, 73, 74, 75, 76, 77, 78, 79, 80, 81, 82, 83, 84, 85, 86, 87, 88, 89, 90, 91, 92, 93, 94, 95, 96, 97, 98, 99, 100, 101, 102, 103, 104, 105, 106, 107, 108, 109, 110, 111, 112, 113, 114, 115, 116, 117, 118, 119, 120, 121, 122, 123, 124, 125, 126, 127, 128, 129, 130, 131, 132, 133, 134, 135, 136, 137, 138, 139, 140, 141, 142, 143, 144, 145, 146, 147, 148, 149, 150, 151, 152, 153, 154, 155, 156, 157, 158, 159, 160, 161, 162, 163, 164, 165, 166, 167, 168, 169, 170, 171, 172, 173, 174, 175, 176, 177, 178, 179, 180, 181, 182, 183, 184, 185, 186, 187, 188, 189, 190, 191, 192, 193, 194, 195, 196, 197, 198, 199, 200, 201, 202, 203, 204, 205, 206, 207, 208, 209, 210, 211, 212, 213, 214, 215, 216, 217, 218, 219, 220, 221, 222, 223, 224, 225, 226, 227, 228, 229, 230, 231, 232, 233, 234, 235, 236, 237, 238, 239, 240, 241, 242, 243, 244, 245, 246, 247, 248, 249, 250, 251, 252, 253, 254, 255, 256],
      "LargestImagePixelValue": [3784, 3764, 3809, 3779, 3758, 3760, 3781, 3754, 3721, 3683, 3714, 3727, 3741, 3778, 3766, 3790, 3757, 3791, 3741, 3741, 3755, 3746, 3729, 3756, 3764, 3729, 3762, 3738, 3760, 3782, 3786, 3755, 3758, 3754, 3773, 3783, 3779, 3761, 3732, 3757, 3755, 3778, 3835, 3754, 3756, 3781, 3761, 3776, 3797, 3780, 3777, 3773, 3770, 3775, 3776, 3792, 3795, 3775, 3747, 3784, 3794, 3786, 3792, 3776, 3742, 3795, 3771, 3762, 3781, 3767, 3789, 3781, 3751, 3790, 3756, 3743, 3748, 3762, 3770, 3752, 3758, 3745, 3745, 3760, 3775, 3804, 3765, 3729, 3819, 3748, 3736, 3772, 3780, 3770, 3762, 3748, 3727, 3726, 3730, 3721, 3714, 3713, 3695, 3722, 3704, 3735, 3713, 3720, 3684, 3651, 3673, 3724, 3702, 3719, 3652, 3659, 3671, 3695, 3821, 3687, 3646, 3678, 3767, 3876, 3834, 3649, 3653, 3648, 3652, 3681, 3792, 3851, 3823, 3752, 3727, 3691, 3677, 3689, 3747, 3715, 3911, 3895, 3732, 3764, 3812, 3860, 3780, 3755, 3752, 3731, 3757, 3768, 3773, 3757, 3727, 3722, 3762, 3753, 3736, 3781, 3805, 3757, 3890, 3790, 3761, 3753, 3796, 3783, 3799, 3778, 3776, 3757, 3782, 3875, 3875, 3779, 3760, 3778, 3812, 3924, 3875, 3766, 3827, 3823, 3767, 3904, 4011, 3890, 3786, 3801, 3845, 3850, 3924, 3757, 3830, 3705, 3817, 3696, 3708, 3676, 3681, 3937, 3716, 3816, 3701, 3781, 3665, 3700, 3678, 3707, 3736, 3675, 3693, 3687, 3668, 3688, 3721, 3843, 3868, 3716, 3674, 3666, 3677, 3781, 3707, 3685, 3875, 3784, 3662, 3675, 3857, 3770, 3656, 3655, 3684, 3806, 3898, 3876, 3672, 3662, 3811, 3681, 3665, 3741, 3679, 3680, 3856, 3812, 3886, 3900, 3789, 3686, 3688, 3727, 3661, 3728],
      "WindowCenter": [819.0, 818.0, 817.0, 816.0, 817.0, 818.0, 819.0, 820.0, 819.0, 816.0, 818.0, 819.0, 821.0, 821.0, 820.0, 819.0, 820.0, 820.0, 820.0, 819.0, 819.0, 818.0, 818.0, 819.0, 820.0, 819.0, 819.0, 819.0, 819.0, 819.0, 819.0, 819.0, 819.0, 818.0, 819.0, 819.0, 820.0, 819.0, 818.0, 818.0, 818.0, 818.0, 818.0, 817.0, 818.0, 819.0, 819.0, 818.0, 819.0, 819.0, 818.0, 817.0, 817.0, 818.0, 819.0, 818.0, 818.0, 820.0, 821.0, 819.0, 817.0, 817.0, 818.0, 817.0, 816.0, 816.0, 816.0, 817.0, 817.0, 817.0, 818.0, 819.0, 820.0, 820.0, 820.0, 819.0, 819.0, 819.0, 819.0, 819.0, 818.0, 819.0, 821.0, 819.0, 817.0, 815.0, 816.0, 817.0, 819.0, 816.0, 817.0, 817.0, 816.0, 815.0, 817.0, 818.0, 818.0, 818.0, 817.0, 817.0, 818.0, 818.0, 817.0, 817.0, 817.0, 816.0, 818.0, 818.0, 818.0, 817.0, 815.0, 816.0, 816.0, 817.0, 817.0, 816.0, 816.0, 817.0, 819.0, 819.0, 819.0, 820.0, 821.0, 822.0, 820.0, 818.0, 818.0, 816.0, 816.0, 816.0, 818.0, 819.0, 817.0, 817.0, 819.0, 819.0, 819.0, 818.0, 819.0, 818.0, 820.0, 818.0, 816.0, 816.0, 818.0, 818.0, 817.0, 817.0, 818.0, 819.0, 818.0, 818.0, 818.0, 819.0, 820.0, 820.0, 819.0, 817.0, 817.0, 818.0, 818.0, 817.0, 819.0, 819.0, 819.0, 818.0, 817.0, 817.0, 817.0, 818.0, 820.0, 819.0, 818.0, 818.0, 818.0, 818.0, 818.0, 819.0, 819.0, 820.0, 819.0, 818.0, 818.0, 818.0, 818.0, 819.0, 820.0, 819.0, 819.0, 819.0, 819.0, 818.0, 819.0, 818.0, 819.0, 819.0, 819.0, 817.0, 818.0, 818.0, 819.0, 821.0, 820.0, 820.0, 820.0, 822.0, 820.0, 818.0, 818.0, 819.0, 821.0, 819.0, 817.0, 817.0, 818.0, 816.0, 816.0, 817.0, 820.0, 820.0, 822.0, 821.0, 819.0, 818.0, 817.0, 817.0, 820.0, 821.0, 822.0, 822.0, 823.0, 820.0, 818.0, 818.0, 819.0, 821.0, 822.0, 821.0, 819.0, 818.0, 819.0, 818.0, 818.0, 818.0, 817.0, 817.0, 818.0, 816.0, 817.0, 818.0, 819.0, 819.0, 820.0, 819.0, 817.0, 817.0],
      "WindowWidth": [1771.0, 1767.0, 1765.0, 1763.0, 1767.0, 1769.0, 1771.0, 1773.0, 1772.0, 1764.0, 1767.0, 1770.0, 1775.0, 1776.0, 1772.0, 1771.0, 1772.0, 1773.0, 1772.0, 1770.0, 1770.0, 1767.0, 1768.0, 1771.0, 1773.0, 1772.0, 1771.0, 1771.0, 1770.0, 1770.0, 1772.0, 1773.0, 1770.0, 1768.0, 1771.0, 1773.0, 1774.0, 1772.0, 1771.0, 1770.0, 1770.0, 1769.0, 1769.0, 1767.0, 1770.0, 1772.0, 1772.0, 1770.0, 1771.0, 1772.0, 1770.0, 1766.0, 1767.0, 1768.0, 1772.0, 1771.0, 1769.0, 1774.0, 1777.0, 1772.0, 1769.0, 1767.0, 1769.0, 1768.0, 1764.0, 1763.0, 1764.0, 1766.0, 1767.0, 1767.0, 1769.0, 1774.0, 1776.0, 1777.0, 1775.0, 1772.0, 1772.0, 1772.0, 1773.0, 1772.0, 1770.0, 1773.0, 1778.0, 1772.0, 1766.0, 1762.0, 1765.0, 1767.0, 1771.0, 1764.0, 1766.0, 1767.0, 1764.0, 1761.0, 1766.0, 1769.0, 1769.0, 1768.0, 1766.0, 1765.0, 1768.0, 1768.0, 1765.0, 1765.0, 1766.0, 1764.0, 1769.0, 1770.0, 1769.0, 1766.0, 1762.0, 1763.0, 1764.0, 1766.0, 1765.0, 1762.0, 1765.0, 1766.0, 1772.0, 1770.0, 1771.0, 1775.0, 1778.0, 1779.0, 1775.0, 1768.0, 1767.0, 1764.0, 1764.0, 1763.0, 1768.0, 1771.0, 1768.0, 1766.0, 1771.0, 1773.0, 1771.0, 1769.0, 1772.0, 1771.0, 1774.0, 1770.0, 1764.0, 1765.0, 1770.0, 1770.0, 1765.0, 1767.0, 1770.0, 1771.0, 1771.0, 1769.0, 1771.0, 1772.0, 1775.0, 1775.0, 1772.0, 1767.0, 1768.0, 1769.0, 1769.0, 1767.0, 1771.0, 1772.0, 1773.0, 1769.0, 1767.0, 1766.0, 1767.0, 1768.0, 1773.0, 1772.0, 1768.0, 1770.0, 1770.0, 1768.0, 1768.0, 1771.0, 1772.0, 1774.0, 1772.0, 1768.0, 1769.0, 1768.0, 1768.0, 1773.0, 1774.0, 1773.0, 1771.0, 1772.0, 1771.0, 1770.0, 1773.0, 1769.0, 1772.0, 1771.0, 1770.0, 1766.0, 1766.0, 1767.0, 1769.0, 1774.0, 1771.0, 1773.0, 1773.0, 1777.0, 1773.0, 1767.0, 1766.0, 1771.0, 1774.0, 1770.0, 1766.0, 1765.0, 1766.0, 1762.0, 1762.0, 1766.0, 1772.0, 1775.0, 1779.0, 1776.0, 1769.0, 1768.0, 1766.0, 1766.0, 1774.0, 1777.0, 1778.0, 1780.0, 1781.0, 1773.0, 1768.0, 1767.0, 1770.0, 1777.0, 1780.0, 1777.0, 1771.0, 1769.0, 1772.0, 1769.0, 1768.0, 1768.0, 1767.0, 1766.0, 1768.0, 1763.0, 1765.0, 1768.0, 1770.0, 1771.0, 1773.0, 1771.0, 1765.0, 1766.0]
    },
    "slices": {}
  }
}