{
 "AcquisitionMatrixPE": 100,
 "AcquisitionNumber": 1,
 "AcquisitionTime": "16:28:32.315000",
 "BandwidthPerPixelPhaseEncode": 18.519,
 "BaseResolution": 100,
 "BodyPartExamined": "BRAIN",
 "ConsistencyInfo": "N4_VE11C_LATEST_20160120",
 "ConversionSoftware": "dcm2niix",
 "ConversionSoftwareVersion": "v1.0.20180622 GCC4.9.2",
 "DerivedVendorReportedEchoSpacing": 0.000539986,
 "DeviceSerialNumber": "166078",
 "DwellTime": 2.1e-06,
 "EchoTime": 0.034,
 "EchoTrainLength": 100,
 "EffectiveEchoSpacing": 0.000539986,
 "FlipAngle": 90,
 "ImageOrientationPatientDICOM": [
  1,
  0,
  0,
  0,
  0.966823,
  -0.255446
 ],
 "ImageType": [
  "ORIGINAL",
  "PRIMARY",
  "M",
  "ND",
  "MOSAIC"
 ],
 "InPlanePhaseEncodingDirectionDICOM": "COL",
 "InstitutionAddress": "Street_StreetNo_Bei_Jing_District_CN_ZIP",
 "InstitutionName": "BeiJing_Normal_University",
 "InstitutionalDepartmentName": "Department",
 "MRAcquisitionType": "2D",
 "MagneticFieldStrength": 3,
 "Manufacturer": "Siemens",
 "ManufacturersModelName": "Prisma",
 "Modality": "MR",
 "MultibandAccelerationFactor": 3,
 "PartialFourier": 1,
 "PatientPosition": "HFS",
 "PercentPhaseFOV": 100,
 "PhaseEncodingDirection": "j-",
 "PhaseEncodingSteps": 100,
 "PhaseResolution": 1,
 "PixelBandwidth": 2380,
 "ProcedureStepDescription": "BNU_P2018_64CH_Zhen.ZongLei",
 "ProtocolName": "bold_100x100_s3_2x2x2_static_256",
 "PulseSequenceDetails": "%SiemensSeq%_ep2d_bold",
 "ReceiveCoilActiveElements": "HC1-7;NC1",
 "ReceiveCoilName": "HeadNeck_64",
 "ReconMatrixPE": 100,
 "RepetitionTime": 2,
 "SAR": 0.0860847,
 "ScanOptions": "FS",
 "ScanningSequence": "EP",
 "SequenceName": "_epfid2d1_100",
 "SequenceVariant": "SK",
 "SeriesDescription": "bold_100x100_s3_2x2x2_static_256",
 "SeriesNumber": 14,
 "ShimSetting": [
  -5471,
  -11503,
  -1236,
  217,
  -150,
  -424,
  -93,
  13
 ],
 "SliceThickness": 2,
 "SliceTiming": [
  1.485,
  0,
  0.99,
  0.0825,
  1.0725,
  0.165,
  1.155,
  0.2475,
  1.2375,
  0.33,
  1.32,
  0.4125,
  1.4025,
  0.5775,
  1.5675,
  0.66,
  1.65,
  0.7425,
  1.7325,
  0.825,
  1.815,
  0.9075,
  1.8975,
  0.495,
  1.485,
  0,
  0.99,
  0.0825,
  1.0725,
  0.165,
  1.155,
  0.2475,
  1.2375,
  0.33,
  1.32,
  0.4125,
  1.4025,
  0.5775,
  1.5675,
  0.66,
  1.65,
  0.7425,
  1.7325,
  0.825,
  1.815,
  0.9075,
  1.8975,
  0.495,
  1.485,
  0,
  0.99,
  0.0825,
  1.0725,
  0.165,
  1.155,
  0.2475,
  1.2375,
  0.33,
  1.32,
  0.4125,
  1.4025,
  0.5775,
  1.5675,
  0.66,
  1.65,
  0.7425,
  1.7325,
  0.825,
  1.815,
  0.9075,
  1.8975,
  0.495
 ],
 "SoftwareVersions": "syngo_MR_E11",
 "SpacingBetweenSlices": 2,
 "StationName": "AWP166078",
 "TaskName": "imagenet",
 "TotalReadoutTime": 0.0534586,
 "TxRefAmp": 247.435,
 "dcmmeta_affine": [
  [
   -2.0,
   0.0,
   0.0,
   102.03389739990234
  ],
  [
   0.0,
   1.93364679813385,
   -0.5108914971351624,
   -74.67015838623047
  ],
  [
   0.0,
   0.5108914971351624,
   1.9336466789245605,
   -95.6539306640625
  ],
  [
   0.0,
   0.0,
   0.0,
   1.0
  ]
 ],
 "dcmmeta_reorient_transform": [
  [
   0.0,
   -1.0,
   0.0,
   99.0
  ],
  [
   1.0,
   0.0,
   0.0,
   0.0
  ],
  [
   0.0,
   0.0,
   1.0,
   0.0
  ],
  [
   0.0,
   0.0,
   0.0,
   1.0
  ]
 ],
 "dcmmeta_shape": [
  100,
  100,
  72,
  256
 ],
 "dcmmeta_slice_dim": 2,
 "dcmmeta_version": 0.6,
 "global": {
  "const": {
   "AcquisitionMatrix": [
    100,
    0,
    0,
    100
   ],
   "AngioFlag": "N",
   "BitsAllocated": 16,
   "BitsStored": 12,
   "BodyPartExamined": "BRAIN",
   "Columns": 900,
   "EchoNumbers": 1,
   "EchoTime": 34.0,
   "EchoTrainLength": 100,
   "FlipAngle": 90.0,
   "HighBit": 11,
   "ImageOrientationPatient": [
    1.0,
    0.0,
    0.0,
    0.0,
    0.96682339000573,
    -0.2554457526322
   ],
   "ImagePositionPatient": [
    -902.03389835358,
    -890.21958799246,
    159.28093048175
   ],
   "ImageType": [
    "ORIGINAL",
    "PRIMARY",
    "M",
    "ND",
    "MOSAIC"
   ],
   "ImagedNucleus": "1H",
   "ImagingFrequency": 123.257735,
   "InPlanePhaseEncodingDirection": "COL",
   "MRAcquisitionType": "2D",
   "MagneticFieldStrength": 3.0,
   "Manufacturer": "SIEMENS",
   "ManufacturerModelName": "Prisma",
   "Modality": "MR",
   "NumberOfAverages": 1.0,
   "NumberOfPhaseEncodingSteps": 100,
   "PercentPhaseFieldOfView": 100.0,
   "PercentSampling": 100.0,
   "PerformedProcedureStepStartTime": "145716.168000",
   "PhotometricInterpretation": "MONOCHROME2",
   "PixelBandwidth": 2380.0,
   "PixelRepresentation": 0,
   "PixelSpacing": [
    2.0,
    2.0
   ],
   "ProtocolName": "bold_100x100_s3_2x2x2_static_256",
   "RepetitionTime": 2000.0,
   "Rows": 900,
   "SAR": 0.08608472486551,
   "SamplesPerPixel": 1,
   "ScanOptions": "FS",
   "ScanningSequence": "EP",
   "SequenceName": "*epfid2d1_100",
   "SequenceVariant": "SK",
   "SeriesDescription": "bold_100x100_s3_2x2x2_static_256",
   "SeriesNumber": 14,
   "SeriesTime": "162834.935000",
   "SliceLocation": -73.406283491006,
   "SliceThickness": 2.0,
   "SmallestImagePixelValue": 0,
   "SoftwareVersions": "syngo MR E11",
   "SpacingBetweenSlices": 1.9999999458571,
   "SpecificCharacterSet": "ISO_IR 100",
   "StudyID": "1",
   "StudyTime": "145716.108000",
   "TransmitCoilName": "Body",
   "VariableFlipAngleFlag": "N",
   "WindowCenterWidthExplanation": "Algo1",
   "dBdt": 0.0
  },
  "slices": {}
 },
 "time": {
  "samples": {
   "AcquisitionNumber": [
    1,
    2,
    3,
    4,
    5,
    6,
    7,
    8,
    9,
    10,
    11,
    12,
    13,
    14,
    15,
    16,
    17,
    18,
    19,
    20,
    21,
    22,
    23,
    24,
    25,
    26,
    27,
    28,
    29,
    30,
    31,
    32,
    33,
    34,
    35,
    36,
    37,
    38,
    39,
    40,
    41,
    42,
    43,
    44,
    45,
    46,
    47,
    48,
    49,
    50,
    51,
    52,
    53,
    54,
    55,
    56,
    57,
    58,
    59,
    60,
    61,
    62,
    63,
    64,
    65,
    66,
    67,
    68,
    69,
    70,
    71,
    72,
    73,
    74,
    75,
    76,
    77,
    78,
    79,
    80,
    81,
    82,
    83,
    84,
    85,
    86,
    87,
    88,
    89,
    90,
    91,
    92,
    93,
    94,
    95,
    96,
    97,
    98,
    99,
    100,
    101,
    102,
    103,
    104,
    105,
    106,
    107,
    108,
    109,
    110,
    111,
    112,
    113,
    114,
    115,
    116,
    117,
    118,
    119,
    120,
    121,
    122,
    123,
    124,
    125,
    126,
    127,
    128,
    129,
    130,
    131,
    132,
    133,
    134,
    135,
    136,
    137,
    138,
    139,
    140,
    141,
    142,
    143,
    144,
    145,
    146,
    147,
    148,
    149,
    150,
    151,
    152,
    153,
    154,
    155,
    156,
    157,
    158,
    159,
    160,
    161,
    162,
    163,
    164,
    165,
    166,
    167,
    168,
    169,
    170,
    171,
    172,
    173,
    174,
    175,
    176,
    177,
    178,
    179,
    180,
    181,
    182,
    183,
    184,
    185,
    186,
    187,
    188,
    189,
    190,
    191,
    192,
    193,
    194,
    195,
    196,
    197,
    198,
    199,
    200,
    201,
    202,
    203,
    204,
    205,
    206,
    207,
    208,
    209,
    210,
    211,
    212,
    213,
    214,
    215,
    216,
    217,
    218,
    219,
    220,
    221,
    222,
    223,
    224,
    225,
    226,
    227,
    228,
    229,
    230,
    231,
    232,
    233,
    234,
    235,
    236,
    237,
    238,
    239,
    240,
    241,
    242,
    243,
    244,
    245,
    246,
    247,
    248,
    249,
    250,
    251,
    252,
    253,
    254,
    255,
    256
   ],
   "AcquisitionTime": [
    "162832.315000",
    "162834.315000",
    "162836.315000",
    "162838.315000",
    "162840.315000",
    "162842.315000",
    "162844.315000",
    "162846.315000",
    "162848.315000",
    "162850.315000",
    "162852.315000",
    "162854.315000",
    "162856.315000",
    "162858.315000",
    "162900.315000",
    "162902.315000",
    "162904.315000",
    "162906.315000",
    "162908.315000",
    "162910.315000",
    "162912.315000",
    "162914.315000",
    "162916.315000",
    "162918.315000",
    "162920.315000",
    "162922.315000",
    "162924.315000",
    "162926.315000",
    "162928.315000",
    "162930.315000",
    "162932.315000",
    "162934.315000",
    "162936.315000",
    "162938.315000",
    "162940.315000",
    "162942.315000",
    "162944.315000",
    "162946.315000",
    "162948.315000",
    "162950.315000",
    "162952.315000",
    "162954.315000",
    "162956.315000",
    "162958.315000",
    "163000.315000",
    "163002.315000",
    "163004.315000",
    "163006.315000",
    "163008.315000",
    "163010.315000",
    "163012.315000",
    "163014.315000",
    "163016.315000",
    "163018.315000",
    "163020.315000",
    "163022.315000",
    "163024.315000",
    "163026.315000",
    "163028.315000",
    "163030.315000",
    "163032.315000",
    "163034.315000",
    "163036.315000",
    "163038.315000",
    "163040.315000",
    "163042.315000",
    "163044.315000",
    "163046.315000",
    "163048.315000",
    "163050.315000",
    "163052.315000",
    "163054.315000",
    "163056.315000",
    "163058.315000",
    "163100.315000",
    "163102.315000",
    "163104.315000",
    "163106.315000",
    "163108.315000",
    "163110.315000",
    "163112.315000",
    "163114.315000",
    "163116.315000",
    "163118.315000",
    "163120.315000",
    "163122.315000",
    "163124.315000",
    "163126.315000",
    "163128.315000",
    "163130.315000",
    "163132.315000",
    "163134.315000",
    "163136.315000",
    "163138.315000",
    "163140.315000",
    "163142.315000",
    "163144.315000",
    "163146.315000",
    "163148.315000",
    "163150.315000",
    "163152.315000",
    "163154.315000",
    "163156.315000",
    "163158.315000",
    "163200.315000",
    "163202.315000",
    "163204.315000",
    "163206.315000",
    "163208.315000",
    "163210.315000",
    "163212.315000",
    "163214.315000",
    "163216.315000",
    "163218.315000",
    "163220.315000",
    "163222.315000",
    "163224.315000",
    "163226.315000",
    "163228.315000",
    "163230.315000",
    "163232.315000",
    "163234.315000",
    "163236.315000",
    "163238.315000",
    "163240.315000",
    "163242.315000",
    "163244.315000",
    "163246.315000",
    "163248.315000",
    "163250.315000",
    "163252.315000",
    "163254.315000",
    "163256.315000",
    "163258.315000",
    "163300.315000",
    "163302.315000",
    "163304.315000",
    "163306.315000",
    "163308.315000",
    "163310.315000",
    "163312.315000",
    "163314.315000",
    "163316.315000",
    "163318.315000",
    "163320.315000",
    "163322.315000",
    "163324.315000",
    "163326.315000",
    "163328.315000",
    "163330.315000",
    "163332.315000",
    "163334.315000",
    "163336.315000",
    "163338.315000",
    "163340.315000",
    "163342.315000",
    "163344.315000",
    "163346.315000",
    "163348.315000",
    "163350.315000",
    "163352.315000",
    "163354.315000",
    "163356.315000",
    "163358.315000",
    "163400.315000",
    "163402.315000",
    "163404.315000",
    "163406.315000",
    "163408.315000",
    "163410.315000",
    "163412.315000",
    "163414.315000",
    "163416.315000",
    "163418.315000",
    "163420.315000",
    "163422.315000",
    "163424.315000",
    "163426.315000",
    "163428.315000",
    "163430.315000",
    "163432.315000",
    "163434.315000",
    "163436.315000",
    "163438.315000",
    "163440.315000",
    "163442.315000",
    "163444.315000",
    "163446.315000",
    "163448.315000",
    "163450.315000",
    "163452.315000",
    "163454.315000",
    "163456.315000",
    "163458.315000",
    "163500.315000",
    "163502.315000",
    "163504.315000",
    "163506.315000",
    "163508.315000",
    "163510.315000",
    "163512.315000",
    "163514.315000",
    "163516.315000",
    "163518.315000",
    "163520.315000",
    "163522.315000",
    "163524.315000",
    "163526.315000",
    "163528.315000",
    "163530.315000",
    "163532.315000",
    "163534.315000",
    "163536.315000",
    "163538.315000",
    "163540.315000",
    "163542.315000",
    "163544.315000",
    "163546.315000",
    "163548.315000",
    "163550.315000",
    "163552.315000",
    "163554.315000",
    "163556.315000",
    "163558.315000",
    "163600.315000",
    "163602.315000",
    "163604.315000",
    "163606.315000",
    "163608.315000",
    "163610.315000",
    "163612.315000",
    "163614.315000",
    "163616.315000",
    "163618.315000",
    "163620.315000",
    "163622.315000",
    "163624.315000",
    "163626.315000",
    "163628.315000",
    "163630.315000",
    "163632.315000",
    "163634.315000",
    "163636.315000",
    "163638.315000",
    "163640.315000",
    "163642.315000",
    "163644.315000",
    "163646.315000",
    "163648.315000",
    "163650.315000",
    "163652.315000",
    "163654.315000",
    "163656.315000",
    "163658.315000",
    "163700.315000",
    "163702.315000"
   ],
   "ContentTime": [
    "162834.939000",
    "162836.436000",
    "162838.436000",
    "162840.435000",
    "162842.434000",
    "162844.434000",
    "162846.434000",
    "162848.434000",
    "162850.435000",
    "162852.435000",
    "162854.436000",
    "162856.436000",
    "162858.434000",
    "162900.435000",
    "162902.434000",
    "162904.435000",
    "162906.434000",
    "162908.434000",
    "162910.435000",
    "162912.436000",
    "162914.436000",
    "162916.434000",
    "162918.434000",
    "162920.434000",
    "162922.434000",
    "162924.434000",
    "162926.434000",
    "162928.435000",
    "162930.435000",
    "162932.434000",
    "162934.435000",
    "162936.434000",
    "162938.435000",
    "162940.434000",
    "162942.435000",
    "162944.434000",
    "162946.435000",
    "162948.435000",
    "162950.435000",
    "162952.435000",
    "162954.434000",
    "162956.434000",
    "162958.435000",
    "163000.434000",
    "163002.436000",
    "163004.436000",
    "163006.436000",
    "163008.435000",
    "163010.434000",
    "163012.434000",
    "163014.434000",
    "163016.434000",
    "163018.434000",
    "163020.435000",
    "163022.435000",
    "163024.435000",
    "163026.435000",
    "163028.434000",
    "163030.434000",
    "163032.434000",
    "163034.435000",
    "163036.435000",
    "163038.435000",
    "163040.435000",
    "163042.434000",
    "163044.434000",
    "163046.435000",
    "163048.434000",
    "163050.434000",
    "163052.434000",
    "163054.434000",
    "163056.436000",
    "163058.436000",
    "163100.434000",
    "163102.434000",
    "163104.434000",
    "163106.435000",
    "163108.435000",
    "163110.434000",
    "163112.436000",
    "163114.435000",
    "163116.435000",
    "163118.434000",
    "163120.434000",
    "163122.435000",
    "163124.434000",
    "163126.435000",
    "163128.434000",
    "163130.435000",
    "163132.435000",
    "163134.435000",
    "163136.435000",
    "163138.435000",
    "163140.434000",
    "163142.435000",
    "163144.434000",
    "163146.435000",
    "163148.435000",
    "163150.436000",
    "163152.434000",
    "163154.434000",
    "163156.434000",
    "163158.435000",
    "163200.434000",
    "163202.434000",
    "163204.435000",
    "163206.435000",
    "163208.435000",
    "163210.434000",
    "163212.435000",
    "163214.435000",
    "163216.434000",
    "163218.434000",
    "163220.435000",
    "163222.435000",
    "163224.436000",
    "163226.435000",
    "163228.435000",
    "163230.435000",
    "163232.434000",
    "163234.434000",
    "163236.435000",
    "163238.435000",
    "163240.435000",
    "163242.436000",
    "163244.435000",
    "163246.435000",
    "163248.435000",
    "163250.434000",
    "163252.434000",
    "163254.434000",
    "163256.435000",
    "163258.436000",
    "163300.436000",
    "163302.435000",
    "163304.435000",
    "163306.434000",
    "163308.434000",
    "163310.435000",
    "163312.435000",
    "163314.435000",
    "163316.436000",
    "163318.435000",
    "163320.435000",
    "163322.435000",
    "163324.435000",
    "163326.434000",
    "163328.434000",
    "163330.434000",
    "163332.435000",
    "163334.436000",
    "163336.435000",
    "163338.434000",
    "163340.434000",
    "163342.434000",
    "163344.434000",
    "163346.434000",
    "163348.434000",
    "163350.435000",
    "163352.435000",
    "163354.435000",
    "163356.434000",
    "163358.434000",
    "163400.434000",
    "163402.435000",
    "163404.435000",
    "163406.434000",
    "163408.435000",
    "163410.436000",
    "163412.434000",
    "163414.435000",
    "163416.434000",
    "163418.435000",
    "163420.434000",
    "163422.434000",
    "163424.434000",
    "163426.455000",
    "163428.436000",
    "163430.435000",
    "163432.434000",
    "163434.435000",
    "163436.435000",
    "163438.435000",
    "163440.434000",
    "163442.436000",
    "163444.436000",
    "163446.435000",
    "163448.435000",
    "163450.434000",
    "163452.434000",
    "163454.434000",
    "163456.434000",
    "163458.434000",
    "163500.436000",
    "163502.435000",
    "163504.436000",
    "163506.434000",
    "163508.434000",
    "163510.435000",
    "163512.435000",
    "163514.435000",
    "163516.435000",
    "163518.436000",
    "163520.435000",
    "163522.434000",
    "163524.434000",
    "163526.434000",
    "163528.434000",
    "163530.434000",
    "163532.434000",
    "163534.434000",
    "163536.435000",
    "163538.435000",
    "163540.435000",
    "163542.435000",
    "163544.435000",
    "163546.435000",
    "163548.435000",
    "163550.435000",
    "163552.436000",
    "163554.447000",
    "163556.436000",
    "163558.435000",
    "163600.435000",
    "163602.434000",
    "163604.435000",
    "163606.435000",
    "163608.434000",
    "163610.435000",
    "163612.435000",
    "163614.434000",
    "163616.435000",
    "163618.435000",
    "163620.434000",
    "163622.435000",
    "163624.435000",
    "163626.434000",
    "163628.436000",
    "163630.435000",
    "163632.434000",
    "163634.435000",
    "163636.435000",
    "163638.435000",
    "163640.435000",
    "163642.435000",
    "163644.435000",
    "163646.435000",
    "163648.436000",
    "163650.435000",
    "163652.434000",
    "163654.435000",
    "163656.435000",
    "163658.435000",
    "163700.435000",
    "163702.436000",
    "163704.166000"
   ],
   "InstanceCreationTime": [
    "162834.939000",
    "162836.436000",
    "162838.436000",
    "162840.435000",
    "162842.434000",
    "162844.434000",
    "162846.434000",
    "162848.434000",
    "162850.435000",
    "162852.435000",
    "162854.436000",
    "162856.436000",
    "162858.434000",
    "162900.435000",
    "162902.434000",
    "162904.435000",
    "162906.434000",
    "162908.434000",
    "162910.435000",
    "162912.436000",
    "162914.436000",
    "162916.434000",
    "162918.434000",
    "162920.434000",
    "162922.434000",
    "162924.434000",
    "162926.434000",
    "162928.435000",
    "162930.435000",
    "162932.434000",
    "162934.435000",
    "162936.434000",
    "162938.435000",
    "162940.434000",
    "162942.435000",
    "162944.434000",
    "162946.435000",
    "162948.435000",
    "162950.435000",
    "162952.435000",
    "162954.434000",
    "162956.434000",
    "162958.435000",
    "163000.434000",
    "163002.436000",
    "163004.436000",
    "163006.436000",
    "163008.435000",
    "163010.434000",
    "163012.434000",
    "163014.434000",
    "163016.434000",
    "163018.434000",
    "163020.435000",
    "163022.435000",
    "163024.435000",
    "163026.435000",
    "163028.434000",
    "163030.434000",
    "163032.434000",
    "163034.435000",
    "163036.435000",
    "163038.435000",
    "163040.435000",
    "163042.434000",
    "163044.434000",
    "163046.435000",
    "163048.434000",
    "163050.434000",
    "163052.434000",
    "163054.434000",
    "163056.436000",
    "163058.436000",
    "163100.434000",
    "163102.434000",
    "163104.434000",
    "163106.435000",
    "163108.435000",
    "163110.434000",
    "163112.436000",
    "163114.435000",
    "163116.435000",
    "163118.434000",
    "163120.434000",
    "163122.435000",
    "163124.434000",
    "163126.435000",
    "163128.434000",
    "163130.435000",
    "163132.435000",
    "163134.435000",
    "163136.435000",
    "163138.435000",
    "163140.434000",
    "163142.435000",
    "163144.434000",
    "163146.435000",
    "163148.435000",
    "163150.436000",
    "163152.434000",
    "163154.434000",
    "163156.434000",
    "163158.435000",
    "163200.434000",
    "163202.434000",
    "163204.435000",
    "163206.435000",
    "163208.435000",
    "163210.434000",
    "163212.435000",
    "163214.435000",
    "163216.434000",
    "163218.434000",
    "163220.435000",
    "163222.435000",
    "163224.436000",
    "163226.435000",
    "163228.435000",
    "163230.435000",
    "163232.434000",
    "163234.434000",
    "163236.435000",
    "163238.435000",
    "163240.435000",
    "163242.436000",
    "163244.435000",
    "163246.435000",
    "163248.435000",
    "163250.434000",
    "163252.434000",
    "163254.434000",
    "163256.435000",
    "163258.436000",
    "163300.436000",
    "163302.435000",
    "163304.435000",
    "163306.434000",
    "163308.434000",
    "163310.435000",
    "163312.435000",
    "163314.435000",
    "163316.436000",
    "163318.435000",
    "163320.435000",
    "163322.435000",
    "163324.435000",
    "163326.434000",
    "163328.434000",
    "163330.434000",
    "163332.435000",
    "163334.436000",
    "163336.435000",
    "163338.434000",
    "163340.434000",
    "163342.434000",
    "163344.434000",
    "163346.434000",
    "163348.434000",
    "163350.435000",
    "163352.435000",
    "163354.435000",
    "163356.434000",
    "163358.434000",
    "163400.434000",
    "163402.435000",
    "163404.435000",
    "163406.434000",
    "163408.435000",
    "163410.436000",
    "163412.434000",
    "163414.435000",
    "163416.434000",
    "163418.435000",
    "163420.434000",
    "163422.434000",
    "163424.434000",
    "163426.455000",
    "163428.436000",
    "163430.435000",
    "163432.434000",
    "163434.435000",
    "163436.435000",
    "163438.435000",
    "163440.434000",
    "163442.436000",
    "163444.436000",
    "163446.435000",
    "163448.435000",
    "163450.434000",
    "163452.434000",
    "163454.434000",
    "163456.434000",
    "163458.434000",
    "163500.436000",
    "163502.435000",
    "163504.436000",
    "163506.434000",
    "163508.434000",
    "163510.435000",
    "163512.435000",
    "163514.435000",
    "163516.435000",
    "163518.436000",
    "163520.435000",
    "163522.434000",
    "163524.434000",
    "163526.434000",
    "163528.434000",
    "163530.434000",
    "163532.434000",
    "163534.434000",
    "163536.435000",
    "163538.435000",
    "163540.435000",
    "163542.435000",
    "163544.435000",
    "163546.435000",
    "163548.435000",
    "163550.435000",
    "163552.436000",
    "163554.447000",
    "163556.436000",
    "163558.435000",
    "163600.435000",
    "163602.434000",
    "163604.435000",
    "163606.435000",
    "163608.434000",
    "163610.435000",
    "163612.435000",
    "163614.434000",
    "163616.435000",
    "163618.435000",
    "163620.434000",
    "163622.435000",
    "163624.435000",
    "163626.434000",
    "163628.436000",
    "163630.435000",
    "163632.434000",
    "163634.435000",
    "163636.435000",
    "163638.435000",
    "163640.435000",
    "163642.435000",
    "163644.435000",
    "163646.435000",
    "163648.436000",
    "163650.435000",
    "163652.434000",
    "163654.435000",
    "163656.435000",
    "163658.435000",
    "163700.435000",
    "163702.436000",
    "163704.166000"
   ],
   "InstanceNumber": [
    1,
    2,
    3,
    4,
    5,
    6,
    7,
    8,
    9,
    10,
    11,
    12,
    13,
    14,
    15,
    16,
    17,
    18,
    19,
    20,
    21,
    22,
    23,
    24,
    25,
    26,
    27,
    28,
    29,
    30,
    31,
    32,
    33,
    34,
    35,
    36,
    37,
    38,
    39,
    40,
    41,
    42,
    43,
    44,
    45,
    46,
    47,
    48,
    49,
    50,
    51,
    52,
    53,
    54,
    55,
    56,
    57,
    58,
    59,
    60,
    61,
    62,
    63,
    64,
    65,
    66,
    67,
    68,
    69,
    70,
    71,
    72,
    73,
    74,
    75,
    76,
    77,
    78,
    79,
    80,
    81,
    82,
    83,
    84,
    85,
    86,
    87,
    88,
    89,
    90,
    91,
    92,
    93,
    94,
    95,
    96,
    97,
    98,
    99,
    100,
    101,
    102,
    103,
    104,
    105,
    106,
    107,
    108,
    109,
    110,
    111,
    112,
    113,
    114,
    115,
    116,
    117,
    118,
    119,
    120,
    121,
    122,
    123,
    124,
    125,
    126,
    127,
    128,
    129,
    130,
    131,
    132,
    133,
    134,
    135,
    136,
    137,
    138,
    139,
    140,
    141,
    142,
    143,
    144,
    145,
    146,
    147,
    148,
    149,
    150,
    151,
    152,
    153,
    154,
    155,
    156,
    157,
    158,
    159,
    160,
    161,
    162,
    163,
    164,
    165,
    166,
    167,
    168,
    169,
    170,
    171,
    172,
    173,
    174,
    175,
    176,
    177,
    178,
    179,
    180,
    181,
    182,
    183,
    184,
    185,
    186,
    187,
    188,
    189,
    190,
    191,
    192,
    193,
    194,
    195,
    196,
    197,
    198,
    199,
    200,
    201,
    202,
    203,
    204,
    205,
    206,
    207,
    208,
    209,
    210,
    211,
    212,
    213,
    214,
    215,
    216,
    217,
    218,
    219,
    220,
    221,
    222,
    223,
    224,
    225,
    226,
    227,
    228,
    229,
    230,
    231,
    232,
    233,
    234,
    235,
    236,
    237,
    238,
    239,
    240,
    241,
    242,
    243,
    244,
    245,
    246,
    247,
    248,
    249,
    250,
    251,
    252,
    253,
    254,
    255,
    256
   ],
   "LargestImagePixelValue": [
    3916,
    3743,
    4068,
    4095,
    4095,
    4087,
    3628,
    3671,
    4081,
    4083,
    4066,
    4031,
    3928,
    3634,
    3807,
    3849,
    3770,
    4095,
    4029,
    3643,
    3759,
    3718,
    3918,
    3889,
    3653,
    4077,
    3969,
    3626,
    3750,
    3942,
    3787,
    3655,
    3996,
    3816,
    4021,
    3725,
    3987,
    3815,
    3879,
    3846,
    3895,
    3848,
    4022,
    3840,
    3959,
    3909,
    3941,
    3960,
    3996,
    3980,
    3943,
    3976,
    3945,
    3975,
    3985,
    3957,
    4025,
    3996,
    3998,
    3977,
    3985,
    3967,
    3981,
    3970,
    4026,
    3999,
    4005,
    4002,
    4060,
    4064,
    3970,
    3973,
    3975,
    3978,
    3985,
    4018,
    3972,
    3989,
    3986,
    3979,
    3955,
    3966,
    3952,
    4040,
    4049,
    3958,
    3956,
    3955,
    3928,
    3970,
    3956,
    3927,
    4095,
    4057,
    3877,
    3880,
    3895,
    3924,
    4095,
    3891,
    3843,
    3850,
    3853,
    3869,
    3896,
    3912,
    3894,
    3903,
    3851,
    3946,
    3897,
    3885,
    3905,
    3895,
    3864,
    3855,
    3961,
    3869,
    3873,
    3897,
    3971,
    3919,
    3940,
    3967,
    3943,
    3855,
    3842,
    3885,
    3883,
    3905,
    3948,
    3849,
    3865,
    3940,
    3903,
    3844,
    3925,
    3885,
    3851,
    4045,
    3907,
    3908,
    3901,
    3901,
    3903,
    3917,
    3897,
    3777,
    3890,
    3792,
    3866,
    3730,
    3784,
    3784,
    3858,
    3708,
    3860,
    3779,
    3927,
    3880,
    3898,
    3905,
    3918,
    3902,
    3836,
    3907,
    3881,
    3813,
    3852,
    3871,
    3928,
    3902,
    3951,
    3867,
    3880,
    3892,
    3871,
    3852,
    3863,
    3868,
    3913,
    3870,
    3896,
    3912,
    3854,
    3856,
    3896,
    3888,
    3888,
    3955,
    3893,
    3963,
    3903,
    3887,
    3951,
    3900,
    3890,
    3927,
    4018,
    3965,
    3870,
    3868,
    3867,
    3867,
    3940,
    3915,
    3884,
    3903,
    3919,
    3855,
    3879,
    3873,
    3929,
    3907,
    3924,
    3897,
    3977,
    3908,
    3906,
    3839,
    3921,
    3893,
    3867,
    3879,
    3888,
    3897,
    3873,
    3886,
    3904,
    3880,
    3895,
    3904,
    3812,
    3820,
    3848,
    3889,
    3892,
    3924,
    3868,
    3883,
    3878,
    3867,
    3856,
    3883,
    3891,
    3878,
    3882,
    3880,
    3873,
    3848,
    3906,
    3882,
    3864,
    3902,
    3876,
    3858
   ],
   "WindowCenter": [
    823.0,
    821.0,
    823.0,
    823.0,
    823.0,
    823.0,
    821.0,
    820.0,
    822.0,
    821.0,
    822.0,
    821.0,
    820.0,
    819.0,
    821.0,
    821.0,
    821.0,
    823.0,
    824.0,
    821.0,
    822.0,
    820.0,
    821.0,
    822.0,
    821.0,
    824.0,
    821.0,
    818.0,
    819.0,
    821.0,
    820.0,
    819.0,
    820.0,
    817.0,
    819.0,
    820.0,
    824.0,
    823.0,
    823.0,
    822.0,
    823.0,
    821.0,
    822.0,
    821.0,
    822.0,
    821.0,
    822.0,
    821.0,
    821.0,
    819.0,
    821.0,
    823.0,
    824.0,
    824.0,
    824.0,
    824.0,
    825.0,
    824.0,
    823.0,
    822.0,
    822.0,
    823.0,
    824.0,
    822.0,
    822.0,
    820.0,
    823.0,
    825.0,
    826.0,
    824.0,
    824.0,
    824.0,
    823.0,
    822.0,
    821.0,
    821.0,
    821.0,
    820.0,
    819.0,
    820.0,
    822.0,
    822.0,
    822.0,
    822.0,
    823.0,
    823.0,
    823.0,
    821.0,
    820.0,
    821.0,
    821.0,
    822.0,
    824.0,
    823.0,
    823.0,
    823.0,
    821.0,
    819.0,
    820.0,
    820.0,
    820.0,
    819.0,
    820.0,
    821.0,
    821.0,
    820.0,
    820.0,
    819.0,
    819.0,
    821.0,
    821.0,
    822.0,
    823.0,
    821.0,
    820.0,
    819.0,
    821.0,
    822.0,
    824.0,
    823.0,
    822.0,
    820.0,
    821.0,
    822.0,
    821.0,
