{
 "AcquisitionMatrixPE": 100,
 "AcquisitionNumber": 1,
 "AcquisitionTime": "09:44:55.245000",
 "BandwidthPerPixelPhaseEncode": 18.519,
 "BaseResolution": 100,
 "BodyPartExamined": "BRAIN",
 "ConsistencyInfo": "N4_VE11C_LATEST_20160120",
 "ConversionSoftware": "dcm2niix",
 "ConversionSoftwareVersion": "v1.0.20180622 GCC4.9.2",
 "DerivedVendorReportedEchoSpacing": 0.000539986,
 "DeviceSerialNumber": "166078",
 "DwellTime": 2.1e-06,
 "EchoTime": 0.034,
 "EchoTrainLength": 100,
 "EffectiveEchoSpacing": 0.000539986,
 "FlipAngle": 90,
 "ImageOrientationPatientDICOM": [
  1,
  0,
  0,
  0,
  0.984808,
  -0.173648
 ],
 "ImageType": [
  "ORIGINAL",
  "PRIMARY",
  "M",
  "ND",
  "MOSAIC"
 ],
 "InPlanePhaseEncodingDirectionDICOM": "COL",
 "InstitutionAddress": "Street_StreetNo_Bei_Jing_District_CN_ZIP",
 "InstitutionName": "BeiJing_Normal_University",
 "InstitutionalDepartmentName": "Department",
 "MRAcquisitionType": "2D",
 "MagneticFieldStrength": 3,
 "Manufacturer": "Siemens",
 "ManufacturersModelName": "Prisma",
 "Modality": "MR",
 "MultibandAccelerationFactor": 3,
 "PartialFourier": 1,
 "PatientPosition": "HFS",
 "PercentPhaseFOV": 100,
 "PhaseEncodingDirection": "j-",
 "PhaseEncodingSteps": 100,
 "PhaseResolution": 1,
 "PixelBandwidth": 2380,
 "ProcedureStepDescription": "BNU_P2018_64CH_Zhen.ZongLei",
 "ProtocolName": "bold_100x100_s3_2x2x2_static_256",
 "PulseSequenceDetails": "%SiemensSeq%_ep2d_bold",
 "ReceiveCoilActiveElements": "HC1-7;NC1",
 "ReceiveCoilName": "HeadNeck_64",
 "ReconMatrixPE": 100,
 "RepetitionTime": 2,
 "SAR": 0.060599,
 "ScanOptions": "FS",
 "ScanningSequence": "EP",
 "SequenceName": "_epfid2d1_100",
 "SequenceVariant": "SK",
 "SeriesDescription": "bold_100x100_s3_2x2x2_static_256",
 "SeriesNumber": 7,
 "ShimSetting": [
  -5446,
  -11522,
  -1243,
  337,
  10,
  -281,
  -272,
  52
 ],
 "SliceThickness": 2,
 "SliceTiming": [
  1.485,
  0,
  0.99,
  0.0825,
  1.0725,
  0.165,
  1.155,
  0.2475,
  1.2375,
  0.33,
  1.32,
  0.4125,
  1.4025,
  0.5775,
  1.5675,
  0.66,
  1.65,
  0.7425,
  1.7325,
  0.825,
  1.815,
  0.9075,
  1.8975,
  0.495,
  1.485,
  0,
  0.99,
  0.0825,
  1.0725,
  0.165,
  1.155,
  0.2475,
  1.2375,
  0.33,
  1.32,
  0.4125,
  1.4025,
  0.5775,
  1.5675,
  0.66,
  1.65,
  0.7425,
  1.7325,
  0.825,
  1.815,
  0.9075,
  1.8975,
  0.495,
  1.485,
  0,
  0.99,
  0.0825,
  1.0725,
  0.165,
  1.155,
  0.2475,
  1.2375,
  0.33,
  1.32,
  0.4125,
  1.4025,
  0.5775,
  1.5675,
  0.66,
  1.65,
  0.7425,
  1.7325,
  0.825,
  1.815,
  0.9075,
  1.8975,
  0.495
 ],
 "SoftwareVersions": "syngo_MR_E11",
 "SpacingBetweenSlices": 2,
 "StationName": "AWP166078",
 "TaskName": "imagenet",
 "TotalReadoutTime": 0.0534586,
 "TxRefAmp": 214.328,
 "dcmmeta_affine": [
  [
   -2.0,
   0.0,
   0.0,
   102.71186828613281
  ],
  [
   0.0,
   1.9696154594421387,
   -0.3472963571548462,
   -89.21361541748047
  ],
  [
   0.0,
   0.3472963571548462,
   1.9696154594421387,
   -75.80085754394531
  ],
  [
   0.0,
   0.0,
   0.0,
   1.0
  ]
 ],
 "dcmmeta_reorient_transform": [
  [
   0.0,
   -1.0,
   0.0,
   99.0
  ],
  [
   1.0,
   0.0,
   0.0,
   0.0
  ],
  [
   0.0,
   0.0,
   1.0,
   0.0
  ],
  [
   0.0,
   0.0,
   0.0,
   1.0
  ]
 ],
 "dcmmeta_shape": [
  100,
  100,
  72,
  256
 ],
 "dcmmeta_slice_dim": 2,
 "dcmmeta_version": 0.6,
 "global": {
  "const": {
   "AcquisitionMatrix": [
    100,
    0,
    0,
    100
   ],
   "AngioFlag": "N",
   "BitsAllocated": 16,
   "BitsStored": 12,
   "BodyPartExamined": "BRAIN",
   "Columns": 900,
   "EchoNumbers": 1,
   "EchoTime": 34.0,
   "EchoTrainLength": 100,
   "FlipAngle": 90.0,
   "HighBit": 11,
   "ImageOrientationPatient": [
    1.0,
    0.0,
    0.0,
    0.0,
    0.98480775371103,
    -0.1736481737037
   ],
   "ImagePositionPatient": [
    -902.71186447144,
    -893.62452186562,
    97.500019693935
   ],
   "ImageType": [
    "ORIGINAL",
    "PRIMARY",
    "M",
    "ND",
    "MOSAIC"
   ],
   "ImagedNucleus": "1H",
   "ImagingFrequency": 123.25771,
   "InPlanePhaseEncodingDirection": "COL",
   "MRAcquisitionType": "2D",
   "MagneticFieldStrength": 3.0,
   "Manufacturer": "SIEMENS",
   "ManufacturerModelName": "Prisma",
   "Modality": "MR",
   "NumberOfAverages": 1.0,
   "NumberOfPhaseEncodingSteps": 100,
   "PercentPhaseFieldOfView": 100.0,
   "PercentSampling": 100.0,
   "PerformedProcedureStepStartTime": "085650.269000",
   "PhotometricInterpretation": "MONOCHROME2",
   "PixelBandwidth": 2380.0,
   "PixelRepresentation": 0,
   "PixelSpacing": [
    2.0,
    2.0
   ],
   "ProtocolName": "bold_100x100_s3_2x2x2_static_256",
   "RepetitionTime": 2000.0,
   "Rows": 900,
   "SAR": 0.06059898211578,
   "SamplesPerPixel": 1,
   "ScanOptions": "FS",
   "ScanningSequence": "EP",
   "SequenceName": "*epfid2d1_100",
   "SequenceVariant": "SK",
   "SeriesDescription": "bold_100x100_s3_2x2x2_static_256",
   "SeriesNumber": 7,
   "SeriesTime": "094457.489000",
   "SliceLocation": -59.157490817251,
   "SliceThickness": 2.0,
   "SmallestImagePixelValue": 0,
   "SoftwareVersions": "syngo MR E11",
   "SpacingBetweenSlices": 2.0000000021973,
   "SpecificCharacterSet": "ISO_IR 100",
   "StudyID": "1",
   "StudyTime": "085650.208000",
   "TransmitCoilName": "Body",
   "VariableFlipAngleFlag": "N",
   "WindowCenterWidthExplanation": "Algo1",
   "dBdt": 0.0
  },
  "slices": {}
 },
 "time": {
  "samples": {
   "AcquisitionNumber": [
    1,
    2,
    3,
    4,
    5,
    6,
    7,
    8,
    9,
    10,
    11,
    12,
    13,
    14,
    15,
    16,
    17,
    18,
    19,
    20,
    21,
    22,
    23,
    24,
    25,
    26,
    27,
    28,
    29,
    30,
    31,
    32,
    33,
    34,
    35,
    36,
    37,
    38,
    39,
    40,
    41,
    42,
    43,
    44,
    45,
    46,
    47,
    48,
    49,
    50,
    51,
    52,
    53,
    54,
    55,
    56,
    57,
    58,
    59,
    60,
    61,
    62,
    63,
    64,
    65,
    66,
    67,
    68,
    69,
    70,
    71,
    72,
    73,
    74,
    75,
    76,
    77,
    78,
    79,
    80,
    81,
    82,
    83,
    84,
    85,
    86,
    87,
    88,
    89,
    90,
    91,
    92,
    93,
    94,
    95,
    96,
    97,
    98,
    99,
    100,
    101,
    102,
    103,
    104,
    105,
    106,
    107,
    108,
    109,
    110,
    111,
    112,
    113,
    114,
    115,
    116,
    117,
    118,
    119,
    120,
    121,
    122,
    123,
    124,
    125,
    126,
    127,
    128,
    129,
    130,
    131,
    132,
    133,
    134,
    135,
    136,
    137,
    138,
    139,
    140,
    141,
    142,
    143,
    144,
    145,
    146,
    147,
    148,
    149,
    150,
    151,
    152,
    153,
    154,
    155,
    156,
    157,
    158,
    159,
    160,
    161,
    162,
    163,
    164,
    165,
    166,
    167,
    168,
    169,
    170,
    171,
    172,
    173,
    174,
    175,
    176,
    177,
    178,
    179,
    180,
    181,
    182,
    183,
    184,
    185,
    186,
    187,
    188,
    189,
    190,
    191,
    192,
    193,
    194,
    195,
    196,
    197,
    198,
    199,
    200,
    201,
    202,
    203,
    204,
    205,
    206,
    207,
    208,
    209,
    210,
    211,
    212,
    213,
    214,
    215,
    216,
    217,
    218,
    219,
    220,
    221,
    222,
    223,
    224,
    225,
    226,
    227,
    228,
    229,
    230,
    231,
    232,
    233,
    234,
    235,
    236,
    237,
    238,
    239,
    240,
    241,
    242,
    243,
    244,
    245,
    246,
    247,
    248,
    249,
    250,
    251,
    252,
    253,
    254,
    255,
    256
   ],
   "AcquisitionTime": [
    "094455.245000",
    "094457.245000",
    "094459.245000",
    "094501.245000",
    "094503.245000",
    "094505.245000",
    "094507.245000",
    "094509.245000",
    "094511.245000",
    "094513.245000",
    "094515.245000",
    "094517.245000",
    "094519.245000",
    "094521.245000",
    "094523.245000",
    "094525.245000",
    "094527.245000",
    "094529.245000",
    "094531.245000",
    "094533.245000",
    "094535.245000",
    "094537.245000",
    "094539.245000",
    "094541.245000",
    "094543.245000",
    "094545.245000",
    "094547.245000",
    "094549.245000",
    "094551.245000",
    "094553.245000",
    "094555.245000",
    "094557.245000",
    "094559.245000",
    "094601.245000",
    "094603.245000",
    "094605.245000",
    "094607.245000",
    "094609.245000",
    "094611.245000",
    "094613.245000",
    "094615.245000",
    "094617.245000",
    "094619.245000",
    "094621.245000",
    "094623.245000",
    "094625.245000",
    "094627.245000",
    "094629.245000",
    "094631.245000",
    "094633.245000",
    "094635.245000",
    "094637.245000",
    "094639.245000",
    "094641.245000",
    "094643.245000",
    "094645.245000",
    "094647.245000",
    "094649.245000",
    "094651.245000",
    "094653.245000",
    "094655.245000",
    "094657.245000",
    "094659.245000",
    "094701.245000",
    "094703.245000",
    "094705.245000",
    "094707.245000",
    "094709.245000",
    "094711.245000",
    "094713.245000",
    "094715.245000",
    "094717.245000",
    "094719.245000",
    "094721.245000",
    "094723.245000",
    "094725.245000",
    "094727.245000",
    "094729.245000",
    "094731.245000",
    "094733.245000",
    "094735.245000",
    "094737.245000",
    "094739.245000",
    "094741.245000",
    "094743.245000",
    "094745.245000",
    "094747.245000",
    "094749.245000",
    "094751.245000",
    "094753.245000",
    "094755.245000",
    "094757.245000",
    "094759.245000",
    "094801.245000",
    "094803.245000",
    "094805.245000",
    "094807.245000",
    "094809.245000",
    "094811.245000",
    "094813.245000",
    "094815.245000",
    "094817.245000",
    "094819.245000",
    "094821.245000",
    "094823.245000",
    "094825.245000",
    "094827.245000",
    "094829.245000",
    "094831.245000",
    "094833.245000",
    "094835.245000",
    "094837.245000",
    "094839.245000",
    "094841.245000",
    "094843.245000",
    "094845.245000",
    "094847.245000",
    "094849.245000",
    "094851.245000",
    "094853.245000",
    "094855.245000",
    "094857.245000",
    "094859.245000",
    "094901.245000",
    "094903.245000",
    "094905.245000",
    "094907.245000",
    "094909.245000",
    "094911.245000",
    "094913.245000",
    "094915.245000",
    "094917.245000",
    "094919.245000",
    "094921.245000",
    "094923.245000",
    "094925.245000",
    "094927.245000",
    "094929.245000",
    "094931.245000",
    "094933.245000",
    "094935.245000",
    "094937.245000",
    "094939.245000",
    "094941.245000",
    "094943.245000",
    "094945.245000",
    "094947.245000",
    "094949.245000",
    "094951.245000",
    "094953.245000",
    "094955.245000",
    "094957.245000",
    "094959.245000",
    "095001.245000",
    "095003.245000",
    "095005.245000",
    "095007.245000",
    "095009.245000",
    "095011.245000",
    "095013.245000",
    "095015.245000",
    "095017.245000",
    "095019.245000",
    "095021.245000",
    "095023.245000",
    "095025.245000",
    "095027.245000",
    "095029.245000",
    "095031.245000",
    "095033.245000",
    "095035.245000",
    "095037.245000",
    "095039.245000",
    "095041.245000",
    "095043.245000",
    "095045.245000",
    "095047.245000",
    "095049.245000",
    "095051.245000",
    "095053.245000",
    "095055.245000",
    "095057.245000",
    "095059.245000",
    "095101.245000",
    "095103.245000",
    "095105.245000",
    "095107.245000",
    "095109.245000",
    "095111.245000",
    "095113.245000",
    "095115.245000",
    "095117.245000",
    "095119.245000",
    "095121.245000",
    "095123.245000",
    "095125.245000",
    "095127.245000",
    "095129.245000",
    "095131.245000",
    "095133.245000",
    "095135.245000",
    "095137.245000",
    "095139.245000",
    "095141.245000",
    "095143.245000",
    "095145.245000",
    "095147.245000",
    "095149.245000",
    "095151.245000",
    "095153.245000",
    "095155.245000",
    "095157.245000",
    "095159.245000",
    "095201.245000",
    "095203.245000",
    "095205.245000",
    "095207.245000",
    "095209.245000",
    "095211.245000",
    "095213.245000",
    "095215.245000",
    "095217.245000",
    "095219.245000",
    "095221.245000",
    "095223.245000",
    "095225.245000",
    "095227.245000",
    "095229.245000",
    "095231.245000",
    "095233.245000",
    "095235.245000",
    "095237.245000",
    "095239.245000",
    "095241.245000",
    "095243.245000",
    "095245.245000",
    "095247.245000",
    "095249.245000",
    "095251.245000",
    "095253.245000",
    "095255.245000",
    "095257.245000",
    "095259.245000",
    "095301.245000",
    "095303.245000",
    "095305.245000",
    "095307.245000",
    "095309.245000",
    "095311.245000",
    "095313.245000",
    "095315.245000",
    "095317.245000",
    "095319.245000",
    "095321.245000",
    "095323.245000",
    "095325.245000"
   ],
   "ContentTime": [
    "094457.493000",
    "094458.989000",
    "094500.988000",
    "094502.988000",
    "094504.989000",
    "094506.990000",
    "094508.988000",
    "094510.988000",
    "094512.989000",
    "094514.988000",
    "094516.988000",
    "094518.989000",
    "094520.988000",
    "094522.990000",
    "094524.988000",
    "094526.989000",
    "094528.989000",
    "094530.989000",
    "094532.989000",
    "094534.989000",
    "094536.988000",
    "094538.988000",
    "094540.990000",
    "094542.988000",
    "094544.989000",
    "094546.988000",
    "094548.988000",
    "094550.988000",
    "094552.989000",
    "094554.989000",
    "094556.988000",
    "094558.990000",
    "094600.989000",
    "094602.989000",
    "094604.989000",
    "094606.988000",
    "094608.988000",
    "094610.988000",
    "094612.988000",
    "094614.989000",
    "094616.990000",
    "094618.989000",
    "094620.989000",
    "094622.988000",
    "094624.988000",
    "094626.988000",
    "094628.989000",
    "094630.988000",
    "094632.989000",
    "094634.989000",
    "094636.988000",
    "094638.989000",
    "094640.989000",
    "094642.988000",
    "094644.989000",
    "094646.989000",
    "094648.989000",
    "094650.990000",
    "094652.989000",
    "094654.989000",
    "094656.988000",
    "094658.988000",
    "094700.989000",
    "094702.989000",
    "094704.988000",
    "094706.989000",
    "094708.989000",
    "094710.989000",
    "094712.988000",
    "094714.988000",
    "094716.988000",
    "094718.989000",
    "094720.988000",
    "094722.988000",
    "094724.990000",
    "094726.990000",
    "094728.989000",
    "094730.988000",
    "094732.988000",
    "094734.988000",
    "094736.989000",
    "094738.988000",
    "094740.989000",
    "094742.990000",
    "094744.989000",
    "094746.988000",
    "094748.988000",
    "094750.988000",
    "094752.989000",
    "094754.988000",
    "094756.989000",
    "094758.988000",
    "094800.989000",
    "094802.989000",
    "094804.989000",
    "094806.989000",
    "094808.989000",
    "094810.989000",
    "094812.989000",
    "094814.988000",
    "094816.990000",
    "094818.989000",
    "094820.989000",
    "094822.988000",
    "094824.988000",
    "094826.989000",
    "094828.988000",
    "094830.988000",
    "094832.988000",
    "094834.989000",
    "094836.989000",
    "094838.989000",
    "094840.988000",
    "094842.989000",
    "094844.988000",
    "094846.989000",
    "094848.989000",
    "094850.989000",
    "094852.990000",
    "094854.989000",
    "094856.989000",
    "094858.989000",
    "094900.988000",
    "094902.989000",
    "094904.989000",
    "094906.988000",
    "094908.988000",
    "094910.990000",
    "094912.988000",
    "094914.989000",
    "094916.988000",
    "094918.988000",
    "094920.989000",
    "094922.989000",
    "094924.988000",
    "094926.990000",
    "094928.990000",
    "094930.989000",
    "094932.989000",
    "094934.989000",
    "094936.989000",
    "094938.988000",
    "094940.989000",
    "094942.989000",
    "094944.990000",
    "094946.990000",
    "094948.988000",
    "094950.989000",
    "094952.989000",
    "094954.988000",
    "094956.988000",
    "094958.988000",
    "095000.989000",
    "095002.989000",
    "095004.989000",
    "095006.989000",
    "095008.989000",
    "095010.989000",
    "095012.989000",
    "095014.989000",
    "095016.989000",
    "095018.989000",
    "095020.989000",
    "095022.988000",
    "095024.989000",
    "095026.989000",
    "095028.988000",
    "095030.989000",
    "095032.988000",
    "095034.989000",
    "095036.989000",
    "095038.990000",
    "095040.989000",
    "095042.989000",
    "095044.989000",
    "095046.988000",
    "095048.989000",
    "095050.989000",
    "095052.989000",
    "095054.989000",
    "095056.990000",
    "095058.988000",
    "095100.988000",
    "095102.989000",
    "095104.989000",
    "095106.989000",
    "095108.989000",
    "095110.989000",
    "095112.990000",
    "095114.989000",
    "095116.989000",
    "095118.989000",
    "095120.988000",
    "095122.989000",
    "095124.989000",
    "095126.989000",
    "095128.989000",
    "095130.990000",
    "095132.989000",
    "095134.989000",
    "095136.989000",
    "095138.989000",
    "095140.989000",
    "095142.988000",
    "095144.988000",
    "095146.990000",
    "095148.989000",
    "095150.988000",
    "095152.989000",
    "095154.989000",
    "095156.988000",
    "095158.988000",
    "095200.988000",
    "095202.989000",
    "095204.990000",
    "095206.990000",
    "095208.989000",
    "095210.989000",
    "095212.989000",
    "095214.988000",
    "095216.989000",
    "095218.989000",
    "095220.988000",
    "095222.990000",
    "095224.989000",
    "095226.989000",
    "095228.988000",
    "095230.989000",
    "095232.988000",
    "095234.989000",
    "095236.988000",
    "095238.989000",
    "095240.989000",
    "095242.989000",
    "095244.988000",
    "095246.989000",
    "095248.989000",
    "095250.989000",
    "095252.989000",
    "095254.988000",
    "095256.990000",
    "095258.990000",
    "095300.988000",
    "095302.989000",
    "095304.989000",
    "095306.989000",
    "095308.988000",
    "095310.989000",
    "095312.988000",
    "095314.990000",
    "095316.989000",
    "095318.989000",
    "095320.988000",
    "095322.989000",
    "095324.988000",
    "095326.674000"
   ],
   "InstanceCreationTime": [
    "094457.493000",
    "094458.989000",
    "094500.988000",
    "094502.988000",
    "094504.989000",
    "094506.990000",
    "094508.988000",
    "094510.988000",
    "094512.989000",
    "094514.988000",
    "094516.988000",
    "094518.989000",
    "094520.988000",
    "094522.990000",
    "094524.988000",
    "094526.989000",
    "094528.989000",
    "094530.989000",
    "094532.989000",
    "094534.989000",
    "094536.988000",
    "094538.988000",
    "094540.990000",
    "094542.988000",
    "094544.989000",
    "094546.988000",
    "094548.988000",
    "094550.988000",
    "094552.989000",
    "094554.989000",
    "094556.988000",
    "094558.990000",
    "094600.989000",
    "094602.989000",
    "094604.989000",
    "094606.988000",
    "094608.988000",
    "094610.988000",
    "094612.988000",
    "094614.989000",
    "094616.990000",
    "094618.989000",
    "094620.989000",
    "094622.988000",
    "094624.988000",
    "094626.988000",
    "094628.989000",
    "094630.988000",
    "094632.989000",
    "094634.989000",
    "094636.988000",
    "094638.989000",
    "094640.989000",
    "094642.988000",
    "094644.989000",
    "094646.989000",
    "094648.989000",
    "094650.990000",
    "094652.989000",
    "094654.989000",
    "094656.988000",
    "094658.988000",
    "094700.989000",
    "094702.989000",
    "094704.988000",
    "094706.989000",
    "094708.989000",
    "094710.989000",
    "094712.988000",
    "094714.988000",
    "094716.988000",
    "094718.989000",
    "094720.988000",
    "094722.988000",
    "094724.990000",
    "094726.990000",
    "094728.989000",
    "094730.988000",
    "094732.988000",
    "094734.988000",
    "094736.989000",
    "094738.988000",
    "094740.989000",
    "094742.990000",
    "094744.989000",
    "094746.988000",
    "094748.988000",
    "094750.988000",
    "094752.989000",
    "094754.988000",
    "094756.989000",
    "094758.988000",
    "094800.989000",
    "094802.989000",
    "094804.989000",
    "094806.989000",
    "094808.989000",
    "094810.989000",
    "094812.989000",
    "094814.988000",
    "094816.990000",
    "094818.989000",
    "094820.989000",
    "094822.988000",
    "094824.988000",
    "094826.989000",
    "094828.988000",
    "094830.988000",
    "094832.988000",
    "094834.989000",
    "094836.989000",
    "094838.989000",
    "094840.988000",
    "094842.989000",
    "094844.988000",
    "094846.989000",
    "094848.989000",
    "094850.989000",
    "094852.990000",
    "094854.989000",
    "094856.989000",
    "094858.989000",
    "094900.988000",
    "094902.989000",
    "094904.989000",
    "094906.988000",
    "094908.988000",
    "094910.990000",
    "094912.988000",
    "094914.989000",
    "094916.988000",
    "094918.988000",
    "094920.989000",
    "094922.989000",
    "094924.988000",
    "094926.990000",
    "094928.990000",
    "094930.989000",
    "094932.989000",
    "094934.989000",
    "094936.989000",
    "094938.988000",
    "094940.989000",
    "094942.989000",
    "094944.990000",
    "094946.990000",
    "094948.988000",
    "094950.989000",
    "094952.989000",
    "094954.988000",
    "094956.988000",
    "094958.988000",
    "095000.989000",
    "095002.989000",
    "095004.989000",
    "095006.989000",
    "095008.989000",
    "095010.989000",
    "095012.989000",
    "095014.989000",
    "095016.989000",
    "095018.989000",
    "095020.989000",
    "095022.988000",
    "095024.989000",
    "095026.989000",
    "095028.988000",
    "095030.989000",
    "095032.988000",
    "095034.989000",
    "095036.989000",
    "095038.990000",
    "095040.989000",
    "095042.989000",
    "095044.989000",
    "095046.988000",
    "095048.989000",
    "095050.989000",
    "095052.989000",
    "095054.989000",
    "095056.990000",
    "095058.988000",
    "095100.988000",
    "095102.989000",
    "095104.989000",
    "095106.989000",
    "095108.989000",
    "095110.989000",
    "095112.990000",
    "095114.989000",
    "095116.989000",
    "095118.989000",
    "095120.988000",
    "095122.989000",
    "095124.989000",
    "095126.989000",
    "095128.989000",
    "095130.990000",
    "095132.989000",
    "095134.989000",
    "095136.989000",
    "095138.989000",
    "095140.989000",
    "095142.988000",
    "095144.988000",
    "095146.990000",
    "095148.989000",
    "095150.988000",
    "095152.989000",
    "095154.989000",
    "095156.988000",
    "095158.988000",
    "095200.988000",
    "095202.989000",
    "095204.990000",
    "095206.990000",
    "095208.989000",
    "095210.989000",
    "095212.989000",
    "095214.988000",
    "095216.989000",
    "095218.989000",
    "095220.988000",
    "095222.990000",
    "095224.989000",
    "095226.989000",
    "095228.988000",
    "095230.989000",
    "095232.988000",
    "095234.989000",
    "095236.988000",
    "095238.989000",
    "095240.989000",
    "095242.989000",
    "095244.988000",
    "095246.989000",
    "095248.989000",
    "095250.989000",
    "095252.989000",
    "095254.988000",
    "095256.990000",
    "095258.990000",
    "095300.988000",
    "095302.989000",
    "095304.989000",
    "095306.989000",
    "095308.988000",
    "095310.989000",
    "095312.988000",
    "095314.990000",
    "095316.989000",
    "095318.989000",
    "095320.988000",
    "095322.989000",
    "095324.988000",
    "095326.674000"
   ],
   "InstanceNumber": [
    1,
    2,
    3,
    4,
    5,
    6,
    7,
    8,
    9,
    10,
    11,
    12,
    13,
    14,
    15,
    16,
    17,
    18,
    19,
    20,
    21,
    22,
    23,
    24,
    25,
    26,
    27,
    28,
    29,
    30,
    31,
    32,
    33,
    34,
    35,
    36,
    37,
    38,
    39,
    40,
    41,
    42,
    43,
    44,
    45,
    46,
    47,
    48,
    49,
    50,
    51,
    52,
    53,
    54,
    55,
    56,
    57,
    58,
    59,
    60,
    61,
    62,
    63,
    64,
    65,
    66,
    67,
    68,
    69,
    70,
    71,
    72,
    73,
    74,
    75,
    76,
    77,
    78,
    79,
    80,
    81,
    82,
    83,
    84,
    85,
    86,
    87,
    88,
    89,
    90,
    91,
    92,
    93,
    94,
    95,
    96,
    97,
    98,
    99,
    100,
    101,
    102,
    103,
    104,
    105,
    106,
    107,
    108,
    109,
    110,
    111,
    112,
    113,
    114,
    115,
    116,
    117,
    118,
    119,
    120,
    121,
    122,
    123,
    124,
    125,
    126,
    127,
    128,
    129,
    130,
    131,
    132,
    133,
    134,
    135,
    136,
    137,
    138,
    139,
    140,
    141,
    142,
    143,
    144,
    145,
    146,
    147,
    148,
    149,
    150,
    151,
    152,
    153,
    154,
    155,
    156,
    157,
    158,
    159,
    160,
    161,
    162,
    163,
    164,
    165,
    166,
    167,
    168,
    169,
    170,
    171,
    172,
    173,
    174,
    175,
    176,
    177,
    178,
    179,
    180,
    181,
    182,
    183,
    184,
    185,
    186,
    187,
    188,
    189,
    190,
    191,
    192,
    193,
    194,
    195,
    196,
    197,
    198,
    199,
    200,
    201,
    202,
    203,
    204,
    205,
    206,
    207,
    208,
    209,
    210,
    211,
    212,
    213,
    214,
    215,
    216,
    217,
    218,
    219,
    220,
    221,
    222,
    223,
    224,
    225,
    226,
    227,
    228,
    229,
    230,
    231,
    232,
    233,
    234,
    235,
    236,
    237,
    238,
    239,
    240,
    241,
    242,
    243,
    244,
    245,
    246,
    247,
    248,
    249,
    250,
    251,
    252,
    253,
    254,
    255,
    256
   ],
   "LargestImagePixelValue": [
    3973,
    3858,
    3742,
    3755,
    3764,
    3767,
    3801,
    3855,
    3809,
    3816,
    3812,
    3777,
    3857,
    3850,
    3841,
    3854,
    3829,
    3815,
    3810,
    3795,
    3782,
    3829,
    3806,
    3805,
    3790,
    3795,
    3781,
    3805,
    3761,
    3785,
    3777,
    3755,
    3817,
    3808,
    3782,
    3819,
    3795,
    3812,
    3806,
    3849,
    3801,
    3807,
    3812,
    3841,
    3834,
    3807,
    3760,
    3834,
    3813,
    3794,
    3869,
    3858,
    3819,
    3822,
    3780,
    3839,
    3849,
    3821,
    3840,
    3858,
    3871,
    3850,
    3866,
    3839,
    3866,
    3880,
    3822,
    3820,
    3846,
    3848,
    3851,
    3832,
    3895,
    3861,
    3832,
    3821,
    3867,
    3859,
    3865,
    3894,
    3815,
    3839,
    3836,
    3895,
    3867,
    3838,
    3853,
    3855,
    3872,
    3870,
    3842,
    3876,
    3858,
    3883,
    3827,
    3818,
    3791,
    3836,
    3867,
    3840,
    3866,
    3846,
    3853,
    3839,
    3818,
    3849,
    3853,
    3916,
    3875,
    3865,
    3856,
    3877,
    3856,
    3841,
    3798,
    3827,
    3836,
    3822,
    3823,
    3802,
    3869,
    3807,
    3823,
    3837,
    3815,
    3793,
    3806,
    3769,
    3817,
    3875,
    3914,
    3882,
    3911,
    3931,
    3914,
    3866,
    3891,
    3872,
    3889,
    3886,
    3856,
    3793,
    3815,
    3835,
    3899,
    3861,
    3857,
    3836,
    3870,
    3841,
    3828,
    3858,
    3788,
    3826,
    3867,
    3855,
    3847,
    3862,
    3846,
    3833,
    3855,
    3799,
    3803,
    3834,
    3851,
    3884,
    3835,
    3860,
    3884,
    3888,
    3881,
    3874,
    3917,
    3875,
    3906,
    3896,
    3914,
    3910,
    3871,
    3869,
    3869,
    3833,
    3830,
    3861,
    3873,
    3883,
    3873,
    3840,
    3835,
    3818,
    3831,
    3819,
    3840,
    3865,
    3875,
    3832,
    3886,
    3832,
    3842,
    3879,
    3852,
    3877,
    3878,
    3881,
    3879,
    3860,
    3890,
    3848,
    3879,
    3858,
    3842,
    3827,
    3826,
    3843,
    3868,
    3874,
    3852,
    3845,
    3874,
    3891,
    3855,
    3869,
    3880,
    3876,
    3884,
    3880,
    3856,
    3863,
    3854,
    3892,
    3903,
    3842,
    3844,
    3803,
    3871,
    3908,
    3887,
    3867,
    3905,
    3856,
    3893,
    3869,
    3854,
    3875,
    3832,
    3823,
    3799,
    3830,
    3858,
    3855,
    3854,
    3878,
    3903,
    3888,
    3915,
    3883
   ],
   "WindowCenter": [
    777.0,
    776.0,
    773.0,
    774.0,
    773.0,
    773.0,
    772.0,
    773.0,
    772.0,
    771.0,
    771.0,
    771.0,
    771.0,
    770.0,
    771.0,
    772.0,
    771.0,
    770.0,
    770.0,
    770.0,
    770.0,
    771.0,
    771.0,
    771.0,
    770.0,
    771.0,
    772.0,
    771.0,
    771.0,
    772.0,
    772.0,
    772.0,
    773.0,
    773.0,
    772.0,
    772.0,
    771.0,
    771.0,
    771.0,
    772.0,
    772.0,
    772.0,
    772.0,
    773.0,
    772.0,
    773.0,
    773.0,
    773.0,
    773.0,
    772.0,
    772.0,
    771.0,
    771.0,
    772.0,
    771.0,
    770.0,
    769.0,
    770.0,
    771.0,
    772.0,
    772.0,
    772.0,
    772.0,
    772.0,
    773.0,
    774.0,
    774.0,
    773.0,
    772.0,
    772.0,
    773.0,
    772.0,
    773.0,
    773.0,
    772.0,
    771.0,
    772.0,
    773.0,
    772.0,
    772.0,
    772.0,
    773.0,
    771.0,
    770.0,
    769.0,
    770.0,
    770.0,
    769.0,
    769.0,
    770.0,
    770.0,
    772.0,
    772.0,
    774.0,
    774.0,
    774.0,
    773.0,
    773.0,
    771.0,
    772.0,
    772.0,
    771.0,
    771.0,
    771.0,
    771.0,
    771.0,
    769.0,
    769.0,
    769.0,
    770.0,
    771.0,
    772.0,
    772.0,
    773.0,
    773.0,
    772.0,
    773.0,
    773.0,
    772.0,
    771.0,
    773.0,
    773.0,
    773.0,
    772.0,
    772.0,
