{
 "AcquisitionMatrixPE": 100,
 "AcquisitionNumber": 1,
 "AcquisitionTime": "09:06:29.750000",
 "BandwidthPerPixelPhaseEncode": 18.519,
 "BaseResolution": 100,
 "BodyPartExamined": "BRAIN",
 "ConsistencyInfo": "N4_VE11C_LATEST_20160120",
 "ConversionSoftware": "dcm2niix",
 "ConversionSoftwareVersion": "v1.0.20180622 GCC4.9.2",
 "DerivedVendorReportedEchoSpacing": 0.000539986,
 "DeviceSerialNumber": "166078",
 "DwellTime": 2.1e-06,
 "EchoTime": 0.034,
 "EchoTrainLength": 100,
 "EffectiveEchoSpacing": 0.000539986,
 "FlipAngle": 90,
 "ImageOrientationPatientDICOM": [
  1,
  0,
  0,
  0,
  0.984808,
  -0.173648
 ],
 "ImageType": [
  "ORIGINAL",
  "PRIMARY",
  "M",
  "ND",
  "MOSAIC"
 ],
 "InPlanePhaseEncodingDirectionDICOM": "COL",
 "InstitutionAddress": "Street_StreetNo_Bei_Jing_District_CN_ZIP",
 "InstitutionName": "BeiJing_Normal_University",
 "InstitutionalDepartmentName": "Department",
 "MRAcquisitionType": "2D",
 "MagneticFieldStrength": 3,
 "Manufacturer": "Siemens",
 "ManufacturersModelName": "Prisma",
 "Modality": "MR",
 "MultibandAccelerationFactor": 3,
 "PartialFourier": 1,
 "PatientPosition": "HFS",
 "PercentPhaseFOV": 100,
 "PhaseEncodingDirection": "j-",
 "PhaseEncodingSteps": 100,
 "PhaseResolution": 1,
 "PixelBandwidth": 2380,
 "ProcedureStepDescription": "BNU_P2018_64CH_Zhen.ZongLei",
 "ProtocolName": "bold_100x100_s3_2x2x2_static_256",
 "PulseSequenceDetails": "%SiemensSeq%_ep2d_bold",
 "ReceiveCoilActiveElements": "HC1-7;NC1",
 "ReceiveCoilName": "HeadNeck_64",
 "ReconMatrixPE": 100,
 "RepetitionTime": 2,
 "SAR": 0.060599,
 "ScanOptions": "FS",
 "ScanningSequence": "EP",
 "SequenceName": "_epfid2d1_100",
 "SequenceVariant": "SK",
 "SeriesDescription": "bold_100x100_s3_2x2x2_static_256",
 "SeriesNumber": 3,
 "ShimSetting": [
  -5446,
  -11522,
  -1243,
  337,
  10,
  -281,
  -272,
  52
 ],
 "SliceThickness": 2,
 "SliceTiming": [
  1.485,
  0,
  0.99,
  0.0825,
  1.0725,
  0.165,
  1.155,
  0.2475,
  1.2375,
  0.33,
  1.32,
  0.4125,
  1.4025,
  0.5775,
  1.5675,
  0.66,
  1.65,
  0.7425,
  1.7325,
  0.825,
  1.815,
  0.9075,
  1.8975,
  0.495,
  1.485,
  0,
  0.99,
  0.0825,
  1.0725,
  0.165,
  1.155,
  0.2475,
  1.2375,
  0.33,
  1.32,
  0.4125,
  1.4025,
  0.5775,
  1.5675,
  0.66,
  1.65,
  0.7425,
  1.7325,
  0.825,
  1.815,
  0.9075,
  1.8975,
  0.495,
  1.485,
  0,
  0.99,
  0.0825,
  1.0725,
  0.165,
  1.155,
  0.2475,
  1.2375,
  0.33,
  1.32,
  0.4125,
  1.4025,
  0.5775,
  1.5675,
  0.66,
  1.65,
  0.7425,
  1.7325,
  0.825,
  1.815,
  0.9075,
  1.8975,
  0.495
 ],
 "SoftwareVersions": "syngo_MR_E11",
 "SpacingBetweenSlices": 2,
 "StationName": "AWP166078",
 "TaskName": "imagenet",
 "TotalReadoutTime": 0.0534586,
 "TxRefAmp": 214.328,
 "dcmmeta_affine": [
  [
   -2.0,
   0.0,
   0.0,
   102.71186828613281
  ],
  [
   0.0,
   1.9696154594421387,
   -0.3472963571548462,
   -89.21361541748047
  ],
  [
   0.0,
   0.3472963571548462,
   1.9696154594421387,
   -75.80085754394531
  ],
  [
   0.0,
   0.0,
   0.0,
   1.0
  ]
 ],
 "dcmmeta_reorient_transform": [
  [
   0.0,
   -1.0,
   0.0,
   99.0
  ],
  [
   1.0,
   0.0,
   0.0,
   0.0
  ],
  [
   0.0,
   0.0,
   1.0,
   0.0
  ],
  [
   0.0,
   0.0,
   0.0,
   1.0
  ]
 ],
 "dcmmeta_shape": [
  100,
  100,
  72,
  256
 ],
 "dcmmeta_slice_dim": 2,
 "dcmmeta_version": 0.6,
 "global": {
  "const": {
   "AcquisitionMatrix": [
    100,
    0,
    0,
    100
   ],
   "AngioFlag": "N",
   "BitsAllocated": 16,
   "BitsStored": 12,
   "BodyPartExamined": "BRAIN",
   "Columns": 900,
   "EchoNumbers": 1,
   "EchoTime": 34.0,
   "EchoTrainLength": 100,
   "FlipAngle": 90.0,
   "HighBit": 11,
   "ImageOrientationPatient": [
    1.0,
    0.0,
    0.0,
    0.0,
    0.98480775371103,
    -0.1736481737037
   ],
   "ImagePositionPatient": [
    -902.71186447144,
    -893.62452186562,
    97.500019693935
   ],
   "ImageType": [
    "ORIGINAL",
    "PRIMARY",
    "M",
    "ND",
    "MOSAIC"
   ],
   "ImagedNucleus": "1H",
   "ImagingFrequency": 123.257684,
   "InPlanePhaseEncodingDirection": "COL",
   "MRAcquisitionType": "2D",
   "MagneticFieldStrength": 3.0,
   "Manufacturer": "SIEMENS",
   "ManufacturerModelName": "Prisma",
   "Modality": "MR",
   "NumberOfAverages": 1.0,
   "NumberOfPhaseEncodingSteps": 100,
   "PercentPhaseFieldOfView": 100.0,
   "PercentSampling": 100.0,
   "PerformedProcedureStepStartTime": "085650.269000",
   "PhotometricInterpretation": "MONOCHROME2",
   "PixelBandwidth": 2380.0,
   "PixelRepresentation": 0,
   "PixelSpacing": [
    2.0,
    2.0
   ],
   "ProtocolName": "bold_100x100_s3_2x2x2_static_256",
   "RepetitionTime": 2000.0,
   "Rows": 900,
   "SAR": 0.06059898211578,
   "SamplesPerPixel": 1,
   "ScanOptions": "FS",
   "ScanningSequence": "EP",
   "SequenceName": "*epfid2d1_100",
   "SequenceVariant": "SK",
   "SeriesDescription": "bold_100x100_s3_2x2x2_static_256",
   "SeriesNumber": 3,
   "SeriesTime": "090632.770000",
   "SliceLocation": -59.157490817251,
   "SliceThickness": 2.0,
   "SmallestImagePixelValue": 0,
   "SoftwareVersions": "syngo MR E11",
   "SpacingBetweenSlices": 2.0000000021973,
   "SpecificCharacterSet": "ISO_IR 100",
   "StudyID": "1",
   "StudyTime": "085650.208000",
   "TransmitCoilName": "Body",
   "VariableFlipAngleFlag": "N",
   "WindowCenterWidthExplanation": "Algo1",
   "dBdt": 0.0
  },
  "slices": {}
 },
 "time": {
  "samples": {
   "AcquisitionNumber": [
    1,
    2,
    3,
    4,
    5,
    6,
    7,
    8,
    9,
    10,
    11,
    12,
    13,
    14,
    15,
    16,
    17,
    18,
    19,
    20,
    21,
    22,
    23,
    24,
    25,
    26,
    27,
    28,
    29,
    30,
    31,
    32,
    33,
    34,
    35,
    36,
    37,
    38,
    39,
    40,
    41,
    42,
    43,
    44,
    45,
    46,
    47,
    48,
    49,
    50,
    51,
    52,
    53,
    54,
    55,
    56,
    57,
    58,
    59,
    60,
    61,
    62,
    63,
    64,
    65,
    66,
    67,
    68,
    69,
    70,
    71,
    72,
    73,
    74,
    75,
    76,
    77,
    78,
    79,
    80,
    81,
    82,
    83,
    84,
    85,
    86,
    87,
    88,
    89,
    90,
    91,
    92,
    93,
    94,
    95,
    96,
    97,
    98,
    99,
    100,
    101,
    102,
    103,
    104,
    105,
    106,
    107,
    108,
    109,
    110,
    111,
    112,
    113,
    114,
    115,
    116,
    117,
    118,
    119,
    120,
    121,
    122,
    123,
    124,
    125,
    126,
    127,
    128,
    129,
    130,
    131,
    132,
    133,
    134,
    135,
    136,
    137,
    138,
    139,
    140,
    141,
    142,
    143,
    144,
    145,
    146,
    147,
    148,
    149,
    150,
    151,
    152,
    153,
    154,
    155,
    156,
    157,
    158,
    159,
    160,
    161,
    162,
    163,
    164,
    165,
    166,
    167,
    168,
    169,
    170,
    171,
    172,
    173,
    174,
    175,
    176,
    177,
    178,
    179,
    180,
    181,
    182,
    183,
    184,
    185,
    186,
    187,
    188,
    189,
    190,
    191,
    192,
    193,
    194,
    195,
    196,
    197,
    198,
    199,
    200,
    201,
    202,
    203,
    204,
    205,
    206,
    207,
    208,
    209,
    210,
    211,
    212,
    213,
    214,
    215,
    216,
    217,
    218,
    219,
    220,
    221,
    222,
    223,
    224,
    225,
    226,
    227,
    228,
    229,
    230,
    231,
    232,
    233,
    234,
    235,
    236,
    237,
    238,
    239,
    240,
    241,
    242,
    243,
    244,
    245,
    246,
    247,
    248,
    249,
    250,
    251,
    252,
    253,
    254,
    255,
    256
   ],
   "AcquisitionTime": [
    "090629.750000",
    "090631.750000",
    "090633.750000",
    "090635.750000",
    "090637.750000",
    "090639.750000",
    "090641.750000",
    "090643.750000",
    "090645.750000",
    "090647.750000",
    "090649.750000",
    "090651.750000",
    "090653.750000",
    "090655.750000",
    "090657.750000",
    "090659.750000",
    "090701.750000",
    "090703.750000",
    "090705.750000",
    "090707.750000",
    "090709.750000",
    "090711.750000",
    "090713.750000",
    "090715.750000",
    "090717.750000",
    "090719.750000",
    "090721.750000",
    "090723.750000",
    "090725.750000",
    "090727.750000",
    "090729.750000",
    "090731.750000",
    "090733.750000",
    "090735.750000",
    "090737.750000",
    "090739.750000",
    "090741.750000",
    "090743.750000",
    "090745.750000",
    "090747.750000",
    "090749.750000",
    "090751.750000",
    "090753.750000",
    "090755.750000",
    "090757.750000",
    "090759.750000",
    "090801.750000",
    "090803.750000",
    "090805.750000",
    "090807.750000",
    "090809.750000",
    "090811.750000",
    "090813.750000",
    "090815.750000",
    "090817.750000",
    "090819.750000",
    "090821.750000",
    "090823.750000",
    "090825.750000",
    "090827.750000",
    "090829.750000",
    "090831.750000",
    "090833.750000",
    "090835.750000",
    "090837.750000",
    "090839.750000",
    "090841.750000",
    "090843.750000",
    "090845.750000",
    "090847.750000",
    "090849.750000",
    "090851.750000",
    "090853.750000",
    "090855.750000",
    "090857.750000",
    "090859.750000",
    "090901.750000",
    "090903.750000",
    "090905.750000",
    "090907.750000",
    "090909.750000",
    "090911.750000",
    "090913.750000",
    "090915.750000",
    "090917.750000",
    "090919.750000",
    "090921.750000",
    "090923.750000",
    "090925.750000",
    "090927.750000",
    "090929.750000",
    "090931.750000",
    "090933.750000",
    "090935.750000",
    "090937.750000",
    "090939.750000",
    "090941.750000",
    "090943.750000",
    "090945.750000",
    "090947.750000",
    "090949.750000",
    "090951.750000",
    "090953.750000",
    "090955.750000",
    "090957.750000",
    "090959.750000",
    "091001.750000",
    "091003.750000",
    "091005.750000",
    "091007.750000",
    "091009.750000",
    "091011.750000",
    "091013.750000",
    "091015.750000",
    "091017.750000",
    "091019.750000",
    "091021.750000",
    "091023.750000",
    "091025.750000",
    "091027.750000",
    "091029.750000",
    "091031.750000",
    "091033.750000",
    "091035.750000",
    "091037.750000",
    "091039.750000",
    "091041.750000",
    "091043.750000",
    "091045.750000",
    "091047.750000",
    "091049.750000",
    "091051.750000",
    "091053.750000",
    "091055.750000",
    "091057.750000",
    "091059.750000",
    "091101.750000",
    "091103.750000",
    "091105.750000",
    "091107.750000",
    "091109.750000",
    "091111.750000",
    "091113.750000",
    "091115.750000",
    "091117.750000",
    "091119.750000",
    "091121.750000",
    "091123.750000",
    "091125.750000",
    "091127.750000",
    "091129.750000",
    "091131.750000",
    "091133.750000",
    "091135.750000",
    "091137.750000",
    "091139.750000",
    "091141.750000",
    "091143.750000",
    "091145.750000",
    "091147.750000",
    "091149.750000",
    "091151.750000",
    "091153.750000",
    "091155.750000",
    "091157.750000",
    "091159.750000",
    "091201.750000",
    "091203.750000",
    "091205.750000",
    "091207.750000",
    "091209.750000",
    "091211.750000",
    "091213.750000",
    "091215.750000",
    "091217.750000",
    "091219.750000",
    "091221.750000",
    "091223.750000",
    "091225.750000",
    "091227.750000",
    "091229.750000",
    "091231.750000",
    "091233.750000",
    "091235.750000",
    "091237.750000",
    "091239.750000",
    "091241.750000",
    "091243.750000",
    "091245.750000",
    "091247.750000",
    "091249.750000",
    "091251.750000",
    "091253.750000",
    "091255.750000",
    "091257.750000",
    "091259.750000",
    "091301.750000",
    "091303.750000",
    "091305.750000",
    "091307.750000",
    "091309.750000",
    "091311.750000",
    "091313.750000",
    "091315.750000",
    "091317.750000",
    "091319.750000",
    "091321.750000",
    "091323.750000",
    "091325.750000",
    "091327.750000",
    "091329.750000",
    "091331.750000",
    "091333.750000",
    "091335.750000",
    "091337.750000",
    "091339.750000",
    "091341.750000",
    "091343.750000",
    "091345.750000",
    "091347.750000",
    "091349.750000",
    "091351.750000",
    "091353.750000",
    "091355.750000",
    "091357.750000",
    "091359.750000",
    "091401.750000",
    "091403.750000",
    "091405.750000",
    "091407.750000",
    "091409.750000",
    "091411.750000",
    "091413.750000",
    "091415.750000",
    "091417.750000",
    "091419.750000",
    "091421.750000",
    "091423.750000",
    "091425.750000",
    "091427.750000",
    "091429.750000",
    "091431.750000",
    "091433.750000",
    "091435.750000",
    "091437.750000",
    "091439.750000",
    "091441.750000",
    "091443.750000",
    "091445.750000",
    "091447.750000",
    "091449.750000",
    "091451.750000",
    "091453.750000",
    "091455.750000",
    "091457.750000",
    "091459.750000"
   ],
   "ContentTime": [
    "090632.774000",
    "090634.270000",
    "090636.270000",
    "090638.270000",
    "090640.271000",
    "090642.271000",
    "090644.270000",
    "090646.271000",
    "090648.270000",
    "090650.269000",
    "090652.269000",
    "090654.270000",
    "090656.271000",
    "090658.271000",
    "090700.270000",
    "090702.270000",
    "090704.270000",
    "090706.271000",
    "090708.270000",
    "090710.270000",
    "090712.271000",
    "090714.271000",
    "090716.270000",
    "090718.270000",
    "090720.270000",
    "090722.270000",
    "090724.271000",
    "090726.269000",
    "090728.270000",
    "090730.271000",
    "090732.271000",
    "090734.271000",
    "090736.271000",
    "090738.270000",
    "090740.271000",
    "090742.270000",
    "090744.270000",
    "090746.270000",
    "090748.271000",
    "090750.270000",
    "090752.270000",
    "090754.270000",
    "090756.271000",
    "090758.270000",
    "090800.270000",
    "090802.269000",
    "090804.271000",
    "090806.271000",
    "090808.270000",
    "090810.270000",
    "090812.271000",
    "090814.270000",
    "090816.271000",
    "090818.269000",
    "090820.270000",
    "090822.270000",
    "090824.270000",
    "090826.271000",
    "090828.271000",
    "090830.271000",
    "090832.271000",
    "090834.271000",
    "090836.270000",
    "090838.269000",
    "090840.270000",
    "090842.271000",
    "090844.270000",
    "090846.270000",
    "090848.271000",
    "090850.271000",
    "090852.269000",
    "090854.269000",
    "090856.269000",
    "090858.271000",
    "090900.270000",
    "090902.271000",
    "090904.271000",
    "090906.274000",
    "090908.271000",
    "090910.270000",
    "090912.269000",
    "090914.271000",
    "090916.271000",
    "090918.270000",
    "090920.271000",
    "090922.271000",
    "090924.271000",
    "090926.270000",
    "090928.270000",
    "090930.270000",
    "090932.270000",
    "090934.270000",
    "090936.270000",
    "090938.271000",
    "090940.271000",
    "090942.271000",
    "090944.271000",
    "090946.269000",
    "090948.269000",
    "090950.271000",
    "090952.271000",
    "090954.271000",
    "090956.271000",
    "090958.271000",
    "091000.271000",
    "091002.270000",
    "091004.270000",
    "091006.269000",
    "091008.271000",
    "091010.270000",
    "091012.271000",
    "091014.270000",
    "091016.270000",
    "091018.271000",
    "091020.269000",
    "091022.270000",
    "091024.270000",
    "091026.271000",
    "091028.271000",
    "091030.270000",
    "091032.270000",
    "091034.271000",
    "091036.270000",
    "091038.270000",
    "091040.270000",
    "091042.271000",
    "091044.271000",
    "091046.271000",
    "091048.270000",
    "091050.271000",
    "091052.271000",
    "091054.271000",
    "091056.269000",
    "091058.270000",
    "091100.270000",
    "091102.271000",
    "091104.270000",
    "091106.271000",
    "091108.271000",
    "091110.270000",
    "091112.270000",
    "091114.270000",
    "091116.270000",
    "091118.271000",
    "091120.270000",
    "091122.271000",
    "091124.270000",
    "091126.270000",
    "091128.270000",
    "091130.270000",
    "091132.270000",
    "091134.271000",
    "091136.271000",
    "091138.271000",
    "091140.271000",
    "091142.271000",
    "091144.271000",
    "091146.271000",
    "091148.269000",
    "091150.270000",
    "091152.271000",
    "091154.270000",
    "091156.271000",
    "091158.271000",
    "091200.271000",
    "091202.270000",
    "091204.271000",
    "091206.269000",
    "091208.269000",
    "091210.271000",
    "091212.271000",
    "091214.270000",
    "091216.271000",
    "091218.271000",
    "091220.271000",
    "091222.269000",
    "091224.270000",
    "091226.270000",
    "091228.271000",
    "091230.270000",
    "091232.271000",
    "091234.271000",
    "091236.271000",
    "091238.271000",
    "091240.269000",
    "091242.270000",
    "091244.271000",
    "091246.271000",
    "091248.271000",
    "091250.271000",
    "091252.271000",
    "091254.270000",
    "091256.270000",
    "091258.270000",
    "091300.269000",
    "091302.270000",
    "091304.271000",
    "091306.271000",
    "091308.271000",
    "091310.270000",
    "091312.271000",
    "091314.270000",
    "091316.270000",
    "091318.270000",
    "091320.270000",
    "091322.271000",
    "091324.271000",
    "091326.270000",
    "091328.271000",
    "091330.280000",
    "091332.270000",
    "091334.269000",
    "091336.269000",
    "091338.271000",
    "091340.271000",
    "091342.270000",
    "091344.271000",
    "091346.271000",
    "091348.270000",
    "091350.270000",
    "091352.270000",
    "091354.271000",
    "091356.271000",
    "091358.271000",
    "091400.271000",
    "091402.271000",
    "091404.271000",
    "091406.271000",
    "091408.269000",
    "091410.270000",
    "091412.271000",
    "091414.271000",
    "091416.271000",
    "091418.271000",
    "091420.271000",
    "091422.271000",
    "091424.271000",
    "091426.270000",
    "091428.270000",
    "091430.271000",
    "091432.270000",
    "091434.271000",
    "091436.271000",
    "091438.271000",
    "091440.270000",
    "091442.270000",
    "091444.269000",
    "091446.270000",
    "091448.271000",
    "091450.271000",
    "091452.271000",
    "091454.271000",
    "091456.270000",
    "091458.271000",
    "091500.269000",
    "091501.891000"
   ],
   "InstanceCreationTime": [
    "090632.774000",
    "090634.270000",
    "090636.270000",
    "090638.270000",
    "090640.271000",
    "090642.271000",
    "090644.270000",
    "090646.271000",
    "090648.270000",
    "090650.269000",
    "090652.269000",
    "090654.270000",
    "090656.271000",
    "090658.271000",
    "090700.270000",
    "090702.270000",
    "090704.270000",
    "090706.271000",
    "090708.270000",
    "090710.270000",
    "090712.271000",
    "090714.271000",
    "090716.270000",
    "090718.270000",
    "090720.270000",
    "090722.270000",
    "090724.271000",
    "090726.269000",
    "090728.270000",
    "090730.271000",
    "090732.271000",
    "090734.271000",
    "090736.271000",
    "090738.270000",
    "090740.271000",
    "090742.270000",
    "090744.270000",
    "090746.270000",
    "090748.271000",
    "090750.270000",
    "090752.270000",
    "090754.270000",
    "090756.271000",
    "090758.270000",
    "090800.270000",
    "090802.269000",
    "090804.271000",
    "090806.271000",
    "090808.270000",
    "090810.270000",
    "090812.271000",
    "090814.270000",
    "090816.271000",
    "090818.269000",
    "090820.270000",
    "090822.270000",
    "090824.270000",
    "090826.271000",
    "090828.271000",
    "090830.271000",
    "090832.271000",
    "090834.271000",
    "090836.270000",
    "090838.269000",
    "090840.270000",
    "090842.271000",
    "090844.270000",
    "090846.270000",
    "090848.271000",
    "090850.271000",
    "090852.269000",
    "090854.269000",
    "090856.269000",
    "090858.271000",
    "090900.270000",
    "090902.271000",
    "090904.271000",
    "090906.274000",
    "090908.271000",
    "090910.270000",
    "090912.269000",
    "090914.271000",
    "090916.271000",
    "090918.270000",
    "090920.271000",
    "090922.271000",
    "090924.271000",
    "090926.270000",
    "090928.270000",
    "090930.270000",
    "090932.270000",
    "090934.270000",
    "090936.270000",
    "090938.271000",
    "090940.271000",
    "090942.271000",
    "090944.271000",
    "090946.269000",
    "090948.269000",
    "090950.271000",
    "090952.271000",
    "090954.271000",
    "090956.271000",
    "090958.271000",
    "091000.271000",
    "091002.270000",
    "091004.270000",
    "091006.269000",
    "091008.271000",
    "091010.270000",
    "091012.271000",
    "091014.270000",
    "091016.270000",
    "091018.271000",
    "091020.269000",
    "091022.270000",
    "091024.270000",
    "091026.271000",
    "091028.271000",
    "091030.270000",
    "091032.270000",
    "091034.271000",
    "091036.270000",
    "091038.270000",
    "091040.270000",
    "091042.271000",
    "091044.271000",
    "091046.271000",
    "091048.270000",
    "091050.271000",
    "091052.271000",
    "091054.271000",
    "091056.269000",
    "091058.270000",
    "091100.270000",
    "091102.271000",
    "091104.270000",
    "091106.271000",
    "091108.271000",
    "091110.270000",
    "091112.270000",
    "091114.270000",
    "091116.270000",
    "091118.271000",
    "091120.270000",
    "091122.271000",
    "091124.270000",
    "091126.270000",
    "091128.270000",
    "091130.270000",
    "091132.270000",
    "091134.271000",
    "091136.271000",
    "091138.271000",
    "091140.271000",
    "091142.271000",
    "091144.271000",
    "091146.271000",
    "091148.269000",
    "091150.270000",
    "091152.271000",
    "091154.270000",
    "091156.271000",
    "091158.271000",
    "091200.271000",
    "091202.270000",
    "091204.271000",
    "091206.269000",
    "091208.269000",
    "091210.271000",
    "091212.271000",
    "091214.270000",
    "091216.271000",
    "091218.271000",
    "091220.271000",
    "091222.269000",
    "091224.270000",
    "091226.270000",
    "091228.271000",
    "091230.270000",
    "091232.271000",
    "091234.271000",
    "091236.271000",
    "091238.271000",
    "091240.269000",
    "091242.270000",
    "091244.271000",
    "091246.271000",
    "091248.271000",
    "091250.271000",
    "091252.271000",
    "091254.270000",
    "091256.270000",
    "091258.270000",
    "091300.269000",
    "091302.270000",
    "091304.271000",
    "091306.271000",
    "091308.271000",
    "091310.270000",
    "091312.271000",
    "091314.270000",
    "091316.270000",
    "091318.270000",
    "091320.270000",
    "091322.271000",
    "091324.271000",
    "091326.270000",
    "091328.271000",
    "091330.280000",
    "091332.270000",
    "091334.269000",
    "091336.269000",
    "091338.271000",
    "091340.271000",
    "091342.270000",
    "091344.271000",
    "091346.271000",
    "091348.270000",
    "091350.270000",
    "091352.270000",
    "091354.271000",
    "091356.271000",
    "091358.271000",
    "091400.271000",
    "091402.271000",
    "091404.271000",
    "091406.271000",
    "091408.269000",
    "091410.270000",
    "091412.271000",
    "091414.271000",
    "091416.271000",
    "091418.271000",
    "091420.271000",
    "091422.271000",
    "091424.271000",
    "091426.270000",
    "091428.270000",
    "091430.271000",
    "091432.270000",
    "091434.271000",
    "091436.271000",
    "091438.271000",
    "091440.270000",
    "091442.270000",
    "091444.269000",
    "091446.270000",
    "091448.271000",
    "091450.271000",
    "091452.271000",
    "091454.271000",
    "091456.270000",
    "091458.271000",
    "091500.269000",
    "091501.891000"
   ],
   "InstanceNumber": [
    1,
    2,
    3,
    4,
    5,
    6,
    7,
    8,
    9,
    10,
    11,
    12,
    13,
    14,
    15,
    16,
    17,
    18,
    19,
    20,
    21,
    22,
    23,
    24,
    25,
    26,
    27,
    28,
    29,
    30,
    31,
    32,
    33,
    34,
    35,
    36,
    37,
    38,
    39,
    40,
    41,
    42,
    43,
    44,
    45,
    46,
    47,
    48,
    49,
    50,
    51,
    52,
    53,
    54,
    55,
    56,
    57,
    58,
    59,
    60,
    61,
    62,
    63,
    64,
    65,
    66,
    67,
    68,
    69,
    70,
    71,
    72,
    73,
    74,
    75,
    76,
    77,
    78,
    79,
    80,
    81,
    82,
    83,
    84,
    85,
    86,
    87,
    88,
    89,
    90,
    91,
    92,
    93,
    94,
    95,
    96,
    97,
    98,
    99,
    100,
    101,
    102,
    103,
    104,
    105,
    106,
    107,
    108,
    109,
    110,
    111,
    112,
    113,
    114,
    115,
    116,
    117,
    118,
    119,
    120,
    121,
    122,
    123,
    124,
    125,
    126,
    127,
    128,
    129,
    130,
    131,
    132,
    133,
    134,
    135,
    136,
    137,
    138,
    139,
    140,
    141,
    142,
    143,
    144,
    145,
    146,
    147,
    148,
    149,
    150,
    151,
    152,
    153,
    154,
    155,
    156,
    157,
    158,
    159,
    160,
    161,
    162,
    163,
    164,
    165,
    166,
    167,
    168,
    169,
    170,
    171,
    172,
    173,
    174,
    175,
    176,
    177,
    178,
    179,
    180,
    181,
    182,
    183,
    184,
    185,
    186,
    187,
    188,
    189,
    190,
    191,
    192,
    193,
    194,
    195,
    196,
    197,
    198,
    199,
    200,
    201,
    202,
    203,
    204,
    205,
    206,
    207,
    208,
    209,
    210,
    211,
    212,
    213,
    214,
    215,
    216,
    217,
    218,
    219,
    220,
    221,
    222,
    223,
    224,
    225,
    226,
    227,
    228,
    229,
    230,
    231,
    232,
    233,
    234,
    235,
    236,
    237,
    238,
    239,
    240,
    241,
    242,
    243,
    244,
    245,
    246,
    247,
    248,
    249,
    250,
    251,
    252,
    253,
    254,
    255,
    256
   ],
   "LargestImagePixelValue": [
    3766,
    3690,
    3668,
    3640,
    3618,
    3650,
    3671,
    3730,
    3699,
    3696,
    3678,
    3698,
    3688,
    3696,
    3721,
    3739,
    3707,
    3730,
    3682,
    3715,
    3742,
    3744,
    3714,
    3735,
    3738,
    3723,
    3749,
    3753,
    3690,
    3743,
    3750,
    3724,
    3766,
    3752,
    3740,
    3715,
    3705,
    3759,
    3744,
    3792,
    3744,
    3761,
    3720,
    3761,
    3755,
    3754,
    3714,
    3743,
    3750,
    3776,
    3758,
    3771,
    3744,
    3764,
    3760,
    3743,
    3751,
    3760,
    3758,
    3797,
    3784,
    3759,
    3736,
    3783,
    3727,
    3784,
    3755,
    3767,
    3761,
    3772,
    3754,
    3778,
    3738,
    3731,
    3743,
    3742,
    3737,
    3767,
    3743,
    3759,
    3785,
    3776,
    3773,
    3773,
    3754,
    3794,
    3789,
    3756,
    3766,
    3777,
    3784,
    3772,
    3797,
    3790,
    3757,
    3773,
    3753,
    3759,
    3758,
    3768,
    3739,
    3754,
    3774,
    3774,
    3789,
    3756,
    3748,
    3777,
    3750,
    3753,
    3741,
    3773,
    3765,
    3767,
    3756,
    3727,
    3758,
    3782,
    3722,
    3759,
    3759,
    3753,
    3747,
    3765,
    3731,
    3757,
    3755,
    3750,
    3753,
    3752,
    3732,
    3709,
    3717,
    3729,
    3756,
    3747,
    3729,
    3717,
    3723,
    3740,
    3745,
    3745,
    3709,
    3752,
    3707,
    3744,
    3744,
    3704,
    3700,
    3725,
    3743,
    3715,
    3697,
    3709,
    3717,
    3720,
    3711,
    3714,
    3738,
    3728,
    3694,
    3690,
    3701,
    3671,
    3670,
    3701,
    3700,
    3681,
    3704,
    3692,
    3693,
    3728,
    3690,
    3668,
    3706,
    3691,
    3680,
    3697,
    3690,
    3675,
    3675,
    3672,
    3679,
    3668,
    3647,
    3651,
    3656,
    3639,
    3623,
    3660,
    3627,
    3649,
    3640,
    3642,
    3607,
    3648,
    3637,
    3621,
    3612,
    3606,
    3623,
    3597,
    3589,
    3646,
    3622,
    3587,
    3585,
    3537,
    3604,
    3600,
    3578,
    3578,
    3619,
    3611,
    3565,
    3574,
    3587,
    3572,
    3564,
    3592,
    3566,
    3551,
    3537,
    3554,
    3543,
    3565,
    3532,
    3519,
    3505,
    3530,
    3511,
    3549,
    3540,
    3521,
    3536,
    3548,
    3512,
    3507,
    3529,
    3576,
    3518,
    3565,
    3545,
    3548,
    3548,
    3556,
    3502,
    3561,
    3528,
    3595,
    3569,
    3541,
    3523,
    3512,
    3559,
    3554
   ],
   "WindowCenter": [
    765.0,
    765.0,
    768.0,
    768.0,
    767.0,
    767.0,
    766.0,
    765.0,
    765.0,
    766.0,
    768.0,
    768.0,
    766.0,
    765.0,
    764.0,
    765.0,
    767.0,
    767.0,
    765.0,
    764.0,
    764.0,
    765.0,
    766.0,
    765.0,
    765.0,
    765.0,
    765.0,
    765.0,
    764.0,
    764.0,
    765.0,
    765.0,
    764.0,
    766.0,
    766.0,
    766.0,
    766.0,
    766.0,
    765.0,
    766.0,
    765.0,
    765.0,
    765.0,
    765.0,
    765.0,
    767.0,
    769.0,
    767.0,
    765.0,
    764.0,
    764.0,
    765.0,
    765.0,
    765.0,
    764.0,
    765.0,
    765.0,
    765.0,
    765.0,
    765.0,
    767.0,
    767.0,
    767.0,
    765.0,
    765.0,
    765.0,
    765.0,
    765.0,
    764.0,
    765.0,
    765.0,
    766.0,
    766.0,
    765.0,
    766.0,
    765.0,
    765.0,
    764.0,
    764.0,
    764.0,
    766.0,
    765.0,
    765.0,
    764.0,
    764.0,
    765.0,
    765.0,
    766.0,
    766.0,
    765.0,
    765.0,
    765.0,
    765.0,
    766.0,
    766.0,
    766.0,
    766.0,
    766.0,
    767.0,
    766.0,
    766.0,
    765.0,
    765.0,
    765.0,
    765.0,
    765.0,
    765.0,
    765.0,
    764.0,
    765.0,
    766.0,
    766.0,
    767.0,
    766.0,
    765.0,
    764.0,
    764.0,
    765.0,
    766.0,
    767.0,
    766.0,
    765.0,
    766.0,
    765.0,
    765.0,
