{
  "AcquisitionMatrixPE": 100,
  "AcquisitionNumber": 1,
  "AcquisitionTime": "09:25:35.862500",
  "BandwidthPerPixelPhaseEncode": 18.519,
  "BaseResolution": 100,
  "BodyPartExamined": "BRAIN",
  "ConsistencyInfo": "N4_VE11C_LATEST_20160120",
  "ConversionSoftware": "dcm2niix",
  "ConversionSoftwareVersion": "v1.0.20180622 GCC4.9.2",
  "DerivedVendorReportedEchoSpacing": 0.000539986,
  "DeviceSerialNumber": "166078",
  "DwellTime": 2.1e-06,
  "EchoTime": 0.034,
  "EchoTrainLength": 100,
  "EffectiveEchoSpacing": 0.000539986,
  "FlipAngle": 90,
  "ImageOrientationPatientDICOM": [1, 0, 0, 0, 0.984808, -0.173648],
  "ImageType": [
    "ORIGINAL",
    "PRIMARY",
    "M",
    "ND",
    "MOSAIC"
],
  "InPlanePhaseEncodingDirectionDICOM": "COL",
  "InstitutionAddress": "Street_StreetNo_Bei_Jing_District_CN_ZIP",
  "InstitutionName": "BeiJing_Normal_University",
  "InstitutionalDepartmentName": "Department",
  "MRAcquisitionType": "2D",
  "MagneticFieldStrength": 3,
  "Manufacturer": "Siemens",
  "ManufacturersModelName": "Prisma",
  "Modality": "MR",
  "MultibandAccelerationFactor": 3,
  "PartialFourier": 1,
  "PatientPosition": "HFS",
  "PercentPhaseFOV": 100,
  "PhaseEncodingDirection": "j-",
  "PhaseEncodingSteps": 100,
  "PhaseResolution": 1,
  "PixelBandwidth": 2380,
  "ProcedureStepDescription": "BNU_P2018_64CH_Zhen.ZongLei",
  "ProtocolName": "bold_100x100_s3_2x2x2_static_256",
  "PulseSequenceDetails": "%SiemensSeq%_ep2d_bold",
  "ReceiveCoilActiveElements": "HC1-7;NC1",
  "ReceiveCoilName": "HeadNeck_64",
  "ReconMatrixPE": 100,
  "RepetitionTime": 2,
  "SAR": 0.060599,
  "ScanOptions": "FS",
  "ScanningSequence": "EP",
  "SequenceName": "_epfid2d1_100",
  "SequenceVariant": "SK",
  "SeriesDescription": "bold_100x100_s3_2x2x2_static_256",
  "SeriesNumber": 5,
  "ShimSetting": [-5446, -11522, -1243, 337, 10, -281, -272, 52],
  "SliceThickness": 2,
  "SliceTiming": [1.485, 0, 0.99, 0.0825, 1.0725, 0.165, 1.155, 0.2475, 1.2375, 0.33, 1.32, 0.4125, 1.4025, 0.5775, 1.5675, 0.66, 1.65, 0.7425, 1.7325, 0.825, 1.815, 0.9075, 1.8975, 0.495, 1.485, 0, 0.99, 0.0825, 1.0725, 0.165, 1.155, 0.2475, 1.2375, 0.33, 1.32, 0.4125, 1.4025, 0.5775, 1.5675, 0.66, 1.65, 0.7425, 1.7325, 0.825, 1.815, 0.9075, 1.8975, 0.495, 1.485, 0, 0.99, 0.0825, 1.0725, 0.165, 1.155, 0.2475, 1.2375, 0.33, 1.32, 0.4125, 1.4025, 0.5775, 1.5675, 0.66, 1.65, 0.7425, 1.7325, 0.825, 1.815, 0.9075, 1.8975, 0.495],
  "SoftwareVersions": "syngo_MR_E11",
  "SpacingBetweenSlices": 2,
  "StationName": "AWP166078",
  "TaskName": "naturalvision",
  "TotalReadoutTime": 0.0534586,
  "TxRefAmp": 214.328,
  "dcmmeta_affine": [
    [-2.0, 0.0, 0.0, 102.71186828613281],
    [0.0, 1.9696154594421387, -0.3472963571548462, -89.21361541748047],
    [0.0, 0.3472963571548462, 1.9696154594421387, -75.80085754394531],
    [0.0, 0.0, 0.0, 1.0]
],
  "dcmmeta_reorient_transform": [
    [0.0, -1.0, 0.0, 99.0],
    [1.0, 0.0, 0.0, 0.0],
    [0.0, 0.0, 1.0, 0.0],
    [0.0, 0.0, 0.0, 1.0]
],
  "dcmmeta_shape": [100, 100, 72, 256],
  "dcmmeta_slice_dim": 2,
  "dcmmeta_version": 0.6,
  "global": {
    "const": {
      "AcquisitionMatrix": [100, 0, 0, 100],
      "AngioFlag": "N",
      "BitsAllocated": 16,
      "BitsStored": 12,
      "BodyPartExamined": "BRAIN",
      "Columns": 900,
      "EchoNumbers": 1,
      "EchoTime": 34.0,
      "EchoTrainLength": 100,
      "FlipAngle": 90.0,
      "HighBit": 11,
      "ImageOrientationPatient": [1.0, 0.0, 0.0, 0.0, 0.98480775371103, -0.1736481737037],
      "ImagePositionPatient": [-902.71186447144, -893.62452186562, 97.500019693935],
      "ImageType": [
        "ORIGINAL",
        "PRIMARY",
        "M",
        "ND",
        "MOSAIC"
],
      "ImagedNucleus": "1H",
      "ImagingFrequency": 123.257703,
      "InPlanePhaseEncodingDirection": "COL",
      "MRAcquisitionType": "2D",
      "MagneticFieldStrength": 3.0,
      "Manufacturer": "SIEMENS",
      "ManufacturerModelName": "Prisma",
      "Modality": "MR",
      "NumberOfAverages": 1.0,
      "NumberOfPhaseEncodingSteps": 100,
      "PercentPhaseFieldOfView": 100.0,
      "PercentSampling": 100.0,
      "PerformedProcedureStepStartTime": "085650.269000",
      "PhotometricInterpretation": "MONOCHROME2",
      "PixelBandwidth": 2380.0,
      "PixelRepresentation": 0,
      "PixelSpacing": [2.0, 2.0],
      "ProtocolName": "bold_100x100_s3_2x2x2_static_256",
      "RepetitionTime": 2000.0,
      "Rows": 900,
      "SAR": 0.06059898211578,
      "SamplesPerPixel": 1,
      "ScanOptions": "FS",
      "ScanningSequence": "EP",
      "SequenceName": "*epfid2d1_100",
      "SequenceVariant": "SK",
      "SeriesDescription": "bold_100x100_s3_2x2x2_static_256",
      "SeriesNumber": 5,
      "SeriesTime": "092538.454000",
      "SliceLocation": -59.157490817251,
      "SliceThickness": 2.0,
      "SmallestImagePixelValue": 0,
      "SoftwareVersions": "syngo MR E11",
      "SpacingBetweenSlices": 2.0000000021973,
      "SpecificCharacterSet": "ISO_IR 100",
      "StudyID": "1",
      "StudyTime": "085650.208000",
      "TransmitCoilName": "Body",
      "VariableFlipAngleFlag": "N",
      "WindowCenterWidthExplanation": "Algo1",
      "dBdt": 0.0},
    "slices": {}
  },
  "time": {
    "samples": {
      "AcquisitionNumber": [1, 2, 3, 4, 5, 6, 7, 8, 9, 10, 11, 12, 13, 14, 15, 16, 17, 18, 19, 20, 21, 22, 23, 24, 25, 26, 27, 28, 29, 30, 31, 32, 33, 34, 35, 36, 37, 38, 39, 40, 41, 42, 43, 44, 45, 46, 47, 48, 49, 50, 51, 52, 53, 54, 55, 56, 57, 58, 59, 60, 61, 62, 63, 64, 65, 66, 67, 68, 69, 70, 71, 72, 73, 74, 75, 76, 77, 78, 79, 80, 81, 82, 83, 84, 85, 86, 87, 88, 89, 90, 91, 92, 93, 94, 95, 96, 97, 98, 99, 100, 101, 102, 103, 104, 105, 106, 107, 108, 109, 110, 111, 112, 113, 114, 115, 116, 117, 118, 119, 120, 121, 122, 123, 124, 125, 126, 127, 128, 129, 130, 131, 132, 133, 134, 135, 136, 137, 138, 139, 140, 141, 142, 143, 144, 145, 146, 147, 148, 149, 150, 151, 152, 153, 154, 155, 156, 157, 158, 159, 160, 161, 162, 163, 164, 165, 166, 167, 168, 169, 170, 171, 172, 173, 174, 175, 176, 177, 178, 179, 180, 181, 182, 183, 184, 185, 186, 187, 188, 189, 190, 191, 192, 193, 194, 195, 196, 197, 198, 199, 200, 201, 202, 203, 204, 205, 206, 207, 208, 209, 210, 211, 212, 213, 214, 215, 216, 217, 218, 219, 220, 221, 222, 223, 224, 225, 226, 227, 228, 229, 230, 231, 232, 233, 234, 235, 236, 237, 238, 239, 240, 241, 242, 243, 244, 245, 246, 247, 248, 249, 250, 251, 252, 253, 254, 255, 256],
      "AcquisitionTime": ["092535.862500", "092537.862500", "092539.862500", "092541.862500", "092543.862500", "092545.862500", "092547.862500", "092549.862500", "092551.862500", "092553.862500", "092555.862500", "092557.862500", "092559.862500", "092601.862500", "092603.862500", "092605.862500", "092607.862500", "092609.862500", "092611.862500", "092613.862500", "092615.862500", "092617.862500", "092619.862500", "092621.862500", "092623.862500", "092625.862500", "092627.862500", "092629.862500", "092631.862500", "092633.862500", "092635.862500", "092637.862500", "092639.862500", "092641.862500", "092643.862500", "092645.862500", "092647.862500", "092649.862500", "092651.862500", "092653.862500", "092655.862500", "092657.862500", "092659.862500", "092701.862500", "092703.862500", "092705.862500", "092707.862500", "092709.862500", "092711.862500", "092713.862500", "092715.862500", "092717.862500", "092719.862500", "092721.862500", "092723.862500", "092725.862500", "092727.862500", "092729.862500", "092731.862500", "092733.862500", "092735.862500", "092737.862500", "092739.862500", "092741.862500", "092743.862500", "092745.862500", "092747.862500", "092749.862500", "092751.862500", "092753.862500", "092755.862500", "092757.862500", "092759.862500", "092801.862500", "092803.862500", "092805.862500", "092807.862500", "092809.862500", "092811.862500", "092813.862500", "092815.862500", "092817.862500", "092819.862500", "092821.862500", "092823.862500", "092825.862500", "092827.862500", "092829.862500", "092831.862500", "092833.862500", "092835.862500", "092837.862500", "092839.862500", "092841.862500", "092843.862500", "092845.862500", "092847.862500", "092849.862500", "092851.862500", "092853.862500", "092855.862500", "092857.862500", "092859.862500", "092901.862500", "092903.862500", "092905.862500", "092907.862500", "092909.862500", "092911.862500", "092913.862500", "092915.862500", "092917.862500", "092919.862500", "092921.862500", "092923.862500", "092925.862500", "092927.862500", "092929.862500", "092931.862500", "092933.862500", "092935.862500", "092937.862500", "092939.862500", "092941.862500", "092943.862500", "092945.862500", "092947.862500", "092949.862500", "092951.862500", "092953.862500", "092955.862500", "092957.862500", "092959.862500", "093001.862500", "093003.862500", "093005.862500", "093007.862500", "093009.862500", "093011.862500", "093013.862500", "093015.862500", "093017.862500", "093019.862500", "093021.862500", "093023.862500", "093025.862500", "093027.862500", "093029.862500", "093031.862500", "093033.862500", "093035.862500", "093037.862500", "093039.862500", "093041.862500", "093043.862500", "093045.862500", "093047.862500", "093049.862500", "093051.862500", "093053.862500", "093055.862500", "093057.862500", "093059.862500", "093101.862500", "093103.862500", "093105.862500", "093107.862500", "093109.862500", "093111.862500", "093113.862500", "093115.862500", "093117.862500", "093119.862500", "093121.862500", "093123.862500", "093125.862500", "093127.862500", "093129.862500", "093131.862500", "093133.862500", "093135.862500", "093137.862500", "093139.862500", "093141.862500", "093143.862500", "093145.862500", "093147.862500", "093149.862500", "093151.862500", "093153.862500", "093155.862500", "093157.862500", "093159.862500", "093201.862500", "093203.862500", "093205.862500", "093207.862500", "093209.862500", "093211.862500", "093213.862500", "093215.862500", "093217.862500", "093219.862500", "093221.862500", "093223.862500", "093225.862500", "093227.862500", "093229.862500", "093231.862500", "093233.862500", "093235.862500", "093237.862500", "093239.862500", "093241.862500", "093243.862500", "093245.862500", "093247.862500", "093249.862500", "093251.862500", "093253.862500", "093255.862500", "093257.862500", "093259.862500", "093301.862500", "093303.862500", "093305.862500", "093307.862500", "093309.862500", "093311.862500", "093313.862500", "093315.862500", "093317.862500", "093319.862500", "093321.862500", "093323.862500", "093325.862500", "093327.862500", "093329.862500", "093331.862500", "093333.862500", "093335.862500", "093337.862500", "093339.862500", "093341.862500", "093343.862500", "093345.862500", "093347.862500", "093349.862500", "093351.862500", "093353.862500", "093355.862500", "093357.862500", "093359.862500", "093401.862500", "093403.862500", "093405.862500"],
      "ContentTime": ["092538.458000", "092539.953000", "092541.953000", "092543.954000", "092545.954000", "092547.954000", "092549.954000", "092551.954000", "092553.953000", "092555.953000", "092557.954000", "092559.954000", "092601.954000", "092603.954000", "092605.954000", "092607.953000", "092609.953000", "092611.954000", "092613.953000", "092615.953000", "092617.953000", "092619.953000", "092621.954000", "092623.954000", "092625.954000", "092627.954000", "092629.954000", "092631.953000", "092633.953000", "092635.954000", "092637.954000", "092639.954000", "092641.953000", "092643.954000", "092645.953000", "092647.953000", "092649.954000", "092651.953000", "092653.953000", "092655.953000", "092657.954000", "092659.954000", "092701.954000", "092703.953000", "092705.954000", "092707.953000", "092709.954000", "092711.953000", "092713.954000", "092715.954000", "092717.953000", "092719.954000", "092721.954000", "092723.953000", "092725.953000", "092727.954000", "092729.954000", "092731.954000", "092733.954000", "092735.954000", "092737.953000", "092739.954000", "092741.953000", "092743.953000", "092745.953000", "092747.953000", "092749.954000", "092751.953000", "092753.953000", "092755.953000", "092757.954000", "092759.953000", "092801.953000", "092803.954000", "092805.954000", "092807.953000", "092809.953000", "092811.954000", "092813.953000", "092815.954000", "092817.953000", "092819.953000", "092821.953000", "092823.953000", "092825.954000", "092827.953000", "092829.954000", "092831.954000", "092833.954000", "092835.954000", "092837.954000", "092839.953000", "092841.954000", "092843.953000", "092845.954000", "092847.954000", "092849.953000", "092851.954000", "092853.953000", "092855.953000", "092857.953000", "092859.954000", "092901.954000", "092903.954000", "092905.953000", "092907.954000", "092909.954000", "092911.954000", "092913.954000", "092915.954000", "092917.954000", "092919.954000", "092921.954000", "092923.954000", "092925.954000", "092927.954000", "092929.953000", "092931.954000", "092933.954000", "092935.953000", "092937.954000", "092939.953000", "092941.953000", "092943.954000", "092945.954000", "092947.954000", "092949.953000", "092951.953000", "092953.953000", "092955.954000", "092957.954000", "092959.954000", "093001.954000", "093003.953000", "093005.953000", "093007.953000", "093009.953000", "093011.953000", "093013.954000", "093015.953000", "093017.954000", "093019.954000", "093021.954000", "093023.953000", "093025.953000", "093027.954000", "093029.954000", "093031.954000", "093033.954000", "093035.953000", "093037.953000", "093039.953000", "093041.954000", "093043.953000", "093045.954000", "093047.955000", "093049.954000", "093051.954000", "093053.954000", "093055.953000", "093057.954000", "093059.954000", "093101.954000", "093103.954000", "093105.954000", "093107.953000", "093109.954000", "093111.954000", "093113.954000", "093115.953000", "093117.954000", "093119.953000", "093121.954000", "093123.954000", "093125.953000", "093127.954000", "093129.953000", "093131.954000", "093133.953000", "093135.954000", "093137.954000", "093139.954000", "093141.953000", "093143.954000", "093145.954000", "093147.954000", "093149.954000", "093151.954000", "093153.954000", "093155.954000", "093157.955000", "093159.953000", "093201.953000", "093203.954000", "093205.953000", "093207.953000", "093209.953000", "093211.954000", "093213.954000", "093215.954000", "093217.953000", "093219.953000", "093221.953000", "093223.953000", "093225.954000", "093227.954000", "093229.953000", "093231.953000", "093233.954000", "093235.954000", "093237.954000", "093239.953000", "093241.954000", "093243.954000", "093245.953000", "093247.953000", "093249.954000", "093251.954000", "093253.953000", "093255.953000", "093257.953000", "093259.954000", "093301.954000", "093303.953000", "093305.953000", "093307.955000", "093309.954000", "093311.953000", "093313.954000", "093315.953000", "093317.953000", "093319.954000", "093321.953000", "093323.953000", "093325.954000", "093327.954000", "093329.954000", "093331.953000", "093333.954000", "093335.954000", "093337.954000", "093339.953000", "093341.953000", "093343.954000", "093345.954000", "093347.954000", "093349.955000", "093351.954000", "093353.953000", "093355.954000", "093357.953000", "093359.954000", "093401.954000", "093403.953000", "093405.953000", "093407.759000"],
      "InstanceCreationTime": ["092538.458000", "092539.953000", "092541.953000", "092543.954000", "092545.954000", "092547.954000", "092549.954000", "092551.954000", "092553.953000", "092555.953000", "092557.954000", "092559.954000", "092601.954000", "092603.954000", "092605.954000", "092607.953000", "092609.953000", "092611.954000", "092613.953000", "092615.953000", "092617.953000", "092619.953000", "092621.954000", "092623.954000", "092625.954000", "092627.954000", "092629.954000", "092631.953000", "092633.953000", "092635.954000", "092637.954000", "092639.954000", "092641.953000", "092643.954000", "092645.953000", "092647.953000", "092649.954000", "092651.953000", "092653.953000", "092655.953000", "092657.954000", "092659.954000", "092701.954000", "092703.953000", "092705.954000", "092707.953000", "092709.954000", "092711.953000", "092713.954000", "092715.954000", "092717.953000", "092719.954000", "092721.954000", "092723.953000", "092725.953000", "092727.954000", "092729.954000", "092731.954000", "092733.954000", "092735.954000", "092737.953000", "092739.954000", "092741.953000", "092743.953000", "092745.953000", "092747.953000", "092749.954000", "092751.953000", "092753.953000", "092755.953000", "092757.954000", "092759.953000", "092801.953000", "092803.954000", "092805.954000", "092807.953000", "092809.953000", "092811.954000", "092813.953000", "092815.954000", "092817.953000", "092819.953000", "092821.953000", "092823.953000", "092825.954000", "092827.953000", "092829.954000", "092831.954000", "092833.954000", "092835.954000", "092837.954000", "092839.953000", "092841.954000", "092843.953000", "092845.954000", "092847.954000", "092849.953000", "092851.954000", "092853.953000", "092855.953000", "092857.953000", "092859.954000", "092901.954000", "092903.954000", "092905.953000", "092907.954000", "092909.954000", "092911.954000", "092913.954000", "092915.954000", "092917.954000", "092919.954000", "092921.954000", "092923.954000", "092925.954000", "092927.954000", "092929.953000", "092931.954000", "092933.954000", "092935.953000", "092937.954000", "092939.953000", "092941.953000", "092943.954000", "092945.954000", "092947.954000", "092949.953000", "092951.953000", "092953.953000", "092955.954000", "092957.954000", "092959.954000", "093001.954000", "093003.953000", "093005.953000", "093007.953000", "093009.953000", "093011.953000", "093013.954000", "093015.953000", "093017.954000", "093019.954000", "093021.954000", "093023.953000", "093025.953000", "093027.954000", "093029.954000", "093031.954000", "093033.954000", "093035.953000", "093037.953000", "093039.953000", "093041.954000", "093043.953000", "093045.954000", "093047.955000", "093049.954000", "093051.954000", "093053.954000", "093055.953000", "093057.954000", "093059.954000", "093101.954000", "093103.954000", "093105.954000", "093107.953000", "093109.954000", "093111.954000", "093113.954000", "093115.953000", "093117.954000", "093119.953000", "093121.954000", "093123.954000", "093125.953000", "093127.954000", "093129.953000", "093131.954000", "093133.953000", "093135.954000", "093137.954000", "093139.954000", "093141.953000", "093143.954000", "093145.954000", "093147.954000", "093149.954000", "093151.954000", "093153.954000", "093155.954000", "093157.955000", "093159.953000", "093201.953000", "093203.954000", "093205.953000", "093207.953000", "093209.953000", "093211.954000", "093213.954000", "093215.954000", "093217.953000", "093219.953000", "093221.953000", "093223.953000", "093225.954000", "093227.954000", "093229.953000", "093231.953000", "093233.954000", "093235.954000", "093237.954000", "093239.953000", "093241.954000", "093243.954000", "093245.953000", "093247.953000", "093249.954000", "093251.954000", "093253.953000", "093255.953000", "093257.953000", "093259.954000", "093301.954000", "093303.953000", "093305.953000", "093307.955000", "093309.954000", "093311.953000", "093313.954000", "093315.953000", "093317.953000", "093319.954000", "093321.953000", "093323.953000", "093325.954000", "093327.954000", "093329.954000", "093331.953000", "093333.954000", "093335.954000", "093337.954000", "093339.953000", "093341.953000", "093343.954000", "093345.954000", "093347.954000", "093349.955000", "093351.954000", "093353.953000", "093355.954000", "093357.953000", "093359.954000", "093401.954000", "093403.953000", "093405.953000", "093407.759000"],
      "InstanceNumber": [1, 2, 3, 4, 5, 6, 7, 8, 9, 10, 11, 12, 13, 14, 15, 16, 17, 18, 19, 20, 21, 22, 23, 24, 25, 26, 27, 28, 29, 30, 31, 32, 33, 34, 35, 36, 37, 38, 39, 40, 41, 42, 43, 44, 45, 46, 47, 48, 49, 50, 51, 52, 53, 54, 55, 56, 57, 58, 59, 60, 61, 62, 63, 64, 65, 66, 67, 68, 69, 70, 71, 72, 73, 74, 75, 76, 77, 78, 79, 80, 81, 82, 83, 84, 85, 86, 87, 88, 89, 90, 91, 92, 93, 94, 95, 96, 97, 98, 99, 100, 101, 102, 103, 104, 105, 106, 107, 108, 109, 110, 111, 112, 113, 114, 115, 116, 117, 118, 119, 120, 121, 122, 123, 124, 125, 126, 127, 128, 129, 130, 131, 132, 133, 134, 135, 136, 137, 138, 139, 140, 141, 142, 143, 144, 145, 146, 147, 148, 149, 150, 151, 152, 153, 154, 155, 156, 157, 158, 159, 160, 161, 162, 163, 164, 165, 166, 167, 168, 169, 170, 171, 172, 173, 174, 175, 176, 177, 178, 179, 180, 181, 182, 183, 184, 185, 186, 187, 188, 189, 190, 191, 192, 193, 194, 195, 196, 197, 198, 199, 200, 201, 202, 203, 204, 205, 206, 207, 208, 209, 210, 211, 212, 213, 214, 215, 216, 217, 218, 219, 220, 221, 222, 223, 224, 225, 226, 227, 228, 229, 230, 231, 232, 233, 234, 235, 236, 237, 238, 239, 240, 241, 242, 243, 244, 245, 246, 247, 248, 249, 250, 251, 252, 253, 254, 255, 256],
      "LargestImagePixelValue": [3788, 3676, 3711, 3719, 3755, 3740, 3743, 3670, 3722, 3739, 3726, 3708, 3751, 3771, 3771, 3802, 3776, 3785, 3772, 3803, 3786, 3794, 3806, 3781, 3783, 3784, 3821, 3817, 3815, 3809, 3788, 3789, 3792, 3812, 3824, 3801, 3789, 3798, 3809, 3795, 3793, 3829, 3793, 3799, 3768, 3789, 3788, 3813, 3803, 3816, 3791, 3796, 3780, 3753, 3820, 3785, 3816, 3809, 3795, 3754, 3795, 3797, 3798, 3813, 3793, 3779, 3830, 3817, 3801, 3783, 3817, 3816, 3783, 3806, 3819, 3800, 3807, 3783, 3796, 3803, 3789, 3775, 3822, 3802, 3793, 3812, 3797, 3780, 3809, 3798, 3791, 3815, 3789, 3866, 3810, 3815, 3816, 3776, 3783, 3798, 3831, 3835, 3836, 3814, 3800, 3794, 3794, 3809, 3792, 3777, 3784, 3788, 3804, 3780, 3789, 3799, 3801, 3792, 3806, 3829, 3780, 3773, 3811, 3779, 3793, 3782, 3786, 3800, 3814, 3788, 3798, 3783, 3811, 3773, 3775, 3760, 3790, 3787, 3765, 3769, 3805, 3783, 3783, 3818, 3790, 3787, 3789, 3794, 3803, 3795, 3786, 3776, 3791, 3754, 3815, 3791, 3784, 3816, 3785, 3811, 3791, 3798, 3776, 3774, 3779, 3770, 3782, 3812, 3816, 3796, 3791, 3762, 3811, 3807, 3789, 3793, 3776, 3789, 3754, 3768, 3766, 3778, 3774, 3782, 3683, 3753, 3698, 3716, 3762, 3777, 3752, 3735, 3758, 3605, 3811, 3699, 3706, 3731, 3741, 3759, 3704, 3695, 3758, 3752, 3736, 3760, 3753, 3716, 3752, 3734, 3791, 3740, 3770, 3781, 3770, 3753, 3754, 3743, 3724, 3736, 3738, 3715, 3762, 3780, 3729, 3759, 3773, 3759, 3742, 3785, 3758, 3735, 3739, 3765, 3766, 3777, 3736, 3754, 3773, 3765, 3642, 3660, 3564, 3628, 3676, 3706, 3711, 3694, 3761, 3765, 3739, 3746, 3746, 3722, 3733, 3721],
      "WindowCenter": [769.0, 770.0, 771.0, 771.0, 771.0, 769.0, 770.0, 770.0, 771.0, 772.0, 772.0, 772.0, 773.0, 772.0, 772.0, 771.0, 772.0, 772.0, 772.0, 772.0, 771.0, 771.0, 772.0, 772.0, 772.0, 772.0, 772.0, 772.0, 772.0, 771.0, 772.0, 772.0, 772.0, 771.0, 770.0, 769.0, 769.0, 770.0, 771.0, 772.0, 771.0, 770.0, 769.0, 769.0, 769.0, 770.0, 771.0, 771.0, 771.0, 771.0, 771.0, 772.0, 772.0, 771.0, 771.0, 770.0, 769.0, 769.0, 769.0, 770.0, 771.0, 772.0, 773.0, 772.0, 772.0, 772.0, 772.0, 772.0, 772.0, 772.0, 771.0, 772.0, 772.0, 771.0, 770.0, 770.0, 770.0, 770.0, 770.0, 769.0, 769.0, 770.0, 770.0, 770.0, 770.0, 771.0, 771.0, 771.0, 770.0, 770.0, 771.0, 771.0, 770.0, 772.0, 771.0, 770.0, 770.0, 770.0, 771.0, 770.0, 771.0, 771.0, 771.0, 771.0, 771.0, 771.0, 771.0, 771.0, 771.0, 770.0, 770.0, 770.0, 771.0, 770.0, 771.0, 772.0, 771.0, 771.0, 771.0, 772.0, 772.0, 771.0, 771.0, 771.0, 770.0, 772.0, 773.0, 774.0, 772.0, 772.0, 771.0, 770.0, 771.0, 771.0, 772.0, 772.0, 771.0, 771.0, 770.0, 770.0, 770.0, 770.0, 769.0, 770.0, 772.0, 773.0, 771.0, 771.0, 772.0, 772.0, 772.0, 770.0, 770.0, 771.0, 772.0, 772.0, 771.0, 770.0, 770.0, 771.0, 772.0, 772.0, 772.0, 771.0, 770.0, 770.0, 771.0, 773.0, 772.0, 772.0, 772.0, 771.0, 772.0, 772.0, 773.0, 773.0, 771.0, 771.0, 772.0, 772.0, 771.0, 772.0, 773.0, 774.0, 772.0, 774.0, 772.0, 770.0, 769.0, 769.0, 769.0, 769.0, 769.0, 768.0, 770.0, 770.0, 771.0, 771.0, 770.0, 770.0, 769.0, 770.0, 770.0, 771.0, 771.0, 771.0, 771.0, 770.0, 771.0, 772.0, 772.0, 771.0, 770.0, 771.0, 772.0, 772.0, 773.0, 771.0, 770.0, 769.0, 769.0, 769.0, 770.0, 771.0, 769.0, 769.0, 770.0, 771.0, 771.0, 772.0, 772.0, 772.0, 772.0, 773.0, 773.0, 772.0, 770.0, 771.0, 773.0, 772.0, 771.0, 772.0, 772.0, 771.0, 770.0, 768.0, 766.0, 766.0, 767.0, 767.0, 769.0, 770.0, 771.0, 772.0, 773.0, 773.0],
      "WindowWidth": [1681.0, 1683.0, 1686.0, 1685.0, 1683.0, 1680.0, 1681.0, 1682.0, 1684.0, 1686.0, 1688.0, 1687.0, 1690.0, 1689.0, 1689.0, 1687.0, 1687.0, 1687.0, 1689.0, 1688.0, 1684.0, 1685.0, 1687.0, 1688.0, 1688.0, 1687.0, 1689.0, 1688.0, 1687.0, 1687.0, 1688.0, 1689.0, 1688.0, 1685.0, 1681.0, 1679.0, 1680.0, 1682.0, 1685.0, 1687.0, 1685.0, 1682.0, 1680.0, 1679.0, 1680.0, 1683.0, 1686.0, 1685.0, 1685.0, 1685.0, 1687.0, 1690.0, 1688.0, 1685.0, 1684.0, 1682.0, 1680.0, 1679.0, 1681.0, 1684.0, 1687.0, 1689.0, 1692.0, 1689.0, 1689.0, 1689.0, 1687.0, 1688.0, 1689.0, 1689.0, 1686.0, 1689.0, 1688.0, 1686.0, 1682.0, 1683.0, 1684.0, 1682.0, 1682.0, 1679.0, 1679.0, 1682.0, 1683.0, 1683.0, 1683.0, 1685.0, 1686.0, 1684.0, 1684.0, 1681.0, 1684.0, 1685.0, 1684.0, 1687.0, 1685.0, 1683.0, 1681.0, 1684.0, 1685.0, 1683.0, 1685.0, 1686.0, 1686.0, 1686.0, 1685.0, 1685.0, 1686.0, 1685.0, 1684.0, 1682.0, 1681.0, 1683.0, 1684.0, 1683.0, 1685.0, 1687.0, 1686.0, 1685.0, 1685.0, 1687.0, 1687.0, 1685.0, 1685.0, 1685.0, 1683.0, 1687.0, 1693.0, 1693.0, 1688.0, 1687.0, 1684.0, 1684.0, 1686.0, 1685.0, 1687.0, 1687.0, 1685.0, 1684.0, 1682.0, 1682.0, 1681.0, 1682.0, 1681.0, 1683.0, 1687.0, 1690.0, 1684.0, 1685.0, 1688.0, 1688.0, 1686.0, 1683.0, 1681.0, 1685.0, 1689.0, 1689.0, 1686.0, 1682.0, 1681.0, 1685.0, 1688.0, 1686.0, 1686.0, 1685.0, 1682.0, 1683.0, 1685.0, 1689.0, 1688.0, 1687.0, 1687.0, 1685.0, 1688.0, 1688.0, 1692.0, 1689.0, 1684.0, 1684.0, 1686.0, 1687.0, 1685.0, 1688.0, 1692.0, 1693.0, 1686.0, 1692.0, 1686.0, 1683.0, 1680.0, 1679.0, 1680.0, 1679.0, 1680.0, 1675.0, 1682.0, 1681.0, 1685.0, 1685.0, 1683.0, 1681.0, 1680.0, 1681.0, 1683.0, 1684.0, 1684.0, 1685.0, 1684.0, 1682.0, 1685.0, 1687.0, 1689.0, 1684.0, 1683.0, 1686.0, 1689.0, 1689.0, 1691.0, 1685.0, 1682.0, 1680.0, 1679.0, 1678.0, 1683.0, 1684.0, 1679.0, 1679.0, 1683.0, 1684.0, 1685.0, 1687.0, 1689.0, 1689.0, 1688.0, 1689.0, 1689.0, 1686.0, 1683.0, 1685.0, 1689.0, 1687.0, 1684.0, 1687.0, 1688.0, 1684.0, 1681.0, 1675.0, 1671.0, 1670.0, 1673.0, 1674.0, 1678.0, 1681.0, 1684.0, 1687.0, 1690.0, 1690.0]
    },
    "slices": {}
  }
}