{
 "AcquisitionMatrixPE": 100,
 "AcquisitionNumber": 1,
 "AcquisitionTime": "10:17:45.370000",
 "BandwidthPerPixelPhaseEncode": 18.519,
 "BaseResolution": 100,
 "BodyPartExamined": "BRAIN",
 "ConsistencyInfo": "N4_VE11C_LATEST_20160120",
 "ConversionSoftware": "dcm2niix",
 "ConversionSoftwareVersion": "v1.0.20180622 GCC4.9.2",
 "DerivedVendorReportedEchoSpacing": 0.000539986,
 "DeviceSerialNumber": "166078",
 "DwellTime": 2.1e-06,
 "EchoTime": 0.034,
 "EchoTrainLength": 100,
 "EffectiveEchoSpacing": 0.000539986,
 "FlipAngle": 90,
 "ImageOrientationPatientDICOM": [
  1,
  0,
  0,
  0,
  0.984808,
  -0.173648
 ],
 "ImageType": [
  "ORIGINAL",
  "PRIMARY",
  "M",
  "ND",
  "MOSAIC"
 ],
 "InPlanePhaseEncodingDirectionDICOM": "COL",
 "InstitutionAddress": "Street_StreetNo_Bei_Jing_District_CN_ZIP",
 "InstitutionName": "BeiJing_Normal_University",
 "InstitutionalDepartmentName": "Department",
 "MRAcquisitionType": "2D",
 "MagneticFieldStrength": 3,
 "Manufacturer": "Siemens",
 "ManufacturersModelName": "Prisma",
 "Modality": "MR",
 "MultibandAccelerationFactor": 3,
 "PartialFourier": 1,
 "PatientPosition": "HFS",
 "PercentPhaseFOV": 100,
 "PhaseEncodingDirection": "j-",
 "PhaseEncodingSteps": 100,
 "PhaseResolution": 1,
 "PixelBandwidth": 2380,
 "ProcedureStepDescription": "BNU_P2018_64CH_Zhen.ZongLei",
 "ProtocolName": "bold_100x100_s3_2x2x2_static_256",
 "PulseSequenceDetails": "%SiemensSeq%_ep2d_bold",
 "ReceiveCoilActiveElements": "HC1-7;NC1",
 "ReceiveCoilName": "HeadNeck_64",
 "ReconMatrixPE": 100,
 "RepetitionTime": 2,
 "SAR": 0.060599,
 "ScanOptions": "FS",
 "ScanningSequence": "EP",
 "SequenceName": "_epfid2d1_100",
 "SequenceVariant": "SK",
 "SeriesDescription": "bold_100x100_s3_2x2x2_static_256",
 "SeriesNumber": 12,
 "ShimSetting": [
  -5446,
  -11522,
  -1243,
  337,
  10,
  -281,
  -272,
  52
 ],
 "SliceThickness": 2,
 "SliceTiming": [
  1.485,
  0,
  0.99,
  0.0825,
  1.0725,
  0.165,
  1.155,
  0.2475,
  1.2375,
  0.33,
  1.32,
  0.4125,
  1.4025,
  0.5775,
  1.5675,
  0.66,
  1.65,
  0.7425,
  1.7325,
  0.825,
  1.815,
  0.9075,
  1.8975,
  0.495,
  1.485,
  0,
  0.99,
  0.0825,
  1.0725,
  0.165,
  1.155,
  0.2475,
  1.2375,
  0.33,
  1.32,
  0.4125,
  1.4025,
  0.5775,
  1.5675,
  0.66,
  1.65,
  0.7425,
  1.7325,
  0.825,
  1.815,
  0.9075,
  1.8975,
  0.495,
  1.485,
  0,
  0.99,
  0.0825,
  1.0725,
  0.165,
  1.155,
  0.2475,
  1.2375,
  0.33,
  1.32,
  0.4125,
  1.4025,
  0.5775,
  1.5675,
  0.66,
  1.65,
  0.7425,
  1.7325,
  0.825,
  1.815,
  0.9075,
  1.8975,
  0.495
 ],
 "SoftwareVersions": "syngo_MR_E11",
 "SpacingBetweenSlices": 2,
 "StationName": "AWP166078",
 "TaskName": "imagenet",
 "TotalReadoutTime": 0.0534586,
 "TxRefAmp": 214.328,
 "dcmmeta_affine": [
  [
   -2.0,
   0.0,
   0.0,
   102.71186828613281
  ],
  [
   0.0,
   1.9696154594421387,
   -0.3472963571548462,
   -89.21361541748047
  ],
  [
   0.0,
   0.3472963571548462,
   1.9696154594421387,
   -75.80085754394531
  ],
  [
   0.0,
   0.0,
   0.0,
   1.0
  ]
 ],
 "dcmmeta_reorient_transform": [
  [
   0.0,
   -1.0,
   0.0,
   99.0
  ],
  [
   1.0,
   0.0,
   0.0,
   0.0
  ],
  [
   0.0,
   0.0,
   1.0,
   0.0
  ],
  [
   0.0,
   0.0,
   0.0,
   1.0
  ]
 ],
 "dcmmeta_shape": [
  100,
  100,
  72,
  256
 ],
 "dcmmeta_slice_dim": 2,
 "dcmmeta_version": 0.6,
 "global": {
  "const": {
   "AcquisitionMatrix": [
    100,
    0,
    0,
    100
   ],
   "AngioFlag": "N",
   "BitsAllocated": 16,
   "BitsStored": 12,
   "BodyPartExamined": "BRAIN",
   "Columns": 900,
   "EchoNumbers": 1,
   "EchoTime": 34.0,
   "EchoTrainLength": 100,
   "FlipAngle": 90.0,
   "HighBit": 11,
   "ImageOrientationPatient": [
    1.0,
    0.0,
    0.0,
    0.0,
    0.98480775371103,
    -0.1736481737037
   ],
   "ImagePositionPatient": [
    -902.71186447144,
    -893.62452186562,
    97.500019693935
   ],
   "ImageType": [
    "ORIGINAL",
    "PRIMARY",
    "M",
    "ND",
    "MOSAIC"
   ],
   "ImagedNucleus": "1H",
   "ImagingFrequency": 123.257717,
   "InPlanePhaseEncodingDirection": "COL",
   "MRAcquisitionType": "2D",
   "MagneticFieldStrength": 3.0,
   "Manufacturer": "SIEMENS",
   "ManufacturerModelName": "Prisma",
   "Modality": "MR",
   "NumberOfAverages": 1.0,
   "NumberOfPhaseEncodingSteps": 100,
   "PercentPhaseFieldOfView": 100.0,
   "PercentSampling": 100.0,
   "PerformedProcedureStepStartTime": "085650.269000",
   "PhotometricInterpretation": "MONOCHROME2",
   "PixelBandwidth": 2380.0,
   "PixelRepresentation": 0,
   "PixelSpacing": [
    2.0,
    2.0
   ],
   "ProtocolName": "bold_100x100_s3_2x2x2_static_256",
   "RepetitionTime": 2000.0,
   "Rows": 900,
   "SAR": 0.06059898211578,
   "SamplesPerPixel": 1,
   "ScanOptions": "FS",
   "ScanningSequence": "EP",
   "SequenceName": "*epfid2d1_100",
   "SequenceVariant": "SK",
   "SeriesDescription": "bold_100x100_s3_2x2x2_static_256",
   "SeriesNumber": 12,
   "SeriesTime": "101747.909000",
   "SliceLocation": -59.157490817251,
   "SliceThickness": 2.0,
   "SmallestImagePixelValue": 0,
   "SoftwareVersions": "syngo MR E11",
   "SpacingBetweenSlices": 2.0000000021973,
   "SpecificCharacterSet": "ISO_IR 100",
   "StudyID": "1",
   "StudyTime": "085650.208000",
   "TransmitCoilName": "Body",
   "VariableFlipAngleFlag": "N",
   "WindowCenterWidthExplanation": "Algo1",
   "dBdt": 0.0
  },
  "slices": {}
 },
 "time": {
  "samples": {
   "AcquisitionNumber": [
    1,
    2,
    3,
    4,
    5,
    6,
    7,
    8,
    9,
    10,
    11,
    12,
    13,
    14,
    15,
    16,
    17,
    18,
    19,
    20,
    21,
    22,
    23,
    24,
    25,
    26,
    27,
    28,
    29,
    30,
    31,
    32,
    33,
    34,
    35,
    36,
    37,
    38,
    39,
    40,
    41,
    42,
    43,
    44,
    45,
    46,
    47,
    48,
    49,
    50,
    51,
    52,
    53,
    54,
    55,
    56,
    57,
    58,
    59,
    60,
    61,
    62,
    63,
    64,
    65,
    66,
    67,
    68,
    69,
    70,
    71,
    72,
    73,
    74,
    75,
    76,
    77,
    78,
    79,
    80,
    81,
    82,
    83,
    84,
    85,
    86,
    87,
    88,
    89,
    90,
    91,
    92,
    93,
    94,
    95,
    96,
    97,
    98,
    99,
    100,
    101,
    102,
    103,
    104,
    105,
    106,
    107,
    108,
    109,
    110,
    111,
    112,
    113,
    114,
    115,
    116,
    117,
    118,
    119,
    120,
    121,
    122,
    123,
    124,
    125,
    126,
    127,
    128,
    129,
    130,
    131,
    132,
    133,
    134,
    135,
    136,
    137,
    138,
    139,
    140,
    141,
    142,
    143,
    144,
    145,
    146,
    147,
    148,
    149,
    150,
    151,
    152,
    153,
    154,
    155,
    156,
    157,
    158,
    159,
    160,
    161,
    162,
    163,
    164,
    165,
    166,
    167,
    168,
    169,
    170,
    171,
    172,
    173,
    174,
    175,
    176,
    177,
    178,
    179,
    180,
    181,
    182,
    183,
    184,
    185,
    186,
    187,
    188,
    189,
    190,
    191,
    192,
    193,
    194,
    195,
    196,
    197,
    198,
    199,
    200,
    201,
    202,
    203,
    204,
    205,
    206,
    207,
    208,
    209,
    210,
    211,
    212,
    213,
    214,
    215,
    216,
    217,
    218,
    219,
    220,
    221,
    222,
    223,
    224,
    225,
    226,
    227,
    228,
    229,
    230,
    231,
    232,
    233,
    234,
    235,
    236,
    237,
    238,
    239,
    240,
    241,
    242,
    243,
    244,
    245,
    246,
    247,
    248,
    249,
    250,
    251,
    252,
    253,
    254,
    255,
    256
   ],
   "AcquisitionTime": [
    "101745.370000",
    "101747.370000",
    "101749.370000",
    "101751.370000",
    "101753.370000",
    "101755.370000",
    "101757.370000",
    "101759.370000",
    "101801.370000",
    "101803.370000",
    "101805.370000",
    "101807.370000",
    "101809.370000",
    "101811.370000",
    "101813.370000",
    "101815.370000",
    "101817.370000",
    "101819.370000",
    "101821.370000",
    "101823.370000",
    "101825.370000",
    "101827.370000",
    "101829.370000",
    "101831.370000",
    "101833.370000",
    "101835.370000",
    "101837.370000",
    "101839.370000",
    "101841.370000",
    "101843.370000",
    "101845.370000",
    "101847.370000",
    "101849.370000",
    "101851.370000",
    "101853.370000",
    "101855.370000",
    "101857.370000",
    "101859.370000",
    "101901.370000",
    "101903.370000",
    "101905.370000",
    "101907.370000",
    "101909.370000",
    "101911.370000",
    "101913.370000",
    "101915.370000",
    "101917.370000",
    "101919.370000",
    "101921.370000",
    "101923.370000",
    "101925.370000",
    "101927.370000",
    "101929.370000",
    "101931.370000",
    "101933.370000",
    "101935.370000",
    "101937.370000",
    "101939.370000",
    "101941.370000",
    "101943.370000",
    "101945.370000",
    "101947.370000",
    "101949.370000",
    "101951.370000",
    "101953.370000",
    "101955.370000",
    "101957.370000",
    "101959.370000",
    "102001.370000",
    "102003.370000",
    "102005.370000",
    "102007.370000",
    "102009.370000",
    "102011.370000",
    "102013.370000",
    "102015.370000",
    "102017.370000",
    "102019.370000",
    "102021.370000",
    "102023.370000",
    "102025.370000",
    "102027.370000",
    "102029.370000",
    "102031.370000",
    "102033.370000",
    "102035.370000",
    "102037.370000",
    "102039.370000",
    "102041.370000",
    "102043.370000",
    "102045.370000",
    "102047.370000",
    "102049.370000",
    "102051.370000",
    "102053.370000",
    "102055.370000",
    "102057.370000",
    "102059.370000",
    "102101.370000",
    "102103.370000",
    "102105.370000",
    "102107.370000",
    "102109.370000",
    "102111.370000",
    "102113.370000",
    "102115.370000",
    "102117.370000",
    "102119.370000",
    "102121.370000",
    "102123.370000",
    "102125.370000",
    "102127.370000",
    "102129.370000",
    "102131.370000",
    "102133.370000",
    "102135.370000",
    "102137.370000",
    "102139.370000",
    "102141.370000",
    "102143.370000",
    "102145.370000",
    "102147.370000",
    "102149.370000",
    "102151.370000",
    "102153.370000",
    "102155.370000",
    "102157.370000",
    "102159.370000",
    "102201.370000",
    "102203.370000",
    "102205.370000",
    "102207.370000",
    "102209.370000",
    "102211.370000",
    "102213.370000",
    "102215.370000",
    "102217.370000",
    "102219.370000",
    "102221.370000",
    "102223.370000",
    "102225.370000",
    "102227.370000",
    "102229.370000",
    "102231.370000",
    "102233.370000",
    "102235.370000",
    "102237.370000",
    "102239.370000",
    "102241.370000",
    "102243.370000",
    "102245.370000",
    "102247.370000",
    "102249.370000",
    "102251.370000",
    "102253.370000",
    "102255.370000",
    "102257.370000",
    "102259.370000",
    "102301.370000",
    "102303.370000",
    "102305.370000",
    "102307.370000",
    "102309.370000",
    "102311.370000",
    "102313.370000",
    "102315.370000",
    "102317.370000",
    "102319.370000",
    "102321.370000",
    "102323.370000",
    "102325.370000",
    "102327.370000",
    "102329.370000",
    "102331.370000",
    "102333.370000",
    "102335.370000",
    "102337.370000",
    "102339.370000",
    "102341.370000",
    "102343.370000",
    "102345.370000",
    "102347.370000",
    "102349.370000",
    "102351.370000",
    "102353.370000",
    "102355.370000",
    "102357.370000",
    "102359.370000",
    "102401.370000",
    "102403.370000",
    "102405.370000",
    "102407.370000",
    "102409.370000",
    "102411.370000",
    "102413.370000",
    "102415.370000",
    "102417.370000",
    "102419.370000",
    "102421.370000",
    "102423.370000",
    "102425.370000",
    "102427.370000",
    "102429.370000",
    "102431.370000",
    "102433.370000",
    "102435.370000",
    "102437.370000",
    "102439.370000",
    "102441.370000",
    "102443.370000",
    "102445.370000",
    "102447.370000",
    "102449.370000",
    "102451.370000",
    "102453.370000",
    "102455.370000",
    "102457.370000",
    "102459.370000",
    "102501.370000",
    "102503.370000",
    "102505.370000",
    "102507.370000",
    "102509.370000",
    "102511.370000",
    "102513.370000",
    "102515.370000",
    "102517.370000",
    "102519.370000",
    "102521.370000",
    "102523.370000",
    "102525.370000",
    "102527.370000",
    "102529.370000",
    "102531.370000",
    "102533.370000",
    "102535.370000",
    "102537.370000",
    "102539.370000",
    "102541.370000",
    "102543.370000",
    "102545.370000",
    "102547.370000",
    "102549.370000",
    "102551.370000",
    "102553.370000",
    "102555.370000",
    "102557.370000",
    "102559.370000",
    "102601.370000",
    "102603.370000",
    "102605.370000",
    "102607.370000",
    "102609.370000",
    "102611.370000",
    "102613.370000",
    "102615.370000"
   ],
   "ContentTime": [
    "101747.913000",
    "101749.408000",
    "101751.407000",
    "101753.407000",
    "101755.407000",
    "101757.407000",
    "101759.407000",
    "101801.408000",
    "101803.409000",
    "101805.408000",
    "101807.408000",
    "101809.407000",
    "101811.408000",
    "101813.408000",
    "101815.407000",
    "101817.408000",
    "101819.408000",
    "101821.408000",
    "101823.408000",
    "101825.408000",
    "101827.408000",
    "101829.408000",
    "101831.408000",
    "101833.407000",
    "101835.409000",
    "101837.409000",
    "101839.408000",
    "101841.409000",
    "101843.408000",
    "101845.407000",
    "101847.407000",
    "101849.407000",
    "101851.407000",
    "101853.408000",
    "101855.409000",
    "101857.408000",
    "101859.407000",
    "101901.408000",
    "101903.408000",
    "101905.408000",
    "101907.407000",
    "101909.408000",
    "101911.408000",
    "101913.409000",
    "101915.408000",
    "101917.407000",
    "101919.407000",
    "101921.407000",
    "101923.407000",
    "101925.407000",
    "101927.407000",
    "101929.408000",
    "101931.408000",
    "101933.408000",
    "101935.407000",
    "101937.408000",
    "101939.408000",
    "101941.408000",
    "101943.407000",
    "101945.409000",
    "101947.409000",
    "101949.409000",
    "101951.409000",
    "101953.407000",
    "101955.408000",
    "101957.408000",
    "101959.407000",
    "102001.407000",
    "102003.408000",
    "102005.409000",
    "102007.409000",
    "102009.408000",
    "102011.407000",
    "102013.408000",
    "102015.407000",
    "102017.407000",
    "102019.407000",
    "102021.409000",
    "102023.408000",
    "102025.409000",
    "102027.407000",
    "102029.407000",
    "102031.407000",
    "102033.407000",
    "102035.407000",
    "102037.407000",
    "102039.408000",
    "102041.409000",
    "102043.409000",
    "102045.408000",
    "102047.407000",
    "102049.407000",
    "102051.407000",
    "102053.407000",
    "102055.409000",
    "102057.408000",
    "102059.408000",
    "102101.409000",
    "102103.407000",
    "102105.407000",
    "102107.408000",
    "102109.407000",
    "102111.408000",
    "102113.408000",
    "102115.408000",
    "102117.408000",
    "102119.407000",
    "102121.408000",
    "102123.407000",
    "102125.408000",
    "102127.408000",
    "102129.408000",
    "102131.408000",
    "102133.408000",
    "102135.409000",
    "102137.407000",
    "102139.407000",
    "102141.408000",
    "102143.407000",
    "102145.407000",
    "102147.408000",
    "102149.409000",
    "102151.409000",
    "102153.408000",
    "102155.407000",
    "102157.407000",
    "102159.408000",
    "102201.408000",
    "102203.408000",
    "102205.408000",
    "102207.409000",
    "102209.408000",
    "102211.408000",
    "102213.408000",
    "102215.407000",
    "102217.407000",
    "102219.407000",
    "102221.408000",
    "102223.409000",
    "102225.409000",
    "102227.408000",
    "102229.408000",
    "102231.408000",
    "102233.408000",
    "102235.408000",
    "102237.408000",
    "102239.408000",
    "102241.409000",
    "102243.409000",
    "102245.409000",
    "102247.407000",
    "102249.407000",
    "102251.408000",
    "102253.407000",
    "102255.408000",
    "102257.408000",
    "102259.409000",
    "102301.408000",
    "102303.408000",
    "102305.407000",
    "102307.407000",
    "102309.408000",
    "102311.408000",
    "102313.407000",
    "102315.409000",
    "102317.409000",
    "102319.409000",
    "102321.409000",
    "102323.407000",
    "102325.407000",
    "102327.408000",
    "102329.407000",
    "102331.407000",
    "102333.409000",
    "102335.408000",
    "102337.408000",
    "102339.408000",
    "102341.408000",
    "102343.408000",
    "102345.407000",
    "102347.408000",
    "102349.408000",
    "102351.409000",
    "102353.409000",
    "102355.409000",
    "102357.407000",
    "102359.408000",
    "102401.408000",
    "102403.408000",
    "102405.408000",
    "102407.407000",
    "102409.409000",
    "102411.409000",
    "102413.409000",
    "102415.408000",
    "102417.407000",
    "102419.408000",
    "102421.407000",
    "102423.408000",
    "102425.409000",
    "102427.409000",
    "102429.409000",
    "102431.409000",
    "102433.408000",
    "102435.408000",
    "102437.408000",
    "102439.407000",
    "102441.408000",
    "102443.409000",
    "102445.409000",
    "102447.408000",
    "102449.407000",
    "102451.408000",
    "102453.408000",
    "102455.407000",
    "102457.407000",
    "102459.408000",
    "102501.409000",
    "102503.408000",
    "102505.409000",
    "102507.408000",
    "102509.408000",
    "102511.407000",
    "102513.408000",
    "102515.407000",
    "102517.409000",
    "102519.409000",
    "102521.408000",
    "102523.408000",
    "102525.408000",
    "102527.408000",
    "102529.420000",
    "102531.408000",
    "102533.408000",
    "102535.409000",
    "102537.409000",
    "102539.409000",
    "102541.407000",
    "102543.408000",
    "102545.408000",
    "102547.407000",
    "102549.407000",
    "102551.408000",
    "102553.409000",
    "102555.409000",
    "102557.408000",
    "102559.407000",
    "102601.408000",
    "102603.408000",
    "102605.408000",
    "102607.408000",
    "102609.408000",
    "102611.409000",
    "102613.408000",
    "102615.408000",
    "102617.286000"
   ],
   "InstanceCreationTime": [
    "101747.913000",
    "101749.408000",
    "101751.407000",
    "101753.407000",
    "101755.407000",
    "101757.407000",
    "101759.407000",
    "101801.408000",
    "101803.409000",
    "101805.408000",
    "101807.408000",
    "101809.407000",
    "101811.408000",
    "101813.408000",
    "101815.407000",
    "101817.408000",
    "101819.408000",
    "101821.408000",
    "101823.408000",
    "101825.408000",
    "101827.408000",
    "101829.408000",
    "101831.408000",
    "101833.407000",
    "101835.409000",
    "101837.409000",
    "101839.408000",
    "101841.409000",
    "101843.408000",
    "101845.407000",
    "101847.407000",
    "101849.407000",
    "101851.407000",
    "101853.408000",
    "101855.409000",
    "101857.408000",
    "101859.407000",
    "101901.408000",
    "101903.408000",
    "101905.408000",
    "101907.407000",
    "101909.408000",
    "101911.408000",
    "101913.409000",
    "101915.408000",
    "101917.407000",
    "101919.407000",
    "101921.407000",
    "101923.407000",
    "101925.407000",
    "101927.407000",
    "101929.408000",
    "101931.408000",
    "101933.408000",
    "101935.407000",
    "101937.408000",
    "101939.408000",
    "101941.408000",
    "101943.407000",
    "101945.409000",
    "101947.409000",
    "101949.409000",
    "101951.409000",
    "101953.407000",
    "101955.408000",
    "101957.408000",
    "101959.407000",
    "102001.407000",
    "102003.408000",
    "102005.409000",
    "102007.409000",
    "102009.408000",
    "102011.407000",
    "102013.408000",
    "102015.407000",
    "102017.407000",
    "102019.407000",
    "102021.409000",
    "102023.408000",
    "102025.409000",
    "102027.407000",
    "102029.407000",
    "102031.407000",
    "102033.407000",
    "102035.407000",
    "102037.407000",
    "102039.408000",
    "102041.409000",
    "102043.409000",
    "102045.408000",
    "102047.407000",
    "102049.407000",
    "102051.407000",
    "102053.407000",
    "102055.409000",
    "102057.408000",
    "102059.408000",
    "102101.409000",
    "102103.407000",
    "102105.407000",
    "102107.408000",
    "102109.407000",
    "102111.408000",
    "102113.408000",
    "102115.408000",
    "102117.408000",
    "102119.407000",
    "102121.408000",
    "102123.407000",
    "102125.408000",
    "102127.408000",
    "102129.408000",
    "102131.408000",
    "102133.408000",
    "102135.409000",
    "102137.407000",
    "102139.407000",
    "102141.408000",
    "102143.407000",
    "102145.407000",
    "102147.408000",
    "102149.409000",
    "102151.409000",
    "102153.408000",
    "102155.407000",
    "102157.407000",
    "102159.408000",
    "102201.408000",
    "102203.408000",
    "102205.408000",
    "102207.409000",
    "102209.408000",
    "102211.408000",
    "102213.408000",
    "102215.407000",
    "102217.407000",
    "102219.407000",
    "102221.408000",
    "102223.409000",
    "102225.409000",
    "102227.408000",
    "102229.408000",
    "102231.408000",
    "102233.408000",
    "102235.408000",
    "102237.408000",
    "102239.408000",
    "102241.409000",
    "102243.409000",
    "102245.409000",
    "102247.407000",
    "102249.407000",
    "102251.408000",
    "102253.407000",
    "102255.408000",
    "102257.408000",
    "102259.409000",
    "102301.408000",
    "102303.408000",
    "102305.407000",
    "102307.407000",
    "102309.408000",
    "102311.408000",
    "102313.407000",
    "102315.409000",
    "102317.409000",
    "102319.409000",
    "102321.409000",
    "102323.407000",
    "102325.407000",
    "102327.408000",
    "102329.407000",
    "102331.407000",
    "102333.409000",
    "102335.408000",
    "102337.408000",
    "102339.408000",
    "102341.408000",
    "102343.408000",
    "102345.407000",
    "102347.408000",
    "102349.408000",
    "102351.409000",
    "102353.409000",
    "102355.409000",
    "102357.407000",
    "102359.408000",
    "102401.408000",
    "102403.408000",
    "102405.408000",
    "102407.407000",
    "102409.409000",
    "102411.409000",
    "102413.409000",
    "102415.408000",
    "102417.407000",
    "102419.408000",
    "102421.407000",
    "102423.408000",
    "102425.409000",
    "102427.409000",
    "102429.409000",
    "102431.409000",
    "102433.408000",
    "102435.408000",
    "102437.408000",
    "102439.407000",
    "102441.408000",
    "102443.409000",
    "102445.409000",
    "102447.408000",
    "102449.407000",
    "102451.408000",
    "102453.408000",
    "102455.407000",
    "102457.407000",
    "102459.408000",
    "102501.409000",
    "102503.408000",
    "102505.409000",
    "102507.408000",
    "102509.408000",
    "102511.407000",
    "102513.408000",
    "102515.407000",
    "102517.409000",
    "102519.409000",
    "102521.408000",
    "102523.408000",
    "102525.408000",
    "102527.408000",
    "102529.420000",
    "102531.408000",
    "102533.408000",
    "102535.409000",
    "102537.409000",
    "102539.409000",
    "102541.407000",
    "102543.408000",
    "102545.408000",
    "102547.407000",
    "102549.407000",
    "102551.408000",
    "102553.409000",
    "102555.409000",
    "102557.408000",
    "102559.407000",
    "102601.408000",
    "102603.408000",
    "102605.408000",
    "102607.408000",
    "102609.408000",
    "102611.409000",
    "102613.408000",
    "102615.408000",
    "102617.286000"
   ],
   "InstanceNumber": [
    1,
    2,
    3,
    4,
    5,
    6,
    7,
    8,
    9,
    10,
    11,
    12,
    13,
    14,
    15,
    16,
    17,
    18,
    19,
    20,
    21,
    22,
    23,
    24,
    25,
    26,
    27,
    28,
    29,
    30,
    31,
    32,
    33,
    34,
    35,
    36,
    37,
    38,
    39,
    40,
    41,
    42,
    43,
    44,
    45,
    46,
    47,
    48,
    49,
    50,
    51,
    52,
    53,
    54,
    55,
    56,
    57,
    58,
    59,
    60,
    61,
    62,
    63,
    64,
    65,
    66,
    67,
    68,
    69,
    70,
    71,
    72,
    73,
    74,
    75,
    76,
    77,
    78,
    79,
    80,
    81,
    82,
    83,
    84,
    85,
    86,
    87,
    88,
    89,
    90,
    91,
    92,
    93,
    94,
    95,
    96,
    97,
    98,
    99,
    100,
    101,
    102,
    103,
    104,
    105,
    106,
    107,
    108,
    109,
    110,
    111,
    112,
    113,
    114,
    115,
    116,
    117,
    118,
    119,
    120,
    121,
    122,
    123,
    124,
    125,
    126,
    127,
    128,
    129,
    130,
    131,
    132,
    133,
    134,
    135,
    136,
    137,
    138,
    139,
    140,
    141,
    142,
    143,
    144,
    145,
    146,
    147,
    148,
    149,
    150,
    151,
    152,
    153,
    154,
    155,
    156,
    157,
    158,
    159,
    160,
    161,
    162,
    163,
    164,
    165,
    166,
    167,
    168,
    169,
    170,
    171,
    172,
    173,
    174,
    175,
    176,
    177,
    178,
    179,
    180,
    181,
    182,
    183,
    184,
    185,
    186,
    187,
    188,
    189,
    190,
    191,
    192,
    193,
    194,
    195,
    196,
    197,
    198,
    199,
    200,
    201,
    202,
    203,
    204,
    205,
    206,
    207,
    208,
    209,
    210,
    211,
    212,
    213,
    214,
    215,
    216,
    217,
    218,
    219,
    220,
    221,
    222,
    223,
    224,
    225,
    226,
    227,
    228,
    229,
    230,
    231,
    232,
    233,
    234,
    235,
    236,
    237,
    238,
    239,
    240,
    241,
    242,
    243,
    244,
    245,
    246,
    247,
    248,
    249,
    250,
    251,
    252,
    253,
    254,
    255,
    256
   ],
   "LargestImagePixelValue": [
    4020,
    3937,
    3920,
    3898,
    3871,
    3879,
    3897,
    3882,
    3875,
    3866,
    3865,
    3832,
    3779,
    3784,
    3829,
    3871,
    3890,
    3879,
    3866,
    3901,
    3899,
    3870,
    3821,
    3873,
    3870,
    3880,
    3833,
    3828,
    3809,
    3830,
    3846,
    3835,
    3801,
    3826,
    3814,
    3815,
    3824,
    3823,
    3850,
    3832,
    3799,
    3817,
    3770,
    3773,
    3753,
    3817,
    3845,
    3890,
    3827,
    3837,
    3813,
    3828,
    3838,
    3819,
    3846,
    3817,
    3827,
    3820,
    3845,
    3838,
    3859,
    3828,
    3831,
    3837,
    3799,
    3816,
    3861,
    3827,
    3896,
    3860,
    3833,
    3866,
    3868,
    3853,
    3826,
    3809,
    3841,
    3879,
    3891,
    3893,
    3876,
    3870,
    3869,
    3861,
    3861,
    3901,
    3869,
    3875,
    3902,
    3865,
    3913,
    3885,
    3820,
    3845,
    3860,
    3875,
    3864,
    3883,
    3868,
    3857,
    3843,
    3864,
    3879,
    3887,
    3848,
    3821,
    3801,
    3816,
    3824,
    3857,
    3873,
    3902,
    3887,
    3873,
    3861,
    3847,
    3876,
    3879,
    3836,
    3804,
    3803,
    3858,
    3887,
    3865,
    3867,
    3858,
    3881,
    3834,
    3858,
    3830,
    3819,
    3825,
    3878,
    3825,
    3803,
    3811,
    3850,
    3831,
    3854,
    3862,
    3895,
    3886,
    3812,
    3836,
    3832,
    3828,
    3871,
    3873,
    3826,
    3885,
    3883,
    3868,
    3861,
    3789,
    3812,
    3868,
    3866,
    3837,
    3831,
    3827,
    3830,
    3814,
    3807,
    3816,
    3852,
    3812,
    3843,
    3841,
    3859,
    3850,
    3852,
    3829,
    3838,
    3755,
    3829,
    3798,
    3821,
    3843,
    3840,
    3844,
    3820,
    3811,
    3824,
    3823,
    3837,
    3782,
    3797,
    3826,
    3790,
    3798,
    3814,
    3803,
    3890,
    3871,
    3876,
    3851,
    3826,
    3824,
    3813,
    3786,
    3776,
    3768,
    3783,
    3796,
    3854,
    3795,
    3844,
    3777,
    3800,
    3798,
    3845,
    3827,
    3836,
    3820,
    3840,
    3803,
    3824,
    3809,
    3818,
    3773,
    3782,
    3802,
    3793,
    3797,
    3778,
    3823,
    3824,
    3804,
    3824,
    3801,
    3809,
    3870,
    3816,
    3802,
    3830,
    3839,
    3817,
    3814,
    3767,
    3749,
    3725,
    3766,
    3785,
    3788,
    3767,
    3782,
    3783,
    3781,
    3815,
    3785,
    3797,
    3809,
    3792,
    3803,
    3801,
    3798
   ],
   "WindowCenter": [
    773.0,
    771.0,
    771.0,
    771.0,
    771.0,
    770.0,
    770.0,
    771.0,
    771.0,
    772.0,
    773.0,
    774.0,
    774.0,
    773.0,
    771.0,
    771.0,
    771.0,
    771.0,
    771.0,
    772.0,
    772.0,
    774.0,
    773.0,
    773.0,
    772.0,
    772.0,
    772.0,
    773.0,
    772.0,
    773.0,
    773.0,
    773.0,
    771.0,
    772.0,
    773.0,
    773.0,
    772.0,
    772.0,
    773.0,
    773.0,
    773.0,
    774.0,
    773.0,
    772.0,
    771.0,
    772.0,
    771.0,
    771.0,
    771.0,
    772.0,
    771.0,
    771.0,
    772.0,
    772.0,
    773.0,
    773.0,
    773.0,
    772.0,
    772.0,
    772.0,
    772.0,
    773.0,
    774.0,
    775.0,
    774.0,
    773.0,
    772.0,
    771.0,
    771.0,
    771.0,
    771.0,
    772.0,
    772.0,
    772.0,
    773.0,
    773.0,
    772.0,
    771.0,
    770.0,
    770.0,
    769.0,
    770.0,
    770.0,
    769.0,
    770.0,
    771.0,
    771.0,
    771.0,
    771.0,
    771.0,
    772.0,
    772.0,
    773.0,
    772.0,
    772.0,
    773.0,
    773.0,
    773.0,
    772.0,
    772.0,
    772.0,
    773.0,
    772.0,
    772.0,
    772.0,
    773.0,
    773.0,
    773.0,
    772.0,
    772.0,
    772.0,
    772.0,
    772.0,
    772.0,
    772.0,
    771.0,
    770.0,
    770.0,
    771.0,
    771.0,
    771.0,
    771.0,
    770.0,
    771.0,
    771.0,
