{
 "AcquisitionMatrixPE": 100,
 "AcquisitionNumber": 1,
 "AcquisitionTime": "09:57:28.242500",
 "BandwidthPerPixelPhaseEncode": 18.519,
 "BaseResolution": 100,
 "BodyPartExamined": "BRAIN",
 "ConsistencyInfo": "N4_VE11C_LATEST_20160120",
 "ConversionSoftware": "dcm2niix",
 "ConversionSoftwareVersion": "v1.0.20180622 GCC4.9.2",
 "DerivedVendorReportedEchoSpacing": 0.000539986,
 "DeviceSerialNumber": "166078",
 "DwellTime": 2.1e-06,
 "EchoTime": 0.034,
 "EchoTrainLength": 100,
 "EffectiveEchoSpacing": 0.000539986,
 "FlipAngle": 90,
 "ImageOrientationPatientDICOM": [
  1,
  0,
  0,
  0,
  0.984808,
  -0.173648
 ],
 "ImageType": [
  "ORIGINAL",
  "PRIMARY",
  "M",
  "ND",
  "MOSAIC"
 ],
 "InPlanePhaseEncodingDirectionDICOM": "COL",
 "InstitutionAddress": "Street_StreetNo_Bei_Jing_District_CN_ZIP",
 "InstitutionName": "BeiJing_Normal_University",
 "InstitutionalDepartmentName": "Department",
 "MRAcquisitionType": "2D",
 "MagneticFieldStrength": 3,
 "Manufacturer": "Siemens",
 "ManufacturersModelName": "Prisma",
 "Modality": "MR",
 "MultibandAccelerationFactor": 3,
 "PartialFourier": 1,
 "PatientPosition": "HFS",
 "PercentPhaseFOV": 100,
 "PhaseEncodingDirection": "j-",
 "PhaseEncodingSteps": 100,
 "PhaseResolution": 1,
 "PixelBandwidth": 2380,
 "ProcedureStepDescription": "BNU_P2018_64CH_Zhen.ZongLei",
 "ProtocolName": "bold_100x100_s3_2x2x2_static_256",
 "PulseSequenceDetails": "%SiemensSeq%_ep2d_bold",
 "ReceiveCoilActiveElements": "HC1-7;NC1",
 "ReceiveCoilName": "HeadNeck_64",
 "ReconMatrixPE": 100,
 "RepetitionTime": 2,
 "SAR": 0.060599,
 "ScanOptions": "FS",
 "ScanningSequence": "EP",
 "SequenceName": "_epfid2d1_100",
 "SequenceVariant": "SK",
 "SeriesDescription": "bold_100x100_s3_2x2x2_static_256",
 "SeriesNumber": 10,
 "ShimSetting": [
  -5446,
  -11522,
  -1243,
  337,
  10,
  -281,
  -272,
  52
 ],
 "SliceThickness": 2,
 "SliceTiming": [
  1.485,
  0,
  0.99,
  0.0825,
  1.0725,
  0.165,
  1.155,
  0.2475,
  1.2375,
  0.33,
  1.32,
  0.4125,
  1.4025,
  0.5775,
  1.5675,
  0.66,
  1.65,
  0.7425,
  1.7325,
  0.825,
  1.815,
  0.9075,
  1.8975,
  0.495,
  1.485,
  0,
  0.99,
  0.0825,
  1.0725,
  0.165,
  1.155,
  0.2475,
  1.2375,
  0.33,
  1.32,
  0.4125,
  1.4025,
  0.5775,
  1.5675,
  0.66,
  1.65,
  0.7425,
  1.7325,
  0.825,
  1.815,
  0.9075,
  1.8975,
  0.495,
  1.485,
  0,
  0.99,
  0.0825,
  1.0725,
  0.165,
  1.155,
  0.2475,
  1.2375,
  0.33,
  1.32,
  0.4125,
  1.4025,
  0.5775,
  1.5675,
  0.66,
  1.65,
  0.7425,
  1.7325,
  0.825,
  1.815,
  0.9075,
  1.8975,
  0.495
 ],
 "SoftwareVersions": "syngo_MR_E11",
 "SpacingBetweenSlices": 2,
 "StationName": "AWP166078",
 "TaskName": "imagenet",
 "TotalReadoutTime": 0.0534586,
 "TxRefAmp": 214.328,
 "dcmmeta_affine": [
  [
   -2.0,
   0.0,
   0.0,
   102.71186828613281
  ],
  [
   0.0,
   1.9696154594421387,
   -0.3472963571548462,
   -89.21361541748047
  ],
  [
   0.0,
   0.3472963571548462,
   1.9696154594421387,
   -75.80085754394531
  ],
  [
   0.0,
   0.0,
   0.0,
   1.0
  ]
 ],
 "dcmmeta_reorient_transform": [
  [
   0.0,
   -1.0,
   0.0,
   99.0
  ],
  [
   1.0,
   0.0,
   0.0,
   0.0
  ],
  [
   0.0,
   0.0,
   1.0,
   0.0
  ],
  [
   0.0,
   0.0,
   0.0,
   1.0
  ]
 ],
 "dcmmeta_shape": [
  100,
  100,
  72,
  256
 ],
 "dcmmeta_slice_dim": 2,
 "dcmmeta_version": 0.6,
 "global": {
  "const": {
   "AcquisitionMatrix": [
    100,
    0,
    0,
    100
   ],
   "AngioFlag": "N",
   "BitsAllocated": 16,
   "BitsStored": 12,
   "BodyPartExamined": "BRAIN",
   "Columns": 900,
   "EchoNumbers": 1,
   "EchoTime": 34.0,
   "EchoTrainLength": 100,
   "FlipAngle": 90.0,
   "HighBit": 11,
   "ImageOrientationPatient": [
    1.0,
    0.0,
    0.0,
    0.0,
    0.98480775371103,
    -0.1736481737037
   ],
   "ImagePositionPatient": [
    -902.71186447144,
    -893.62452186562,
    97.500019693935
   ],
   "ImageType": [
    "ORIGINAL",
    "PRIMARY",
    "M",
    "ND",
    "MOSAIC"
   ],
   "ImagedNucleus": "1H",
   "ImagingFrequency": 123.257709,
   "InPlanePhaseEncodingDirection": "COL",
   "MRAcquisitionType": "2D",
   "MagneticFieldStrength": 3.0,
   "Manufacturer": "SIEMENS",
   "ManufacturerModelName": "Prisma",
   "Modality": "MR",
   "NumberOfAverages": 1.0,
   "NumberOfPhaseEncodingSteps": 100,
   "PercentPhaseFieldOfView": 100.0,
   "PercentSampling": 100.0,
   "PerformedProcedureStepStartTime": "085650.269000",
   "PhotometricInterpretation": "MONOCHROME2",
   "PixelBandwidth": 2380.0,
   "PixelRepresentation": 0,
   "PixelSpacing": [
    2.0,
    2.0
   ],
   "ProtocolName": "bold_100x100_s3_2x2x2_static_256",
   "RepetitionTime": 2000.0,
   "Rows": 900,
   "SAR": 0.06059898211578,
   "SamplesPerPixel": 1,
   "ScanOptions": "FS",
   "ScanningSequence": "EP",
   "SequenceName": "*epfid2d1_100",
   "SequenceVariant": "SK",
   "SeriesDescription": "bold_100x100_s3_2x2x2_static_256",
   "SeriesNumber": 10,
   "SeriesTime": "095731.016000",
   "SliceLocation": -59.157490817251,
   "SliceThickness": 2.0,
   "SmallestImagePixelValue": 0,
   "SoftwareVersions": "syngo MR E11",
   "SpacingBetweenSlices": 2.0000000021973,
   "SpecificCharacterSet": "ISO_IR 100",
   "StudyID": "1",
   "StudyTime": "085650.208000",
   "TransmitCoilName": "Body",
   "VariableFlipAngleFlag": "N",
   "WindowCenterWidthExplanation": "Algo1",
   "dBdt": 0.0
  },
  "slices": {}
 },
 "time": {
  "samples": {
   "AcquisitionNumber": [
    1,
    2,
    3,
    4,
    5,
    6,
    7,
    8,
    9,
    10,
    11,
    12,
    13,
    14,
    15,
    16,
    17,
    18,
    19,
    20,
    21,
    22,
    23,
    24,
    25,
    26,
    27,
    28,
    29,
    30,
    31,
    32,
    33,
    34,
    35,
    36,
    37,
    38,
    39,
    40,
    41,
    42,
    43,
    44,
    45,
    46,
    47,
    48,
    49,
    50,
    51,
    52,
    53,
    54,
    55,
    56,
    57,
    58,
    59,
    60,
    61,
    62,
    63,
    64,
    65,
    66,
    67,
    68,
    69,
    70,
    71,
    72,
    73,
    74,
    75,
    76,
    77,
    78,
    79,
    80,
    81,
    82,
    83,
    84,
    85,
    86,
    87,
    88,
    89,
    90,
    91,
    92,
    93,
    94,
    95,
    96,
    97,
    98,
    99,
    100,
    101,
    102,
    103,
    104,
    105,
    106,
    107,
    108,
    109,
    110,
    111,
    112,
    113,
    114,
    115,
    116,
    117,
    118,
    119,
    120,
    121,
    122,
    123,
    124,
    125,
    126,
    127,
    128,
    129,
    130,
    131,
    132,
    133,
    134,
    135,
    136,
    137,
    138,
    139,
    140,
    141,
    142,
    143,
    144,
    145,
    146,
    147,
    148,
    149,
    150,
    151,
    152,
    153,
    154,
    155,
    156,
    157,
    158,
    159,
    160,
    161,
    162,
    163,
    164,
    165,
    166,
    167,
    168,
    169,
    170,
    171,
    172,
    173,
    174,
    175,
    176,
    177,
    178,
    179,
    180,
    181,
    182,
    183,
    184,
    185,
    186,
    187,
    188,
    189,
    190,
    191,
    192,
    193,
    194,
    195,
    196,
    197,
    198,
    199,
    200,
    201,
    202,
    203,
    204,
    205,
    206,
    207,
    208,
    209,
    210,
    211,
    212,
    213,
    214,
    215,
    216,
    217,
    218,
    219,
    220,
    221,
    222,
    223,
    224,
    225,
    226,
    227,
    228,
    229,
    230,
    231,
    232,
    233,
    234,
    235,
    236,
    237,
    238,
    239,
    240,
    241,
    242,
    243,
    244,
    245,
    246,
    247,
    248,
    249,
    250,
    251,
    252,
    253,
    254,
    255,
    256
   ],
   "AcquisitionTime": [
    "095728.242500",
    "095730.242500",
    "095732.242500",
    "095734.242500",
    "095736.242500",
    "095738.242500",
    "095740.242500",
    "095742.242500",
    "095744.242500",
    "095746.242500",
    "095748.242500",
    "095750.242500",
    "095752.242500",
    "095754.242500",
    "095756.242500",
    "095758.242500",
    "095800.242500",
    "095802.242500",
    "095804.242500",
    "095806.242500",
    "095808.242500",
    "095810.242500",
    "095812.242500",
    "095814.242500",
    "095816.242500",
    "095818.242500",
    "095820.242500",
    "095822.242500",
    "095824.242500",
    "095826.242500",
    "095828.242500",
    "095830.242500",
    "095832.242500",
    "095834.242500",
    "095836.242500",
    "095838.242500",
    "095840.242500",
    "095842.242500",
    "095844.242500",
    "095846.242500",
    "095848.242500",
    "095850.242500",
    "095852.242500",
    "095854.242500",
    "095856.242500",
    "095858.242500",
    "095900.242500",
    "095902.242500",
    "095904.242500",
    "095906.242500",
    "095908.242500",
    "095910.242500",
    "095912.242500",
    "095914.242500",
    "095916.242500",
    "095918.242500",
    "095920.242500",
    "095922.242500",
    "095924.242500",
    "095926.242500",
    "095928.242500",
    "095930.242500",
    "095932.242500",
    "095934.242500",
    "095936.242500",
    "095938.242500",
    "095940.242500",
    "095942.242500",
    "095944.242500",
    "095946.242500",
    "095948.242500",
    "095950.242500",
    "095952.242500",
    "095954.242500",
    "095956.242500",
    "095958.242500",
    "100000.242500",
    "100002.242500",
    "100004.242500",
    "100006.242500",
    "100008.242500",
    "100010.242500",
    "100012.242500",
    "100014.242500",
    "100016.242500",
    "100018.242500",
    "100020.242500",
    "100022.242500",
    "100024.242500",
    "100026.242500",
    "100028.242500",
    "100030.242500",
    "100032.242500",
    "100034.242500",
    "100036.242500",
    "100038.242500",
    "100040.242500",
    "100042.242500",
    "100044.242500",
    "100046.242500",
    "100048.242500",
    "100050.242500",
    "100052.242500",
    "100054.242500",
    "100056.242500",
    "100058.242500",
    "100100.242500",
    "100102.242500",
    "100104.242500",
    "100106.242500",
    "100108.242500",
    "100110.242500",
    "100112.242500",
    "100114.242500",
    "100116.242500",
    "100118.242500",
    "100120.242500",
    "100122.242500",
    "100124.242500",
    "100126.242500",
    "100128.242500",
    "100130.242500",
    "100132.242500",
    "100134.242500",
    "100136.242500",
    "100138.242500",
    "100140.242500",
    "100142.242500",
    "100144.242500",
    "100146.242500",
    "100148.242500",
    "100150.242500",
    "100152.242500",
    "100154.242500",
    "100156.242500",
    "100158.242500",
    "100200.242500",
    "100202.242500",
    "100204.242500",
    "100206.242500",
    "100208.242500",
    "100210.242500",
    "100212.242500",
    "100214.242500",
    "100216.242500",
    "100218.242500",
    "100220.242500",
    "100222.242500",
    "100224.242500",
    "100226.242500",
    "100228.242500",
    "100230.242500",
    "100232.242500",
    "100234.242500",
    "100236.242500",
    "100238.242500",
    "100240.242500",
    "100242.242500",
    "100244.242500",
    "100246.242500",
    "100248.242500",
    "100250.242500",
    "100252.242500",
    "100254.242500",
    "100256.242500",
    "100258.242500",
    "100300.242500",
    "100302.242500",
    "100304.242500",
    "100306.242500",
    "100308.242500",
    "100310.242500",
    "100312.242500",
    "100314.242500",
    "100316.242500",
    "100318.242500",
    "100320.242500",
    "100322.242500",
    "100324.242500",
    "100326.242500",
    "100328.242500",
    "100330.242500",
    "100332.242500",
    "100334.242500",
    "100336.242500",
    "100338.242500",
    "100340.242500",
    "100342.242500",
    "100344.242500",
    "100346.242500",
    "100348.242500",
    "100350.242500",
    "100352.242500",
    "100354.242500",
    "100356.242500",
    "100358.242500",
    "100400.242500",
    "100402.242500",
    "100404.242500",
    "100406.242500",
    "100408.242500",
    "100410.242500",
    "100412.242500",
    "100414.242500",
    "100416.242500",
    "100418.242500",
    "100420.242500",
    "100422.242500",
    "100424.242500",
    "100426.242500",
    "100428.242500",
    "100430.242500",
    "100432.242500",
    "100434.242500",
    "100436.242500",
    "100438.242500",
    "100440.242500",
    "100442.242500",
    "100444.242500",
    "100446.242500",
    "100448.242500",
    "100450.242500",
    "100452.242500",
    "100454.242500",
    "100456.242500",
    "100458.242500",
    "100500.242500",
    "100502.242500",
    "100504.242500",
    "100506.242500",
    "100508.242500",
    "100510.242500",
    "100512.242500",
    "100514.242500",
    "100516.242500",
    "100518.242500",
    "100520.242500",
    "100522.242500",
    "100524.242500",
    "100526.242500",
    "100528.242500",
    "100530.242500",
    "100532.242500",
    "100534.242500",
    "100536.242500",
    "100538.242500",
    "100540.242500",
    "100542.242500",
    "100544.242500",
    "100546.242500",
    "100548.242500",
    "100550.242500",
    "100552.242500",
    "100554.242500",
    "100556.242500",
    "100558.242500"
   ],
   "ContentTime": [
    "095731.020000",
    "095732.515000",
    "095734.516000",
    "095736.516000",
    "095738.517000",
    "095740.516000",
    "095742.517000",
    "095744.516000",
    "095746.515000",
    "095748.516000",
    "095750.516000",
    "095752.516000",
    "095754.517000",
    "095756.516000",
    "095758.517000",
    "095800.516000",
    "095802.516000",
    "095804.516000",
    "095806.515000",
    "095808.516000",
    "095810.516000",
    "095812.516000",
    "095814.517000",
    "095816.516000",
    "095818.516000",
    "095820.516000",
    "095822.515000",
    "095824.516000",
    "095826.515000",
    "095828.516000",
    "095830.516000",
    "095832.517000",
    "095834.517000",
    "095836.515000",
    "095838.515000",
    "095840.515000",
    "095842.515000",
    "095844.515000",
    "095846.516000",
    "095848.516000",
    "095850.517000",
    "095852.517000",
    "095854.515000",
    "095856.516000",
    "095858.515000",
    "095900.515000",
    "095902.516000",
    "095904.516000",
    "095906.517000",
    "095908.516000",
    "095910.517000",
    "095912.515000",
    "095914.516000",
    "095916.515000",
    "095918.516000",
    "095920.515000",
    "095922.516000",
    "095924.516000",
    "095926.516000",
    "095928.517000",
    "095930.515000",
    "095932.515000",
    "095934.516000",
    "095936.515000",
    "095938.515000",
    "095940.517000",
    "095942.517000",
    "095944.516000",
    "095946.515000",
    "095948.515000",
    "095950.515000",
    "095952.515000",
    "095954.515000",
    "095956.516000",
    "095958.516000",
    "100000.516000",
    "100002.517000",
    "100004.515000",
    "100006.516000",
    "100008.516000",
    "100010.516000",
    "100012.515000",
    "100014.516000",
    "100016.516000",
    "100018.517000",
    "100020.516000",
    "100022.516000",
    "100024.515000",
    "100026.516000",
    "100028.516000",
    "100030.516000",
    "100032.517000",
    "100034.516000",
    "100036.517000",
    "100038.517000",
    "100040.515000",
    "100042.515000",
    "100044.516000",
    "100046.515000",
    "100048.515000",
    "100050.516000",
    "100052.516000",
    "100054.516000",
    "100056.515000",
    "100058.516000",
    "100100.516000",
    "100102.516000",
    "100104.516000",
    "100106.516000",
    "100108.517000",
    "100110.517000",
    "100112.516000",
    "100114.516000",
    "100116.516000",
    "100118.515000",
    "100120.516000",
    "100122.515000",
    "100124.516000",
    "100126.516000",
    "100128.516000",
    "100130.516000",
    "100132.516000",
    "100134.516000",
    "100136.515000",
    "100138.515000",
    "100140.516000",
    "100142.517000",
    "100144.516000",
    "100146.516000",
    "100148.517000",
    "100150.515000",
    "100152.516000",
    "100154.515000",
    "100156.516000",
    "100158.516000",
    "100200.516000",
    "100202.517000",
    "100204.516000",
    "100206.516000",
    "100208.516000",
    "100210.515000",
    "100212.516000",
    "100214.516000",
    "100216.517000",
    "100218.517000",
    "100220.517000",
    "100222.517000",
    "100224.516000",
    "100226.516000",
    "100228.516000",
    "100230.515000",
    "100232.516000",
    "100234.517000",
    "100236.516000",
    "100238.517000",
    "100240.517000",
    "100242.515000",
    "100244.516000",
    "100246.515000",
    "100248.516000",
    "100250.516000",
    "100252.516000",
    "100254.517000",
    "100256.517000",
    "100258.517000",
    "100300.516000",
    "100302.516000",
    "100304.516000",
    "100306.515000",
    "100308.516000",
    "100310.517000",
    "100312.517000",
    "100314.516000",
    "100316.515000",
    "100318.515000",
    "100320.515000",
    "100322.515000",
    "100324.516000",
    "100326.517000",
    "100328.516000",
    "100330.517000",
    "100332.517000",
    "100334.516000",
    "100336.515000",
    "100338.516000",
    "100340.516000",
    "100342.516000",
    "100344.517000",
    "100346.517000",
    "100348.517000",
    "100350.517000",
    "100352.516000",
    "100354.515000",
    "100356.516000",
    "100358.515000",
    "100400.516000",
    "100402.516000",
    "100404.517000",
    "100406.527000",
    "100408.516000",
    "100410.516000",
    "100412.515000",
    "100414.515000",
    "100416.515000",
    "100418.516000",
    "100420.517000",
    "100422.517000",
    "100424.516000",
    "100426.516000",
    "100428.516000",
    "100430.515000",
    "100432.515000",
    "100434.516000",
    "100436.517000",
    "100438.517000",
    "100440.517000",
    "100442.516000",
    "100444.516000",
    "100446.516000",
    "100448.516000",
    "100450.516000",
    "100452.516000",
    "100454.517000",
    "100456.517000",
    "100458.517000",
    "100500.516000",
    "100502.516000",
    "100504.516000",
    "100506.516000",
    "100508.516000",
    "100510.515000",
    "100512.517000",
    "100514.517000",
    "100516.517000",
    "100518.517000",
    "100520.516000",
    "100522.516000",
    "100524.516000",
    "100526.516000",
    "100528.517000",
    "100530.517000",
    "100532.517000",
    "100534.516000",
    "100536.515000",
    "100538.515000",
    "100540.516000",
    "100542.515000",
    "100544.516000",
    "100546.516000",
    "100548.516000",
    "100550.517000",
    "100552.516000",
    "100554.515000",
    "100556.516000",
    "100558.516000",
    "100600.219000"
   ],
   "InstanceCreationTime": [
    "095731.020000",
    "095732.515000",
    "095734.516000",
    "095736.516000",
    "095738.517000",
    "095740.516000",
    "095742.517000",
    "095744.516000",
    "095746.515000",
    "095748.516000",
    "095750.516000",
    "095752.516000",
    "095754.517000",
    "095756.516000",
    "095758.517000",
    "095800.516000",
    "095802.516000",
    "095804.516000",
    "095806.515000",
    "095808.516000",
    "095810.516000",
    "095812.516000",
    "095814.517000",
    "095816.516000",
    "095818.516000",
    "095820.516000",
    "095822.515000",
    "095824.516000",
    "095826.515000",
    "095828.516000",
    "095830.516000",
    "095832.517000",
    "095834.517000",
    "095836.515000",
    "095838.515000",
    "095840.515000",
    "095842.515000",
    "095844.515000",
    "095846.516000",
    "095848.516000",
    "095850.517000",
    "095852.517000",
    "095854.515000",
    "095856.516000",
    "095858.515000",
    "095900.515000",
    "095902.516000",
    "095904.516000",
    "095906.517000",
    "095908.516000",
    "095910.517000",
    "095912.515000",
    "095914.516000",
    "095916.515000",
    "095918.516000",
    "095920.515000",
    "095922.516000",
    "095924.516000",
    "095926.516000",
    "095928.517000",
    "095930.515000",
    "095932.515000",
    "095934.516000",
    "095936.515000",
    "095938.515000",
    "095940.517000",
    "095942.517000",
    "095944.516000",
    "095946.515000",
    "095948.515000",
    "095950.515000",
    "095952.515000",
    "095954.515000",
    "095956.516000",
    "095958.516000",
    "100000.516000",
    "100002.517000",
    "100004.515000",
    "100006.516000",
    "100008.516000",
    "100010.516000",
    "100012.515000",
    "100014.516000",
    "100016.516000",
    "100018.517000",
    "100020.516000",
    "100022.516000",
    "100024.515000",
    "100026.516000",
    "100028.516000",
    "100030.516000",
    "100032.517000",
    "100034.516000",
    "100036.517000",
    "100038.517000",
    "100040.515000",
    "100042.515000",
    "100044.516000",
    "100046.515000",
    "100048.515000",
    "100050.516000",
    "100052.516000",
    "100054.516000",
    "100056.515000",
    "100058.516000",
    "100100.516000",
    "100102.516000",
    "100104.516000",
    "100106.516000",
    "100108.517000",
    "100110.517000",
    "100112.516000",
    "100114.516000",
    "100116.516000",
    "100118.515000",
    "100120.516000",
    "100122.515000",
    "100124.516000",
    "100126.516000",
    "100128.516000",
    "100130.516000",
    "100132.516000",
    "100134.516000",
    "100136.515000",
    "100138.515000",
    "100140.516000",
    "100142.517000",
    "100144.516000",
    "100146.516000",
    "100148.517000",
    "100150.515000",
    "100152.516000",
    "100154.515000",
    "100156.516000",
    "100158.516000",
    "100200.516000",
    "100202.517000",
    "100204.516000",
    "100206.516000",
    "100208.516000",
    "100210.515000",
    "100212.516000",
    "100214.516000",
    "100216.517000",
    "100218.517000",
    "100220.517000",
    "100222.517000",
    "100224.516000",
    "100226.516000",
    "100228.516000",
    "100230.515000",
    "100232.516000",
    "100234.517000",
    "100236.516000",
    "100238.517000",
    "100240.517000",
    "100242.515000",
    "100244.516000",
    "100246.515000",
    "100248.516000",
    "100250.516000",
    "100252.516000",
    "100254.517000",
    "100256.517000",
    "100258.517000",
    "100300.516000",
    "100302.516000",
    "100304.516000",
    "100306.515000",
    "100308.516000",
    "100310.517000",
    "100312.517000",
    "100314.516000",
    "100316.515000",
    "100318.515000",
    "100320.515000",
    "100322.515000",
    "100324.516000",
    "100326.517000",
    "100328.516000",
    "100330.517000",
    "100332.517000",
    "100334.516000",
    "100336.515000",
    "100338.516000",
    "100340.516000",
    "100342.516000",
    "100344.517000",
    "100346.517000",
    "100348.517000",
    "100350.517000",
    "100352.516000",
    "100354.515000",
    "100356.516000",
    "100358.515000",
    "100400.516000",
    "100402.516000",
    "100404.517000",
    "100406.527000",
    "100408.516000",
    "100410.516000",
    "100412.515000",
    "100414.515000",
    "100416.515000",
    "100418.516000",
    "100420.517000",
    "100422.517000",
    "100424.516000",
    "100426.516000",
    "100428.516000",
    "100430.515000",
    "100432.515000",
    "100434.516000",
    "100436.517000",
    "100438.517000",
    "100440.517000",
    "100442.516000",
    "100444.516000",
    "100446.516000",
    "100448.516000",
    "100450.516000",
    "100452.516000",
    "100454.517000",
    "100456.517000",
    "100458.517000",
    "100500.516000",
    "100502.516000",
    "100504.516000",
    "100506.516000",
    "100508.516000",
    "100510.515000",
    "100512.517000",
    "100514.517000",
    "100516.517000",
    "100518.517000",
    "100520.516000",
    "100522.516000",
    "100524.516000",
    "100526.516000",
    "100528.517000",
    "100530.517000",
    "100532.517000",
    "100534.516000",
    "100536.515000",
    "100538.515000",
    "100540.516000",
    "100542.515000",
    "100544.516000",
    "100546.516000",
    "100548.516000",
    "100550.517000",
    "100552.516000",
    "100554.515000",
    "100556.516000",
    "100558.516000",
    "100600.219000"
   ],
   "InstanceNumber": [
    1,
    2,
    3,
    4,
    5,
    6,
    7,
    8,
    9,
    10,
    11,
    12,
    13,
    14,
    15,
    16,
    17,
    18,
    19,
    20,
    21,
    22,
    23,
    24,
    25,
    26,
    27,
    28,
    29,
    30,
    31,
    32,
    33,
    34,
    35,
    36,
    37,
    38,
    39,
    40,
    41,
    42,
    43,
    44,
    45,
    46,
    47,
    48,
    49,
    50,
    51,
    52,
    53,
    54,
    55,
    56,
    57,
    58,
    59,
    60,
    61,
    62,
    63,
    64,
    65,
    66,
    67,
    68,
    69,
    70,
    71,
    72,
    73,
    74,
    75,
    76,
    77,
    78,
    79,
    80,
    81,
    82,
    83,
    84,
    85,
    86,
    87,
    88,
    89,
    90,
    91,
    92,
    93,
    94,
    95,
    96,
    97,
    98,
    99,
    100,
    101,
    102,
    103,
    104,
    105,
    106,
    107,
    108,
    109,
    110,
    111,
    112,
    113,
    114,
    115,
    116,
    117,
    118,
    119,
    120,
    121,
    122,
    123,
    124,
    125,
    126,
    127,
    128,
    129,
    130,
    131,
    132,
    133,
    134,
    135,
    136,
    137,
    138,
    139,
    140,
    141,
    142,
    143,
    144,
    145,
    146,
    147,
    148,
    149,
    150,
    151,
    152,
    153,
    154,
    155,
    156,
    157,
    158,
    159,
    160,
    161,
    162,
    163,
    164,
    165,
    166,
    167,
    168,
    169,
    170,
    171,
    172,
    173,
    174,
    175,
    176,
    177,
    178,
    179,
    180,
    181,
    182,
    183,
    184,
    185,
    186,
    187,
    188,
    189,
    190,
    191,
    192,
    193,
    194,
    195,
    196,
    197,
    198,
    199,
    200,
    201,
    202,
    203,
    204,
    205,
    206,
    207,
    208,
    209,
    210,
    211,
    212,
    213,
    214,
    215,
    216,
    217,
    218,
    219,
    220,
    221,
    222,
    223,
    224,
    225,
    226,
    227,
    228,
    229,
    230,
    231,
    232,
    233,
    234,
    235,
    236,
    237,
    238,
    239,
    240,
    241,
    242,
    243,
    244,
    245,
    246,
    247,
    248,
    249,
    250,
    251,
    252,
    253,
    254,
    255,
    256
   ],
   "LargestImagePixelValue": [
    3753,
    3649,
    3678,
    3640,
    3687,
    3669,
    3643,
    3629,
    3643,
    3637,
    3679,
    3658,
    3710,
    3685,
    3704,
    3720,
    3732,
    3712,
    3784,
    3725,
    3739,
    3741,
    3762,
    3741,
    3754,
    3763,
    3775,
    3759,
    3740,
    3752,
    3758,
    3779,
    3718,
    3753,
    3769,
    3752,
    3786,
    3806,
    3787,
    3780,
    3769,
    3773,
    3799,
    3808,
    3780,
    3775,
    3789,
    3817,
    3784,
    3765,
    3792,
    3819,
    3809,
    3762,
    3781,
    3815,
    3790,
    3791,
    3813,
    3815,
    3807,
    3751,
    3712,
    3719,
    3787,
    3825,
    3808,
    3819,
    3797,
    3789,
    3788,
    3770,
    3832,
    3813,
    3791,
    3796,
    3784,
    3792,
    3757,
    3764,
    3789,
    3790,
    3775,
    3800,
    3806,
    3774,
    3732,
    3738,
    3790,
    3786,
    3779,
    3816,
    3841,
    3818,
    3802,
    3780,
    3773,
    3817,
    3826,
    3838,
    3840,
    3767,
    3827,
    3794,
    3779,
    3782,
    3818,
    3799,
    3835,
    3834,
    3822,
    3810,
    3785,
    3799,
    3801,
    3835,
    3786,
    3791,
    3792,
    3816,
    3859,
    3826,
    3818,
    3789,
    3781,
    3754,
    3725,
    3729,
    3828,
    3782,
    3774,
    3749,
    3802,
    3812,
    3789,
    3776,
    3783,
    3782,
    3771,
    3815,
    3789,
    3815,
    3841,
    3796,
    3814,
    3784,
    3825,
    3734,
    3771,
    3773,
    3827,
    3825,
    3782,
    3755,
    3804,
    3798,
    3779,
    3743,
    3724,
    3722,
    3799,
    3834,
    3774,
    3745,
    3769,
    3756,
    3814,
    3847,
    3834,
    3787,
    3788,
    3784,
    3798,
    3841,
    3844,
    3856,
    3848,
    3823,
    3803,
    3799,
    3768,
    3746,
    3810,
    3808,
    3809,
    3852,
    3837,
    3821,
    3858,
    3805,
    3778,
    3761,
    3839,
    3773,
    3757,
    3751,
    3765,
    3782,
    3793,
    3782,
    3798,
    3795,
    3753,
    3736,
    3744,
    3796,
    3818,
    3797,
    3820,
    3803,
    3802,
    3803,
    3808,
    3799,
    3797,
    3804,
    3763,
    3782,
    3803,
    3805,
    3755,
    3710,
    3701,
    3719,
    3762,
    3811,
    3813,
    3836,
    3818,
    3783,
    3801,
    3808,
    3802,
    3811,
    3777,
    3760,
    3760,
    3693,
    3761,
    3812,
    3810,
    3828,
    3791,
    3797,
    3797,
    3781,
    3797,
    3740,
    3767,
    3790,
    3767,
    3716,
    3709,
    3719,
    3753,
    3751
   ],
   "WindowCenter": [
    775.0,
    774.0,
    772.0,
    770.0,
    770.0,
    771.0,
    770.0,
    769.0,
    768.0,
    766.0,
    766.0,
    767.0,
    768.0,
    768.0,
    770.0,
    771.0,
    772.0,
    773.0,
    774.0,
    774.0,
    774.0,
    773.0,
    773.0,
    772.0,
    772.0,
    772.0,
    772.0,
    771.0,
    770.0,
    771.0,
    771.0,
    771.0,
    769.0,
    771.0,
    772.0,
    772.0,
    772.0,
    771.0,
    772.0,
    773.0,
    773.0,
    771.0,
    771.0,
    770.0,
    769.0,
    770.0,
    770.0,
    770.0,
    770.0,
    770.0,
    770.0,
    771.0,
    771.0,
    772.0,
    772.0,
    772.0,
    771.0,
    771.0,
    772.0,
    773.0,
    773.0,
    773.0,
    774.0,
    774.0,
    774.0,
    774.0,
    773.0,
    772.0,
    772.0,
    771.0,
    771.0,
    771.0,
    771.0,
    771.0,
    771.0,
    771.0,
    772.0,
    774.0,
    774.0,
    771.0,
    771.0,
    772.0,
    773.0,
    772.0,
    772.0,
    772.0,
    774.0,
    774.0,
    772.0,
    772.0,
    771.0,
    770.0,
    771.0,
    771.0,
    773.0,
    773.0,
    771.0,
    770.0,
    770.0,
    770.0,
    771.0,
    771.0,
    773.0,
    774.0,
    773.0,
    772.0,
    771.0,
    770.0,
    771.0,
    770.0,
    770.0,
    771.0,
    771.0,
    771.0,
    771.0,
    772.0,
    772.0,
    772.0,
    772.0,
    770.0,
    771.0,
    771.0,
    772.0,
    772.0,
    773.0,
