{
 "AcquisitionMatrixPE": 100,
 "AcquisitionNumber": 1,
 "AcquisitionTime": "09:16:7.292500",
 "BandwidthPerPixelPhaseEncode": 18.519,
 "BaseResolution": 100,
 "BodyPartExamined": "BRAIN",
 "ConsistencyInfo": "N4_VE11C_LATEST_20160120",
 "ConversionSoftware": "dcm2niix",
 "ConversionSoftwareVersion": "v1.0.20180622 GCC4.9.2",
 "DerivedVendorReportedEchoSpacing": 0.000539986,
 "DeviceSerialNumber": "166078",
 "DwellTime": 2.1e-06,
 "EchoTime": 0.034,
 "EchoTrainLength": 100,
 "EffectiveEchoSpacing": 0.000539986,
 "FlipAngle": 90,
 "ImageOrientationPatientDICOM": [
  1,
  0,
  0,
  0,
  0.984808,
  -0.173648
 ],
 "ImageType": [
  "ORIGINAL",
  "PRIMARY",
  "M",
  "ND",
  "MOSAIC"
 ],
 "InPlanePhaseEncodingDirectionDICOM": "COL",
 "InstitutionAddress": "Street_StreetNo_Bei_Jing_District_CN_ZIP",
 "InstitutionName": "BeiJing_Normal_University",
 "InstitutionalDepartmentName": "Department",
 "MRAcquisitionType": "2D",
 "MagneticFieldStrength": 3,
 "Manufacturer": "Siemens",
 "ManufacturersModelName": "Prisma",
 "Modality": "MR",
 "MultibandAccelerationFactor": 3,
 "PartialFourier": 1,
 "PatientPosition": "HFS",
 "PercentPhaseFOV": 100,
 "PhaseEncodingDirection": "j-",
 "PhaseEncodingSteps": 100,
 "PhaseResolution": 1,
 "PixelBandwidth": 2380,
 "ProcedureStepDescription": "BNU_P2018_64CH_Zhen.ZongLei",
 "ProtocolName": "bold_100x100_s3_2x2x2_static_256",
 "PulseSequenceDetails": "%SiemensSeq%_ep2d_bold",
 "ReceiveCoilActiveElements": "HC1-7;NC1",
 "ReceiveCoilName": "HeadNeck_64",
 "ReconMatrixPE": 100,
 "RepetitionTime": 2,
 "SAR": 0.060599,
 "ScanOptions": "FS",
 "ScanningSequence": "EP",
 "SequenceName": "_epfid2d1_100",
 "SequenceVariant": "SK",
 "SeriesDescription": "bold_100x100_s3_2x2x2_static_256",
 "SeriesNumber": 4,
 "ShimSetting": [
  -5446,
  -11522,
  -1243,
  337,
  10,
  -281,
  -272,
  52
 ],
 "SliceThickness": 2,
 "SliceTiming": [
  1.485,
  0,
  0.99,
  0.0825,
  1.0725,
  0.165,
  1.155,
  0.2475,
  1.2375,
  0.33,
  1.32,
  0.4125,
  1.4025,
  0.5775,
  1.5675,
  0.66,
  1.65,
  0.7425,
  1.7325,
  0.825,
  1.815,
  0.9075,
  1.8975,
  0.495,
  1.485,
  0,
  0.99,
  0.0825,
  1.0725,
  0.165,
  1.155,
  0.2475,
  1.2375,
  0.33,
  1.32,
  0.4125,
  1.4025,
  0.5775,
  1.5675,
  0.66,
  1.65,
  0.7425,
  1.7325,
  0.825,
  1.815,
  0.9075,
  1.8975,
  0.495,
  1.485,
  0,
  0.99,
  0.0825,
  1.0725,
  0.165,
  1.155,
  0.2475,
  1.2375,
  0.33,
  1.32,
  0.4125,
  1.4025,
  0.5775,
  1.5675,
  0.66,
  1.65,
  0.7425,
  1.7325,
  0.825,
  1.815,
  0.9075,
  1.8975,
  0.495
 ],
 "SoftwareVersions": "syngo_MR_E11",
 "SpacingBetweenSlices": 2,
 "StationName": "AWP166078",
 "TaskName": "imagenet",
 "TotalReadoutTime": 0.0534586,
 "TxRefAmp": 214.328,
 "dcmmeta_affine": [
  [
   -2.0,
   0.0,
   0.0,
   102.71186828613281
  ],
  [
   0.0,
   1.9696154594421387,
   -0.3472963571548462,
   -89.21361541748047
  ],
  [
   0.0,
   0.3472963571548462,
   1.9696154594421387,
   -75.80085754394531
  ],
  [
   0.0,
   0.0,
   0.0,
   1.0
  ]
 ],
 "dcmmeta_reorient_transform": [
  [
   0.0,
   -1.0,
   0.0,
   99.0
  ],
  [
   1.0,
   0.0,
   0.0,
   0.0
  ],
  [
   0.0,
   0.0,
   1.0,
   0.0
  ],
  [
   0.0,
   0.0,
   0.0,
   1.0
  ]
 ],
 "dcmmeta_shape": [
  100,
  100,
  72,
  256
 ],
 "dcmmeta_slice_dim": 2,
 "dcmmeta_version": 0.6,
 "global": {
  "const": {
   "AcquisitionMatrix": [
    100,
    0,
    0,
    100
   ],
   "AngioFlag": "N",
   "BitsAllocated": 16,
   "BitsStored": 12,
   "BodyPartExamined": "BRAIN",
   "Columns": 900,
   "EchoNumbers": 1,
   "EchoTime": 34.0,
   "EchoTrainLength": 100,
   "FlipAngle": 90.0,
   "HighBit": 11,
   "ImageOrientationPatient": [
    1.0,
    0.0,
    0.0,
    0.0,
    0.98480775371103,
    -0.1736481737037
   ],
   "ImagePositionPatient": [
    -902.71186447144,
    -893.62452186562,
    97.500019693935
   ],
   "ImageType": [
    "ORIGINAL",
    "PRIMARY",
    "M",
    "ND",
    "MOSAIC"
   ],
   "ImagedNucleus": "1H",
   "ImagingFrequency": 123.257697,
   "InPlanePhaseEncodingDirection": "COL",
   "MRAcquisitionType": "2D",
   "MagneticFieldStrength": 3.0,
   "Manufacturer": "SIEMENS",
   "ManufacturerModelName": "Prisma",
   "Modality": "MR",
   "NumberOfAverages": 1.0,
   "NumberOfPhaseEncodingSteps": 100,
   "PercentPhaseFieldOfView": 100.0,
   "PercentSampling": 100.0,
   "PerformedProcedureStepStartTime": "085650.269000",
   "PhotometricInterpretation": "MONOCHROME2",
   "PixelBandwidth": 2380.0,
   "PixelRepresentation": 0,
   "PixelSpacing": [
    2.0,
    2.0
   ],
   "ProtocolName": "bold_100x100_s3_2x2x2_static_256",
   "RepetitionTime": 2000.0,
   "Rows": 900,
   "SAR": 0.06059898211578,
   "SamplesPerPixel": 1,
   "ScanOptions": "FS",
   "ScanningSequence": "EP",
   "SequenceName": "*epfid2d1_100",
   "SequenceVariant": "SK",
   "SeriesDescription": "bold_100x100_s3_2x2x2_static_256",
   "SeriesNumber": 4,
   "SeriesTime": "091610.298000",
   "SliceLocation": -59.157490817251,
   "SliceThickness": 2.0,
   "SmallestImagePixelValue": 0,
   "SoftwareVersions": "syngo MR E11",
   "SpacingBetweenSlices": 2.0000000021973,
   "SpecificCharacterSet": "ISO_IR 100",
   "StudyID": "1",
   "StudyTime": "085650.208000",
   "TransmitCoilName": "Body",
   "VariableFlipAngleFlag": "N",
   "WindowCenterWidthExplanation": "Algo1",
   "dBdt": 0.0
  },
  "slices": {}
 },
 "time": {
  "samples": {
   "AcquisitionNumber": [
    1,
    2,
    3,
    4,
    5,
    6,
    7,
    8,
    9,
    10,
    11,
    12,
    13,
    14,
    15,
    16,
    17,
    18,
    19,
    20,
    21,
    22,
    23,
    24,
    25,
    26,
    27,
    28,
    29,
    30,
    31,
    32,
    33,
    34,
    35,
    36,
    37,
    38,
    39,
    40,
    41,
    42,
    43,
    44,
    45,
    46,
    47,
    48,
    49,
    50,
    51,
    52,
    53,
    54,
    55,
    56,
    57,
    58,
    59,
    60,
    61,
    62,
    63,
    64,
    65,
    66,
    67,
    68,
    69,
    70,
    71,
    72,
    73,
    74,
    75,
    76,
    77,
    78,
    79,
    80,
    81,
    82,
    83,
    84,
    85,
    86,
    87,
    88,
    89,
    90,
    91,
    92,
    93,
    94,
    95,
    96,
    97,
    98,
    99,
    100,
    101,
    102,
    103,
    104,
    105,
    106,
    107,
    108,
    109,
    110,
    111,
    112,
    113,
    114,
    115,
    116,
    117,
    118,
    119,
    120,
    121,
    122,
    123,
    124,
    125,
    126,
    127,
    128,
    129,
    130,
    131,
    132,
    133,
    134,
    135,
    136,
    137,
    138,
    139,
    140,
    141,
    142,
    143,
    144,
    145,
    146,
    147,
    148,
    149,
    150,
    151,
    152,
    153,
    154,
    155,
    156,
    157,
    158,
    159,
    160,
    161,
    162,
    163,
    164,
    165,
    166,
    167,
    168,
    169,
    170,
    171,
    172,
    173,
    174,
    175,
    176,
    177,
    178,
    179,
    180,
    181,
    182,
    183,
    184,
    185,
    186,
    187,
    188,
    189,
    190,
    191,
    192,
    193,
    194,
    195,
    196,
    197,
    198,
    199,
    200,
    201,
    202,
    203,
    204,
    205,
    206,
    207,
    208,
    209,
    210,
    211,
    212,
    213,
    214,
    215,
    216,
    217,
    218,
    219,
    220,
    221,
    222,
    223,
    224,
    225,
    226,
    227,
    228,
    229,
    230,
    231,
    232,
    233,
    234,
    235,
    236,
    237,
    238,
    239,
    240,
    241,
    242,
    243,
    244,
    245,
    246,
    247,
    248,
    249,
    250,
    251,
    252,
    253,
    254,
    255,
    256
   ],
   "AcquisitionTime": [
    "091607.292500",
    "091609.292500",
    "091611.292500",
    "091613.292500",
    "091615.292500",
    "091617.292500",
    "091619.292500",
    "091621.292500",
    "091623.292500",
    "091625.292500",
    "091627.292500",
    "091629.292500",
    "091631.292500",
    "091633.292500",
    "091635.292500",
    "091637.292500",
    "091639.292500",
    "091641.292500",
    "091643.292500",
    "091645.292500",
    "091647.292500",
    "091649.292500",
    "091651.292500",
    "091653.292500",
    "091655.292500",
    "091657.292500",
    "091659.292500",
    "091701.292500",
    "091703.292500",
    "091705.292500",
    "091707.292500",
    "091709.292500",
    "091711.292500",
    "091713.292500",
    "091715.292500",
    "091717.292500",
    "091719.292500",
    "091721.292500",
    "091723.292500",
    "091725.292500",
    "091727.292500",
    "091729.292500",
    "091731.292500",
    "091733.292500",
    "091735.292500",
    "091737.292500",
    "091739.292500",
    "091741.292500",
    "091743.292500",
    "091745.292500",
    "091747.292500",
    "091749.292500",
    "091751.292500",
    "091753.292500",
    "091755.292500",
    "091757.292500",
    "091759.292500",
    "091801.292500",
    "091803.292500",
    "091805.292500",
    "091807.292500",
    "091809.292500",
    "091811.292500",
    "091813.292500",
    "091815.292500",
    "091817.292500",
    "091819.292500",
    "091821.292500",
    "091823.292500",
    "091825.292500",
    "091827.292500",
    "091829.292500",
    "091831.292500",
    "091833.292500",
    "091835.292500",
    "091837.292500",
    "091839.292500",
    "091841.292500",
    "091843.292500",
    "091845.292500",
    "091847.292500",
    "091849.292500",
    "091851.292500",
    "091853.292500",
    "091855.292500",
    "091857.292500",
    "091859.292500",
    "091901.292500",
    "091903.292500",
    "091905.292500",
    "091907.292500",
    "091909.292500",
    "091911.292500",
    "091913.292500",
    "091915.292500",
    "091917.292500",
    "091919.292500",
    "091921.292500",
    "091923.292500",
    "091925.292500",
    "091927.292500",
    "091929.292500",
    "091931.292500",
    "091933.292500",
    "091935.292500",
    "091937.292500",
    "091939.292500",
    "091941.292500",
    "091943.292500",
    "091945.292500",
    "091947.292500",
    "091949.292500",
    "091951.292500",
    "091953.292500",
    "091955.292500",
    "091957.292500",
    "091959.292500",
    "092001.292500",
    "092003.292500",
    "092005.292500",
    "092007.292500",
    "092009.292500",
    "092011.292500",
    "092013.292500",
    "092015.292500",
    "092017.292500",
    "092019.292500",
    "092021.292500",
    "092023.292500",
    "092025.292500",
    "092027.292500",
    "092029.292500",
    "092031.292500",
    "092033.292500",
    "092035.292500",
    "092037.292500",
    "092039.292500",
    "092041.292500",
    "092043.292500",
    "092045.292500",
    "092047.292500",
    "092049.292500",
    "092051.292500",
    "092053.292500",
    "092055.292500",
    "092057.292500",
    "092059.292500",
    "092101.292500",
    "092103.292500",
    "092105.292500",
    "092107.292500",
    "092109.292500",
    "092111.292500",
    "092113.292500",
    "092115.292500",
    "092117.292500",
    "092119.292500",
    "092121.292500",
    "092123.292500",
    "092125.292500",
    "092127.292500",
    "092129.292500",
    "092131.292500",
    "092133.292500",
    "092135.292500",
    "092137.292500",
    "092139.292500",
    "092141.292500",
    "092143.292500",
    "092145.292500",
    "092147.292500",
    "092149.292500",
    "092151.292500",
    "092153.292500",
    "092155.292500",
    "092157.292500",
    "092159.292500",
    "092201.292500",
    "092203.292500",
    "092205.292500",
    "092207.292500",
    "092209.292500",
    "092211.292500",
    "092213.292500",
    "092215.292500",
    "092217.292500",
    "092219.292500",
    "092221.292500",
    "092223.292500",
    "092225.292500",
    "092227.292500",
    "092229.292500",
    "092231.292500",
    "092233.292500",
    "092235.292500",
    "092237.292500",
    "092239.292500",
    "092241.292500",
    "092243.292500",
    "092245.292500",
    "092247.292500",
    "092249.292500",
    "092251.292500",
    "092253.292500",
    "092255.292500",
    "092257.292500",
    "092259.292500",
    "092301.292500",
    "092303.292500",
    "092305.292500",
    "092307.292500",
    "092309.292500",
    "092311.292500",
    "092313.292500",
    "092315.292500",
    "092317.292500",
    "092319.292500",
    "092321.292500",
    "092323.292500",
    "092325.292500",
    "092327.292500",
    "092329.292500",
    "092331.292500",
    "092333.292500",
    "092335.292500",
    "092337.292500",
    "092339.292500",
    "092341.292500",
    "092343.292500",
    "092345.292500",
    "092347.292500",
    "092349.292500",
    "092351.292500",
    "092353.292500",
    "092355.292500",
    "092357.292500",
    "092359.292500",
    "092401.292500",
    "092403.292500",
    "092405.292500",
    "092407.292500",
    "092409.292500",
    "092411.292500",
    "092413.292500",
    "092415.292500",
    "092417.292500",
    "092419.292500",
    "092421.292500",
    "092423.292500",
    "092425.292500",
    "092427.292500",
    "092429.292500",
    "092431.292500",
    "092433.292500",
    "092435.292500",
    "092437.292500"
   ],
   "ContentTime": [
    "091610.310000",
    "091611.797000",
    "091613.798000",
    "091615.797000",
    "091617.797000",
    "091619.798000",
    "091621.798000",
    "091623.798000",
    "091625.797000",
    "091627.797000",
    "091629.798000",
    "091631.797000",
    "091633.797000",
    "091635.798000",
    "091637.797000",
    "091639.797000",
    "091641.797000",
    "091643.798000",
    "091645.797000",
    "091647.797000",
    "091649.798000",
    "091651.797000",
    "091653.798000",
    "091655.798000",
    "091657.798000",
    "091659.797000",
    "091701.798000",
    "091703.797000",
    "091705.798000",
    "091707.797000",
    "091709.798000",
    "091711.798000",
    "091713.797000",
    "091715.798000",
    "091717.797000",
    "091719.798000",
    "091721.798000",
    "091723.798000",
    "091725.797000",
    "091727.797000",
    "091729.798000",
    "091731.797000",
    "091733.798000",
    "091735.798000",
    "091737.798000",
    "091739.798000",
    "091741.798000",
    "091743.797000",
    "091745.797000",
    "091747.798000",
    "091749.797000",
    "091751.797000",
    "091753.798000",
    "091755.798000",
    "091757.798000",
    "091759.797000",
    "091801.798000",
    "091803.798000",
    "091805.798000",
    "091807.797000",
    "091809.797000",
    "091811.798000",
    "091813.798000",
    "091815.797000",
    "091817.797000",
    "091819.797000",
    "091821.797000",
    "091823.797000",
    "091825.797000",
    "091827.797000",
    "091829.797000",
    "091831.797000",
    "091833.798000",
    "091835.798000",
    "091837.798000",
    "091839.798000",
    "091841.798000",
    "091843.798000",
    "091845.797000",
    "091847.797000",
    "091849.798000",
    "091851.798000",
    "091853.797000",
    "091855.797000",
    "091857.798000",
    "091859.797000",
    "091901.798000",
    "091903.797000",
    "091905.797000",
    "091907.797000",
    "091909.797000",
    "091911.798000",
    "091913.797000",
    "091915.798000",
    "091917.797000",
    "091919.798000",
    "091921.797000",
    "091923.797000",
    "091925.798000",
    "091927.797000",
    "091929.798000",
    "091931.797000",
    "091933.798000",
    "091935.798000",
    "091937.797000",
    "091939.798000",
    "091941.797000",
    "091943.798000",
    "091945.797000",
    "091947.797000",
    "091949.798000",
    "091951.798000",
    "091953.798000",
    "091955.798000",
    "091957.798000",
    "091959.798000",
    "092001.798000",
    "092003.798000",
    "092005.798000",
    "092007.797000",
    "092009.797000",
    "092011.797000",
    "092013.798000",
    "092015.797000",
    "092017.797000",
    "092019.798000",
    "092021.797000",
    "092023.798000",
    "092025.798000",
    "092027.798000",
    "092029.798000",
    "092031.798000",
    "092033.797000",
    "092035.798000",
    "092037.798000",
    "092039.797000",
    "092041.798000",
    "092043.797000",
    "092045.798000",
    "092047.798000",
    "092049.798000",
    "092051.797000",
    "092053.799000",
    "092055.797000",
    "092057.798000",
    "092059.798000",
    "092101.797000",
    "092103.798000",
    "092105.798000",
    "092107.798000",
    "092109.798000",
    "092111.798000",
    "092113.797000",
    "092115.797000",
    "092117.797000",
    "092119.798000",
    "092121.798000",
    "092123.798000",
    "092125.798000",
    "092127.797000",
    "092129.797000",
    "092131.798000",
    "092133.797000",
    "092135.797000",
    "092137.798000",
    "092139.798000",
    "092141.797000",
    "092143.798000",
    "092145.797000",
    "092147.798000",
    "092149.798000",
    "092151.798000",
    "092153.798000",
    "092155.798000",
    "092157.798000",
    "092159.798000",
    "092201.797000",
    "092203.799000",
    "092205.798000",
    "092207.797000",
    "092209.798000",
    "092211.798000",
    "092213.798000",
    "092215.797000",
    "092217.797000",
    "092219.797000",
    "092221.798000",
    "092223.797000",
    "092225.798000",
    "092227.798000",
    "092229.797000",
    "092231.797000",
    "092233.798000",
    "092235.798000",
    "092237.797000",
    "092239.798000",
    "092241.798000",
    "092243.797000",
    "092245.798000",
    "092247.798000",
    "092249.797000",
    "092251.798000",
    "092253.798000",
    "092255.798000",
    "092257.798000",
    "092259.797000",
    "092301.798000",
    "092303.797000",
    "092305.797000",
    "092307.798000",
    "092309.798000",
    "092311.798000",
    "092313.799000",
    "092315.797000",
    "092317.798000",
    "092319.797000",
    "092321.797000",
    "092323.798000",
    "092325.797000",
    "092327.798000",
    "092329.798000",
    "092331.797000",
    "092333.798000",
    "092335.798000",
    "092337.798000",
    "092339.798000",
    "092341.798000",
    "092343.798000",
    "092345.798000",
    "092347.797000",
    "092349.798000",
    "092351.813000",
    "092353.798000",
    "092355.798000",
    "092357.797000",
    "092359.798000",
    "092401.798000",
    "092403.798000",
    "092405.798000",
    "092407.798000",
    "092409.798000",
    "092411.797000",
    "092413.798000",
    "092415.797000",
    "092417.798000",
    "092419.798000",
    "092421.798000",
    "092423.798000",
    "092425.798000",
    "092427.798000",
    "092429.798000",
    "092431.798000",
    "092433.797000",
    "092435.798000",
    "092437.798000",
    "092439.594000"
   ],
   "InstanceCreationTime": [
    "091610.310000",
    "091611.797000",
    "091613.798000",
    "091615.797000",
    "091617.797000",
    "091619.798000",
    "091621.798000",
    "091623.798000",
    "091625.797000",
    "091627.797000",
    "091629.798000",
    "091631.797000",
    "091633.797000",
    "091635.798000",
    "091637.797000",
    "091639.797000",
    "091641.797000",
    "091643.798000",
    "091645.797000",
    "091647.797000",
    "091649.798000",
    "091651.797000",
    "091653.798000",
    "091655.798000",
    "091657.798000",
    "091659.797000",
    "091701.798000",
    "091703.797000",
    "091705.798000",
    "091707.797000",
    "091709.798000",
    "091711.798000",
    "091713.797000",
    "091715.798000",
    "091717.797000",
    "091719.798000",
    "091721.798000",
    "091723.798000",
    "091725.797000",
    "091727.797000",
    "091729.798000",
    "091731.797000",
    "091733.798000",
    "091735.798000",
    "091737.798000",
    "091739.798000",
    "091741.798000",
    "091743.797000",
    "091745.797000",
    "091747.798000",
    "091749.797000",
    "091751.797000",
    "091753.798000",
    "091755.798000",
    "091757.798000",
    "091759.797000",
    "091801.798000",
    "091803.798000",
    "091805.798000",
    "091807.797000",
    "091809.797000",
    "091811.798000",
    "091813.798000",
    "091815.797000",
    "091817.797000",
    "091819.797000",
    "091821.797000",
    "091823.797000",
    "091825.797000",
    "091827.797000",
    "091829.797000",
    "091831.797000",
    "091833.798000",
    "091835.798000",
    "091837.798000",
    "091839.798000",
    "091841.798000",
    "091843.798000",
    "091845.797000",
    "091847.797000",
    "091849.798000",
    "091851.798000",
    "091853.797000",
    "091855.797000",
    "091857.798000",
    "091859.797000",
    "091901.798000",
    "091903.797000",
    "091905.797000",
    "091907.797000",
    "091909.797000",
    "091911.798000",
    "091913.797000",
    "091915.798000",
    "091917.797000",
    "091919.798000",
    "091921.797000",
    "091923.797000",
    "091925.798000",
    "091927.797000",
    "091929.798000",
    "091931.797000",
    "091933.798000",
    "091935.798000",
    "091937.797000",
    "091939.798000",
    "091941.797000",
    "091943.798000",
    "091945.797000",
    "091947.797000",
    "091949.798000",
    "091951.798000",
    "091953.798000",
    "091955.798000",
    "091957.798000",
    "091959.798000",
    "092001.798000",
    "092003.798000",
    "092005.798000",
    "092007.797000",
    "092009.797000",
    "092011.797000",
    "092013.798000",
    "092015.797000",
    "092017.797000",
    "092019.798000",
    "092021.797000",
    "092023.798000",
    "092025.798000",
    "092027.798000",
    "092029.798000",
    "092031.798000",
    "092033.797000",
    "092035.798000",
    "092037.798000",
    "092039.797000",
    "092041.798000",
    "092043.797000",
    "092045.798000",
    "092047.798000",
    "092049.798000",
    "092051.797000",
    "092053.799000",
    "092055.797000",
    "092057.798000",
    "092059.798000",
    "092101.797000",
    "092103.798000",
    "092105.798000",
    "092107.798000",
    "092109.798000",
    "092111.798000",
    "092113.797000",
    "092115.797000",
    "092117.797000",
    "092119.798000",
    "092121.798000",
    "092123.798000",
    "092125.798000",
    "092127.797000",
    "092129.797000",
    "092131.798000",
    "092133.797000",
    "092135.797000",
    "092137.798000",
    "092139.798000",
    "092141.797000",
    "092143.798000",
    "092145.797000",
    "092147.798000",
    "092149.798000",
    "092151.798000",
    "092153.798000",
    "092155.798000",
    "092157.798000",
    "092159.798000",
    "092201.797000",
    "092203.799000",
    "092205.798000",
    "092207.797000",
    "092209.798000",
    "092211.798000",
    "092213.798000",
    "092215.797000",
    "092217.797000",
    "092219.797000",
    "092221.798000",
    "092223.797000",
    "092225.798000",
    "092227.798000",
    "092229.797000",
    "092231.797000",
    "092233.798000",
    "092235.798000",
    "092237.797000",
    "092239.798000",
    "092241.798000",
    "092243.797000",
    "092245.798000",
    "092247.798000",
    "092249.797000",
    "092251.798000",
    "092253.798000",
    "092255.798000",
    "092257.798000",
    "092259.797000",
    "092301.798000",
    "092303.797000",
    "092305.797000",
    "092307.798000",
    "092309.798000",
    "092311.798000",
    "092313.799000",
    "092315.797000",
    "092317.798000",
    "092319.797000",
    "092321.797000",
    "092323.798000",
    "092325.797000",
    "092327.798000",
    "092329.798000",
    "092331.797000",
    "092333.798000",
    "092335.798000",
    "092337.798000",
    "092339.798000",
    "092341.798000",
    "092343.798000",
    "092345.798000",
    "092347.797000",
    "092349.798000",
    "092351.813000",
    "092353.798000",
    "092355.798000",
    "092357.797000",
    "092359.798000",
    "092401.798000",
    "092403.798000",
    "092405.798000",
    "092407.798000",
    "092409.798000",
    "092411.797000",
    "092413.798000",
    "092415.797000",
    "092417.798000",
    "092419.798000",
    "092421.798000",
    "092423.798000",
    "092425.798000",
    "092427.798000",
    "092429.798000",
    "092431.798000",
    "092433.797000",
    "092435.798000",
    "092437.798000",
    "092439.594000"
   ],
   "InstanceNumber": [
    1,
    2,
    3,
    4,
    5,
    6,
    7,
    8,
    9,
    10,
    11,
    12,
    13,
    14,
    15,
    16,
    17,
    18,
    19,
    20,
    21,
    22,
    23,
    24,
    25,
    26,
    27,
    28,
    29,
    30,
    31,
    32,
    33,
    34,
    35,
    36,
    37,
    38,
    39,
    40,
    41,
    42,
    43,
    44,
    45,
    46,
    47,
    48,
    49,
    50,
    51,
    52,
    53,
    54,
    55,
    56,
    57,
    58,
    59,
    60,
    61,
    62,
    63,
    64,
    65,
    66,
    67,
    68,
    69,
    70,
    71,
    72,
    73,
    74,
    75,
    76,
    77,
    78,
    79,
    80,
    81,
    82,
    83,
    84,
    85,
    86,
    87,
    88,
    89,
    90,
    91,
    92,
    93,
    94,
    95,
    96,
    97,
    98,
    99,
    100,
    101,
    102,
    103,
    104,
    105,
    106,
    107,
    108,
    109,
    110,
    111,
    112,
    113,
    114,
    115,
    116,
    117,
    118,
    119,
    120,
    121,
    122,
    123,
    124,
    125,
    126,
    127,
    128,
    129,
    130,
    131,
    132,
    133,
    134,
    135,
    136,
    137,
    138,
    139,
    140,
    141,
    142,
    143,
    144,
    145,
    146,
    147,
    148,
    149,
    150,
    151,
    152,
    153,
    154,
    155,
    156,
    157,
    158,
    159,
    160,
    161,
    162,
    163,
    164,
    165,
    166,
    167,
    168,
    169,
    170,
    171,
    172,
    173,
    174,
    175,
    176,
    177,
    178,
    179,
    180,
    181,
    182,
    183,
    184,
    185,
    186,
    187,
    188,
    189,
    190,
    191,
    192,
    193,
    194,
    195,
    196,
    197,
    198,
    199,
    200,
    201,
    202,
    203,
    204,
    205,
    206,
    207,
    208,
    209,
    210,
    211,
    212,
    213,
    214,
    215,
    216,
    217,
    218,
    219,
    220,
    221,
    222,
    223,
    224,
    225,
    226,
    227,
    228,
    229,
    230,
    231,
    232,
    233,
    234,
    235,
    236,
    237,
    238,
    239,
    240,
    241,
    242,
    243,
    244,
    245,
    246,
    247,
    248,
    249,
    250,
    251,
    252,
    253,
    254,
    255,
    256
   ],
   "LargestImagePixelValue": [
    3850,
    3840,
    3828,
    3807,
    3785,
    3752,
    3800,
    3717,
    3701,
    3702,
    3770,
    3748,
    3734,
    3729,
    3713,
    3678,
    3727,
    3687,
    3696,
    3697,
    3691,
    3670,
    3670,
    3650,
    3643,
    3610,
    3662,
    3622,
    3599,
    3621,
    3579,
    3606,
    3614,
    3593,
    3595,
    3618,
    3633,
    3586,
    3593,
    3559,
    3572,
    3599,
    3564,
    3561,
    3589,
    3581,
    3583,
    3613,
    3649,
    3581,
    3596,
    3603,
    3582,
    3592,
    3622,
    3595,
    3581,
    3598,
    3600,
    3608,
    3594,
    3605,
    3601,
    3591,
    3594,
    3581,
    3587,
    3577,
    3610,
    3621,
    3610,
    3648,
    3615,
    3519,
    3609,
    3600,
    3590,
    3623,
    3611,
    3587,
    3602,
    3613,
    3624,
    3594,
    3600,
    3634,
    3604,
    3599,
    3609,
    3599,
    3598,
    3577,
    3567,
    3605,
    3610,
    3585,
    3602,
    3613,
    3538,
    3582,
    3594,
    3579,
    3577,
    3572,
    3581,
    3630,
    3619,
    3638,
    3614,
    3602,
    3601,
    3583,
    3632,
    3565,
    3599,
    3489,
    3671,
    3604,
    3555,
    3646,
    3651,
    3658,
    3687,
    3662,
    3653,
    3676,
    3675,
    3644,
    3645,
    3667,
    3694,
    3688,
    3692,
    3712,
    3678,
    3699,
    3743,
    3694,
    3665,
    3659,
    3721,
    3700,
    3712,
    3698,
    3685,
    3691,
    3716,
    3716,
    3714,
    3677,
    3694,
    3717,
    3706,
    3701,
    3716,
    3718,
    3684,
    3692,
    3745,
    3703,
    3735,
    3720,
    3726,
    3681,
    3682,
    3706,
    3717,
    3725,
    3698,
    3719,
    3758,
    3719,
    3732,
    3725,
    3734,
    3734,
    3748,
    3707,
    3722,
    3749,
    3730,
    3745,
    3762,
    3733,
    3728,
    3720,
    3736,
    3734,
    3747,
    3730,
    3733,
    3721,
    3723,
    3701,
    3707,
    3742,
    3689,
    3758,
    3724,
    3768,
    3730,
    3715,
    3761,
    3715,
    3724,
    3749,
    3746,
    3736,
    3737,
    3751,
    3740,
    3738,
    3706,
    3705,
    3728,
    3722,
    3718,
    3708,
    3706,
    3712,
    3730,
    3731,
    3773,
    3740,
    3718,
    3747,
    3740,
    3747,
    3691,
    3750,
    3734,
    3736,
    3742,
    3720,
    3741,
    3725,
    3709,
    3712,
    3739,
    3747,
    3725,
    3705,
    3735,
    3741,
    3721,
    3752,
    3759,
    3758,
    3734,
    3726,
    3745,
    3731,
    3715,
    3754,
    3731,
    3757
   ],
   "WindowCenter": [
    771.0,
    770.0,
    769.0,
    768.0,
    765.0,
    763.0,
    763.0,
    763.0,
    763.0,
    764.0,
    767.0,
    768.0,
    769.0,
    769.0,
    769.0,
    768.0,
    769.0,
    769.0,
    769.0,
    768.0,
    767.0,
    767.0,
    767.0,
    767.0,
    768.0,
    767.0,
    768.0,
    767.0,
    767.0,
    766.0,
    767.0,
    768.0,
    768.0,
    768.0,
    768.0,
    768.0,
    767.0,
    767.0,
    766.0,
    766.0,
    767.0,
    767.0,
    766.0,
    766.0,
    766.0,
    766.0,
    767.0,
    767.0,
    767.0,
    767.0,
    768.0,
    769.0,
    768.0,
    767.0,
    767.0,
    766.0,
    766.0,
    766.0,
    767.0,
    767.0,
    767.0,
    767.0,
    767.0,
    767.0,
    766.0,
    767.0,
    768.0,
    767.0,
    767.0,
    767.0,
    767.0,
    768.0,
    769.0,
    767.0,
    767.0,
    767.0,
    767.0,
    767.0,
    767.0,
    765.0,
    765.0,
    766.0,
    767.0,
    767.0,
    767.0,
    768.0,
    768.0,
    768.0,
    768.0,
    768.0,
    768.0,
    769.0,
    767.0,
    767.0,
    768.0,
    768.0,
    768.0,
    769.0,
    768.0,
    767.0,
    767.0,
    767.0,
    767.0,
    768.0,
    767.0,
    767.0,
    768.0,
    768.0,
    768.0,
    769.0,
    768.0,
    767.0,
    767.0,
    767.0,
    769.0,
    767.0,
    771.0,
    770.0,
    769.0,
    768.0,
    767.0,
    765.0,
    764.0,
    764.0,
    765.0,
