{
  "AcquisitionMatrixPE": 100,
  "AcquisitionNumber": 1,
  "AcquisitionTime": "10:27:44.802500",
  "BandwidthPerPixelPhaseEncode": 18.519,
  "BaseResolution": 100,
  "BodyPartExamined": "BRAIN",
  "ConsistencyInfo": "N4_VE11C_LATEST_20160120",
  "ConversionSoftware": "dcm2niix",
  "ConversionSoftwareVersion": "v1.0.20180622 GCC4.9.2",
  "DerivedVendorReportedEchoSpacing": 0.000539986,
  "DeviceSerialNumber": "166078",
  "DwellTime": 2.1e-06,
  "EchoTime": 0.034,
  "EchoTrainLength": 100,
  "EffectiveEchoSpacing": 0.000539986,
  "FlipAngle": 90,
  "ImageOrientationPatientDICOM": [1, 0, 0, 0, 0.984808, -0.173648],
  "ImageType": [
    "ORIGINAL",
    "PRIMARY",
    "M",
    "ND",
    "MOSAIC"
],
  "InPlanePhaseEncodingDirectionDICOM": "COL",
  "InstitutionAddress": "Street_StreetNo_Bei_Jing_District_CN_ZIP",
  "InstitutionName": "BeiJing_Normal_University",
  "InstitutionalDepartmentName": "Department",
  "MRAcquisitionType": "2D",
  "MagneticFieldStrength": 3,
  "Manufacturer": "Siemens",
  "ManufacturersModelName": "Prisma",
  "Modality": "MR",
  "MultibandAccelerationFactor": 3,
  "PartialFourier": 1,
  "PatientPosition": "HFS",
  "PercentPhaseFOV": 100,
  "PhaseEncodingDirection": "j-",
  "PhaseEncodingSteps": 100,
  "PhaseResolution": 1,
  "PixelBandwidth": 2380,
  "ProcedureStepDescription": "BNU_P2018_64CH_Zhen.ZongLei",
  "ProtocolName": "bold_100x100_s3_2x2x2_static_256",
  "PulseSequenceDetails": "%SiemensSeq%_ep2d_bold",
  "ReceiveCoilActiveElements": "HC1-7;NC1",
  "ReceiveCoilName": "HeadNeck_64",
  "ReconMatrixPE": 100,
  "RepetitionTime": 2,
  "SAR": 0.060599,
  "ScanOptions": "FS",
  "ScanningSequence": "EP",
  "SequenceName": "_epfid2d1_100",
  "SequenceVariant": "SK",
  "SeriesDescription": "bold_100x100_s3_2x2x2_static_256",
  "SeriesNumber": 13,
  "ShimSetting": [-5446, -11522, -1243, 337, 10, -281, -272, 52],
  "SliceThickness": 2,
  "SliceTiming": [1.485, 0, 0.99, 0.0825, 1.0725, 0.165, 1.155, 0.2475, 1.2375, 0.33, 1.32, 0.4125, 1.4025, 0.5775, 1.5675, 0.66, 1.65, 0.7425, 1.7325, 0.825, 1.815, 0.9075, 1.8975, 0.495, 1.485, 0, 0.99, 0.0825, 1.0725, 0.165, 1.155, 0.2475, 1.2375, 0.33, 1.32, 0.4125, 1.4025, 0.5775, 1.5675, 0.66, 1.65, 0.7425, 1.7325, 0.825, 1.815, 0.9075, 1.8975, 0.495, 1.485, 0, 0.99, 0.0825, 1.0725, 0.165, 1.155, 0.2475, 1.2375, 0.33, 1.32, 0.4125, 1.4025, 0.5775, 1.5675, 0.66, 1.65, 0.7425, 1.7325, 0.825, 1.815, 0.9075, 1.8975, 0.495],
  "SoftwareVersions": "syngo_MR_E11",
  "SpacingBetweenSlices": 2,
  "StationName": "AWP166078",
  "TaskName": "naturalvision",
  "TotalReadoutTime": 0.0534586,
  "TxRefAmp": 214.328,
  "dcmmeta_affine": [
    [-2.0, 0.0, 0.0, 102.71186828613281],
    [0.0, 1.9696154594421387, -0.3472963571548462, -89.21361541748047],
    [0.0, 0.3472963571548462, 1.9696154594421387, -75.80085754394531],
    [0.0, 0.0, 0.0, 1.0]
],
  "dcmmeta_reorient_transform": [
    [0.0, -1.0, 0.0, 99.0],
    [1.0, 0.0, 0.0, 0.0],
    [0.0, 0.0, 1.0, 0.0],
    [0.0, 0.0, 0.0, 1.0]
],
  "dcmmeta_shape": [100, 100, 72, 256],
  "dcmmeta_slice_dim": 2,
  "dcmmeta_version": 0.6,
  "global": {
    "const": {
      "AcquisitionMatrix": [100, 0, 0, 100],
      "AngioFlag": "N",
      "BitsAllocated": 16,
      "BitsStored": 12,
      "BodyPartExamined": "BRAIN",
      "Columns": 900,
      "EchoNumbers": 1,
      "EchoTime": 34.0,
      "EchoTrainLength": 100,
      "FlipAngle": 90.0,
      "HighBit": 11,
      "ImageOrientationPatient": [1.0, 0.0, 0.0, 0.0, 0.98480775371103, -0.1736481737037],
      "ImagePositionPatient": [-902.71186447144, -893.62452186562, 97.500019693935],
      "ImageType": [
        "ORIGINAL",
        "PRIMARY",
        "M",
        "ND",
        "MOSAIC"
],
      "ImagedNucleus": "1H",
      "ImagingFrequency": 123.257718,
      "InPlanePhaseEncodingDirection": "COL",
      "MRAcquisitionType": "2D",
      "MagneticFieldStrength": 3.0,
      "Manufacturer": "SIEMENS",
      "ManufacturerModelName": "Prisma",
      "Modality": "MR",
      "NumberOfAverages": 1.0,
      "NumberOfPhaseEncodingSteps": 100,
      "PercentPhaseFieldOfView": 100.0,
      "PercentSampling": 100.0,
      "PerformedProcedureStepStartTime": "085650.269000",
      "PhotometricInterpretation": "MONOCHROME2",
      "PixelBandwidth": 2380.0,
      "PixelRepresentation": 0,
      "PixelSpacing": [2.0, 2.0],
      "ProtocolName": "bold_100x100_s3_2x2x2_static_256",
      "RepetitionTime": 2000.0,
      "Rows": 900,
      "SAR": 0.06059898211578,
      "SamplesPerPixel": 1,
      "ScanOptions": "FS",
      "ScanningSequence": "EP",
      "SequenceName": "*epfid2d1_100",
      "SequenceVariant": "SK",
      "SeriesDescription": "bold_100x100_s3_2x2x2_static_256",
      "SeriesNumber": 13,
      "SeriesTime": "102747.112000",
      "SliceLocation": -59.157490817251,
      "SliceThickness": 2.0,
      "SmallestImagePixelValue": 0,
      "SoftwareVersions": "syngo MR E11",
      "SpacingBetweenSlices": 2.0000000021973,
      "SpecificCharacterSet": "ISO_IR 100",
      "StudyID": "1",
      "StudyTime": "085650.208000",
      "TransmitCoilName": "Body",
      "VariableFlipAngleFlag": "N",
      "WindowCenterWidthExplanation": "Algo1",
      "dBdt": 0.0},
    "slices": {}
  },
  "time": {
    "samples": {
      "AcquisitionNumber": [1, 2, 3, 4, 5, 6, 7, 8, 9, 10, 11, 12, 13, 14, 15, 16, 17, 18, 19, 20, 21, 22, 23, 24, 25, 26, 27, 28, 29, 30, 31, 32, 33, 34, 35, 36, 37, 38, 39, 40, 41, 42, 43, 44, 45, 46, 47, 48, 49, 50, 51, 52, 53, 54, 55, 56, 57, 58, 59, 60, 61, 62, 63, 64, 65, 66, 67, 68, 69, 70, 71, 72, 73, 74, 75, 76, 77, 78, 79, 80, 81, 82, 83, 84, 85, 86, 87, 88, 89, 90, 91, 92, 93, 94, 95, 96, 97, 98, 99, 100, 101, 102, 103, 104, 105, 106, 107, 108, 109, 110, 111, 112, 113, 114, 115, 116, 117, 118, 119, 120, 121, 122, 123, 124, 125, 126, 127, 128, 129, 130, 131, 132, 133, 134, 135, 136, 137, 138, 139, 140, 141, 142, 143, 144, 145, 146, 147, 148, 149, 150, 151, 152, 153, 154, 155, 156, 157, 158, 159, 160, 161, 162, 163, 164, 165, 166, 167, 168, 169, 170, 171, 172, 173, 174, 175, 176, 177, 178, 179, 180, 181, 182, 183, 184, 185, 186, 187, 188, 189, 190, 191, 192, 193, 194, 195, 196, 197, 198, 199, 200, 201, 202, 203, 204, 205, 206, 207, 208, 209, 210, 211, 212, 213, 214, 215, 216, 217, 218, 219, 220, 221, 222, 223, 224, 225, 226, 227, 228, 229, 230, 231, 232, 233, 234, 235, 236, 237, 238, 239, 240, 241, 242, 243, 244, 245, 246, 247, 248, 249, 250, 251, 252, 253, 254, 255, 256],
      "AcquisitionTime": ["102744.802500", "102746.802500", "102748.802500", "102750.802500", "102752.802500", "102754.802500", "102756.802500", "102758.802500", "102800.802500", "102802.802500", "102804.802500", "102806.802500", "102808.802500", "102810.802500", "102812.802500", "102814.802500", "102816.802500", "102818.802500", "102820.802500", "102822.802500", "102824.802500", "102826.802500", "102828.802500", "102830.802500", "102832.802500", "102834.802500", "102836.802500", "102838.802500", "102840.802500", "102842.802500", "102844.802500", "102846.802500", "102848.802500", "102850.802500", "102852.802500", "102854.802500", "102856.802500", "102858.802500", "102900.802500", "102902.802500", "102904.802500", "102906.802500", "102908.802500", "102910.802500", "102912.802500", "102914.802500", "102916.802500", "102918.802500", "102920.802500", "102922.802500", "102924.802500", "102926.802500", "102928.802500", "102930.802500", "102932.802500", "102934.802500", "102936.802500", "102938.802500", "102940.802500", "102942.802500", "102944.802500", "102946.802500", "102948.802500", "102950.802500", "102952.802500", "102954.802500", "102956.802500", "102958.802500", "103000.802500", "103002.802500", "103004.802500", "103006.802500", "103008.802500", "103010.802500", "103012.802500", "103014.802500", "103016.802500", "103018.802500", "103020.802500", "103022.802500", "103024.802500", "103026.802500", "103028.802500", "103030.802500", "103032.802500", "103034.802500", "103036.802500", "103038.802500", "103040.802500", "103042.802500", "103044.802500", "103046.802500", "103048.802500", "103050.802500", "103052.802500", "103054.802500", "103056.802500", "103058.802500", "103100.802500", "103102.802500", "103104.802500", "103106.802500", "103108.802500", "103110.802500", "103112.802500", "103114.802500", "103116.802500", "103118.802500", "103120.802500", "103122.802500", "103124.802500", "103126.802500", "103128.802500", "103130.802500", "103132.802500", "103134.802500", "103136.802500", "103138.802500", "103140.802500", "103142.802500", "103144.802500", "103146.802500", "103148.802500", "103150.802500", "103152.802500", "103154.802500", "103156.802500", "103158.802500", "103200.802500", "103202.802500", "103204.802500", "103206.802500", "103208.802500", "103210.802500", "103212.802500", "103214.802500", "103216.802500", "103218.802500", "103220.802500", "103222.802500", "103224.802500", "103226.802500", "103228.802500", "103230.802500", "103232.802500", "103234.802500", "103236.802500", "103238.802500", "103240.802500", "103242.802500", "103244.802500", "103246.802500", "103248.802500", "103250.802500", "103252.802500", "103254.802500", "103256.802500", "103258.802500", "103300.802500", "103302.802500", "103304.802500", "103306.802500", "103308.802500", "103310.802500", "103312.802500", "103314.802500", "103316.802500", "103318.802500", "103320.802500", "103322.802500", "103324.802500", "103326.802500", "103328.802500", "103330.802500", "103332.802500", "103334.802500", "103336.802500", "103338.802500", "103340.802500", "103342.802500", "103344.802500", "103346.802500", "103348.802500", "103350.802500", "103352.802500", "103354.802500", "103356.802500", "103358.802500", "103400.802500", "103402.802500", "103404.802500", "103406.802500", "103408.802500", "103410.802500", "103412.802500", "103414.802500", "103416.802500", "103418.802500", "103420.802500", "103422.802500", "103424.802500", "103426.802500", "103428.802500", "103430.802500", "103432.802500", "103434.802500", "103436.802500", "103438.802500", "103440.802500", "103442.802500", "103444.802500", "103446.802500", "103448.802500", "103450.802500", "103452.802500", "103454.802500", "103456.802500", "103458.802500", "103500.802500", "103502.802500", "103504.802500", "103506.802500", "103508.802500", "103510.802500", "103512.802500", "103514.802500", "103516.802500", "103518.802500", "103520.802500", "103522.802500", "103524.802500", "103526.802500", "103528.802500", "103530.802500", "103532.802500", "103534.802500", "103536.802500", "103538.802500", "103540.802500", "103542.802500", "103544.802500", "103546.802500", "103548.802500", "103550.802500", "103552.802500", "103554.802500", "103556.802500", "103558.802500", "103600.802500", "103602.802500", "103604.802500", "103606.802500", "103608.802500", "103610.802500", "103612.802500", "103614.802500"],
      "ContentTime": ["102747.116000", "102748.612000", "102750.612000", "102752.611000", "102754.612000", "102756.612000", "102758.613000", "102800.613000", "102802.612000", "102804.612000", "102806.612000", "102808.612000", "102810.612000", "102812.613000", "102814.613000", "102816.612000", "102818.612000", "102820.612000", "102822.612000", "102824.611000", "102826.611000", "102828.612000", "102830.613000", "102832.613000", "102834.612000", "102836.612000", "102838.612000", "102840.611000", "102842.612000", "102844.612000", "102846.611000", "102848.613000", "102850.613000", "102852.613000", "102854.612000", "102856.612000", "102858.612000", "102900.611000", "102902.611000", "102904.611000", "102906.613000", "102908.612000", "102910.613000", "102912.612000", "102914.612000", "102916.611000", "102918.612000", "102920.612000", "102922.613000", "102924.612000", "102926.613000", "102928.613000", "102930.613000", "102932.611000", "102934.612000", "102936.612000", "102938.612000", "102940.613000", "102942.613000", "102944.612000", "102946.612000", "102948.612000", "102950.611000", "102952.612000", "102954.611000", "102956.612000", "102958.612000", "103000.613000", "103002.612000", "103004.613000", "103006.613000", "103008.611000", "103010.611000", "103012.611000", "103014.613000", "103016.613000", "103018.613000", "103020.613000", "103022.612000", "103024.612000", "103026.612000", "103028.611000", "103030.612000", "103032.613000", "103034.613000", "103036.613000", "103038.613000", "103040.612000", "103042.611000", "103044.612000", "103046.611000", "103048.612000", "103050.613000", "103052.613000", "103054.613000", "103056.613000", "103058.613000", "103100.611000", "103102.612000", "103104.612000", "103106.611000", "103108.612000", "103110.612000", "103112.612000", "103114.612000", "103116.613000", "103118.612000", "103120.612000", "103122.611000", "103124.613000", "103126.612000", "103128.612000", "103130.613000", "103132.613000", "103134.611000", "103136.612000", "103138.611000", "103140.612000", "103142.612000", "103144.612000", "103146.613000", "103148.613000", "103150.612000", "103152.612000", "103154.611000", "103156.612000", "103158.612000", "103200.613000", "103202.613000", "103204.613000", "103206.612000", "103208.613000", "103210.611000", "103212.611000", "103214.612000", "103216.612000", "103218.612000", "103220.612000", "103222.613000", "103224.613000", "103226.613000", "103228.611000", "103230.611000", "103232.612000", "103234.613000", "103236.613000", "103238.613000", "103240.613000", "103242.612000", "103244.612000", "103246.612000", "103248.612000", "103250.612000", "103252.613000", "103254.613000", "103256.612000", "103258.613000", "103300.613000", "103302.612000", "103304.612000", "103306.612000", "103308.611000", "103310.612000", "103312.612000", "103314.613000", "103316.612000", "103318.613000", "103320.611000", "103322.612000", "103324.611000", "103326.612000", "103328.613000", "103330.613000", "103332.613000", "103334.612000", "103336.612000", "103338.612000", "103340.612000", "103342.612000", "103344.613000", "103346.613000", "103348.612000", "103350.613000", "103352.613000", "103354.611000", "103356.612000", "103358.612000", "103400.612000", "103402.613000", "103404.612000", "103406.612000", "103408.613000", "103410.613000", "103412.612000", "103414.612000", "103416.611000", "103418.612000", "103420.612000", "103422.613000", "103424.613000", "103426.612000", "103428.613000", "103430.612000", "103432.611000", "103434.612000", "103436.612000", "103438.613000", "103440.612000", "103442.613000", "103444.612000", "103446.613000", "103448.612000", "103450.611000", "103452.612000", "103454.613000", "103456.613000", "103458.612000", "103500.612000", "103502.612000", "103504.612000", "103506.611000", "103508.611000", "103510.611000", "103512.613000", "103514.612000", "103516.612000", "103518.612000", "103520.613000", "103522.612000", "103524.612000", "103526.612000", "103528.612000", "103530.613000", "103532.613000", "103534.613000", "103536.612000", "103538.613000", "103540.612000", "103542.611000", "103544.612000", "103546.611000", "103548.613000", "103550.613000", "103552.613000", "103554.613000", "103556.612000", "103558.611000", "103600.612000", "103602.611000", "103604.613000", "103606.612000", "103608.613000", "103610.613000", "103612.627000", "103614.612000", "103616.326000"],
      "InstanceCreationTime": ["102747.116000", "102748.612000", "102750.612000", "102752.611000", "102754.612000", "102756.612000", "102758.613000", "102800.613000", "102802.612000", "102804.612000", "102806.612000", "102808.612000", "102810.612000", "102812.613000", "102814.613000", "102816.612000", "102818.612000", "102820.612000", "102822.612000", "102824.611000", "102826.611000", "102828.612000", "102830.613000", "102832.613000", "102834.612000", "102836.612000", "102838.612000", "102840.611000", "102842.612000", "102844.612000", "102846.611000", "102848.613000", "102850.613000", "102852.613000", "102854.612000", "102856.612000", "102858.612000", "102900.611000", "102902.611000", "102904.611000", "102906.613000", "102908.612000", "102910.613000", "102912.612000", "102914.612000", "102916.611000", "102918.612000", "102920.612000", "102922.613000", "102924.612000", "102926.613000", "102928.613000", "102930.613000", "102932.611000", "102934.612000", "102936.612000", "102938.612000", "102940.613000", "102942.613000", "102944.612000", "102946.612000", "102948.612000", "102950.611000", "102952.612000", "102954.611000", "102956.612000", "102958.612000", "103000.613000", "103002.612000", "103004.613000", "103006.613000", "103008.611000", "103010.611000", "103012.611000", "103014.613000", "103016.613000", "103018.613000", "103020.613000", "103022.612000", "103024.612000", "103026.612000", "103028.611000", "103030.612000", "103032.613000", "103034.613000", "103036.613000", "103038.613000", "103040.612000", "103042.611000", "103044.612000", "103046.611000", "103048.612000", "103050.613000", "103052.613000", "103054.613000", "103056.613000", "103058.613000", "103100.611000", "103102.612000", "103104.612000", "103106.611000", "103108.612000", "103110.612000", "103112.612000", "103114.612000", "103116.613000", "103118.612000", "103120.612000", "103122.611000", "103124.613000", "103126.612000", "103128.612000", "103130.613000", "103132.613000", "103134.611000", "103136.612000", "103138.611000", "103140.612000", "103142.612000", "103144.612000", "103146.613000", "103148.613000", "103150.612000", "103152.612000", "103154.611000", "103156.612000", "103158.612000", "103200.613000", "103202.613000", "103204.613000", "103206.612000", "103208.613000", "103210.611000", "103212.611000", "103214.612000", "103216.612000", "103218.612000", "103220.612000", "103222.613000", "103224.613000", "103226.613000", "103228.611000", "103230.611000", "103232.612000", "103234.613000", "103236.613000", "103238.613000", "103240.613000", "103242.612000", "103244.612000", "103246.612000", "103248.612000", "103250.612000", "103252.613000", "103254.613000", "103256.612000", "103258.613000", "103300.613000", "103302.612000", "103304.612000", "103306.612000", "103308.611000", "103310.612000", "103312.612000", "103314.613000", "103316.612000", "103318.613000", "103320.611000", "103322.612000", "103324.611000", "103326.612000", "103328.613000", "103330.613000", "103332.613000", "103334.612000", "103336.612000", "103338.612000", "103340.612000", "103342.612000", "103344.613000", "103346.613000", "103348.612000", "103350.613000", "103352.613000", "103354.611000", "103356.612000", "103358.612000", "103400.612000", "103402.613000", "103404.612000", "103406.612000", "103408.613000", "103410.613000", "103412.612000", "103414.612000", "103416.611000", "103418.612000", "103420.612000", "103422.613000", "103424.613000", "103426.612000", "103428.613000", "103430.612000", "103432.611000", "103434.612000", "103436.612000", "103438.613000", "103440.612000", "103442.613000", "103444.612000", "103446.613000", "103448.612000", "103450.611000", "103452.612000", "103454.613000", "103456.613000", "103458.612000", "103500.612000", "103502.612000", "103504.612000", "103506.611000", "103508.611000", "103510.611000", "103512.613000", "103514.612000", "103516.612000", "103518.612000", "103520.613000", "103522.612000", "103524.612000", "103526.612000", "103528.612000", "103530.613000", "103532.613000", "103534.613000", "103536.612000", "103538.613000", "103540.612000", "103542.611000", "103544.612000", "103546.611000", "103548.613000", "103550.613000", "103552.613000", "103554.613000", "103556.612000", "103558.611000", "103600.612000", "103602.611000", "103604.613000", "103606.612000", "103608.613000", "103610.613000", "103612.627000", "103614.612000", "103616.326000"],
      "InstanceNumber": [1, 2, 3, 4, 5, 6, 7, 8, 9, 10, 11, 12, 13, 14, 15, 16, 17, 18, 19, 20, 21, 22, 23, 24, 25, 26, 27, 28, 29, 30, 31, 32, 33, 34, 35, 36, 37, 38, 39, 40, 41, 42, 43, 44, 45, 46, 47, 48, 49, 50, 51, 52, 53, 54, 55, 56, 57, 58, 59, 60, 61, 62, 63, 64, 65, 66, 67, 68, 69, 70, 71, 72, 73, 74, 75, 76, 77, 78, 79, 80, 81, 82, 83, 84, 85, 86, 87, 88, 89, 90, 91, 92, 93, 94, 95, 96, 97, 98, 99, 100, 101, 102, 103, 104, 105, 106, 107, 108, 109, 110, 111, 112, 113, 114, 115, 116, 117, 118, 119, 120, 121, 122, 123, 124, 125, 126, 127, 128, 129, 130, 131, 132, 133, 134, 135, 136, 137, 138, 139, 140, 141, 142, 143, 144, 145, 146, 147, 148, 149, 150, 151, 152, 153, 154, 155, 156, 157, 158, 159, 160, 161, 162, 163, 164, 165, 166, 167, 168, 169, 170, 171, 172, 173, 174, 175, 176, 177, 178, 179, 180, 181, 182, 183, 184, 185, 186, 187, 188, 189, 190, 191, 192, 193, 194, 195, 196, 197, 198, 199, 200, 201, 202, 203, 204, 205, 206, 207, 208, 209, 210, 211, 212, 213, 214, 215, 216, 217, 218, 219, 220, 221, 222, 223, 224, 225, 226, 227, 228, 229, 230, 231, 232, 233, 234, 235, 236, 237, 238, 239, 240, 241, 242, 243, 244, 245, 246, 247, 248, 249, 250, 251, 252, 253, 254, 255, 256],
      "LargestImagePixelValue": [3972, 3866, 3831, 3799, 3788, 3749, 3820, 3819, 3813, 3824, 3839, 3839, 3808, 3790, 3851, 3833, 3828, 3825, 3837, 3817, 3818, 3790, 3849, 3815, 3812, 3805, 3832, 3808, 3800, 3838, 3812, 3875, 3821, 3840, 3866, 3851, 3852, 3848, 3863, 3836, 3812, 3798, 3907, 3873, 3867, 3808, 3798, 3770, 3802, 3821, 3874, 3830, 3836, 3849, 3848, 3857, 3804, 3830, 3816, 3822, 3815, 3816, 3860, 3837, 3837, 3811, 3818, 3809, 3807, 3825, 3777, 3798, 3818, 3809, 3823, 3851, 3825, 3817, 3796, 3758, 3819, 3803, 3802, 3836, 3831, 3847, 3815, 3800, 3802, 3856, 3852, 3839, 3841, 3820, 3828, 3816, 3839, 3862, 3849, 3828, 3858, 3845, 3844, 3872, 3860, 3872, 3845, 3844, 3824, 3861, 3824, 3843, 3803, 3825, 3825, 3837, 3848, 3814, 3844, 3847, 3874, 3834, 3850, 3813, 3795, 3836, 3832, 3792, 3820, 3765, 3788, 3791, 3797, 3830, 3817, 3793, 3772, 3817, 3794, 3834, 3781, 3809, 3794, 3791, 3839, 3819, 3769, 3778, 3824, 3808, 3819, 3803, 3802, 3771, 3741, 3801, 3788, 3808, 3827, 3829, 3827, 3838, 3850, 3828, 3842, 3837, 3817, 3816, 3835, 3801, 3817, 3802, 3868, 3809, 3804, 3834, 3826, 3812, 3810, 3851, 3818, 3844, 3849, 3842, 3828, 3825, 3796, 3818, 3860, 3841, 3721, 3753, 3797, 3825, 3787, 3767, 3796, 3792, 3847, 3884, 3867, 3846, 3862, 3861, 3852, 3817, 3805, 3829, 3852, 3845, 3890, 3827, 3811, 3778, 3793, 3847, 3900, 3841, 3865, 3872, 3848, 3848, 3871, 3857, 3838, 3840, 3801, 3777, 3820, 3849, 3861, 3856, 3827, 3905, 3814, 3889, 3812, 3805, 3849, 3861, 3790, 3850, 3819, 3824, 3846, 3848, 3870, 3857, 3848, 3834, 3818, 3814, 3873, 3855, 3814, 3840],
      "WindowCenter": [775.0, 773.0, 773.0, 774.0, 773.0, 773.0, 773.0, 772.0, 772.0, 772.0, 772.0, 773.0, 772.0, 773.0, 773.0, 773.0, 774.0, 773.0, 773.0, 772.0, 772.0, 772.0, 774.0, 774.0, 775.0, 774.0, 774.0, 773.0, 772.0, 773.0, 772.0, 772.0, 771.0, 770.0, 771.0, 771.0, 771.0, 772.0, 771.0, 771.0, 772.0, 772.0, 772.0, 771.0, 772.0, 773.0, 774.0, 774.0, 773.0, 771.0, 772.0, 772.0, 771.0, 771.0, 771.0, 771.0, 770.0, 771.0, 770.0, 771.0, 772.0, 773.0, 772.0, 772.0, 772.0, 773.0, 773.0, 772.0, 773.0, 772.0, 772.0, 773.0, 773.0, 773.0, 772.0, 772.0, 772.0, 773.0, 774.0, 772.0, 771.0, 772.0, 773.0, 772.0, 771.0, 772.0, 773.0, 774.0, 773.0, 773.0, 771.0, 770.0, 771.0, 772.0, 772.0, 772.0, 771.0, 770.0, 770.0, 771.0, 771.0, 770.0, 770.0, 771.0, 770.0, 770.0, 771.0, 772.0, 771.0, 771.0, 771.0, 772.0, 773.0, 774.0, 773.0, 772.0, 771.0, 771.0, 771.0, 770.0, 770.0, 771.0, 772.0, 772.0, 772.0, 772.0, 770.0, 772.0, 773.0, 774.0, 772.0, 771.0, 769.0, 769.0, 768.0, 768.0, 768.0, 769.0, 771.0, 773.0, 772.0, 772.0, 773.0, 773.0, 773.0, 773.0, 775.0, 776.0, 776.0, 775.0, 773.0, 773.0, 772.0, 773.0, 772.0, 772.0, 770.0, 770.0, 770.0, 771.0, 772.0, 773.0, 773.0, 773.0, 773.0, 774.0, 775.0, 774.0, 775.0, 773.0, 772.0, 772.0, 773.0, 773.0, 773.0, 773.0, 772.0, 773.0, 774.0, 773.0, 773.0, 773.0, 773.0, 772.0, 772.0, 772.0, 772.0, 771.0, 771.0, 772.0, 772.0, 772.0, 772.0, 773.0, 774.0, 774.0, 773.0, 772.0, 772.0, 771.0, 770.0, 771.0, 772.0, 772.0, 773.0, 773.0, 773.0, 772.0, 771.0, 771.0, 771.0, 771.0, 772.0, 772.0, 772.0, 771.0, 770.0, 769.0, 769.0, 770.0, 770.0, 770.0, 770.0, 771.0, 772.0, 773.0, 773.0, 772.0, 772.0, 771.0, 771.0, 771.0, 771.0, 771.0, 769.0, 771.0, 772.0, 771.0, 771.0, 771.0, 772.0, 772.0, 771.0, 770.0, 770.0, 770.0, 770.0, 770.0, 771.0, 773.0, 772.0, 771.0, 771.0, 771.0, 771.0, 771.0],
      "WindowWidth": [1697.0, 1690.0, 1690.0, 1693.0, 1691.0, 1690.0, 1690.0, 1687.0, 1687.0, 1686.0, 1687.0, 1689.0, 1688.0, 1689.0, 1689.0, 1691.0, 1693.0, 1692.0, 1690.0, 1687.0, 1688.0, 1688.0, 1693.0, 1693.0, 1696.0, 1694.0, 1692.0, 1690.0, 1689.0, 1690.0, 1687.0, 1687.0, 1684.0, 1683.0, 1684.0, 1685.0, 1684.0, 1688.0, 1687.0, 1686.0, 1688.0, 1687.0, 1687.0, 1685.0, 1688.0, 1692.0, 1694.0, 1693.0, 1690.0, 1686.0, 1689.0, 1688.0, 1686.0, 1684.0, 1685.0, 1686.0, 1684.0, 1685.0, 1683.0, 1685.0, 1688.0, 1690.0, 1689.0, 1687.0, 1690.0, 1690.0, 1690.0, 1689.0, 1691.0, 1689.0, 1688.0, 1691.0, 1690.0, 1691.0, 1690.0, 1689.0, 1687.0, 1693.0, 1693.0, 1688.0, 1686.0, 1689.0, 1691.0, 1689.0, 1686.0, 1689.0, 1691.0, 1693.0, 1692.0, 1690.0, 1685.0, 1684.0, 1686.0, 1688.0, 1688.0, 1687.0, 1685.0, 1683.0, 1684.0, 1685.0, 1686.0, 1683.0, 1684.0, 1685.0, 1683.0, 1683.0, 1685.0, 1688.0, 1684.0, 1685.0, 1686.0, 1690.0, 1693.0, 1693.0, 1690.0, 1687.0, 1685.0, 1685.0, 1685.0, 1682.0, 1683.0, 1684.0, 1688.0, 1689.0, 1688.0, 1687.0, 1683.0, 1688.0, 1692.0, 1692.0, 1689.0, 1686.0, 1681.0, 1678.0, 1676.0, 1676.0, 1676.0, 1680.0, 1684.0, 1690.0, 1688.0, 1687.0, 1690.0, 1690.0, 1692.0, 1691.0, 1695.0, 1700.0, 1700.0, 1695.0, 1691.0, 1692.0, 1689.0, 1689.0, 1689.0, 1687.0, 1682.0, 1681.0, 1683.0, 1686.0, 1688.0, 1690.0, 1692.0, 1691.0, 1692.0, 1695.0, 1696.0, 1694.0, 1696.0, 1689.0, 1688.0, 1689.0, 1691.0, 1691.0, 1691.0, 1692.0, 1690.0, 1692.0, 1693.0, 1690.0, 1690.0, 1691.0, 1691.0, 1687.0, 1687.0, 1687.0, 1688.0, 1686.0, 1686.0, 1689.0, 1689.0, 1688.0, 1688.0, 1690.0, 1695.0, 1693.0, 1691.0, 1687.0, 1687.0, 1685.0, 1684.0, 1686.0, 1687.0, 1688.0, 1691.0, 1692.0, 1690.0, 1688.0, 1686.0, 1684.0, 1686.0, 1686.0, 1689.0, 1689.0, 1687.0, 1684.0, 1683.0, 1679.0, 1679.0, 1681.0, 1682.0, 1682.0, 1683.0, 1685.0, 1689.0, 1691.0, 1691.0, 1689.0, 1687.0, 1684.0, 1684.0, 1685.0, 1686.0, 1686.0, 1681.0, 1686.0, 1688.0, 1686.0, 1684.0, 1687.0, 1689.0, 1689.0, 1684.0, 1683.0, 1683.0, 1682.0, 1682.0, 1682.0, 1686.0, 1690.0, 1689.0, 1686.0, 1686.0, 1685.0, 1686.0, 1685.0]
    },
    "slices": {}
  }
}