{
 "AcquisitionMatrixPE": 100,
 "AcquisitionNumber": 1,
 "AcquisitionTime": "15:02:32.940000",
 "BandwidthPerPixelPhaseEncode": 18.519,
 "BaseResolution": 100,
 "BodyPartExamined": "BRAIN",
 "ConsistencyInfo": "N4_VE11C_LATEST_20160120",
 "ConversionSoftware": "dcm2niix",
 "ConversionSoftwareVersion": "v1.0.20180622 GCC4.9.2",
 "DerivedVendorReportedEchoSpacing": 0.000539986,
 "DeviceSerialNumber": "166078",
 "DwellTime": 2.1e-06,
 "EchoTime": 0.034,
 "EchoTrainLength": 100,
 "EffectiveEchoSpacing": 0.000539986,
 "FlipAngle": 90,
 "ImageOrientationPatientDICOM": [
  1,
  0,
  0,
  0,
  0.969016,
  -0.246999
 ],
 "ImageType": [
  "ORIGINAL",
  "PRIMARY",
  "M",
  "ND",
  "MOSAIC"
 ],
 "InPlanePhaseEncodingDirectionDICOM": "COL",
 "InstitutionAddress": "Street_StreetNo_Bei_Jing_District_CN_ZIP",
 "InstitutionName": "BeiJing_Normal_University",
 "InstitutionalDepartmentName": "Department",
 "MRAcquisitionType": "2D",
 "MagneticFieldStrength": 3,
 "Manufacturer": "Siemens",
 "ManufacturersModelName": "Prisma",
 "Modality": "MR",
 "MultibandAccelerationFactor": 3,
 "PartialFourier": 1,
 "PatientPosition": "HFS",
 "PercentPhaseFOV": 100,
 "PhaseEncodingDirection": "j-",
 "PhaseEncodingSteps": 100,
 "PhaseResolution": 1,
 "PixelBandwidth": 2380,
 "ProcedureStepDescription": "BNU_P2018_64CH_Zhen.ZongLei",
 "ProtocolName": "bold_100x100_s3_2x2x2_static_256",
 "PulseSequenceDetails": "%SiemensSeq%_ep2d_bold",
 "ReceiveCoilActiveElements": "HC1-7;NC1",
 "ReceiveCoilName": "HeadNeck_64",
 "ReconMatrixPE": 100,
 "RepetitionTime": 2,
 "SAR": 0.0844646,
 "ScanOptions": "FS",
 "ScanningSequence": "EP",
 "SequenceName": "_epfid2d1_100",
 "SequenceVariant": "SK",
 "SeriesDescription": "bold_100x100_s3_2x2x2_static_256",
 "SeriesNumber": 3,
 "ShimSetting": [
  -5456,
  -11470,
  -1256,
  424,
  -8,
  -113,
  -192,
  57
 ],
 "SliceThickness": 2,
 "SliceTiming": [
  1.485,
  0,
  0.99,
  0.0825,
  1.0725,
  0.165,
  1.155,
  0.2475,
  1.2375,
  0.33,
  1.32,
  0.4125,
  1.4025,
  0.5775,
  1.5675,
  0.66,
  1.65,
  0.7425,
  1.7325,
  0.825,
  1.815,
  0.9075,
  1.8975,
  0.495,
  1.485,
  0,
  0.99,
  0.0825,
  1.0725,
  0.165,
  1.155,
  0.2475,
  1.2375,
  0.33,
  1.32,
  0.4125,
  1.4025,
  0.5775,
  1.5675,
  0.66,
  1.65,
  0.7425,
  1.7325,
  0.825,
  1.815,
  0.9075,
  1.8975,
  0.495,
  1.485,
  0,
  0.99,
  0.0825,
  1.0725,
  0.165,
  1.155,
  0.2475,
  1.2375,
  0.33,
  1.32,
  0.4125,
  1.4025,
  0.5775,
  1.5675,
  0.66,
  1.65,
  0.7425,
  1.7325,
  0.825,
  1.815,
  0.9075,
  1.8975,
  0.495
 ],
 "SoftwareVersions": "syngo_MR_E11",
 "SpacingBetweenSlices": 2,
 "StationName": "AWP166078",
 "TaskName": "imagenet",
 "TotalReadoutTime": 0.0534586,
 "TxRefAmp": 230.828,
 "dcmmeta_affine": [
  [
   -2.0,
   0.0,
   0.0,
   100.67469787597656
  ],
  [
   0.0,
   1.9380314350128174,
   -0.4939979910850525,
   -78.31817626953125
  ],
  [
   0.0,
   0.4939979910850525,
   1.9380314350128174,
   -92.38915252685547
  ],
  [
   0.0,
   0.0,
   0.0,
   1.0
  ]
 ],
 "dcmmeta_reorient_transform": [
  [
   0.0,
   -1.0,
   0.0,
   99.0
  ],
  [
   1.0,
   0.0,
   0.0,
   0.0
  ],
  [
   0.0,
   0.0,
   1.0,
   0.0
  ],
  [
   0.0,
   0.0,
   0.0,
   1.0
  ]
 ],
 "dcmmeta_shape": [
  100,
  100,
  72,
  256
 ],
 "dcmmeta_slice_dim": 2,
 "dcmmeta_version": 0.6,
 "global": {
  "const": {
   "AcquisitionMatrix": [
    100,
    0,
    0,
    100
   ],
   "AngioFlag": "N",
   "BitsAllocated": 16,
   "BitsStored": 12,
   "BodyPartExamined": "BRAIN",
   "Columns": 900,
   "EchoNumbers": 1,
   "EchoTime": 34.0,
   "EchoTrainLength": 100,
   "FlipAngle": 90.0,
   "HighBit": 11,
   "ImageOrientationPatient": [
    1.0,
    0.0,
    0.0,
    0.0,
    0.96901573474032,
    -0.2469989996451
   ],
   "ImagePositionPatient": [
    -900.67469877005,
    -888.75952412029,
    154.11584925336
   ],
   "ImageType": [
    "ORIGINAL",
    "PRIMARY",
    "M",
    "ND",
    "MOSAIC"
   ],
   "ImagedNucleus": "1H",
   "ImagingFrequency": 123.257768,
   "InPlanePhaseEncodingDirection": "COL",
   "MRAcquisitionType": "2D",
   "MagneticFieldStrength": 3.0,
   "Manufacturer": "SIEMENS",
   "ManufacturerModelName": "Prisma",
   "Modality": "MR",
   "NumberOfAverages": 1.0,
   "NumberOfPhaseEncodingSteps": 100,
   "PercentPhaseFieldOfView": 100.0,
   "PercentSampling": 100.0,
   "PerformedProcedureStepStartTime": "145824.153000",
   "PhotometricInterpretation": "MONOCHROME2",
   "PixelBandwidth": 2380.0,
   "PixelRepresentation": 0,
   "PixelSpacing": [
    2.0,
    2.0
   ],
   "ProtocolName": "bold_100x100_s3_2x2x2_static_256",
   "RepetitionTime": 2000.0,
   "Rows": 900,
   "SAR": 0.08446462633804,
   "SamplesPerPixel": 1,
   "ScanOptions": "FS",
   "ScanningSequence": "EP",
   "SequenceName": "*epfid2d1_100",
   "SequenceVariant": "SK",
   "SeriesDescription": "bold_100x100_s3_2x2x2_static_256",
   "SeriesNumber": 3,
   "SeriesTime": "150234.846000",
   "SliceLocation": -70.18203048341,
   "SliceThickness": 2.0,
   "SmallestImagePixelValue": 0,
   "SoftwareVersions": "syngo MR E11",
   "SpacingBetweenSlices": 2.0000000099853,
   "SpecificCharacterSet": "ISO_IR 100",
   "StudyID": "1",
   "StudyTime": "145824.063000",
   "TransmitCoilName": "Body",
   "VariableFlipAngleFlag": "N",
   "WindowCenterWidthExplanation": "Algo1",
   "dBdt": 0.0
  },
  "slices": {}
 },
 "time": {
  "samples": {
   "AcquisitionNumber": [
    1,
    2,
    3,
    4,
    5,
    6,
    7,
    8,
    9,
    10,
    11,
    12,
    13,
    14,
    15,
    16,
    17,
    18,
    19,
    20,
    21,
    22,
    23,
    24,
    25,
    26,
    27,
    28,
    29,
    30,
    31,
    32,
    33,
    34,
    35,
    36,
    37,
    38,
    39,
    40,
    41,
    42,
    43,
    44,
    45,
    46,
    47,
    48,
    49,
    50,
    51,
    52,
    53,
    54,
    55,
    56,
    57,
    58,
    59,
    60,
    61,
    62,
    63,
    64,
    65,
    66,
    67,
    68,
    69,
    70,
    71,
    72,
    73,
    74,
    75,
    76,
    77,
    78,
    79,
    80,
    81,
    82,
    83,
    84,
    85,
    86,
    87,
    88,
    89,
    90,
    91,
    92,
    93,
    94,
    95,
    96,
    97,
    98,
    99,
    100,
    101,
    102,
    103,
    104,
    105,
    106,
    107,
    108,
    109,
    110,
    111,
    112,
    113,
    114,
    115,
    116,
    117,
    118,
    119,
    120,
    121,
    122,
    123,
    124,
    125,
    126,
    127,
    128,
    129,
    130,
    131,
    132,
    133,
    134,
    135,
    136,
    137,
    138,
    139,
    140,
    141,
    142,
    143,
    144,
    145,
    146,
    147,
    148,
    149,
    150,
    151,
    152,
    153,
    154,
    155,
    156,
    157,
    158,
    159,
    160,
    161,
    162,
    163,
    164,
    165,
    166,
    167,
    168,
    169,
    170,
    171,
    172,
    173,
    174,
    175,
    176,
    177,
    178,
    179,
    180,
    181,
    182,
    183,
    184,
    185,
    186,
    187,
    188,
    189,
    190,
    191,
    192,
    193,
    194,
    195,
    196,
    197,
    198,
    199,
    200,
    201,
    202,
    203,
    204,
    205,
    206,
    207,
    208,
    209,
    210,
    211,
    212,
    213,
    214,
    215,
    216,
    217,
    218,
    219,
    220,
    221,
    222,
    223,
    224,
    225,
    226,
    227,
    228,
    229,
    230,
    231,
    232,
    233,
    234,
    235,
    236,
    237,
    238,
    239,
    240,
    241,
    242,
    243,
    244,
    245,
    246,
    247,
    248,
    249,
    250,
    251,
    252,
    253,
    254,
    255,
    256
   ],
   "AcquisitionTime": [
    "150232.940000",
    "150234.940000",
    "150236.940000",
    "150238.940000",
    "150240.940000",
    "150242.940000",
    "150244.940000",
    "150246.940000",
    "150248.940000",
    "150250.940000",
    "150252.940000",
    "150254.940000",
    "150256.940000",
    "150258.940000",
    "150300.940000",
    "150302.940000",
    "150304.940000",
    "150306.940000",
    "150308.940000",
    "150310.940000",
    "150312.940000",
    "150314.940000",
    "150316.940000",
    "150318.940000",
    "150320.940000",
    "150322.940000",
    "150324.940000",
    "150326.940000",
    "150328.940000",
    "150330.940000",
    "150332.940000",
    "150334.940000",
    "150336.940000",
    "150338.940000",
    "150340.940000",
    "150342.940000",
    "150344.940000",
    "150346.940000",
    "150348.940000",
    "150350.940000",
    "150352.940000",
    "150354.940000",
    "150356.940000",
    "150358.940000",
    "150400.940000",
    "150402.940000",
    "150404.940000",
    "150406.940000",
    "150408.940000",
    "150410.940000",
    "150412.940000",
    "150414.940000",
    "150416.940000",
    "150418.940000",
    "150420.940000",
    "150422.940000",
    "150424.940000",
    "150426.940000",
    "150428.940000",
    "150430.940000",
    "150432.940000",
    "150434.940000",
    "150436.940000",
    "150438.940000",
    "150440.940000",
    "150442.940000",
    "150444.940000",
    "150446.940000",
    "150448.940000",
    "150450.940000",
    "150452.940000",
    "150454.940000",
    "150456.940000",
    "150458.940000",
    "150500.940000",
    "150502.940000",
    "150504.940000",
    "150506.940000",
    "150508.940000",
    "150510.940000",
    "150512.940000",
    "150514.940000",
    "150516.940000",
    "150518.940000",
    "150520.940000",
    "150522.940000",
    "150524.940000",
    "150526.940000",
    "150528.940000",
    "150530.940000",
    "150532.940000",
    "150534.940000",
    "150536.940000",
    "150538.940000",
    "150540.940000",
    "150542.940000",
    "150544.940000",
    "150546.940000",
    "150548.940000",
    "150550.940000",
    "150552.940000",
    "150554.940000",
    "150556.940000",
    "150558.940000",
    "150600.940000",
    "150602.940000",
    "150604.940000",
    "150606.940000",
    "150608.940000",
    "150610.940000",
    "150612.940000",
    "150614.940000",
    "150616.940000",
    "150618.940000",
    "150620.940000",
    "150622.940000",
    "150624.940000",
    "150626.940000",
    "150628.940000",
    "150630.940000",
    "150632.940000",
    "150634.940000",
    "150636.940000",
    "150638.940000",
    "150640.940000",
    "150642.940000",
    "150644.940000",
    "150646.940000",
    "150648.940000",
    "150650.940000",
    "150652.940000",
    "150654.940000",
    "150656.940000",
    "150658.940000",
    "150700.940000",
    "150702.940000",
    "150704.940000",
    "150706.940000",
    "150708.940000",
    "150710.940000",
    "150712.940000",
    "150714.940000",
    "150716.940000",
    "150718.940000",
    "150720.940000",
    "150722.940000",
    "150724.940000",
    "150726.940000",
    "150728.940000",
    "150730.940000",
    "150732.940000",
    "150734.940000",
    "150736.940000",
    "150738.940000",
    "150740.940000",
    "150742.940000",
    "150744.940000",
    "150746.940000",
    "150748.940000",
    "150750.940000",
    "150752.940000",
    "150754.940000",
    "150756.940000",
    "150758.940000",
    "150800.940000",
    "150802.940000",
    "150804.940000",
    "150806.940000",
    "150808.940000",
    "150810.940000",
    "150812.940000",
    "150814.940000",
    "150816.940000",
    "150818.940000",
    "150820.940000",
    "150822.940000",
    "150824.940000",
    "150826.940000",
    "150828.940000",
    "150830.940000",
    "150832.940000",
    "150834.940000",
    "150836.940000",
    "150838.940000",
    "150840.940000",
    "150842.940000",
    "150844.940000",
    "150846.940000",
    "150848.940000",
    "150850.940000",
    "150852.940000",
    "150854.940000",
    "150856.940000",
    "150858.940000",
    "150900.940000",
    "150902.940000",
    "150904.940000",
    "150906.940000",
    "150908.940000",
    "150910.940000",
    "150912.940000",
    "150914.940000",
    "150916.940000",
    "150918.940000",
    "150920.940000",
    "150922.940000",
    "150924.940000",
    "150926.940000",
    "150928.940000",
    "150930.940000",
    "150932.940000",
    "150934.940000",
    "150936.940000",
    "150938.940000",
    "150940.940000",
    "150942.940000",
    "150944.940000",
    "150946.940000",
    "150948.940000",
    "150950.940000",
    "150952.940000",
    "150954.940000",
    "150956.940000",
    "150958.940000",
    "151000.940000",
    "151002.940000",
    "151004.940000",
    "151006.940000",
    "151008.940000",
    "151010.940000",
    "151012.940000",
    "151014.940000",
    "151016.940000",
    "151018.940000",
    "151020.940000",
    "151022.940000",
    "151024.940000",
    "151026.940000",
    "151028.940000",
    "151030.940000",
    "151032.940000",
    "151034.940000",
    "151036.940000",
    "151038.940000",
    "151040.940000",
    "151042.940000",
    "151044.940000",
    "151046.940000",
    "151048.940000",
    "151050.940000",
    "151052.940000",
    "151054.940000",
    "151056.940000",
    "151058.940000",
    "151100.940000",
    "151102.940000"
   ],
   "ContentTime": [
    "150234.850000",
    "150236.344000",
    "150238.345000",
    "150240.345000",
    "150242.345000",
    "150244.345000",
    "150246.346000",
    "150248.346000",
    "150250.346000",
    "150252.345000",
    "150254.344000",
    "150256.344000",
    "150258.345000",
    "150300.345000",
    "150302.346000",
    "150304.345000",
    "150306.345000",
    "150308.345000",
    "150310.345000",
    "150312.344000",
    "150314.344000",
    "150316.344000",
    "150318.346000",
    "150320.346000",
    "150322.345000",
    "150324.346000",
    "150326.346000",
    "150328.344000",
    "150330.344000",
    "150332.344000",
    "150334.345000",
    "150336.345000",
    "150338.346000",
    "150340.345000",
    "150342.345000",
    "150344.347000",
    "150346.345000",
    "150348.344000",
    "150350.345000",
    "150352.345000",
    "150354.346000",
    "150356.346000",
    "150358.345000",
    "150400.345000",
    "150402.345000",
    "150404.344000",
    "150406.345000",
    "150408.349000",
    "150410.345000",
    "150412.345000",
    "150414.345000",
    "150416.345000",
    "150418.346000",
    "150420.345000",
    "150422.345000",
    "150424.344000",
    "150426.345000",
    "150428.345000",
    "150430.346000",
    "150432.346000",
    "150434.345000",
    "150436.346000",
    "150438.345000",
    "150440.844000",
    "150442.344000",
    "150444.346000",
    "150446.345000",
    "150448.346000",
    "150450.346000",
    "150452.345000",
    "150454.345000",
    "150456.344000",
    "150458.344000",
    "150500.344000",
    "150502.345000",
    "150504.345000",
    "150506.346000",
    "150508.346000",
    "150510.346000",
    "150512.346000",
    "150514.345000",
    "150516.344000",
    "150518.344000",
    "150520.346000",
    "150522.345000",
    "150524.345000",
    "150526.345000",
    "150528.345000",
    "150530.344000",
    "150532.344000",
    "150534.344000",
    "150536.345000",
    "150538.346000",
    "150540.346000",
    "150542.346000",
    "150544.345000",
    "150546.345000",
    "150548.344000",
    "150550.344000",
    "150552.345000",
    "150554.346000",
    "150556.345000",
    "150558.346000",
    "150600.346000",
    "150602.345000",
    "150604.345000",
    "150606.345000",
    "150608.344000",
    "150610.344000",
    "150612.346000",
    "150614.346000",
    "150616.345000",
    "150618.346000",
    "150620.345000",
    "150622.345000",
    "150624.344000",
    "150626.345000",
    "150628.345000",
    "150630.345000",
    "150632.345000",
    "150634.346000",
    "150636.346000",
    "150638.345000",
    "150640.344000",
    "150642.344000",
    "150644.344000",
    "150646.346000",
    "150648.345000",
    "150650.346000",
    "150652.345000",
    "150654.345000",
    "150656.346000",
    "150658.357000",
    "150700.345000",
    "150702.345000",
    "150704.345000",
    "150706.345000",
    "150708.346000",
    "150710.345000",
    "150712.345000",
    "150714.346000",
    "150716.345000",
    "150718.345000",
    "150720.345000",
    "150722.345000",
    "150724.345000",
    "150726.345000",
    "150728.346000",
    "150730.345000",
    "150732.346000",
    "150734.844000",
    "150736.845000",
    "150738.345000",
    "150740.345000",
    "150742.346000",
    "150744.346000",
    "150746.345000",
    "150748.346000",
    "150750.344000",
    "150752.344000",
    "150754.344000",
    "150756.346000",
    "150758.345000",
    "150800.346000",
    "150802.345000",
    "150804.345000",
    "150806.345000",
    "150808.345000",
    "150810.344000",
    "150812.344000",
    "150814.346000",
    "150816.346000",
    "150818.346000",
    "150820.345000",
    "150822.345000",
    "150824.346000",
    "150826.344000",
    "150828.345000",
    "150830.344000",
    "150832.346000",
    "150834.345000",
    "150836.345000",
    "150838.345000",
    "150840.346000",
    "150842.345000",
    "150844.345000",
    "150846.345000",
    "150848.344000",
    "150850.345000",
    "150852.346000",
    "150854.346000",
    "150856.345000",
    "150858.345000",
    "150900.344000",
    "150902.344000",
    "150904.344000",
    "150906.346000",
    "150908.345000",
    "150910.346000",
    "150912.345000",
    "150914.345000",
    "150916.346000",
    "150918.344000",
    "150920.344000",
    "150922.344000",
    "150924.345000",
    "150926.346000",
    "150928.345000",
    "150930.345000",
    "150932.345000",
    "150934.345000",
    "150936.345000",
    "150938.345000",
    "150940.345000",
    "150942.346000",
    "150944.346000",
    "150946.345000",
    "150948.345000",
    "150950.346000",
    "150952.346000",
    "150954.345000",
    "150956.345000",
    "150958.345000",
    "151000.345000",
    "151002.345000",
    "151004.346000",
    "151006.346000",
    "151008.346000",
    "151010.344000",
    "151012.345000",
    "151014.344000",
    "151016.346000",
    "151018.345000",
    "151020.345000",
    "151022.346000",
    "151024.345000",
    "151026.345000",
    "151028.344000",
    "151030.344000",
    "151032.344000",
    "151034.346000",
    "151036.346000",
    "151038.346000",
    "151040.345000",
    "151042.345000",
    "151044.345000",
    "151046.345000",
    "151048.344000",
    "151050.348000",
    "151052.345000",
    "151054.346000",
    "151056.346000",
    "151058.345000",
    "151100.346000",
    "151102.348000",
    "151104.207000"
   ],
   "InstanceCreationTime": [
    "150234.850000",
    "150236.344000",
    "150238.345000",
    "150240.345000",
    "150242.345000",
    "150244.345000",
    "150246.346000",
    "150248.346000",
    "150250.346000",
    "150252.345000",
    "150254.344000",
    "150256.344000",
    "150258.345000",
    "150300.345000",
    "150302.346000",
    "150304.345000",
    "150306.345000",
    "150308.345000",
    "150310.345000",
    "150312.344000",
    "150314.344000",
    "150316.344000",
    "150318.346000",
    "150320.346000",
    "150322.345000",
    "150324.346000",
    "150326.346000",
    "150328.344000",
    "150330.344000",
    "150332.344000",
    "150334.345000",
    "150336.345000",
    "150338.346000",
    "150340.345000",
    "150342.345000",
    "150344.347000",
    "150346.345000",
    "150348.344000",
    "150350.345000",
    "150352.345000",
    "150354.346000",
    "150356.346000",
    "150358.345000",
    "150400.345000",
    "150402.345000",
    "150404.344000",
    "150406.345000",
    "150408.349000",
    "150410.345000",
    "150412.345000",
    "150414.345000",
    "150416.345000",
    "150418.346000",
    "150420.345000",
    "150422.345000",
    "150424.344000",
    "150426.345000",
    "150428.345000",
    "150430.346000",
    "150432.346000",
    "150434.345000",
    "150436.346000",
    "150438.345000",
    "150440.844000",
    "150442.344000",
    "150444.346000",
    "150446.345000",
    "150448.346000",
    "150450.346000",
    "150452.345000",
    "150454.345000",
    "150456.344000",
    "150458.344000",
    "150500.344000",
    "150502.345000",
    "150504.345000",
    "150506.346000",
    "150508.346000",
    "150510.346000",
    "150512.346000",
    "150514.345000",
    "150516.344000",
    "150518.344000",
    "150520.346000",
    "150522.345000",
    "150524.345000",
    "150526.345000",
    "150528.345000",
    "150530.344000",
    "150532.344000",
    "150534.344000",
    "150536.345000",
    "150538.346000",
    "150540.346000",
    "150542.346000",
    "150544.345000",
    "150546.345000",
    "150548.344000",
    "150550.344000",
    "150552.345000",
    "150554.346000",
    "150556.345000",
    "150558.346000",
    "150600.346000",
    "150602.345000",
    "150604.345000",
    "150606.345000",
    "150608.344000",
    "150610.344000",
    "150612.346000",
    "150614.346000",
    "150616.345000",
    "150618.346000",
    "150620.345000",
    "150622.345000",
    "150624.344000",
    "150626.345000",
    "150628.345000",
    "150630.345000",
    "150632.345000",
    "150634.346000",
    "150636.346000",
    "150638.345000",
    "150640.344000",
    "150642.344000",
    "150644.344000",
    "150646.346000",
    "150648.345000",
    "150650.346000",
    "150652.345000",
    "150654.345000",
    "150656.346000",
    "150658.357000",
    "150700.345000",
    "150702.345000",
    "150704.345000",
    "150706.345000",
    "150708.346000",
    "150710.345000",
    "150712.345000",
    "150714.346000",
    "150716.345000",
    "150718.345000",
    "150720.345000",
    "150722.345000",
    "150724.345000",
    "150726.345000",
    "150728.346000",
    "150730.345000",
    "150732.346000",
    "150734.844000",
    "150736.845000",
    "150738.345000",
    "150740.345000",
    "150742.346000",
    "150744.346000",
    "150746.345000",
    "150748.346000",
    "150750.344000",
    "150752.344000",
    "150754.344000",
    "150756.346000",
    "150758.345000",
    "150800.346000",
    "150802.345000",
    "150804.345000",
    "150806.345000",
    "150808.345000",
    "150810.344000",
    "150812.344000",
    "150814.346000",
    "150816.346000",
    "150818.346000",
    "150820.345000",
    "150822.345000",
    "150824.346000",
    "150826.344000",
    "150828.345000",
    "150830.344000",
    "150832.346000",
    "150834.345000",
    "150836.345000",
    "150838.345000",
    "150840.346000",
    "150842.345000",
    "150844.345000",
    "150846.345000",
    "150848.344000",
    "150850.345000",
    "150852.346000",
    "150854.346000",
    "150856.345000",
    "150858.345000",
    "150900.344000",
    "150902.344000",
    "150904.344000",
    "150906.346000",
    "150908.345000",
    "150910.346000",
    "150912.345000",
    "150914.345000",
    "150916.346000",
    "150918.344000",
    "150920.344000",
    "150922.344000",
    "150924.345000",
    "150926.346000",
    "150928.345000",
    "150930.345000",
    "150932.345000",
    "150934.345000",
    "150936.345000",
    "150938.345000",
    "150940.345000",
    "150942.346000",
    "150944.346000",
    "150946.345000",
    "150948.345000",
    "150950.346000",
    "150952.346000",
    "150954.345000",
    "150956.345000",
    "150958.345000",
    "151000.345000",
    "151002.345000",
    "151004.346000",
    "151006.346000",
    "151008.346000",
    "151010.344000",
    "151012.345000",
    "151014.344000",
    "151016.346000",
    "151018.345000",
    "151020.345000",
    "151022.346000",
    "151024.345000",
    "151026.345000",
    "151028.344000",
    "151030.344000",
    "151032.344000",
    "151034.346000",
    "151036.346000",
    "151038.346000",
    "151040.345000",
    "151042.345000",
    "151044.345000",
    "151046.345000",
    "151048.344000",
    "151050.348000",
    "151052.345000",
    "151054.346000",
    "151056.346000",
    "151058.345000",
    "151100.346000",
    "151102.348000",
    "151104.207000"
   ],
   "InstanceNumber": [
    1,
    2,
    3,
    4,
    5,
    6,
    7,
    8,
    9,
    10,
    11,
    12,
    13,
    14,
    15,
    16,
    17,
    18,
    19,
    20,
    21,
    22,
    23,
    24,
    25,
    26,
    27,
    28,
    29,
    30,
    31,
    32,
    33,
    34,
    35,
    36,
    37,
    38,
    39,
    40,
    41,
    42,
    43,
    44,
    45,
    46,
    47,
    48,
    49,
    50,
    51,
    52,
    53,
    54,
    55,
    56,
    57,
    58,
    59,
    60,
    61,
    62,
    63,
    64,
    65,
    66,
    67,
    68,
    69,
    70,
    71,
    72,
    73,
    74,
    75,
    76,
    77,
    78,
    79,
    80,
    81,
    82,
    83,
    84,
    85,
    86,
    87,
    88,
    89,
    90,
    91,
    92,
    93,
    94,
    95,
    96,
    97,
    98,
    99,
    100,
    101,
    102,
    103,
    104,
    105,
    106,
    107,
    108,
    109,
    110,
    111,
    112,
    113,
    114,
    115,
    116,
    117,
    118,
    119,
    120,
    121,
    122,
    123,
    124,
    125,
    126,
    127,
    128,
    129,
    130,
    131,
    132,
    133,
    134,
    135,
    136,
    137,
    138,
    139,
    140,
    141,
    142,
    143,
    144,
    145,
    146,
    147,
    148,
    149,
    150,
    151,
    152,
    153,
    154,
    155,
    156,
    157,
    158,
    159,
    160,
    161,
    162,
    163,
    164,
    165,
    166,
    167,
    168,
    169,
    170,
    171,
    172,
    173,
    174,
    175,
    176,
    177,
    178,
    179,
    180,
    181,
    182,
    183,
    184,
    185,
    186,
    187,
    188,
    189,
    190,
    191,
    192,
    193,
    194,
    195,
    196,
    197,
    198,
    199,
    200,
    201,
    202,
    203,
    204,
    205,
    206,
    207,
    208,
    209,
    210,
    211,
    212,
    213,
    214,
    215,
    216,
    217,
    218,
    219,
    220,
    221,
    222,
    223,
    224,
    225,
    226,
    227,
    228,
    229,
    230,
    231,
    232,
    233,
    234,
    235,
    236,
    237,
    238,
    239,
    240,
    241,
    242,
    243,
    244,
    245,
    246,
    247,
    248,
    249,
    250,
    251,
    252,
    253,
    254,
    255,
    256
   ],
   "LargestImagePixelValue": [
    3601,
    3491,
    3502,
    3503,
    3512,
    3508,
    3479,
    3506,
    3493,
    3430,
    3486,
    3490,
    3509,
    3486,
    3494,
    3497,
    3500,
    3498,
    3485,
    3470,
    3495,
    3491,
    3510,
    3499,
    3496,
    3461,
    3465,
    3474,
    3460,
    3460,
    3505,
    3470,
    3501,
    3492,
    3484,
    3525,
    3486,
    3527,
    3498,
    3521,
    3544,
    3524,
    3534,
    3500,
    3497,
    3477,
    3519,
    3481,
    3503,
    3492,
    3546,
    3529,
    3426,
    3464,
    3481,
    3459,
    3481,
    3501,
    3478,
    3477,
    3475,
    3501,
    3524,
    3491,
    3473,
    3497,
    3496,
    3506,
    3446,
    3428,
    3453,
    3469,
    3483,
    3447,
    3508,
    3457,
    3451,
    3469,
    3475,
    3505,
    3480,
    3479,
    3488,
    3432,
    3478,
    3481,
    3472,
    3447,
    3472,
    3451,
    3448,
    3456,
    3453,
    3471,
    3450,
    3423,
    3447,
    3444,
    3429,
    3447,
    3444,
    3447,
    3464,
    3468,
    3492,
    3432,
    3467,
    3434,
    3485,
    3509,
    3478,
    3439,
    3396,
    3400,
    3412,
    3448,
    3440,
    3443,
    3462,
    3503,
    3519,
    3478,
    3500,
    3430,
    3437,
    3453,
    3411,
    3467,
    3448,
    3445,
    3470,
    3422,
    3491,
    3493,
    3452,
    3428,
    3485,
    3490,
    3440,
    3459,
    3464,
    3451,
    3474,
    3511,
    3477,
    3491,
    3458,
    3482,
    3461,
    3469,
    3480,
    3500,
    3483,
    3457,
    3463,
    3484,
    3434,
    3471,
    3489,
    3425,
    3454,
    3422,
    3429,
    3452,
    3469,
    3424,
    3432,
    3451,
    3489,
    3480,
    3447,
    3438,
    3444,
    3376,
    3430,
    3419,
    3476,
    3464,
    3434,
    3430,
    3434,
    3427,
    3427,
    3450,
    3439,
    3424,
    3392,
    3421,
    3425,
    3418,
    3382,
    3432,
    3403,
    3382,
    3397,
    3423,
    3426,
    3423,
    3445,
    3406,
    3426,
    3418,
    3412,
    3385,
    3403,
    3408,
    3408,
    3474,
    3422,
    3448,
    3464,
    3476,
    3494,
    3487,
    3485,
    3510,
    3477,
    3456,
    3451,
    3472,
    3453,
    3446,
    3406,
    3395,
    3428,
    3374,
    3447,
    3413,
    3417,
    3471,
    3463,
    3436,
    3455,
    3437,
    3428,
    3459,
    3460,
    3451,
    3452,
    3440,
    3452,
    3410,
    3418,
    3429,
    3398,
    3407,
    3429,
    3427,
    3423,
    3459,
    3442,
    3449,
    3478,
    3450,
    3446,
    3468
   ],
   "WindowCenter": [
    838.0,
    837.0,
    837.0,
    836.0,
    834.0,
    834.0,
    834.0,
    835.0,
    835.0,
    836.0,
    838.0,
    838.0,
    837.0,
    835.0,
    836.0,
    837.0,
    837.0,
    836.0,
    836.0,
    834.0,
    834.0,
    835.0,
    836.0,
    836.0,
    835.0,
    834.0,
    835.0,
    835.0,
    834.0,
    833.0,
    834.0,
    834.0,
    835.0,
    834.0,
    834.0,
    835.0,
    835.0,
    836.0,
    835.0,
    835.0,
    835.0,
    835.0,
    836.0,
    835.0,
    834.0,
    834.0,
    834.0,
    834.0,
    834.0,
    834.0,
    836.0,
    836.0,
    834.0,
    833.0,
    834.0,
    835.0,
    835.0,
    835.0,
    833.0,
    833.0,
    834.0,
    835.0,
    836.0,
    834.0,
    833.0,
    834.0,
    836.0,
    835.0,
    833.0,
    832.0,
    833.0,
    833.0,
    834.0,
    834.0,
    835.0,
    834.0,
    834.0,
    834.0,
    836.0,
    836.0,
    835.0,
    835.0,
    834.0,
    834.0,
    836.0,
    837.0,
    837.0,
    836.0,
    835.0,
    834.0,
    835.0,
    835.0,
    835.0,
    834.0,
    834.0,
    834.0,
    835.0,
    835.0,
    834.0,
    834.0,
    834.0,
    834.0,
    834.0,
    834.0,
    834.0,
    832.0,
    832.0,
    833.0,
    835.0,
    834.0,
    834.0,
    834.0,
    834.0,
    834.0,
    834.0,
    834.0,
    833.0,
    834.0,
    836.0,
    836.0,
    836.0,
    835.0,
    834.0,
    834.0,
    835.0,
