{
  "AcquisitionMatrixPE": 100,
  "AcquisitionNumber": 1,
  "AcquisitionTime": "13:57:18.062500",
  "BandwidthPerPixelPhaseEncode": 18.519,
  "BaseResolution": 100,
  "BodyPartExamined": "BRAIN",
  "ConsistencyInfo": "N4_VE11C_LATEST_20160120",
  "ConversionSoftware": "dcm2niix",
  "ConversionSoftwareVersion": "v1.0.20180622 GCC4.9.2",
  "DerivedVendorReportedEchoSpacing": 0.000539986,
  "DeviceSerialNumber": "166078",
  "DwellTime": 2.1e-06,
  "EchoTime": 0.034,
  "EchoTrainLength": 100,
  "EffectiveEchoSpacing": 0.000539986,
  "FlipAngle": 90,
  "ImageOrientationPatientDICOM": [1, 0, 0, 0, 0.995396, -0.0958458],
  "ImageType": [
    "ORIGINAL",
    "PRIMARY",
    "M",
    "ND",
    "MOSAIC"
],
  "InPlanePhaseEncodingDirectionDICOM": "COL",
  "InstitutionAddress": "Street_StreetNo_Bei_Jing_District_CN_ZIP",
  "InstitutionName": "BeiJing_Normal_University",
  "InstitutionalDepartmentName": "Department",
  "MRAcquisitionType": "2D",
  "MagneticFieldStrength": 3,
  "Manufacturer": "Siemens",
  "ManufacturersModelName": "Prisma",
  "Modality": "MR",
  "MultibandAccelerationFactor": 3,
  "PartialFourier": 1,
  "PatientPosition": "HFS",
  "PercentPhaseFOV": 100,
  "PhaseEncodingDirection": "j-",
  "PhaseEncodingSteps": 100,
  "PhaseResolution": 1,
  "PixelBandwidth": 2380,
  "ProcedureStepDescription": "BNU_P2018_64CH_Zhen.ZongLei",
  "ProtocolName": "bold_100x100_s3_2x2x2_static_256",
  "PulseSequenceDetails": "%SiemensSeq%_ep2d_bold",
  "ReceiveCoilActiveElements": "HC1-7;NC1",
  "ReceiveCoilName": "HeadNeck_64",
  "ReconMatrixPE": 100,
  "RepetitionTime": 2,
  "SAR": 0.0858799,
  "ScanOptions": "FS",
  "ScanningSequence": "EP",
  "SequenceName": "_epfid2d1_100",
  "SequenceVariant": "SK",
  "SeriesDescription": "bold_100x100_s3_2x2x2_static_256",
  "SeriesNumber": 10,
  "ShimSetting": [-5470, -11521, -1286, 464, 46, -149, -121, -16],
  "SliceThickness": 2,
  "SliceTiming": [1.485, 0, 0.99, 0.0825, 1.0725, 0.165, 1.155, 0.2475, 1.2375, 0.33, 1.32, 0.4125, 1.4025, 0.5775, 1.5675, 0.66, 1.65, 0.7425, 1.7325, 0.825, 1.815, 0.9075, 1.8975, 0.495, 1.485, 0, 0.99, 0.0825, 1.0725, 0.165, 1.155, 0.2475, 1.2375, 0.33, 1.32, 0.4125, 1.4025, 0.5775, 1.5675, 0.66, 1.65, 0.7425, 1.7325, 0.825, 1.815, 0.9075, 1.8975, 0.495, 1.485, 0, 0.99, 0.0825, 1.0725, 0.165, 1.155, 0.2475, 1.2375, 0.33, 1.32, 0.4125, 1.4025, 0.5775, 1.5675, 0.66, 1.65, 0.7425, 1.7325, 0.825, 1.815, 0.9075, 1.8975, 0.495],
  "SoftwareVersions": "syngo_MR_E11",
  "SpacingBetweenSlices": 2,
  "StationName": "AWP166078",
  "TaskName": "naturalvision",
  "TotalReadoutTime": 0.0534586,
  "TxRefAmp": 216.502,
  "dcmmeta_affine": [
    [-2.0, 0.0, 0.0, 100.67469787597656],
    [0.0, 1.9907923936843872, -0.19169150292873383, -96.91727447509766],
    [0.0, 0.19169150292873383, 1.9907923936843872, -64.9527587890625],
    [0.0, 0.0, 0.0, 1.0]
],
  "dcmmeta_reorient_transform": [
    [0.0, -1.0, 0.0, 99.0],
    [1.0, 0.0, 0.0, 0.0],
    [0.0, 0.0, 1.0, 0.0],
    [0.0, 0.0, 0.0, 1.0]
],
  "dcmmeta_shape": [100, 100, 72, 256],
  "dcmmeta_slice_dim": 2,
  "dcmmeta_version": 0.6,
  "global": {
    "const": {
      "AcquisitionMatrix": [100, 0, 0, 100],
      "AngioFlag": "N",
      "BitsAllocated": 16,
      "BitsStored": 12,
      "BodyPartExamined": "BRAIN",
      "Columns": 900,
      "EchoNumbers": 1,
      "EchoTime": 34.0,
      "EchoTrainLength": 100,
      "FlipAngle": 90.0,
      "HighBit": 11,
      "ImageOrientationPatient": [1.0, 0.0, 0.0, 0.0, 0.99539619816501, -0.0958457546198],
      "ImagePositionPatient": [-900.67469877005, -896.48813277327, 30.701303669543],
      "ImageType": [
        "ORIGINAL",
        "PRIMARY",
        "M",
        "ND",
        "MOSAIC"
],
      "ImagedNucleus": "1H",
      "ImagingFrequency": 123.25776,
      "InPlanePhaseEncodingDirection": "COL",
      "MRAcquisitionType": "2D",
      "MagneticFieldStrength": 3.0,
      "Manufacturer": "SIEMENS",
      "ManufacturerModelName": "Prisma",
      "Modality": "MR",
      "NumberOfAverages": 1.0,
      "NumberOfPhaseEncodingSteps": 100,
      "PercentPhaseFieldOfView": 100.0,
      "PercentSampling": 100.0,
      "PerformedProcedureStepStartTime": "130253.939000",
      "PhotometricInterpretation": "MONOCHROME2",
      "PixelBandwidth": 2380.0,
      "PixelRepresentation": 0,
      "PixelSpacing": [2.0, 2.0],
      "ProtocolName": "bold_100x100_s3_2x2x2_static_256",
      "RepetitionTime": 2000.0,
      "Rows": 900,
      "SAR": 0.08587993635702,
      "SamplesPerPixel": 1,
      "ScanOptions": "FS",
      "ScanningSequence": "EP",
      "SequenceName": "*epfid2d1_100",
      "SequenceVariant": "SK",
      "SeriesDescription": "bold_100x100_s3_2x2x2_static_256",
      "SeriesNumber": 10,
      "SeriesTime": "135720.926000",
      "SliceLocation": -55.364620641981,
      "SliceThickness": 2.0,
      "SmallestImagePixelValue": 0,
      "SoftwareVersions": "syngo MR E11",
      "SpacingBetweenSlices": 1.9999999984933,
      "SpecificCharacterSet": "ISO_IR 100",
      "StudyID": "1",
      "StudyTime": "130253.827000",
      "TransmitCoilName": "Body",
      "VariableFlipAngleFlag": "N",
      "WindowCenterWidthExplanation": "Algo1",
      "dBdt": 0.0},
    "slices": {}
  },
  "time": {
    "samples": {
      "AcquisitionNumber": [1, 2, 3, 4, 5, 6, 7, 8, 9, 10, 11, 12, 13, 14, 15, 16, 17, 18, 19, 20, 21, 22, 23, 24, 25, 26, 27, 28, 29, 30, 31, 32, 33, 34, 35, 36, 37, 38, 39, 40, 41, 42, 43, 44, 45, 46, 47, 48, 49, 50, 51, 52, 53, 54, 55, 56, 57, 58, 59, 60, 61, 62, 63, 64, 65, 66, 67, 68, 69, 70, 71, 72, 73, 74, 75, 76, 77, 78, 79, 80, 81, 82, 83, 84, 85, 86, 87, 88, 89, 90, 91, 92, 93, 94, 95, 96, 97, 98, 99, 100, 101, 102, 103, 104, 105, 106, 107, 108, 109, 110, 111, 112, 113, 114, 115, 116, 117, 118, 119, 120, 121, 122, 123, 124, 125, 126, 127, 128, 129, 130, 131, 132, 133, 134, 135, 136, 137, 138, 139, 140, 141, 142, 143, 144, 145, 146, 147, 148, 149, 150, 151, 152, 153, 154, 155, 156, 157, 158, 159, 160, 161, 162, 163, 164, 165, 166, 167, 168, 169, 170, 171, 172, 173, 174, 175, 176, 177, 178, 179, 180, 181, 182, 183, 184, 185, 186, 187, 188, 189, 190, 191, 192, 193, 194, 195, 196, 197, 198, 199, 200, 201, 202, 203, 204, 205, 206, 207, 208, 209, 210, 211, 212, 213, 214, 215, 216, 217, 218, 219, 220, 221, 222, 223, 224, 225, 226, 227, 228, 229, 230, 231, 232, 233, 234, 235, 236, 237, 238, 239, 240, 241, 242, 243, 244, 245, 246, 247, 248, 249, 250, 251, 252, 253, 254, 255, 256],
      "AcquisitionTime": ["135718.062500", "135720.062500", "135722.062500", "135724.062500", "135726.062500", "135728.062500", "135730.062500", "135732.062500", "135734.062500", "135736.062500", "135738.062500", "135740.062500", "135742.062500", "135744.062500", "135746.062500", "135748.062500", "135750.062500", "135752.062500", "135754.062500", "135756.062500", "135758.062500", "135800.062500", "135802.062500", "135804.062500", "135806.062500", "135808.062500", "135810.062500", "135812.062500", "135814.062500", "135816.062500", "135818.062500", "135820.062500", "135822.062500", "135824.062500", "135826.062500", "135828.062500", "135830.062500", "135832.062500", "135834.062500", "135836.062500", "135838.062500", "135840.062500", "135842.062500", "135844.062500", "135846.062500", "135848.062500", "135850.062500", "135852.062500", "135854.062500", "135856.062500", "135858.062500", "135900.062500", "135902.062500", "135904.062500", "135906.062500", "135908.062500", "135910.062500", "135912.062500", "135914.062500", "135916.062500", "135918.062500", "135920.062500", "135922.062500", "135924.062500", "135926.062500", "135928.062500", "135930.062500", "135932.062500", "135934.062500", "135936.062500", "135938.062500", "135940.062500", "135942.062500", "135944.062500", "135946.062500", "135948.062500", "135950.062500", "135952.062500", "135954.062500", "135956.062500", "135958.062500", "140000.062500", "140002.062500", "140004.062500", "140006.062500", "140008.062500", "140010.062500", "140012.062500", "140014.062500", "140016.062500", "140018.062500", "140020.062500", "140022.062500", "140024.062500", "140026.062500", "140028.062500", "140030.062500", "140032.062500", "140034.062500", "140036.062500", "140038.062500", "140040.062500", "140042.062500", "140044.062500", "140046.062500", "140048.062500", "140050.062500", "140052.062500", "140054.062500", "140056.062500", "140058.062500", "140100.062500", "140102.062500", "140104.062500", "140106.062500", "140108.062500", "140110.062500", "140112.062500", "140114.062500", "140116.062500", "140118.062500", "140120.062500", "140122.062500", "140124.062500", "140126.062500", "140128.062500", "140130.062500", "140132.062500", "140134.062500", "140136.062500", "140138.062500", "140140.062500", "140142.062500", "140144.062500", "140146.062500", "140148.062500", "140150.062500", "140152.062500", "140154.062500", "140156.062500", "140158.062500", "140200.062500", "140202.062500", "140204.062500", "140206.062500", "140208.062500", "140210.062500", "140212.062500", "140214.062500", "140216.062500", "140218.062500", "140220.062500", "140222.062500", "140224.062500", "140226.062500", "140228.062500", "140230.062500", "140232.062500", "140234.062500", "140236.062500", "140238.062500", "140240.062500", "140242.062500", "140244.062500", "140246.062500", "140248.062500", "140250.062500", "140252.062500", "140254.062500", "140256.062500", "140258.062500", "140300.062500", "140302.062500", "140304.062500", "140306.062500", "140308.062500", "140310.062500", "140312.062500", "140314.062500", "140316.062500", "140318.062500", "140320.062500", "140322.062500", "140324.062500", "140326.062500", "140328.062500", "140330.062500", "140332.062500", "140334.062500", "140336.062500", "140338.062500", "140340.062500", "140342.062500", "140344.062500", "140346.062500", "140348.062500", "140350.062500", "140352.062500", "140354.062500", "140356.062500", "140358.062500", "140400.062500", "140402.062500", "140404.062500", "140406.062500", "140408.062500", "140410.062500", "140412.062500", "140414.062500", "140416.062500", "140418.062500", "140420.062500", "140422.062500", "140424.062500", "140426.062500", "140428.062500", "140430.062500", "140432.062500", "140434.062500", "140436.062500", "140438.062500", "140440.062500", "140442.062500", "140444.062500", "140446.062500", "140448.062500", "140450.062500", "140452.062500", "140454.062500", "140456.062500", "140458.062500", "140500.062500", "140502.062500", "140504.062500", "140506.062500", "140508.062500", "140510.062500", "140512.062500", "140514.062500", "140516.062500", "140518.062500", "140520.062500", "140522.062500", "140524.062500", "140526.062500", "140528.062500", "140530.062500", "140532.062500", "140534.062500", "140536.062500", "140538.062500", "140540.062500", "140542.062500", "140544.062500", "140546.062500", "140548.062500"],
      "ContentTime": ["135720.930000", "135722.425000", "135724.426000", "135726.426000", "135728.426000", "135730.427000", "135732.425000", "135734.425000", "135736.425000", "135738.426000", "135740.426000", "135742.425000", "135744.427000", "135746.426000", "135748.426000", "135750.425000", "135752.426000", "135754.425000", "135756.425000", "135758.426000", "135800.426000", "135802.427000", "135804.426000", "135806.426000", "135807.925000", "135810.426000", "135812.426000", "135814.425000", "135816.426000", "135818.426000", "135820.426000", "135822.426000", "135824.426000", "135826.426000", "135828.425000", "135830.425000", "135832.425000", "135834.425000", "135836.426000", "135838.427000", "135840.426000", "135842.425000", "135844.426000", "135846.426000", "135848.426000", "135850.425000", "135852.425000", "135854.426000", "135856.427000", "135858.426000", "135900.426000", "135902.426000", "135904.426000", "135906.426000", "135908.425000", "135910.427000", "135912.426000", "135914.427000", "135916.426000", "135918.426000", "135920.425000", "135921.925000", "135924.426000", "135926.425000", "135928.427000", "135930.427000", "135932.426000", "135934.426000", "135936.425000", "135938.426000", "135940.425000", "135942.425000", "135944.425000", "135946.426000", "135948.427000", "135950.427000", "135952.425000", "135954.426000", "135956.425000", "135958.426000", "140000.425000", "140002.425000", "140004.426000", "140006.426000", "140008.426000", "140010.425000", "140012.426000", "140014.426000", "140016.426000", "140018.426000", "140020.426000", "140022.427000", "140024.427000", "140026.426000", "140028.425000", "140030.426000", "140032.426000", "140034.425000", "140036.426000", "140038.427000", "140040.427000", "140042.427000", "140044.427000", "140046.426000", "140048.426000", "140050.425000", "140052.426000", "140054.426000", "140056.427000", "140058.427000", "140100.426000", "140102.425000", "140104.425000", "140106.426000", "140108.426000", "140110.425000", "140112.426000", "140114.427000", "140116.427000", "140118.427000", "140120.426000", "140122.426000", "140124.426000", "140126.425000", "140128.425000", "140130.426000", "140132.426000", "140134.427000", "140136.427000", "140138.426000", "140140.425000", "140142.425000", "140144.425000", "140146.426000", "140148.427000", "140150.427000", "140152.427000", "140154.427000", "140156.426000", "140158.426000", "140200.426000", "140202.425000", "140204.426000", "140206.427000", "140208.427000", "140210.426000", "140212.425000", "140214.426000", "140216.426000", "140218.425000", "140220.426000", "140222.427000", "140224.426000", "140226.427000", "140228.426000", "140230.426000", "140232.426000", "140234.426000", "140236.426000", "140238.425000", "140240.427000", "140242.426000", "140244.427000", "140246.427000", "140248.426000", "140250.426000", "140252.426000", "140254.426000", "140256.426000", "140258.427000", "140300.426000", "140302.426000", "140304.427000", "140306.425000", "140308.426000", "140310.426000", "140312.426000", "140314.425000", "140316.426000", "140318.426000", "140320.427000", "140322.426000", "140324.426000", "140326.426000", "140328.425000", "140330.426000", "140332.427000", "140334.427000", "140336.427000", "140338.427000", "140340.426000", "140342.426000", "140344.426000", "140346.426000", "140348.426000", "140350.427000", "140352.426000", "140354.427000", "140356.426000", "140358.426000", "140400.425000", "140402.426000", "140404.425000", "140406.426000", "140408.426000", "140410.427000", "140412.427000", "140414.427000", "140416.426000", "140418.426000", "140420.425000", "140422.425000", "140424.426000", "140426.427000", "140428.427000", "140430.427000", "140432.426000", "140434.426000", "140436.425000", "140438.425000", "140440.425000", "140442.427000", "140444.427000", "140446.427000", "140448.426000", "140450.425000", "140452.425000", "140454.426000", "140456.426000", "140458.426000", "140500.426000", "140502.427000", "140504.426000", "140506.426000", "140508.425000", "140510.426000", "140512.425000", "140514.425000", "140516.426000", "140518.426000", "140520.427000", "140522.427000", "140524.427000", "140526.425000", "140528.425000", "140530.425000", "140532.426000", "140534.426000", "140536.427000", "140538.427000", "140540.426000", "140542.426000", "140544.425000", "140546.425000", "140548.425000", "140549.961000"],
      "InstanceCreationTime": ["135720.930000", "135722.425000", "135724.426000", "135726.426000", "135728.426000", "135730.427000", "135732.425000", "135734.425000", "135736.425000", "135738.426000", "135740.426000", "135742.425000", "135744.427000", "135746.426000", "135748.426000", "135750.425000", "135752.426000", "135754.425000", "135756.425000", "135758.426000", "135800.426000", "135802.427000", "135804.426000", "135806.426000", "135807.925000", "135810.426000", "135812.426000", "135814.425000", "135816.426000", "135818.426000", "135820.426000", "135822.426000", "135824.426000", "135826.426000", "135828.425000", "135830.425000", "135832.425000", "135834.425000", "135836.426000", "135838.427000", "135840.426000", "135842.425000", "135844.426000", "135846.426000", "135848.426000", "135850.425000", "135852.425000", "135854.426000", "135856.427000", "135858.426000", "135900.426000", "135902.426000", "135904.426000", "135906.426000", "135908.425000", "135910.427000", "135912.426000", "135914.427000", "135916.426000", "135918.426000", "135920.425000", "135921.925000", "135924.426000", "135926.425000", "135928.427000", "135930.427000", "135932.426000", "135934.426000", "135936.425000", "135938.426000", "135940.425000", "135942.425000", "135944.425000", "135946.426000", "135948.427000", "135950.427000", "135952.425000", "135954.426000", "135956.425000", "135958.426000", "140000.425000", "140002.425000", "140004.426000", "140006.426000", "140008.426000", "140010.425000", "140012.426000", "140014.426000", "140016.426000", "140018.426000", "140020.426000", "140022.427000", "140024.427000", "140026.426000", "140028.425000", "140030.426000", "140032.426000", "140034.425000", "140036.426000", "140038.427000", "140040.427000", "140042.427000", "140044.427000", "140046.426000", "140048.426000", "140050.425000", "140052.426000", "140054.426000", "140056.427000", "140058.427000", "140100.426000", "140102.425000", "140104.425000", "140106.426000", "140108.426000", "140110.425000", "140112.426000", "140114.427000", "140116.427000", "140118.427000", "140120.426000", "140122.426000", "140124.426000", "140126.425000", "140128.425000", "140130.426000", "140132.426000", "140134.427000", "140136.427000", "140138.426000", "140140.425000", "140142.425000", "140144.425000", "140146.426000", "140148.427000", "140150.427000", "140152.427000", "140154.427000", "140156.426000", "140158.426000", "140200.426000", "140202.425000", "140204.426000", "140206.427000", "140208.427000", "140210.426000", "140212.425000", "140214.426000", "140216.426000", "140218.425000", "140220.426000", "140222.427000", "140224.426000", "140226.427000", "140228.426000", "140230.426000", "140232.426000", "140234.426000", "140236.426000", "140238.425000", "140240.427000", "140242.426000", "140244.427000", "140246.427000", "140248.426000", "140250.426000", "140252.426000", "140254.426000", "140256.426000", "140258.427000", "140300.426000", "140302.426000", "140304.427000", "140306.425000", "140308.426000", "140310.426000", "140312.426000", "140314.425000", "140316.426000", "140318.426000", "140320.427000", "140322.426000", "140324.426000", "140326.426000", "140328.425000", "140330.426000", "140332.427000", "140334.427000", "140336.427000", "140338.427000", "140340.426000", "140342.426000", "140344.426000", "140346.426000", "140348.426000", "140350.427000", "140352.426000", "140354.427000", "140356.426000", "140358.426000", "140400.425000", "140402.426000", "140404.425000", "140406.426000", "140408.426000", "140410.427000", "140412.427000", "140414.427000", "140416.426000", "140418.426000", "140420.425000", "140422.425000", "140424.426000", "140426.427000", "140428.427000", "140430.427000", "140432.426000", "140434.426000", "140436.425000", "140438.425000", "140440.425000", "140442.427000", "140444.427000", "140446.427000", "140448.426000", "140450.425000", "140452.425000", "140454.426000", "140456.426000", "140458.426000", "140500.426000", "140502.427000", "140504.426000", "140506.426000", "140508.425000", "140510.426000", "140512.425000", "140514.425000", "140516.426000", "140518.426000", "140520.427000", "140522.427000", "140524.427000", "140526.425000", "140528.425000", "140530.425000", "140532.426000", "140534.426000", "140536.427000", "140538.427000", "140540.426000", "140542.426000", "140544.425000", "140546.425000", "140548.425000", "140549.961000"],
      "InstanceNumber": [1, 2, 3, 4, 5, 6, 7, 8, 9, 10, 11, 12, 13, 14, 15, 16, 17, 18, 19, 20, 21, 22, 23, 24, 25, 26, 27, 28, 29, 30, 31, 32, 33, 34, 35, 36, 37, 38, 39, 40, 41, 42, 43, 44, 45, 46, 47, 48, 49, 50, 51, 52, 53, 54, 55, 56, 57, 58, 59, 60, 61, 62, 63, 64, 65, 66, 67, 68, 69, 70, 71, 72, 73, 74, 75, 76, 77, 78, 79, 80, 81, 82, 83, 84, 85, 86, 87, 88, 89, 90, 91, 92, 93, 94, 95, 96, 97, 98, 99, 100, 101, 102, 103, 104, 105, 106, 107, 108, 109, 110, 111, 112, 113, 114, 115, 116, 117, 118, 119, 120, 121, 122, 123, 124, 125, 126, 127, 128, 129, 130, 131, 132, 133, 134, 135, 136, 137, 138, 139, 140, 141, 142, 143, 144, 145, 146, 147, 148, 149, 150, 151, 152, 153, 154, 155, 156, 157, 158, 159, 160, 161, 162, 163, 164, 165, 166, 167, 168, 169, 170, 171, 172, 173, 174, 175, 176, 177, 178, 179, 180, 181, 182, 183, 184, 185, 186, 187, 188, 189, 190, 191, 192, 193, 194, 195, 196, 197, 198, 199, 200, 201, 202, 203, 204, 205, 206, 207, 208, 209, 210, 211, 212, 213, 214, 215, 216, 217, 218, 219, 220, 221, 222, 223, 224, 225, 226, 227, 228, 229, 230, 231, 232, 233, 234, 235, 236, 237, 238, 239, 240, 241, 242, 243, 244, 245, 246, 247, 248, 249, 250, 251, 252, 253, 254, 255, 256],
      "LargestImagePixelValue": [3197, 3161, 3153, 3133, 3129, 3118, 3119, 3135, 3112, 3129, 3131, 3146, 3125, 3156, 3139, 3103, 3175, 3140, 3152, 3148, 3125, 3130, 3093, 3161, 3153, 3165, 3143, 3146, 3131, 3144, 3133, 3144, 3132, 3149, 3158, 3162, 3129, 3163, 3200, 3139, 3129, 3162, 3127, 3147, 3128, 3124, 3143, 3110, 3135, 3135, 3088, 3093, 3138, 3109, 3137, 3123, 3129, 3164, 3117, 3104, 3109, 3131, 3132, 3147, 3128, 3139, 3112, 3136, 3122, 3131, 3097, 3114, 3151, 3129, 3112, 3112, 3129, 3129, 3108, 3126, 3134, 3108, 3086, 3142, 3143, 3119, 3128, 3138, 3152, 3150, 3118, 3150, 3123, 3157, 3157, 3146, 3090, 3146, 3151, 3121, 3130, 3146, 3138, 3094, 3151, 3122, 3109, 3115, 3136, 3124, 3151, 3149, 3143, 3133, 3109, 3115, 3119, 3118, 3111, 3130, 3136, 3117, 3136, 3124, 3143, 3140, 3130, 3166, 3136, 3127, 3153, 3166, 3134, 3175, 3159, 3121, 3122, 3131, 3171, 3106, 3107, 3124, 3120, 3096, 3132, 3131, 3135, 3131, 3090, 3096, 3116, 3146, 3115, 3143, 3158, 3178, 3140, 3144, 3091, 3046, 3089, 3085, 3097, 3081, 3075, 3090, 3079, 3082, 3093, 3062, 3116, 3096, 3134, 3131, 3140, 3090, 3116, 3132, 3153, 3109, 3078, 3109, 3171, 3180, 3180, 3161, 3161, 3163, 3130, 3058, 3041, 3108, 3136, 3122, 3084, 3093, 3089, 3130, 3052, 3064, 3086, 3119, 3150, 3088, 3107, 3117, 3114, 3123, 3100, 3092, 3099, 3108, 3094, 3115, 3101, 3152, 3185, 3151, 3129, 3117, 3154, 3134, 3178, 3116, 3125, 3106, 3099, 3098, 3114, 3042, 3030, 3137, 3148, 3183, 3127, 3120, 3112, 3100, 3095, 3077, 3052, 3093, 3056, 3105, 3125, 3105, 3070, 3106, 3049, 3132, 3081, 3110, 3073, 3054, 3052, 3046],
      "WindowCenter": [747.0, 747.0, 747.0, 746.0, 745.0, 745.0, 745.0, 745.0, 746.0, 745.0, 745.0, 745.0, 744.0, 745.0, 746.0, 746.0, 745.0, 745.0, 745.0, 745.0, 744.0, 745.0, 745.0, 746.0, 746.0, 745.0, 745.0, 745.0, 745.0, 745.0, 747.0, 747.0, 746.0, 746.0, 747.0, 746.0, 746.0, 746.0, 747.0, 746.0, 746.0, 746.0, 745.0, 745.0, 745.0, 745.0, 745.0, 744.0, 744.0, 744.0, 743.0, 743.0, 744.0, 745.0, 745.0, 745.0, 744.0, 744.0, 746.0, 745.0, 745.0, 745.0, 745.0, 744.0, 745.0, 744.0, 744.0, 745.0, 744.0, 744.0, 744.0, 745.0, 745.0, 744.0, 744.0, 744.0, 744.0, 744.0, 745.0, 745.0, 745.0, 745.0, 745.0, 745.0, 745.0, 744.0, 744.0, 745.0, 746.0, 746.0, 746.0, 745.0, 745.0, 745.0, 745.0, 744.0, 744.0, 744.0, 744.0, 745.0, 746.0, 747.0, 744.0, 743.0, 744.0, 742.0, 742.0, 743.0, 743.0, 744.0, 744.0, 745.0, 745.0, 745.0, 742.0, 742.0, 743.0, 744.0, 745.0, 744.0, 745.0, 745.0, 745.0, 744.0, 744.0, 745.0, 746.0, 746.0, 744.0, 745.0, 745.0, 746.0, 747.0, 747.0, 745.0, 743.0, 744.0, 745.0, 745.0, 743.0, 743.0, 743.0, 743.0, 744.0, 745.0, 744.0, 743.0, 743.0, 743.0, 744.0, 745.0, 745.0, 745.0, 744.0, 744.0, 747.0, 749.0, 747.0, 744.0, 741.0, 742.0, 742.0, 743.0, 741.0, 741.0, 743.0, 743.0, 741.0, 741.0, 741.0, 743.0, 743.0, 745.0, 745.0, 744.0, 743.0, 743.0, 746.0, 747.0, 745.0, 745.0, 745.0, 746.0, 748.0, 752.0, 752.0, 751.0, 749.0, 747.0, 745.0, 745.0, 745.0, 745.0, 745.0, 745.0, 745.0, 746.0, 745.0, 745.0, 744.0, 744.0, 745.0, 745.0, 745.0, 746.0, 746.0, 745.0, 745.0, 746.0, 746.0, 746.0, 745.0, 745.0, 745.0, 746.0, 748.0, 749.0, 748.0, 747.0, 745.0, 747.0, 748.0, 748.0, 746.0, 746.0, 746.0, 747.0, 747.0, 746.0, 744.0, 745.0, 744.0, 745.0, 749.0, 750.0, 749.0, 746.0, 744.0, 744.0, 743.0, 743.0, 744.0, 743.0, 744.0, 745.0, 745.0, 744.0, 743.0, 743.0, 744.0, 743.0, 744.0, 743.0, 742.0, 741.0, 742.0],
      "WindowWidth": [1622.0, 1620.0, 1620.0, 1617.0, 1615.0, 1615.0, 1614.0, 1614.0, 1617.0, 1616.0, 1616.0, 1614.0, 1614.0, 1615.0, 1618.0, 1618.0, 1616.0, 1615.0, 1615.0, 1614.0, 1613.0, 1614.0, 1616.0, 1617.0, 1617.0, 1616.0, 1614.0, 1616.0, 1614.0, 1614.0, 1620.0, 1620.0, 1618.0, 1619.0, 1621.0, 1619.0, 1618.0, 1618.0, 1620.0, 1619.0, 1618.0, 1618.0, 1616.0, 1615.0, 1615.0, 1615.0, 1615.0, 1613.0, 1614.0, 1612.0, 1609.0, 1611.0, 1612.0, 1615.0, 1616.0, 1615.0, 1612.0, 1614.0, 1618.0, 1615.0, 1615.0, 1614.0, 1616.0, 1613.0, 1615.0, 1612.0, 1612.0, 1616.0, 1613.0, 1611.0, 1613.0, 1614.0, 1615.0, 1614.0, 1613.0, 1613.0, 1612.0, 1613.0, 1616.0, 1615.0, 1614.0, 1614.0, 1616.0, 1616.0, 1616.0, 1614.0, 1612.0, 1615.0, 1618.0, 1619.0, 1617.0, 1616.0, 1615.0, 1616.0, 1617.0, 1613.0, 1612.0, 1612.0, 1614.0, 1615.0, 1619.0, 1620.0, 1614.0, 1609.0, 1613.0, 1608.0, 1607.0, 1610.0, 1611.0, 1614.0, 1612.0, 1616.0, 1617.0, 1614.0, 1608.0, 1608.0, 1611.0, 1613.0, 1614.0, 1614.0, 1616.0, 1615.0, 1615.0, 1612.0, 1613.0, 1615.0, 1617.0, 1617.0, 1614.0, 1614.0, 1617.0, 1618.0, 1621.0, 1620.0, 1614.0, 1610.0, 1612.0, 1615.0, 1616.0, 1611.0, 1609.0, 1609.0, 1609.0, 1613.0, 1616.0, 1612.0, 1612.0, 1610.0, 1611.0, 1612.0, 1615.0, 1614.0, 1615.0, 1613.0, 1613.0, 1622.0, 1626.0, 1620.0, 1612.0, 1605.0, 1607.0, 1608.0, 1610.0, 1605.0, 1603.0, 1609.0, 1609.0, 1605.0, 1605.0, 1606.0, 1609.0, 1610.0, 1614.0, 1615.0, 1612.0, 1610.0, 1611.0, 1619.0, 1620.0, 1614.0, 1614.0, 1616.0, 1618.0, 1624.0, 1634.0, 1635.0, 1632.0, 1626.0, 1620.0, 1615.0, 1615.0, 1615.0, 1615.0, 1614.0, 1615.0, 1616.0, 1617.0, 1616.0, 1614.0, 1614.0, 1613.0, 1615.0, 1616.0, 1617.0, 1617.0, 1617.0, 1616.0, 1617.0, 1618.0, 1617.0, 1617.0, 1615.0, 1614.0, 1614.0, 1617.0, 1624.0, 1626.0, 1624.0, 1619.0, 1616.0, 1620.0, 1622.0, 1623.0, 1619.0, 1618.0, 1617.0, 1619.0, 1621.0, 1616.0, 1613.0, 1614.0, 1612.0, 1614.0, 1626.0, 1630.0, 1626.0, 1617.0, 1612.0, 1612.0, 1610.0, 1610.0, 1611.0, 1611.0, 1613.0, 1615.0, 1614.0, 1612.0, 1610.0, 1609.0, 1611.0, 1609.0, 1613.0, 1609.0, 1605.0, 1605.0, 1607.0]
    },
    "slices": {}
  }
}