{
 "AcquisitionMatrixPE": 100,
 "AcquisitionNumber": 1,
 "AcquisitionTime": "13:15:19.190000",
 "BandwidthPerPixelPhaseEncode": 18.519,
 "BaseResolution": 100,
 "BodyPartExamined": "BRAIN",
 "ConsistencyInfo": "N4_VE11C_LATEST_20160120",
 "ConversionSoftware": "dcm2niix",
 "ConversionSoftwareVersion": "v1.0.20180622 GCC4.9.2",
 "DerivedVendorReportedEchoSpacing": 0.000539986,
 "DeviceSerialNumber": "166078",
 "DwellTime": 2.1e-06,
 "EchoTime": 0.034,
 "EchoTrainLength": 100,
 "EffectiveEchoSpacing": 0.000539986,
 "FlipAngle": 90,
 "ImageOrientationPatientDICOM": [
  1,
  0,
  0,
  0,
  0.995396,
  -0.0958458
 ],
 "ImageType": [
  "ORIGINAL",
  "PRIMARY",
  "M",
  "ND",
  "MOSAIC"
 ],
 "InPlanePhaseEncodingDirectionDICOM": "COL",
 "InstitutionAddress": "Street_StreetNo_Bei_Jing_District_CN_ZIP",
 "InstitutionName": "BeiJing_Normal_University",
 "InstitutionalDepartmentName": "Department",
 "MRAcquisitionType": "2D",
 "MagneticFieldStrength": 3,
 "Manufacturer": "Siemens",
 "ManufacturersModelName": "Prisma",
 "Modality": "MR",
 "MultibandAccelerationFactor": 3,
 "PartialFourier": 1,
 "PatientPosition": "HFS",
 "PercentPhaseFOV": 100,
 "PhaseEncodingDirection": "j-",
 "PhaseEncodingSteps": 100,
 "PhaseResolution": 1,
 "PixelBandwidth": 2380,
 "ProcedureStepDescription": "BNU_P2018_64CH_Zhen.ZongLei",
 "ProtocolName": "bold_100x100_s3_2x2x2_static_256",
 "PulseSequenceDetails": "%SiemensSeq%_ep2d_bold",
 "ReceiveCoilActiveElements": "HC1-7;NC1",
 "ReceiveCoilName": "HeadNeck_64",
 "ReconMatrixPE": 100,
 "RepetitionTime": 2,
 "SAR": 0.0858799,
 "ScanOptions": "FS",
 "ScanningSequence": "EP",
 "SequenceName": "_epfid2d1_100",
 "SequenceVariant": "SK",
 "SeriesDescription": "bold_100x100_s3_2x2x2_static_256",
 "SeriesNumber": 4,
 "ShimSetting": [
  -5470,
  -11521,
  -1286,
  464,
  46,
  -149,
  -121,
  -16
 ],
 "SliceThickness": 2,
 "SliceTiming": [
  1.485,
  0,
  0.99,
  0.0825,
  1.0725,
  0.165,
  1.155,
  0.2475,
  1.2375,
  0.33,
  1.32,
  0.4125,
  1.4025,
  0.5775,
  1.5675,
  0.66,
  1.65,
  0.7425,
  1.7325,
  0.825,
  1.815,
  0.9075,
  1.8975,
  0.495,
  1.485,
  0,
  0.99,
  0.0825,
  1.0725,
  0.165,
  1.155,
  0.2475,
  1.2375,
  0.33,
  1.32,
  0.4125,
  1.4025,
  0.5775,
  1.5675,
  0.66,
  1.65,
  0.7425,
  1.7325,
  0.825,
  1.815,
  0.9075,
  1.8975,
  0.495,
  1.485,
  0,
  0.99,
  0.0825,
  1.0725,
  0.165,
  1.155,
  0.2475,
  1.2375,
  0.33,
  1.32,
  0.4125,
  1.4025,
  0.5775,
  1.5675,
  0.66,
  1.65,
  0.7425,
  1.7325,
  0.825,
  1.815,
  0.9075,
  1.8975,
  0.495
 ],
 "SoftwareVersions": "syngo_MR_E11",
 "SpacingBetweenSlices": 2,
 "StationName": "AWP166078",
 "TaskName": "imagenet",
 "TotalReadoutTime": 0.0534586,
 "TxRefAmp": 216.502,
 "dcmmeta_affine": [
  [
   -2.0,
   0.0,
   0.0,
   100.67469787597656
  ],
  [
   0.0,
   1.9907923936843872,
   -0.19169150292873383,
   -96.91727447509766
  ],
  [
   0.0,
   0.19169150292873383,
   1.9907923936843872,
   -64.9527587890625
  ],
  [
   0.0,
   0.0,
   0.0,
   1.0
  ]
 ],
 "dcmmeta_reorient_transform": [
  [
   0.0,
   -1.0,
   0.0,
   99.0
  ],
  [
   1.0,
   0.0,
   0.0,
   0.0
  ],
  [
   0.0,
   0.0,
   1.0,
   0.0
  ],
  [
   0.0,
   0.0,
   0.0,
   1.0
  ]
 ],
 "dcmmeta_shape": [
  100,
  100,
  72,
  256
 ],
 "dcmmeta_slice_dim": 2,
 "dcmmeta_version": 0.6,
 "global": {
  "const": {
   "AcquisitionMatrix": [
    100,
    0,
    0,
    100
   ],
   "AngioFlag": "N",
   "BitsAllocated": 16,
   "BitsStored": 12,
   "BodyPartExamined": "BRAIN",
   "Columns": 900,
   "EchoNumbers": 1,
   "EchoTime": 34.0,
   "EchoTrainLength": 100,
   "FlipAngle": 90.0,
   "HighBit": 11,
   "ImageOrientationPatient": [
    1.0,
    0.0,
    0.0,
    0.0,
    0.99539619816501,
    -0.0958457546198
   ],
   "ImagePositionPatient": [
    -900.67469877005,
    -896.48813277327,
    30.701303669543
   ],
   "ImageType": [
    "ORIGINAL",
    "PRIMARY",
    "M",
    "ND",
    "MOSAIC"
   ],
   "ImagedNucleus": "1H",
   "ImagingFrequency": 123.257761,
   "InPlanePhaseEncodingDirection": "COL",
   "MRAcquisitionType": "2D",
   "MagneticFieldStrength": 3.0,
   "Manufacturer": "SIEMENS",
   "ManufacturerModelName": "Prisma",
   "Modality": "MR",
   "NumberOfAverages": 1.0,
   "NumberOfPhaseEncodingSteps": 100,
   "PercentPhaseFieldOfView": 100.0,
   "PercentSampling": 100.0,
   "PerformedProcedureStepStartTime": "130253.939000",
   "PhotometricInterpretation": "MONOCHROME2",
   "PixelBandwidth": 2380.0,
   "PixelRepresentation": 0,
   "PixelSpacing": [
    2.0,
    2.0
   ],
   "ProtocolName": "bold_100x100_s3_2x2x2_static_256",
   "RepetitionTime": 2000.0,
   "Rows": 900,
   "SAR": 0.08587993635702,
   "SamplesPerPixel": 1,
   "ScanOptions": "FS",
   "ScanningSequence": "EP",
   "SequenceName": "*epfid2d1_100",
   "SequenceVariant": "SK",
   "SeriesDescription": "bold_100x100_s3_2x2x2_static_256",
   "SeriesNumber": 4,
   "SeriesTime": "131521.762000",
   "SliceLocation": -55.364620641981,
   "SliceThickness": 2.0,
   "SmallestImagePixelValue": 0,
   "SoftwareVersions": "syngo MR E11",
   "SpacingBetweenSlices": 1.9999999984933,
   "SpecificCharacterSet": "ISO_IR 100",
   "StudyID": "1",
   "StudyTime": "130253.827000",
   "TransmitCoilName": "Body",
   "VariableFlipAngleFlag": "N",
   "WindowCenterWidthExplanation": "Algo1",
   "dBdt": 0.0
  },
  "slices": {}
 },
 "time": {
  "samples": {
   "AcquisitionNumber": [
    1,
    2,
    3,
    4,
    5,
    6,
    7,
    8,
    9,
    10,
    11,
    12,
    13,
    14,
    15,
    16,
    17,
    18,
    19,
    20,
    21,
    22,
    23,
    24,
    25,
    26,
    27,
    28,
    29,
    30,
    31,
    32,
    33,
    34,
    35,
    36,
    37,
    38,
    39,
    40,
    41,
    42,
    43,
    44,
    45,
    46,
    47,
    48,
    49,
    50,
    51,
    52,
    53,
    54,
    55,
    56,
    57,
    58,
    59,
    60,
    61,
    62,
    63,
    64,
    65,
    66,
    67,
    68,
    69,
    70,
    71,
    72,
    73,
    74,
    75,
    76,
    77,
    78,
    79,
    80,
    81,
    82,
    83,
    84,
    85,
    86,
    87,
    88,
    89,
    90,
    91,
    92,
    93,
    94,
    95,
    96,
    97,
    98,
    99,
    100,
    101,
    102,
    103,
    104,
    105,
    106,
    107,
    108,
    109,
    110,
    111,
    112,
    113,
    114,
    115,
    116,
    117,
    118,
    119,
    120,
    121,
    122,
    123,
    124,
    125,
    126,
    127,
    128,
    129,
    130,
    131,
    132,
    133,
    134,
    135,
    136,
    137,
    138,
    139,
    140,
    141,
    142,
    143,
    144,
    145,
    146,
    147,
    148,
    149,
    150,
    151,
    152,
    153,
    154,
    155,
    156,
    157,
    158,
    159,
    160,
    161,
    162,
    163,
    164,
    165,
    166,
    167,
    168,
    169,
    170,
    171,
    172,
    173,
    174,
    175,
    176,
    177,
    178,
    179,
    180,
    181,
    182,
    183,
    184,
    185,
    186,
    187,
    188,
    189,
    190,
    191,
    192,
    193,
    194,
    195,
    196,
    197,
    198,
    199,
    200,
    201,
    202,
    203,
    204,
    205,
    206,
    207,
    208,
    209,
    210,
    211,
    212,
    213,
    214,
    215,
    216,
    217,
    218,
    219,
    220,
    221,
    222,
    223,
    224,
    225,
    226,
    227,
    228,
    229,
    230,
    231,
    232,
    233,
    234,
    235,
    236,
    237,
    238,
    239,
    240,
    241,
    242,
    243,
    244,
    245,
    246,
    247,
    248,
    249,
    250,
    251,
    252,
    253,
    254,
    255,
    256
   ],
   "AcquisitionTime": [
    "131519.190000",
    "131521.190000",
    "131523.190000",
    "131525.190000",
    "131527.190000",
    "131529.190000",
    "131531.190000",
    "131533.190000",
    "131535.190000",
    "131537.190000",
    "131539.190000",
    "131541.190000",
    "131543.190000",
    "131545.190000",
    "131547.190000",
    "131549.190000",
    "131551.190000",
    "131553.190000",
    "131555.190000",
    "131557.190000",
    "131559.190000",
    "131601.190000",
    "131603.190000",
    "131605.190000",
    "131607.190000",
    "131609.190000",
    "131611.190000",
    "131613.190000",
    "131615.190000",
    "131617.190000",
    "131619.190000",
    "131621.190000",
    "131623.190000",
    "131625.190000",
    "131627.190000",
    "131629.190000",
    "131631.190000",
    "131633.190000",
    "131635.190000",
    "131637.190000",
    "131639.190000",
    "131641.190000",
    "131643.190000",
    "131645.190000",
    "131647.190000",
    "131649.190000",
    "131651.190000",
    "131653.190000",
    "131655.190000",
    "131657.190000",
    "131659.190000",
    "131701.190000",
    "131703.190000",
    "131705.190000",
    "131707.190000",
    "131709.190000",
    "131711.190000",
    "131713.190000",
    "131715.190000",
    "131717.190000",
    "131719.190000",
    "131721.190000",
    "131723.190000",
    "131725.190000",
    "131727.190000",
    "131729.190000",
    "131731.190000",
    "131733.190000",
    "131735.190000",
    "131737.190000",
    "131739.190000",
    "131741.190000",
    "131743.190000",
    "131745.190000",
    "131747.190000",
    "131749.190000",
    "131751.190000",
    "131753.190000",
    "131755.190000",
    "131757.190000",
    "131759.190000",
    "131801.190000",
    "131803.190000",
    "131805.190000",
    "131807.190000",
    "131809.190000",
    "131811.190000",
    "131813.190000",
    "131815.190000",
    "131817.190000",
    "131819.190000",
    "131821.190000",
    "131823.190000",
    "131825.190000",
    "131827.190000",
    "131829.190000",
    "131831.190000",
    "131833.190000",
    "131835.190000",
    "131837.190000",
    "131839.190000",
    "131841.190000",
    "131843.190000",
    "131845.190000",
    "131847.190000",
    "131849.190000",
    "131851.190000",
    "131853.190000",
    "131855.190000",
    "131857.190000",
    "131859.190000",
    "131901.190000",
    "131903.190000",
    "131905.190000",
    "131907.190000",
    "131909.190000",
    "131911.190000",
    "131913.190000",
    "131915.190000",
    "131917.190000",
    "131919.190000",
    "131921.190000",
    "131923.190000",
    "131925.190000",
    "131927.190000",
    "131929.190000",
    "131931.190000",
    "131933.190000",
    "131935.190000",
    "131937.190000",
    "131939.190000",
    "131941.190000",
    "131943.190000",
    "131945.190000",
    "131947.190000",
    "131949.190000",
    "131951.190000",
    "131953.190000",
    "131955.190000",
    "131957.190000",
    "131959.190000",
    "132001.190000",
    "132003.190000",
    "132005.190000",
    "132007.190000",
    "132009.190000",
    "132011.190000",
    "132013.190000",
    "132015.190000",
    "132017.190000",
    "132019.190000",
    "132021.190000",
    "132023.190000",
    "132025.190000",
    "132027.190000",
    "132029.190000",
    "132031.190000",
    "132033.190000",
    "132035.190000",
    "132037.190000",
    "132039.190000",
    "132041.190000",
    "132043.190000",
    "132045.190000",
    "132047.190000",
    "132049.190000",
    "132051.190000",
    "132053.190000",
    "132055.190000",
    "132057.190000",
    "132059.190000",
    "132101.190000",
    "132103.190000",
    "132105.190000",
    "132107.190000",
    "132109.190000",
    "132111.190000",
    "132113.190000",
    "132115.190000",
    "132117.190000",
    "132119.190000",
    "132121.190000",
    "132123.190000",
    "132125.190000",
    "132127.190000",
    "132129.190000",
    "132131.190000",
    "132133.190000",
    "132135.190000",
    "132137.190000",
    "132139.190000",
    "132141.190000",
    "132143.190000",
    "132145.190000",
    "132147.190000",
    "132149.190000",
    "132151.190000",
    "132153.190000",
    "132155.190000",
    "132157.190000",
    "132159.190000",
    "132201.190000",
    "132203.190000",
    "132205.190000",
    "132207.190000",
    "132209.190000",
    "132211.190000",
    "132213.190000",
    "132215.190000",
    "132217.190000",
    "132219.190000",
    "132221.190000",
    "132223.190000",
    "132225.190000",
    "132227.190000",
    "132229.190000",
    "132231.190000",
    "132233.190000",
    "132235.190000",
    "132237.190000",
    "132239.190000",
    "132241.190000",
    "132243.190000",
    "132245.190000",
    "132247.190000",
    "132249.190000",
    "132251.190000",
    "132253.190000",
    "132255.190000",
    "132257.190000",
    "132259.190000",
    "132301.190000",
    "132303.190000",
    "132305.190000",
    "132307.190000",
    "132309.190000",
    "132311.190000",
    "132313.190000",
    "132315.190000",
    "132317.190000",
    "132319.190000",
    "132321.190000",
    "132323.190000",
    "132325.190000",
    "132327.190000",
    "132329.190000",
    "132331.190000",
    "132333.190000",
    "132335.190000",
    "132337.190000",
    "132339.190000",
    "132341.190000",
    "132343.190000",
    "132345.190000",
    "132347.190000",
    "132349.190000"
   ],
   "ContentTime": [
    "131521.766000",
    "131523.262000",
    "131525.261000",
    "131527.261000",
    "131529.262000",
    "131531.263000",
    "131533.262000",
    "131535.262000",
    "131537.261000",
    "131539.261000",
    "131541.261000",
    "131543.262000",
    "131545.263000",
    "131547.263000",
    "131549.262000",
    "131551.262000",
    "131553.262000",
    "131555.261000",
    "131557.262000",
    "131559.262000",
    "131601.262000",
    "131603.262000",
    "131605.262000",
    "131607.262000",
    "131609.262000",
    "131611.261000",
    "131613.262000",
    "131615.261000",
    "131617.261000",
    "131619.261000",
    "131621.262000",
    "131623.262000",
    "131625.262000",
    "131627.262000",
    "131629.262000",
    "131631.262000",
    "131633.262000",
    "131635.261000",
    "131637.261000",
    "131639.262000",
    "131641.263000",
    "131643.261000",
    "131645.262000",
    "131647.261000",
    "131649.261000",
    "131651.262000",
    "131653.261000",
    "131655.263000",
    "131657.263000",
    "131659.262000",
    "131701.262000",
    "131703.262000",
    "131705.261000",
    "131707.261000",
    "131709.262000",
    "131711.261000",
    "131713.263000",
    "131715.263000",
    "131717.263000",
    "131719.261000",
    "131721.262000",
    "131723.262000",
    "131725.262000",
    "131727.262000",
    "131729.262000",
    "131731.262000",
    "131733.263000",
    "131735.261000",
    "131737.261000",
    "131739.262000",
    "131741.261000",
    "131743.262000",
    "131745.262000",
    "131747.261000",
    "131749.263000",
    "131751.262000",
    "131753.262000",
    "131755.261000",
    "131757.261000",
    "131759.262000",
    "131801.262000",
    "131803.262000",
    "131805.263000",
    "131807.262000",
    "131809.262000",
    "131811.261000",
    "131813.261000",
    "131815.261000",
    "131817.261000",
    "131819.262000",
    "131821.262000",
    "131823.263000",
    "131825.263000",
    "131827.262000",
    "131829.261000",
    "131831.262000",
    "131833.262000",
    "131835.262000",
    "131837.261000",
    "131839.261000",
    "131841.262000",
    "131843.263000",
    "131845.262000",
    "131847.261000",
    "131849.262000",
    "131851.262000",
    "131853.261000",
    "131855.262000",
    "131857.261000",
    "131859.262000",
    "131901.262000",
    "131903.262000",
    "131905.261000",
    "131907.261000",
    "131909.261000",
    "131911.262000",
    "131913.262000",
    "131915.262000",
    "131917.263000",
    "131919.262000",
    "131921.261000",
    "131923.261000",
    "131925.262000",
    "131927.262000",
    "131929.262000",
    "131931.262000",
    "131933.262000",
    "131935.262000",
    "131937.262000",
    "131939.261000",
    "131941.261000",
    "131943.261000",
    "131945.273000",
    "131947.261000",
    "131949.262000",
    "131951.262000",
    "131953.263000",
    "131955.262000",
    "131957.261000",
    "131959.261000",
    "132001.261000",
    "132003.261000",
    "132005.261000",
    "132007.263000",
    "132009.262000",
    "132011.263000",
    "132013.262000",
    "132015.262000",
    "132017.262000",
    "132019.262000",
    "132021.261000",
    "132023.262000",
    "132025.263000",
    "132027.263000",
    "132029.263000",
    "132031.261000",
    "132033.261000",
    "132035.261000",
    "132037.261000",
    "132039.262000",
    "132041.262000",
    "132043.262000",
    "132045.263000",
    "132047.262000",
    "132049.262000",
    "132051.261000",
    "132053.261000",
    "132055.262000",
    "132057.261000",
    "132059.262000",
    "132101.263000",
    "132103.263000",
    "132105.261000",
    "132107.261000",
    "132109.261000",
    "132111.262000",
    "132113.262000",
    "132115.262000",
    "132117.263000",
    "132119.263000",
    "132121.263000",
    "132123.262000",
    "132125.262000",
    "132127.262000",
    "132129.262000",
    "132131.261000",
    "132133.262000",
    "132135.263000",
    "132137.263000",
    "132139.263000",
    "132141.262000",
    "132143.261000",
    "132145.261000",
    "132147.262000",
    "132149.262000",
    "132151.262000",
    "132153.262000",
    "132155.263000",
    "132157.262000",
    "132159.261000",
    "132201.262000",
    "132203.261000",
    "132205.262000",
    "132207.262000",
    "132209.262000",
    "132211.263000",
    "132213.263000",
    "132215.262000",
    "132217.261000",
    "132219.261000",
    "132221.261000",
    "132223.262000",
    "132225.262000",
    "132227.262000",
    "132229.263000",
    "132231.262000",
    "132233.262000",
    "132235.262000",
    "132237.262000",
    "132239.262000",
    "132241.261000",
    "132243.261000",
    "132245.262000",
    "132247.263000",
    "132249.263000",
    "132251.261000",
    "132253.262000",
    "132255.261000",
    "132257.262000",
    "132259.261000",
    "132301.261000",
    "132303.262000",
    "132305.262000",
    "132307.262000",
    "132309.262000",
    "132311.261000",
    "132313.261000",
    "132315.261000",
    "132317.262000",
    "132319.262000",
    "132321.262000",
    "132323.263000",
    "132325.262000",
    "132327.262000",
    "132329.262000",
    "132331.261000",
    "132333.261000",
    "132335.262000",
    "132337.263000",
    "132339.263000",
    "132341.263000",
    "132343.261000",
    "132345.261000",
    "132347.262000",
    "132349.262000",
    "132350.889000"
   ],
   "InstanceCreationTime": [
    "131521.766000",
    "131523.262000",
    "131525.261000",
    "131527.261000",
    "131529.262000",
    "131531.263000",
    "131533.262000",
    "131535.262000",
    "131537.261000",
    "131539.261000",
    "131541.261000",
    "131543.262000",
    "131545.263000",
    "131547.263000",
    "131549.262000",
    "131551.262000",
    "131553.262000",
    "131555.261000",
    "131557.262000",
    "131559.262000",
    "131601.262000",
    "131603.262000",
    "131605.262000",
    "131607.262000",
    "131609.262000",
    "131611.261000",
    "131613.262000",
    "131615.261000",
    "131617.261000",
    "131619.261000",
    "131621.262000",
    "131623.262000",
    "131625.262000",
    "131627.262000",
    "131629.262000",
    "131631.262000",
    "131633.262000",
    "131635.261000",
    "131637.261000",
    "131639.262000",
    "131641.263000",
    "131643.261000",
    "131645.262000",
    "131647.261000",
    "131649.261000",
    "131651.262000",
    "131653.261000",
    "131655.263000",
    "131657.263000",
    "131659.262000",
    "131701.262000",
    "131703.262000",
    "131705.261000",
    "131707.261000",
    "131709.262000",
    "131711.261000",
    "131713.263000",
    "131715.263000",
    "131717.263000",
    "131719.261000",
    "131721.262000",
    "131723.262000",
    "131725.262000",
    "131727.262000",
    "131729.262000",
    "131731.262000",
    "131733.263000",
    "131735.261000",
    "131737.261000",
    "131739.262000",
    "131741.261000",
    "131743.262000",
    "131745.262000",
    "131747.261000",
    "131749.263000",
    "131751.262000",
    "131753.262000",
    "131755.261000",
    "131757.261000",
    "131759.262000",
    "131801.262000",
    "131803.262000",
    "131805.263000",
    "131807.262000",
    "131809.262000",
    "131811.261000",
    "131813.261000",
    "131815.261000",
    "131817.261000",
    "131819.262000",
    "131821.262000",
    "131823.263000",
    "131825.263000",
    "131827.262000",
    "131829.261000",
    "131831.262000",
    "131833.262000",
    "131835.262000",
    "131837.261000",
    "131839.261000",
    "131841.262000",
    "131843.263000",
    "131845.262000",
    "131847.261000",
    "131849.262000",
    "131851.262000",
    "131853.261000",
    "131855.262000",
    "131857.261000",
    "131859.262000",
    "131901.262000",
    "131903.262000",
    "131905.261000",
    "131907.261000",
    "131909.261000",
    "131911.262000",
    "131913.262000",
    "131915.262000",
    "131917.263000",
    "131919.262000",
    "131921.261000",
    "131923.261000",
    "131925.262000",
    "131927.262000",
    "131929.262000",
    "131931.262000",
    "131933.262000",
    "131935.262000",
    "131937.262000",
    "131939.261000",
    "131941.261000",
    "131943.261000",
    "131945.273000",
    "131947.261000",
    "131949.262000",
    "131951.262000",
    "131953.263000",
    "131955.262000",
    "131957.261000",
    "131959.261000",
    "132001.261000",
    "132003.261000",
    "132005.261000",
    "132007.263000",
    "132009.262000",
    "132011.263000",
    "132013.262000",
    "132015.262000",
    "132017.262000",
    "132019.262000",
    "132021.261000",
    "132023.262000",
    "132025.263000",
    "132027.263000",
    "132029.263000",
    "132031.261000",
    "132033.261000",
    "132035.261000",
    "132037.261000",
    "132039.262000",
    "132041.262000",
    "132043.262000",
    "132045.263000",
    "132047.262000",
    "132049.262000",
    "132051.261000",
    "132053.261000",
    "132055.262000",
    "132057.261000",
    "132059.262000",
    "132101.263000",
    "132103.263000",
    "132105.261000",
    "132107.261000",
    "132109.261000",
    "132111.262000",
    "132113.262000",
    "132115.262000",
    "132117.263000",
    "132119.263000",
    "132121.263000",
    "132123.262000",
    "132125.262000",
    "132127.262000",
    "132129.262000",
    "132131.261000",
    "132133.262000",
    "132135.263000",
    "132137.263000",
    "132139.263000",
    "132141.262000",
    "132143.261000",
    "132145.261000",
    "132147.262000",
    "132149.262000",
    "132151.262000",
    "132153.262000",
    "132155.263000",
    "132157.262000",
    "132159.261000",
    "132201.262000",
    "132203.261000",
    "132205.262000",
    "132207.262000",
    "132209.262000",
    "132211.263000",
    "132213.263000",
    "132215.262000",
    "132217.261000",
    "132219.261000",
    "132221.261000",
    "132223.262000",
    "132225.262000",
    "132227.262000",
    "132229.263000",
    "132231.262000",
    "132233.262000",
    "132235.262000",
    "132237.262000",
    "132239.262000",
    "132241.261000",
    "132243.261000",
    "132245.262000",
    "132247.263000",
    "132249.263000",
    "132251.261000",
    "132253.262000",
    "132255.261000",
    "132257.262000",
    "132259.261000",
    "132301.261000",
    "132303.262000",
    "132305.262000",
    "132307.262000",
    "132309.262000",
    "132311.261000",
    "132313.261000",
    "132315.261000",
    "132317.262000",
    "132319.262000",
    "132321.262000",
    "132323.263000",
    "132325.262000",
    "132327.262000",
    "132329.262000",
    "132331.261000",
    "132333.261000",
    "132335.262000",
    "132337.263000",
    "132339.263000",
    "132341.263000",
    "132343.261000",
    "132345.261000",
    "132347.262000",
    "132349.262000",
    "132350.889000"
   ],
   "InstanceNumber": [
    1,
    2,
    3,
    4,
    5,
    6,
    7,
    8,
    9,
    10,
    11,
    12,
    13,
    14,
    15,
    16,
    17,
    18,
    19,
    20,
    21,
    22,
    23,
    24,
    25,
    26,
    27,
    28,
    29,
    30,
    31,
    32,
    33,
    34,
    35,
    36,
    37,
    38,
    39,
    40,
    41,
    42,
    43,
    44,
    45,
    46,
    47,
    48,
    49,
    50,
    51,
    52,
    53,
    54,
    55,
    56,
    57,
    58,
    59,
    60,
    61,
    62,
    63,
    64,
    65,
    66,
    67,
    68,
    69,
    70,
    71,
    72,
    73,
    74,
    75,
    76,
    77,
    78,
    79,
    80,
    81,
    82,
    83,
    84,
    85,
    86,
    87,
    88,
    89,
    90,
    91,
    92,
    93,
    94,
    95,
    96,
    97,
    98,
    99,
    100,
    101,
    102,
    103,
    104,
    105,
    106,
    107,
    108,
    109,
    110,
    111,
    112,
    113,
    114,
    115,
    116,
    117,
    118,
    119,
    120,
    121,
    122,
    123,
    124,
    125,
    126,
    127,
    128,
    129,
    130,
    131,
    132,
    133,
    134,
    135,
    136,
    137,
    138,
    139,
    140,
    141,
    142,
    143,
    144,
    145,
    146,
    147,
    148,
    149,
    150,
    151,
    152,
    153,
    154,
    155,
    156,
    157,
    158,
    159,
    160,
    161,
    162,
    163,
    164,
    165,
    166,
    167,
    168,
    169,
    170,
    171,
    172,
    173,
    174,
    175,
    176,
    177,
    178,
    179,
    180,
    181,
    182,
    183,
    184,
    185,
    186,
    187,
    188,
    189,
    190,
    191,
    192,
    193,
    194,
    195,
    196,
    197,
    198,
    199,
    200,
    201,
    202,
    203,
    204,
    205,
    206,
    207,
    208,
    209,
    210,
    211,
    212,
    213,
    214,
    215,
    216,
    217,
    218,
    219,
    220,
    221,
    222,
    223,
    224,
    225,
    226,
    227,
    228,
    229,
    230,
    231,
    232,
    233,
    234,
    235,
    236,
    237,
    238,
    239,
    240,
    241,
    242,
    243,
    244,
    245,
    246,
    247,
    248,
    249,
    250,
    251,
    252,
    253,
    254,
    255,
    256
   ],
   "LargestImagePixelValue": [
    3072,
    3070,
    3022,
    3017,
    2988,
    2988,
    3018,
    3034,
    3013,
    3015,
    3016,
    3011,
    3042,
    3061,
    3057,
    3101,
    3091,
    3070,
    3040,
    3070,
    3083,
    3072,
    3044,
    3062,
    3060,
    3045,
    3008,
    3046,
    3068,
    3042,
    3012,
    3039,
    3049,
    3042,
    3053,
    3034,
    3016,
    3021,
    3068,
    3091,
    3064,
    3040,
    3041,
    3095,
    3080,
    2998,
    3032,
    2960,
    3049,
    3036,
    3062,
    2984,
    3016,
    3018,
    3066,
    3093,
    3075,
    3056,
    3052,
    3074,
    3090,
    3073,
    3050,
    3054,
    3064,
    3077,
    3092,
    3102,
    3109,
    3089,
    3076,
    3112,
    3087,
    3102,
    3098,
    3139,
    3094,
    3126,
    3090,
    3118,
    3040,
    3029,
    3053,
    3096,
    3034,
    2991,
    2989,
    2988,
    3037,
    3076,
    3041,
    3036,
    3052,
    3059,
    3027,
    3031,
    2988,
    3017,
    3081,
    3044,
    3074,
    3000,
    3040,
    3034,
    3049,
    3097,
    3087,
    3084,
    3129,
    3013,
    3054,
    3055,
    3082,
    3068,
    3078,
    3072,
    3020,
    3052,
    3054,
    3040,
    3057,
    3063,
    3055,
    3025,
    3107,
    3095,
    3094,
    3115,
    3097,
    3023,
    3060,
    3077,
    3109,
    3150,
    3098,
    3092,
    3070,
    3100,
    3101,
    3120,
    3131,
    3109,
    3110,
    3085,
    3118,
    3121,
    3076,
    3072,
    3086,
    3050,
    3077,
    3083,
    3107,
    3072,
    3062,
    3089,
    3072,
    3092,
    3056,
    3077,
    3078,
    3060,
    3042,
    3062,
    3053,
    3049,
    3099,
    3054,
    3062,
    3106,
    3054,
    3032,
    3053,
    3051,
    3073,
    3092,
    3082,
    3068,
    3097,
    3109,
    3068,
    3036,
    3069,
    3074,
    3084,
    3060,
    3062,
    3043,
    3018,
    3026,
    3054,
    3115,
    3072,
    3042,
    3060,
    3084,
    3096,
    3072,
    3074,
    3062,
    3036,
    3036,
    3035,
    3016,
    3025,
    3069,
    3053,
    3046,
    3059,
    3092,
    3036,
    3030,
    3040,
    3048,
    3043,
    3029,
    3057,
    3062,
    3074,
    3055,
    3038,
    3028,
    3009,
    3050,
    3049,
    3006,
    3030,
    3018,
    3048,
    3044,
    3082,
    3034,
    3054,
    3049,
    3047,
    3052,
    3070,
    3055,
    3048,
    3038,
    3051,
    3045,
    3066,
    3015,
    3027,
    3019,
    3024,
    3037,
    3007,
    3037,
    3038,
    3044,
    3033,
    3022,
    3026,
    3026
   ],
   "WindowCenter": [
    743.0,
    742.0,
    742.0,
    740.0,
    740.0,
    739.0,
    740.0,
    739.0,
    739.0,
    740.0,
    741.0,
    740.0,
    741.0,
    741.0,
    741.0,
    742.0,
    742.0,
    742.0,
    741.0,
    741.0,
    741.0,
    742.0,
    741.0,
    741.0,
    741.0,
    741.0,
    741.0,
    741.0,
    741.0,
    740.0,
    740.0,
    740.0,
    740.0,
    741.0,
    741.0,
    740.0,
    739.0,
    740.0,
    741.0,
    742.0,
    740.0,
    740.0,
    740.0,
    742.0,
    741.0,
    741.0,
    741.0,
    739.0,
    741.0,
    741.0,
    741.0,
    740.0,
    741.0,
    741.0,
    742.0,
    743.0,
    743.0,
    742.0,
    742.0,
    743.0,
    744.0,
    744.0,
    743.0,
    742.0,
    741.0,
    742.0,
    742.0,
    742.0,
    741.0,
    742.0,
    743.0,
    743.0,
    743.0,
    743.0,
    743.0,
    743.0,
    743.0,
    744.0,
    744.0,
    743.0,
    742.0,
    741.0,
    742.0,
    743.0,
    742.0,
    742.0,
    741.0,
    740.0,
    740.0,
    741.0,
    741.0,
    742.0,
    742.0,
    742.0,
    741.0,
    741.0,
    741.0,
    742.0,
    742.0,
    742.0,
    743.0,
    743.0,
    742.0,
    742.0,
    741.0,
    742.0,
    743.0,
    743.0,
    743.0,
    740.0,
    741.0,
    741.0,
    743.0,
    743.0,
    744.0,
    743.0,
    741.0,
    742.0,
    743.0,
    744.0,
    744.0,
    744.0,
    743.0,
    742.0,
