{
  "AcquisitionMatrixPE": 100,
  "AcquisitionNumber": 1,
  "AcquisitionTime": "13:34:46.827500",
  "BandwidthPerPixelPhaseEncode": 18.519,
  "BaseResolution": 100,
  "BodyPartExamined": "BRAIN",
  "ConsistencyInfo": "N4_VE11C_LATEST_20160120",
  "ConversionSoftware": "dcm2niix",
  "ConversionSoftwareVersion": "v1.0.20180622 GCC4.9.2",
  "DerivedVendorReportedEchoSpacing": 0.000539986,
  "DeviceSerialNumber": "166078",
  "DwellTime": 2.1e-06,
  "EchoTime": 0.034,
  "EchoTrainLength": 100,
  "EffectiveEchoSpacing": 0.000539986,
  "FlipAngle": 90,
  "ImageOrientationPatientDICOM": [1, 0, 0, 0, 0.995396, -0.0958458],
  "ImageType": [
    "ORIGINAL",
    "PRIMARY",
    "M",
    "ND",
    "MOSAIC"
],
  "InPlanePhaseEncodingDirectionDICOM": "COL",
  "InstitutionAddress": "Street_StreetNo_Bei_Jing_District_CN_ZIP",
  "InstitutionName": "BeiJing_Normal_University",
  "InstitutionalDepartmentName": "Department",
  "MRAcquisitionType": "2D",
  "MagneticFieldStrength": 3,
  "Manufacturer": "Siemens",
  "ManufacturersModelName": "Prisma",
  "Modality": "MR",
  "MultibandAccelerationFactor": 3,
  "PartialFourier": 1,
  "PatientPosition": "HFS",
  "PercentPhaseFOV": 100,
  "PhaseEncodingDirection": "j-",
  "PhaseEncodingSteps": 100,
  "PhaseResolution": 1,
  "PixelBandwidth": 2380,
  "ProcedureStepDescription": "BNU_P2018_64CH_Zhen.ZongLei",
  "ProtocolName": "bold_100x100_s3_2x2x2_static_256",
  "PulseSequenceDetails": "%SiemensSeq%_ep2d_bold",
  "ReceiveCoilActiveElements": "HC1-7;NC1",
  "ReceiveCoilName": "HeadNeck_64",
  "ReconMatrixPE": 100,
  "RepetitionTime": 2,
  "SAR": 0.0858799,
  "ScanOptions": "FS",
  "ScanningSequence": "EP",
  "SequenceName": "_epfid2d1_100",
  "SequenceVariant": "SK",
  "SeriesDescription": "bold_100x100_s3_2x2x2_static_256",
  "SeriesNumber": 6,
  "ShimSetting": [-5470, -11521, -1286, 464, 46, -149, -121, -16],
  "SliceThickness": 2,
  "SliceTiming": [1.485, 0, 0.99, 0.0825, 1.0725, 0.165, 1.155, 0.2475, 1.2375, 0.33, 1.32, 0.4125, 1.4025, 0.5775, 1.5675, 0.66, 1.65, 0.7425, 1.7325, 0.825, 1.815, 0.9075, 1.8975, 0.495, 1.485, 0, 0.99, 0.0825, 1.0725, 0.165, 1.155, 0.2475, 1.2375, 0.33, 1.32, 0.4125, 1.4025, 0.5775, 1.5675, 0.66, 1.65, 0.7425, 1.7325, 0.825, 1.815, 0.9075, 1.8975, 0.495, 1.485, 0, 0.99, 0.0825, 1.0725, 0.165, 1.155, 0.2475, 1.2375, 0.33, 1.32, 0.4125, 1.4025, 0.5775, 1.5675, 0.66, 1.65, 0.7425, 1.7325, 0.825, 1.815, 0.9075, 1.8975, 0.495],
  "SoftwareVersions": "syngo_MR_E11",
  "SpacingBetweenSlices": 2,
  "StationName": "AWP166078",
  "TaskName": "naturalvision",
  "TotalReadoutTime": 0.0534586,
  "TxRefAmp": 216.502,
  "dcmmeta_affine": [
    [-2.0, 0.0, 0.0, 100.67469787597656],
    [0.0, 1.9907923936843872, -0.19169150292873383, -96.91727447509766],
    [0.0, 0.19169150292873383, 1.9907923936843872, -64.9527587890625],
    [0.0, 0.0, 0.0, 1.0]
],
  "dcmmeta_reorient_transform": [
    [0.0, -1.0, 0.0, 99.0],
    [1.0, 0.0, 0.0, 0.0],
    [0.0, 0.0, 1.0, 0.0],
    [0.0, 0.0, 0.0, 1.0]
],
  "dcmmeta_shape": [100, 100, 72, 256],
  "dcmmeta_slice_dim": 2,
  "dcmmeta_version": 0.6,
  "global": {
    "const": {
      "AcquisitionMatrix": [100, 0, 0, 100],
      "AngioFlag": "N",
      "BitsAllocated": 16,
      "BitsStored": 12,
      "BodyPartExamined": "BRAIN",
      "Columns": 900,
      "EchoNumbers": 1,
      "EchoTime": 34.0,
      "EchoTrainLength": 100,
      "FlipAngle": 90.0,
      "HighBit": 11,
      "ImageOrientationPatient": [1.0, 0.0, 0.0, 0.0, 0.99539619816501, -0.0958457546198],
      "ImagePositionPatient": [-900.67469877005, -896.48813277327, 30.701303669543],
      "ImageType": [
        "ORIGINAL",
        "PRIMARY",
        "M",
        "ND",
        "MOSAIC"
],
      "ImagedNucleus": "1H",
      "ImagingFrequency": 123.257765,
      "InPlanePhaseEncodingDirection": "COL",
      "MRAcquisitionType": "2D",
      "MagneticFieldStrength": 3.0,
      "Manufacturer": "SIEMENS",
      "ManufacturerModelName": "Prisma",
      "Modality": "MR",
      "NumberOfAverages": 1.0,
      "NumberOfPhaseEncodingSteps": 100,
      "PercentPhaseFieldOfView": 100.0,
      "PercentSampling": 100.0,
      "PerformedProcedureStepStartTime": "130253.939000",
      "PhotometricInterpretation": "MONOCHROME2",
      "PixelBandwidth": 2380.0,
      "PixelRepresentation": 0,
      "PixelSpacing": [2.0, 2.0],
      "ProtocolName": "bold_100x100_s3_2x2x2_static_256",
      "RepetitionTime": 2000.0,
      "Rows": 900,
      "SAR": 0.08587993635702,
      "SamplesPerPixel": 1,
      "ScanOptions": "FS",
      "ScanningSequence": "EP",
      "SequenceName": "*epfid2d1_100",
      "SequenceVariant": "SK",
      "SeriesDescription": "bold_100x100_s3_2x2x2_static_256",
      "SeriesNumber": 6,
      "SeriesTime": "133449.705000",
      "SliceLocation": -55.364620641981,
      "SliceThickness": 2.0,
      "SmallestImagePixelValue": 0,
      "SoftwareVersions": "syngo MR E11",
      "SpacingBetweenSlices": 1.9999999984933,
      "SpecificCharacterSet": "ISO_IR 100",
      "StudyID": "1",
      "StudyTime": "130253.827000",
      "TransmitCoilName": "Body",
      "VariableFlipAngleFlag": "N",
      "WindowCenterWidthExplanation": "Algo1",
      "dBdt": 0.0},
    "slices": {}
  },
  "time": {
    "samples": {
      "AcquisitionNumber": [1, 2, 3, 4, 5, 6, 7, 8, 9, 10, 11, 12, 13, 14, 15, 16, 17, 18, 19, 20, 21, 22, 23, 24, 25, 26, 27, 28, 29, 30, 31, 32, 33, 34, 35, 36, 37, 38, 39, 40, 41, 42, 43, 44, 45, 46, 47, 48, 49, 50, 51, 52, 53, 54, 55, 56, 57, 58, 59, 60, 61, 62, 63, 64, 65, 66, 67, 68, 69, 70, 71, 72, 73, 74, 75, 76, 77, 78, 79, 80, 81, 82, 83, 84, 85, 86, 87, 88, 89, 90, 91, 92, 93, 94, 95, 96, 97, 98, 99, 100, 101, 102, 103, 104, 105, 106, 107, 108, 109, 110, 111, 112, 113, 114, 115, 116, 117, 118, 119, 120, 121, 122, 123, 124, 125, 126, 127, 128, 129, 130, 131, 132, 133, 134, 135, 136, 137, 138, 139, 140, 141, 142, 143, 144, 145, 146, 147, 148, 149, 150, 151, 152, 153, 154, 155, 156, 157, 158, 159, 160, 161, 162, 163, 164, 165, 166, 167, 168, 169, 170, 171, 172, 173, 174, 175, 176, 177, 178, 179, 180, 181, 182, 183, 184, 185, 186, 187, 188, 189, 190, 191, 192, 193, 194, 195, 196, 197, 198, 199, 200, 201, 202, 203, 204, 205, 206, 207, 208, 209, 210, 211, 212, 213, 214, 215, 216, 217, 218, 219, 220, 221, 222, 223, 224, 225, 226, 227, 228, 229, 230, 231, 232, 233, 234, 235, 236, 237, 238, 239, 240, 241, 242, 243, 244, 245, 246, 247, 248, 249, 250, 251, 252, 253, 254, 255, 256],
      "AcquisitionTime": ["133446.827500", "133448.827500", "133450.827500", "133452.827500", "133454.827500", "133456.827500", "133458.827500", "133500.827500", "133502.827500", "133504.827500", "133506.827500", "133508.827500", "133510.827500", "133512.827500", "133514.827500", "133516.827500", "133518.827500", "133520.827500", "133522.827500", "133524.827500", "133526.827500", "133528.827500", "133530.827500", "133532.827500", "133534.827500", "133536.827500", "133538.827500", "133540.827500", "133542.827500", "133544.827500", "133546.827500", "133548.827500", "133550.827500", "133552.827500", "133554.827500", "133556.827500", "133558.827500", "133600.827500", "133602.827500", "133604.827500", "133606.827500", "133608.827500", "133610.827500", "133612.827500", "133614.827500", "133616.827500", "133618.827500", "133620.827500", "133622.827500", "133624.827500", "133626.827500", "133628.827500", "133630.827500", "133632.827500", "133634.827500", "133636.827500", "133638.827500", "133640.827500", "133642.827500", "133644.827500", "133646.827500", "133648.827500", "133650.827500", "133652.827500", "133654.827500", "133656.827500", "133658.827500", "133700.827500", "133702.827500", "133704.827500", "133706.827500", "133708.827500", "133710.827500", "133712.827500", "133714.827500", "133716.827500", "133718.827500", "133720.827500", "133722.827500", "133724.827500", "133726.827500", "133728.827500", "133730.827500", "133732.827500", "133734.827500", "133736.827500", "133738.827500", "133740.827500", "133742.827500", "133744.827500", "133746.827500", "133748.827500", "133750.827500", "133752.827500", "133754.827500", "133756.827500", "133758.827500", "133800.827500", "133802.827500", "133804.827500", "133806.827500", "133808.827500", "133810.827500", "133812.827500", "133814.827500", "133816.827500", "133818.827500", "133820.827500", "133822.827500", "133824.827500", "133826.827500", "133828.827500", "133830.827500", "133832.827500", "133834.827500", "133836.827500", "133838.827500", "133840.827500", "133842.827500", "133844.827500", "133846.827500", "133848.827500", "133850.827500", "133852.827500", "133854.827500", "133856.827500", "133858.827500", "133900.827500", "133902.827500", "133904.827500", "133906.827500", "133908.827500", "133910.827500", "133912.827500", "133914.827500", "133916.827500", "133918.827500", "133920.827500", "133922.827500", "133924.827500", "133926.827500", "133928.827500", "133930.827500", "133932.827500", "133934.827500", "133936.827500", "133938.827500", "133940.827500", "133942.827500", "133944.827500", "133946.827500", "133948.827500", "133950.827500", "133952.827500", "133954.827500", "133956.827500", "133958.827500", "134000.827500", "134002.827500", "134004.827500", "134006.827500", "134008.827500", "134010.827500", "134012.827500", "134014.827500", "134016.827500", "134018.827500", "134020.827500", "134022.827500", "134024.827500", "134026.827500", "134028.827500", "134030.827500", "134032.827500", "134034.827500", "134036.827500", "134038.827500", "134040.827500", "134042.827500", "134044.827500", "134046.827500", "134048.827500", "134050.827500", "134052.827500", "134054.827500", "134056.827500", "134058.827500", "134100.827500", "134102.827500", "134104.827500", "134106.827500", "134108.827500", "134110.827500", "134112.827500", "134114.827500", "134116.827500", "134118.827500", "134120.827500", "134122.827500", "134124.827500", "134126.827500", "134128.827500", "134130.827500", "134132.827500", "134134.827500", "134136.827500", "134138.827500", "134140.827500", "134142.827500", "134144.827500", "134146.827500", "134148.827500", "134150.827500", "134152.827500", "134154.827500", "134156.827500", "134158.827500", "134200.827500", "134202.827500", "134204.827500", "134206.827500", "134208.827500", "134210.827500", "134212.827500", "134214.827500", "134216.827500", "134218.827500", "134220.827500", "134222.827500", "134224.827500", "134226.827500", "134228.827500", "134230.827500", "134232.827500", "134234.827500", "134236.827500", "134238.827500", "134240.827500", "134242.827500", "134244.827500", "134246.827500", "134248.827500", "134250.827500", "134252.827500", "134254.827500", "134256.827500", "134258.827500", "134300.827500", "134302.827500", "134304.827500", "134306.827500", "134308.827500", "134310.827500", "134312.827500", "134314.827500", "134316.827500"],
      "ContentTime": ["133449.709000", "133451.204000", "133453.204000", "133455.204000", "133457.205000", "133459.205000", "133501.205000", "133503.205000", "133505.205000", "133507.205000", "133509.204000", "133511.204000", "133513.204000", "133515.204000", "133517.205000", "133519.205000", "133521.205000", "133523.204000", "133525.205000", "133527.205000", "133529.205000", "133531.204000", "133533.204000", "133535.205000", "133537.205000", "133539.205000", "133541.204000", "133543.204000", "133545.205000", "133547.204000", "133549.204000", "133551.204000", "133553.205000", "133555.205000", "133557.205000", "133559.204000", "133601.204000", "133603.205000", "133605.204000", "133607.204000", "133609.205000", "133611.205000", "133613.205000", "133615.204000", "133617.204000", "133619.204000", "133621.205000", "133623.205000", "133625.204000", "133627.206000", "133629.206000", "133631.206000", "133633.205000", "133635.205000", "133637.205000", "133639.204000", "133641.205000", "133643.204000", "133645.205000", "133647.205000", "133649.206000", "133651.205000", "133653.204000", "133655.204000", "133657.204000", "133659.204000", "133701.205000", "133703.205000", "133705.205000", "133707.205000", "133709.204000", "133711.204000", "133713.204000", "133715.204000", "133717.204000", "133719.205000", "133721.206000", "133723.206000", "133725.204000", "133727.205000", "133729.204000", "133731.204000", "133733.205000", "133735.205000", "133737.205000", "133739.206000", "133741.206000", "133743.204000", "133745.204000", "133747.204000", "133749.205000", "133751.205000", "133753.204000", "133755.206000", "133757.205000", "133759.206000", "133801.204000", "133803.205000", "133805.204000", "133807.204000", "133809.205000", "133811.206000", "133813.205000", "133815.205000", "133817.205000", "133819.204000", "133821.205000", "133823.205000", "133825.204000", "133827.205000", "133829.205000", "133831.205000", "133833.206000", "133835.205000", "133837.205000", "133839.205000", "133841.205000", "133843.204000", "133845.205000", "133847.205000", "133849.205000", "133851.205000", "133853.205000", "133855.205000", "133857.205000", "133859.205000", "133901.205000", "133903.205000", "133905.205000", "133907.206000", "133909.206000", "133911.204000", "133913.204000", "133915.205000", "133917.209000", "133919.205000", "133921.206000", "133923.205000", "133925.206000", "133927.204000", "133929.204000", "133931.205000", "133933.205000", "133935.205000", "133937.205000", "133939.205000", "133941.205000", "133943.205000", "133945.205000", "133947.205000", "133949.205000", "133951.204000", "133953.205000", "133955.205000", "133957.206000", "133959.206000", "134001.206000", "134003.205000", "134005.205000", "134007.205000", "134009.205000", "134011.205000", "134013.205000", "134015.205000", "134017.206000", "134019.206000", "134021.205000", "134023.205000", "134025.204000", "134027.205000", "134029.204000", "134031.206000", "134033.206000", "134035.206000", "134037.204000", "134039.205000", "134041.218000", "134043.205000", "134045.205000", "134047.205000", "134049.205000", "134051.205000", "134053.206000", "134055.205000", "134057.204000", "134059.204000", "134101.205000", "134103.205000", "134105.204000", "134107.205000", "134109.205000", "134111.206000", "134113.204000", "134115.204000", "134117.205000", "134119.205000", "134121.204000", "134123.205000", "134125.206000", "134127.206000", "134129.205000", "134131.204000", "134133.204000", "134135.205000", "134137.204000", "134139.205000", "134141.206000", "134143.205000", "134145.205000", "134147.205000", "134149.205000", "134151.204000", "134153.205000", "134155.204000", "134157.204000", "134159.206000", "134201.205000", "134203.206000", "134205.205000", "134207.204000", "134209.204000", "134211.205000", "134213.205000", "134215.205000", "134217.205000", "134219.205000", "134221.206000", "134223.205000", "134225.205000", "134227.204000", "134229.205000", "134231.205000", "134233.205000", "134235.206000", "134237.205000", "134239.204000", "134241.204000", "134243.205000", "134245.205000", "134247.204000", "134249.204000", "134251.206000", "134253.206000", "134255.206000", "134257.205000", "134259.205000", "134301.204000", "134303.205000", "134305.205000", "134307.204000", "134309.205000", "134311.205000", "134313.205000", "134315.204000", "134317.205000", "134318.997000"],
      "InstanceCreationTime": ["133449.709000", "133451.204000", "133453.204000", "133455.204000", "133457.205000", "133459.205000", "133501.205000", "133503.205000", "133505.205000", "133507.205000", "133509.204000", "133511.204000", "133513.204000", "133515.204000", "133517.205000", "133519.205000", "133521.205000", "133523.204000", "133525.205000", "133527.205000", "133529.205000", "133531.204000", "133533.204000", "133535.205000", "133537.205000", "133539.205000", "133541.204000", "133543.204000", "133545.205000", "133547.204000", "133549.204000", "133551.204000", "133553.205000", "133555.205000", "133557.205000", "133559.204000", "133601.204000", "133603.205000", "133605.204000", "133607.204000", "133609.205000", "133611.205000", "133613.205000", "133615.204000", "133617.204000", "133619.204000", "133621.205000", "133623.205000", "133625.204000", "133627.206000", "133629.206000", "133631.206000", "133633.205000", "133635.205000", "133637.205000", "133639.204000", "133641.205000", "133643.204000", "133645.205000", "133647.205000", "133649.206000", "133651.205000", "133653.204000", "133655.204000", "133657.204000", "133659.204000", "133701.205000", "133703.205000", "133705.205000", "133707.205000", "133709.204000", "133711.204000", "133713.204000", "133715.204000", "133717.204000", "133719.205000", "133721.206000", "133723.206000", "133725.204000", "133727.205000", "133729.204000", "133731.204000", "133733.205000", "133735.205000", "133737.205000", "133739.206000", "133741.206000", "133743.204000", "133745.204000", "133747.204000", "133749.205000", "133751.205000", "133753.204000", "133755.206000", "133757.205000", "133759.206000", "133801.204000", "133803.205000", "133805.204000", "133807.204000", "133809.205000", "133811.206000", "133813.205000", "133815.205000", "133817.205000", "133819.204000", "133821.205000", "133823.205000", "133825.204000", "133827.205000", "133829.205000", "133831.205000", "133833.206000", "133835.205000", "133837.205000", "133839.205000", "133841.205000", "133843.204000", "133845.205000", "133847.205000", "133849.205000", "133851.205000", "133853.205000", "133855.205000", "133857.205000", "133859.205000", "133901.205000", "133903.205000", "133905.205000", "133907.206000", "133909.206000", "133911.204000", "133913.204000", "133915.205000", "133917.209000", "133919.205000", "133921.206000", "133923.205000", "133925.206000", "133927.204000", "133929.204000", "133931.205000", "133933.205000", "133935.205000", "133937.205000", "133939.205000", "133941.205000", "133943.205000", "133945.205000", "133947.205000", "133949.205000", "133951.204000", "133953.205000", "133955.205000", "133957.206000", "133959.206000", "134001.206000", "134003.205000", "134005.205000", "134007.205000", "134009.205000", "134011.205000", "134013.205000", "134015.205000", "134017.206000", "134019.206000", "134021.205000", "134023.205000", "134025.204000", "134027.205000", "134029.204000", "134031.206000", "134033.206000", "134035.206000", "134037.204000", "134039.205000", "134041.218000", "134043.205000", "134045.205000", "134047.205000", "134049.205000", "134051.205000", "134053.206000", "134055.205000", "134057.204000", "134059.204000", "134101.205000", "134103.205000", "134105.204000", "134107.205000", "134109.205000", "134111.206000", "134113.204000", "134115.204000", "134117.205000", "134119.205000", "134121.204000", "134123.205000", "134125.206000", "134127.206000", "134129.205000", "134131.204000", "134133.204000", "134135.205000", "134137.204000", "134139.205000", "134141.206000", "134143.205000", "134145.205000", "134147.205000", "134149.205000", "134151.204000", "134153.205000", "134155.204000", "134157.204000", "134159.206000", "134201.205000", "134203.206000", "134205.205000", "134207.204000", "134209.204000", "134211.205000", "134213.205000", "134215.205000", "134217.205000", "134219.205000", "134221.206000", "134223.205000", "134225.205000", "134227.204000", "134229.205000", "134231.205000", "134233.205000", "134235.206000", "134237.205000", "134239.204000", "134241.204000", "134243.205000", "134245.205000", "134247.204000", "134249.204000", "134251.206000", "134253.206000", "134255.206000", "134257.205000", "134259.205000", "134301.204000", "134303.205000", "134305.205000", "134307.204000", "134309.205000", "134311.205000", "134313.205000", "134315.204000", "134317.205000", "134318.997000"],
      "InstanceNumber": [1, 2, 3, 4, 5, 6, 7, 8, 9, 10, 11, 12, 13, 14, 15, 16, 17, 18, 19, 20, 21, 22, 23, 24, 25, 26, 27, 28, 29, 30, 31, 32, 33, 34, 35, 36, 37, 38, 39, 40, 41, 42, 43, 44, 45, 46, 47, 48, 49, 50, 51, 52, 53, 54, 55, 56, 57, 58, 59, 60, 61, 62, 63, 64, 65, 66, 67, 68, 69, 70, 71, 72, 73, 74, 75, 76, 77, 78, 79, 80, 81, 82, 83, 84, 85, 86, 87, 88, 89, 90, 91, 92, 93, 94, 95, 96, 97, 98, 99, 100, 101, 102, 103, 104, 105, 106, 107, 108, 109, 110, 111, 112, 113, 114, 115, 116, 117, 118, 119, 120, 121, 122, 123, 124, 125, 126, 127, 128, 129, 130, 131, 132, 133, 134, 135, 136, 137, 138, 139, 140, 141, 142, 143, 144, 145, 146, 147, 148, 149, 150, 151, 152, 153, 154, 155, 156, 157, 158, 159, 160, 161, 162, 163, 164, 165, 166, 167, 168, 169, 170, 171, 172, 173, 174, 175, 176, 177, 178, 179, 180, 181, 182, 183, 184, 185, 186, 187, 188, 189, 190, 191, 192, 193, 194, 195, 196, 197, 198, 199, 200, 201, 202, 203, 204, 205, 206, 207, 208, 209, 210, 211, 212, 213, 214, 215, 216, 217, 218, 219, 220, 221, 222, 223, 224, 225, 226, 227, 228, 229, 230, 231, 232, 233, 234, 235, 236, 237, 238, 239, 240, 241, 242, 243, 244, 245, 246, 247, 248, 249, 250, 251, 252, 253, 254, 255, 256],
      "LargestImagePixelValue": [3175, 3025, 3114, 3077, 3114, 3100, 3106, 3093, 3059, 3105, 3074, 3096, 3091, 3089, 3097, 3114, 3045, 3131, 3109, 3070, 3018, 3110, 3075, 3117, 3076, 3048, 3109, 3056, 3123, 3122, 3126, 3078, 3071, 3116, 3041, 3110, 3007, 3098, 3061, 3120, 3083, 3045, 3083, 3069, 3051, 3104, 3046, 3062, 3046, 3133, 3061, 3127, 3096, 3104, 3047, 3109, 3096, 3098, 3048, 3040, 3061, 3092, 3041, 3075, 3086, 3086, 3084, 3056, 3008, 3089, 3035, 3089, 3020, 3089, 3009, 3082, 3098, 3097, 3060, 3104, 3007, 3092, 3073, 3140, 3092, 3076, 3085, 3072, 3050, 3109, 3061, 3083, 3076, 3102, 3107, 3134, 3071, 3111, 3103, 3077, 3075, 3125, 3111, 3142, 3097, 3125, 3086, 3115, 3112, 3140, 3132, 3098, 3113, 3101, 3099, 3104, 3104, 3162, 3121, 3142, 3108, 3126, 3094, 3139, 3092, 3184, 3114, 3161, 3092, 3119, 3103, 3125, 3098, 3149, 3132, 3112, 3140, 3085, 3139, 3128, 3140, 3168, 3122, 3132, 3111, 3170, 3115, 3163, 3126, 3139, 3156, 3126, 3128, 3165, 3148, 3130, 3134, 3136, 3105, 3135, 3118, 3173, 3130, 3134, 3129, 3161, 3123, 3140, 3186, 3142, 3166, 3148, 3167, 3169, 3139, 3136, 3181, 3176, 3145, 3161, 3137, 3126, 3163, 3162, 3169, 3134, 3163, 3154, 3136, 3177, 3142, 3120, 3146, 3142, 3130, 3121, 3157, 3142, 3145, 3157, 3148, 3142, 3152, 3128, 3159, 3152, 3142, 3148, 3128, 3151, 3128, 3146, 3132, 3133, 3117, 3134, 3123, 3105, 3128, 3110, 3107, 3123, 3080, 3111, 3124, 3121, 3097, 3065, 3112, 3130, 3108, 3149, 3138, 3164, 3155, 3131, 3128, 3110, 3118, 3137, 3105, 3155, 3103, 3100, 3100, 3042, 3086, 3136, 3090, 3151, 3115, 3127, 3127, 3118, 3150, 3167],
      "WindowCenter": [745.0, 744.0, 743.0, 744.0, 744.0, 744.0, 743.0, 743.0, 741.0, 741.0, 742.0, 743.0, 743.0, 742.0, 743.0, 743.0, 742.0, 743.0, 743.0, 743.0, 741.0, 741.0, 741.0, 742.0, 743.0, 743.0, 743.0, 743.0, 743.0, 743.0, 743.0, 743.0, 743.0, 742.0, 742.0, 744.0, 743.0, 743.0, 743.0, 743.0, 743.0, 743.0, 744.0, 743.0, 743.0, 743.0, 742.0, 741.0, 742.0, 743.0, 743.0, 744.0, 744.0, 743.0, 742.0, 741.0, 743.0, 743.0, 741.0, 742.0, 741.0, 742.0, 743.0, 742.0, 743.0, 742.0, 741.0, 741.0, 740.0, 741.0, 742.0, 742.0, 742.0, 741.0, 741.0, 741.0, 742.0, 742.0, 743.0, 743.0, 742.0, 743.0, 744.0, 745.0, 743.0, 742.0, 742.0, 743.0, 744.0, 745.0, 744.0, 744.0, 744.0, 744.0, 744.0, 744.0, 744.0, 744.0, 745.0, 745.0, 743.0, 743.0, 744.0, 745.0, 745.0, 744.0, 744.0, 744.0, 746.0, 747.0, 747.0, 746.0, 744.0, 744.0, 746.0, 746.0, 746.0, 746.0, 744.0, 743.0, 744.0, 744.0, 744.0, 744.0, 744.0, 744.0, 744.0, 743.0, 743.0, 741.0, 742.0, 743.0, 743.0, 744.0, 743.0, 743.0, 745.0, 745.0, 746.0, 743.0, 743.0, 741.0, 743.0, 744.0, 745.0, 744.0, 745.0, 744.0, 745.0, 744.0, 744.0, 746.0, 745.0, 747.0, 745.0, 744.0, 744.0, 744.0, 743.0, 744.0, 745.0, 744.0, 744.0, 744.0, 745.0, 743.0, 744.0, 743.0, 745.0, 745.0, 746.0, 746.0, 744.0, 744.0, 744.0, 743.0, 743.0, 744.0, 746.0, 746.0, 744.0, 742.0, 743.0, 745.0, 744.0, 744.0, 744.0, 744.0, 745.0, 745.0, 744.0, 745.0, 746.0, 744.0, 745.0, 743.0, 745.0, 744.0, 745.0, 743.0, 743.0, 744.0, 745.0, 745.0, 745.0, 743.0, 745.0, 743.0, 744.0, 743.0, 742.0, 744.0, 744.0, 742.0, 741.0, 740.0, 741.0, 742.0, 743.0, 742.0, 743.0, 742.0, 742.0, 741.0, 743.0, 743.0, 743.0, 741.0, 740.0, 741.0, 741.0, 743.0, 745.0, 743.0, 744.0, 742.0, 741.0, 741.0, 742.0, 743.0, 742.0, 743.0, 743.0, 744.0, 744.0, 741.0, 741.0, 742.0, 741.0, 742.0, 742.0, 742.0, 744.0, 743.0, 744.0, 742.0],
      "WindowWidth": [1616.0, 1614.0, 1612.0, 1614.0, 1614.0, 1614.0, 1611.0, 1611.0, 1607.0, 1607.0, 1610.0, 1610.0, 1611.0, 1609.0, 1611.0, 1612.0, 1609.0, 1610.0, 1612.0, 1610.0, 1606.0, 1604.0, 1607.0, 1609.0, 1612.0, 1611.0, 1612.0, 1610.0, 1611.0, 1613.0, 1611.0, 1611.0, 1611.0, 1610.0, 1609.0, 1613.0, 1611.0, 1611.0, 1611.0, 1611.0, 1613.0, 1611.0, 1614.0, 1613.0, 1613.0, 1611.0, 1610.0, 1607.0, 1610.0, 1612.0, 1612.0, 1613.0, 1614.0, 1611.0, 1610.0, 1607.0, 1612.0, 1612.0, 1607.0, 1608.0, 1606.0, 1609.0, 1610.0, 1607.0, 1612.0, 1608.0, 1606.0, 1606.0, 1602.0, 1605.0, 1608.0, 1608.0, 1609.0, 1606.0, 1605.0, 1607.0, 1609.0, 1610.0, 1611.0, 1611.0, 1608.0, 1612.0, 1613.0, 1616.0, 1612.0, 1609.0, 1610.0, 1613.0, 1614.0, 1616.0, 1615.0, 1615.0, 1613.0, 1613.0, 1613.0, 1614.0, 1614.0, 1615.0, 1618.0, 1617.0, 1611.0, 1613.0, 1615.0, 1618.0, 1618.0, 1613.0, 1614.0, 1613.0, 1621.0, 1623.0, 1621.0, 1618.0, 1614.0, 1613.0, 1620.0, 1620.0, 1618.0, 1620.0, 1613.0, 1612.0, 1613.0, 1615.0, 1615.0, 1614.0, 1615.0, 1613.0, 1614.0, 1611.0, 1610.0, 1606.0, 1609.0, 1612.0, 1611.0, 1613.0, 1611.0, 1610.0, 1617.0, 1618.0, 1618.0, 1612.0, 1610.0, 1605.0, 1610.0, 1614.0, 1615.0, 1615.0, 1618.0, 1615.0, 1618.0, 1615.0, 1614.0, 1620.0, 1618.0, 1621.0, 1617.0, 1614.0, 1614.0, 1613.0, 1612.0, 1613.0, 1617.0, 1615.0, 1615.0, 1615.0, 1617.0, 1612.0, 1613.0, 1612.0, 1617.0, 1617.0, 1619.0, 1619.0, 1614.0, 1615.0, 1612.0, 1610.0, 1611.0, 1614.0, 1620.0, 1618.0, 1614.0, 1608.0, 1611.0, 1616.0, 1614.0, 1613.0, 1614.0, 1612.0, 1616.0, 1617.0, 1613.0, 1616.0, 1619.0, 1615.0, 1616.0, 1611.0, 1616.0, 1615.0, 1616.0, 1611.0, 1611.0, 1613.0, 1616.0, 1618.0, 1616.0, 1611.0, 1616.0, 1610.0, 1614.0, 1611.0, 1608.0, 1613.0, 1613.0, 1608.0, 1606.0, 1603.0, 1607.0, 1608.0, 1611.0, 1609.0, 1612.0, 1610.0, 1608.0, 1606.0, 1612.0, 1612.0, 1610.0, 1606.0, 1604.0, 1604.0, 1607.0, 1613.0, 1617.0, 1612.0, 1613.0, 1608.0, 1605.0, 1605.0, 1609.0, 1610.0, 1609.0, 1612.0, 1613.0, 1615.0, 1613.0, 1607.0, 1606.0, 1608.0, 1607.0, 1609.0, 1609.0, 1609.0, 1614.0, 1612.0, 1612.0, 1609.0]
    },
    "slices": {}
  }
}