{
  "AcquisitionMatrixPE": 100,
  "AcquisitionNumber": 1,
  "AcquisitionTime": "14:27:24.892500",
  "BandwidthPerPixelPhaseEncode": 18.519,
  "BaseResolution": 100,
  "BodyPartExamined": "BRAIN",
  "ConsistencyInfo": "N4_VE11C_LATEST_20160120",
  "ConversionSoftware": "dcm2niix",
  "ConversionSoftwareVersion": "v1.0.20180622 GCC4.9.2",
  "DerivedVendorReportedEchoSpacing": 0.000539986,
  "DeviceSerialNumber": "166078",
  "DwellTime": 2.1e-06,
  "EchoTime": 0.034,
  "EchoTrainLength": 100,
  "EffectiveEchoSpacing": 0.000539986,
  "FlipAngle": 90,
  "ImageOrientationPatientDICOM": [1, 0, 0, 0, 0.995396, -0.0958458],
  "ImageType": [
    "ORIGINAL",
    "PRIMARY",
    "M",
    "ND",
    "MOSAIC"
],
  "InPlanePhaseEncodingDirectionDICOM": "COL",
  "InstitutionAddress": "Street_StreetNo_Bei_Jing_District_CN_ZIP",
  "InstitutionName": "BeiJing_Normal_University",
  "InstitutionalDepartmentName": "Department",
  "MRAcquisitionType": "2D",
  "MagneticFieldStrength": 3,
  "Manufacturer": "Siemens",
  "ManufacturersModelName": "Prisma",
  "Modality": "MR",
  "MultibandAccelerationFactor": 3,
  "PartialFourier": 1,
  "PatientPosition": "HFS",
  "PercentPhaseFOV": 100,
  "PhaseEncodingDirection": "j-",
  "PhaseEncodingSteps": 100,
  "PhaseResolution": 1,
  "PixelBandwidth": 2380,
  "ProcedureStepDescription": "BNU_P2018_64CH_Zhen.ZongLei",
  "ProtocolName": "bold_100x100_s3_2x2x2_static_256",
  "PulseSequenceDetails": "%SiemensSeq%_ep2d_bold",
  "ReceiveCoilActiveElements": "HC1-7;NC1",
  "ReceiveCoilName": "HeadNeck_64",
  "ReconMatrixPE": 100,
  "RepetitionTime": 2,
  "SAR": 0.0858799,
  "ScanOptions": "FS",
  "ScanningSequence": "EP",
  "SequenceName": "_epfid2d1_100",
  "SequenceVariant": "SK",
  "SeriesDescription": "bold_100x100_s3_2x2x2_static_256",
  "SeriesNumber": 13,
  "ShimSetting": [-5470, -11521, -1286, 464, 46, -149, -121, -16],
  "SliceThickness": 2,
  "SliceTiming": [1.485, 0, 0.99, 0.0825, 1.0725, 0.165, 1.155, 0.2475, 1.2375, 0.33, 1.32, 0.4125, 1.4025, 0.5775, 1.5675, 0.66, 1.65, 0.7425, 1.7325, 0.825, 1.815, 0.9075, 1.8975, 0.495, 1.485, 0, 0.99, 0.0825, 1.0725, 0.165, 1.155, 0.2475, 1.2375, 0.33, 1.32, 0.4125, 1.4025, 0.5775, 1.5675, 0.66, 1.65, 0.7425, 1.7325, 0.825, 1.815, 0.9075, 1.8975, 0.495, 1.485, 0, 0.99, 0.0825, 1.0725, 0.165, 1.155, 0.2475, 1.2375, 0.33, 1.32, 0.4125, 1.4025, 0.5775, 1.5675, 0.66, 1.65, 0.7425, 1.7325, 0.825, 1.815, 0.9075, 1.8975, 0.495],
  "SoftwareVersions": "syngo_MR_E11",
  "SpacingBetweenSlices": 2,
  "StationName": "AWP166078",
  "TaskName": "naturalvision",
  "TotalReadoutTime": 0.0534586,
  "TxRefAmp": 216.502,
  "dcmmeta_affine": [
    [-2.0, 0.0, 0.0, 100.67469787597656],
    [0.0, 1.9907923936843872, -0.19169150292873383, -96.91727447509766],
    [0.0, 0.19169150292873383, 1.9907923936843872, -64.9527587890625],
    [0.0, 0.0, 0.0, 1.0]
],
  "dcmmeta_reorient_transform": [
    [0.0, -1.0, 0.0, 99.0],
    [1.0, 0.0, 0.0, 0.0],
    [0.0, 0.0, 1.0, 0.0],
    [0.0, 0.0, 0.0, 1.0]
],
  "dcmmeta_shape": [100, 100, 72, 256],
  "dcmmeta_slice_dim": 2,
  "dcmmeta_version": 0.6,
  "global": {
    "const": {
      "AcquisitionMatrix": [100, 0, 0, 100],
      "AngioFlag": "N",
      "BitsAllocated": 16,
      "BitsStored": 12,
      "BodyPartExamined": "BRAIN",
      "Columns": 900,
      "EchoNumbers": 1,
      "EchoTime": 34.0,
      "EchoTrainLength": 100,
      "FlipAngle": 90.0,
      "HighBit": 11,
      "ImageOrientationPatient": [1.0, 0.0, 0.0, 0.0, 0.99539619816501, -0.0958457546198],
      "ImagePositionPatient": [-900.67469877005, -896.48813277327, 30.701303669543],
      "ImageType": [
        "ORIGINAL",
        "PRIMARY",
        "M",
        "ND",
        "MOSAIC"
],
      "ImagedNucleus": "1H",
      "ImagingFrequency": 123.257765,
      "InPlanePhaseEncodingDirection": "COL",
      "MRAcquisitionType": "2D",
      "MagneticFieldStrength": 3.0,
      "Manufacturer": "SIEMENS",
      "ManufacturerModelName": "Prisma",
      "Modality": "MR",
      "NumberOfAverages": 1.0,
      "NumberOfPhaseEncodingSteps": 100,
      "PercentPhaseFieldOfView": 100.0,
      "PercentSampling": 100.0,
      "PerformedProcedureStepStartTime": "130253.939000",
      "PhotometricInterpretation": "MONOCHROME2",
      "PixelBandwidth": 2380.0,
      "PixelRepresentation": 0,
      "PixelSpacing": [2.0, 2.0],
      "ProtocolName": "bold_100x100_s3_2x2x2_static_256",
      "RepetitionTime": 2000.0,
      "Rows": 900,
      "SAR": 0.08587993635702,
      "SamplesPerPixel": 1,
      "ScanOptions": "FS",
      "ScanningSequence": "EP",
      "SequenceName": "*epfid2d1_100",
      "SequenceVariant": "SK",
      "SeriesDescription": "bold_100x100_s3_2x2x2_static_256",
      "SeriesNumber": 13,
      "SeriesTime": "142727.140000",
      "SliceLocation": -55.364620641981,
      "SliceThickness": 2.0,
      "SmallestImagePixelValue": 0,
      "SoftwareVersions": "syngo MR E11",
      "SpacingBetweenSlices": 1.9999999984933,
      "SpecificCharacterSet": "ISO_IR 100",
      "StudyID": "1",
      "StudyTime": "130253.827000",
      "TransmitCoilName": "Body",
      "VariableFlipAngleFlag": "N",
      "WindowCenterWidthExplanation": "Algo1",
      "dBdt": 0.0},
    "slices": {}
  },
  "time": {
    "samples": {
      "AcquisitionNumber": [1, 2, 3, 4, 5, 6, 7, 8, 9, 10, 11, 12, 13, 14, 15, 16, 17, 18, 19, 20, 21, 22, 23, 24, 25, 26, 27, 28, 29, 30, 31, 32, 33, 34, 35, 36, 37, 38, 39, 40, 41, 42, 43, 44, 45, 46, 47, 48, 49, 50, 51, 52, 53, 54, 55, 56, 57, 58, 59, 60, 61, 62, 63, 64, 65, 66, 67, 68, 69, 70, 71, 72, 73, 74, 75, 76, 77, 78, 79, 80, 81, 82, 83, 84, 85, 86, 87, 88, 89, 90, 91, 92, 93, 94, 95, 96, 97, 98, 99, 100, 101, 102, 103, 104, 105, 106, 107, 108, 109, 110, 111, 112, 113, 114, 115, 116, 117, 118, 119, 120, 121, 122, 123, 124, 125, 126, 127, 128, 129, 130, 131, 132, 133, 134, 135, 136, 137, 138, 139, 140, 141, 142, 143, 144, 145, 146, 147, 148, 149, 150, 151, 152, 153, 154, 155, 156, 157, 158, 159, 160, 161, 162, 163, 164, 165, 166, 167, 168, 169, 170, 171, 172, 173, 174, 175, 176, 177, 178, 179, 180, 181, 182, 183, 184, 185, 186, 187, 188, 189, 190, 191, 192, 193, 194, 195, 196, 197, 198, 199, 200, 201, 202, 203, 204, 205, 206, 207, 208, 209, 210, 211, 212, 213, 214, 215, 216, 217, 218, 219, 220, 221, 222, 223, 224, 225, 226, 227, 228, 229, 230, 231, 232, 233, 234, 235, 236, 237, 238, 239, 240, 241, 242, 243, 244, 245, 246, 247, 248, 249, 250, 251, 252, 253, 254, 255, 256],
      "AcquisitionTime": ["142724.892500", "142726.892500", "142728.892500", "142730.892500", "142732.892500", "142734.892500", "142736.892500", "142738.892500", "142740.892500", "142742.892500", "142744.892500", "142746.892500", "142748.892500", "142750.892500", "142752.892500", "142754.892500", "142756.892500", "142758.892500", "142800.892500", "142802.892500", "142804.892500", "142806.892500", "142808.892500", "142810.892500", "142812.892500", "142814.892500", "142816.892500", "142818.892500", "142820.892500", "142822.892500", "142824.892500", "142826.892500", "142828.892500", "142830.892500", "142832.892500", "142834.892500", "142836.892500", "142838.892500", "142840.892500", "142842.892500", "142844.892500", "142846.892500", "142848.892500", "142850.892500", "142852.892500", "142854.892500", "142856.892500", "142858.892500", "142900.892500", "142902.892500", "142904.892500", "142906.892500", "142908.892500", "142910.892500", "142912.892500", "142914.892500", "142916.892500", "142918.892500", "142920.892500", "142922.892500", "142924.892500", "142926.892500", "142928.892500", "142930.892500", "142932.892500", "142934.892500", "142936.892500", "142938.892500", "142940.892500", "142942.892500", "142944.892500", "142946.892500", "142948.892500", "142950.892500", "142952.892500", "142954.892500", "142956.892500", "142958.892500", "143000.892500", "143002.892500", "143004.892500", "143006.892500", "143008.892500", "143010.892500", "143012.892500", "143014.892500", "143016.892500", "143018.892500", "143020.892500", "143022.892500", "143024.892500", "143026.892500", "143028.892500", "143030.892500", "143032.892500", "143034.892500", "143036.892500", "143038.892500", "143040.892500", "143042.892500", "143044.892500", "143046.892500", "143048.892500", "143050.892500", "143052.892500", "143054.892500", "143056.892500", "143058.892500", "143100.892500", "143102.892500", "143104.892500", "143106.892500", "143108.892500", "143110.892500", "143112.892500", "143114.892500", "143116.892500", "143118.892500", "143120.892500", "143122.892500", "143124.892500", "143126.892500", "143128.892500", "143130.892500", "143132.892500", "143134.892500", "143136.892500", "143138.892500", "143140.892500", "143142.892500", "143144.892500", "143146.892500", "143148.892500", "143150.892500", "143152.892500", "143154.892500", "143156.892500", "143158.892500", "143200.892500", "143202.892500", "143204.892500", "143206.892500", "143208.892500", "143210.892500", "143212.892500", "143214.892500", "143216.892500", "143218.892500", "143220.892500", "143222.892500", "143224.892500", "143226.892500", "143228.892500", "143230.892500", "143232.892500", "143234.892500", "143236.892500", "143238.892500", "143240.892500", "143242.892500", "143244.892500", "143246.892500", "143248.892500", "143250.892500", "143252.892500", "143254.892500", "143256.892500", "143258.892500", "143300.892500", "143302.892500", "143304.892500", "143306.892500", "143308.892500", "143310.892500", "143312.892500", "143314.892500", "143316.892500", "143318.892500", "143320.892500", "143322.892500", "143324.892500", "143326.892500", "143328.892500", "143330.892500", "143332.892500", "143334.892500", "143336.892500", "143338.892500", "143340.892500", "143342.892500", "143344.892500", "143346.892500", "143348.892500", "143350.892500", "143352.892500", "143354.892500", "143356.892500", "143358.892500", "143400.892500", "143402.892500", "143404.892500", "143406.892500", "143408.892500", "143410.892500", "143412.892500", "143414.892500", "143416.892500", "143418.892500", "143420.892500", "143422.892500", "143424.892500", "143426.892500", "143428.892500", "143430.892500", "143432.892500", "143434.892500", "143436.892500", "143438.892500", "143440.892500", "143442.892500", "143444.892500", "143446.892500", "143448.892500", "143450.892500", "143452.892500", "143454.892500", "143456.892500", "143458.892500", "143500.892500", "143502.892500", "143504.892500", "143506.892500", "143508.892500", "143510.892500", "143512.892500", "143514.892500", "143516.892500", "143518.892500", "143520.892500", "143522.892500", "143524.892500", "143526.892500", "143528.892500", "143530.892500", "143532.892500", "143534.892500", "143536.892500", "143538.892500", "143540.892500", "143542.892500", "143544.892500", "143546.892500", "143548.892500", "143550.892500", "143552.892500", "143554.892500"],
      "ContentTime": ["142727.143000", "142728.639000", "142730.639000", "142732.639000", "142734.638000", "142736.639000", "142738.639000", "142740.637000", "142742.638000", "142744.639000", "142746.639000", "142749.138000", "142750.639000", "142752.638000", "142754.639000", "142756.639000", "142758.638000", "142800.637000", "142802.639000", "142804.638000", "142806.638000", "142808.639000", "142810.639000", "142812.638000", "142814.638000", "142816.637000", "142818.638000", "142820.639000", "142822.638000", "142824.638000", "142826.638000", "142828.638000", "142830.639000", "142832.637000", "142834.638000", "142836.638000", "142838.639000", "142840.639000", "142842.639000", "142844.639000", "142846.639000", "142848.639000", "142850.638000", "142852.638000", "142854.639000", "142856.638000", "142858.638000", "142900.638000", "142902.638000", "142904.638000", "142906.639000", "142908.637000", "142910.637000", "142912.638000", "142914.638000", "142916.638000", "142918.639000", "142920.638000", "142922.638000", "142924.638000", "142926.638000", "142928.639000", "142930.638000", "142932.638000", "142934.638000", "142936.638000", "142939.138000", "142940.638000", "142942.637000", "142944.638000", "142946.639000", "142948.638000", "142950.638000", "142952.639000", "142954.639000", "142956.638000", "142958.638000", "143000.637000", "143002.638000", "143004.638000", "143006.638000", "143008.638000", "143010.639000", "143012.638000", "143014.638000", "143016.638000", "143018.637000", "143020.637000", "143022.638000", "143024.638000", "143026.639000", "143028.638000", "143030.638000", "143032.638000", "143034.639000", "143036.638000", "143038.638000", "143040.639000", "143042.639000", "143044.639000", "143046.639000", "143048.639000", "143050.639000", "143052.637000", "143054.638000", "143056.639000", "143058.638000", "143100.639000", "143102.639000", "143104.639000", "143106.638000", "143108.638000", "143110.638000", "143112.637000", "143114.638000", "143116.638000", "143118.638000", "143120.638000", "143122.639000", "143124.638000", "143126.638000", "143128.637000", "143130.638000", "143132.639000", "143134.639000", "143136.638000", "143138.638000", "143140.638000", "143142.638000", "143144.639000", "143146.638000", "143148.639000", "143150.639000", "143152.638000", "143154.639000", "143156.638000", "143158.639000", "143200.638000", "143202.637000", "143204.638000", "143206.639000", "143208.639000", "143210.638000", "143212.639000", "143214.638000", "143216.639000", "143218.639000", "143220.658000", "143222.637000", "143224.638000", "143226.638000", "143228.639000", "143230.638000", "143232.638000", "143234.651000", "143236.638000", "143238.637000", "143240.638000", "143242.639000", "143244.639000", "143246.639000", "143248.639000", "143250.639000", "143252.638000", "143254.639000", "143256.637000", "143258.638000", "143300.638000", "143302.639000", "143304.638000", "143306.639000", "143308.639000", "143310.638000", "143312.637000", "143314.638000", "143316.639000", "143318.639000", "143320.638000", "143322.638000", "143324.639000", "143326.639000", "143328.639000", "143330.638000", "143332.638000", "143334.639000", "143336.639000", "143338.638000", "143340.639000", "143342.639000", "143344.639000", "143346.638000", "143348.637000", "143350.638000", "143352.639000", "143354.639000", "143356.639000", "143358.639000", "143400.639000", "143402.639000", "143404.639000", "143406.637000", "143408.639000", "143410.638000", "143412.639000", "143414.639000", "143416.639000", "143418.639000", "143420.638000", "143422.637000", "143424.638000", "143426.639000", "143428.639000", "143430.639000", "143432.639000", "143434.638000", "143436.639000", "143438.639000", "143440.637000", "143442.637000", "143444.638000", "143446.638000", "143448.639000", "143450.639000", "143452.639000", "143454.639000", "143456.638000", "143458.637000", "143500.638000", "143502.639000", "143504.639000", "143506.638000", "143508.639000", "143510.639000", "143512.638000", "143514.638000", "143516.638000", "143518.638000", "143520.638000", "143522.639000", "143524.639000", "143526.639000", "143528.639000", "143530.639000", "143532.638000", "143534.637000", "143536.639000", "143538.639000", "143540.638000", "143542.638000", "143544.639000", "143546.639000", "143548.639000", "143550.637000", "143552.638000", "143554.638000", "143556.470000"],
      "InstanceCreationTime": ["142727.143000", "142728.639000", "142730.639000", "142732.639000", "142734.638000", "142736.639000", "142738.639000", "142740.637000", "142742.638000", "142744.639000", "142746.639000", "142749.138000", "142750.639000", "142752.638000", "142754.639000", "142756.639000", "142758.638000", "142800.637000", "142802.639000", "142804.638000", "142806.638000", "142808.639000", "142810.639000", "142812.638000", "142814.638000", "142816.637000", "142818.638000", "142820.639000", "142822.638000", "142824.638000", "142826.638000", "142828.638000", "142830.639000", "142832.637000", "142834.638000", "142836.638000", "142838.639000", "142840.639000", "142842.639000", "142844.639000", "142846.639000", "142848.639000", "142850.638000", "142852.638000", "142854.639000", "142856.638000", "142858.638000", "142900.638000", "142902.638000", "142904.638000", "142906.639000", "142908.637000", "142910.637000", "142912.638000", "142914.638000", "142916.638000", "142918.639000", "142920.638000", "142922.638000", "142924.638000", "142926.638000", "142928.639000", "142930.638000", "142932.638000", "142934.638000", "142936.638000", "142939.138000", "142940.638000", "142942.637000", "142944.638000", "142946.639000", "142948.638000", "142950.638000", "142952.639000", "142954.639000", "142956.638000", "142958.638000", "143000.637000", "143002.638000", "143004.638000", "143006.638000", "143008.638000", "143010.639000", "143012.638000", "143014.638000", "143016.638000", "143018.637000", "143020.637000", "143022.638000", "143024.638000", "143026.639000", "143028.638000", "143030.638000", "143032.638000", "143034.639000", "143036.638000", "143038.638000", "143040.639000", "143042.639000", "143044.639000", "143046.639000", "143048.639000", "143050.639000", "143052.637000", "143054.638000", "143056.639000", "143058.638000", "143100.639000", "143102.639000", "143104.639000", "143106.638000", "143108.638000", "143110.638000", "143112.637000", "143114.638000", "143116.638000", "143118.638000", "143120.638000", "143122.639000", "143124.638000", "143126.638000", "143128.637000", "143130.638000", "143132.639000", "143134.639000", "143136.638000", "143138.638000", "143140.638000", "143142.638000", "143144.639000", "143146.638000", "143148.639000", "143150.639000", "143152.638000", "143154.639000", "143156.638000", "143158.639000", "143200.638000", "143202.637000", "143204.638000", "143206.639000", "143208.639000", "143210.638000", "143212.639000", "143214.638000", "143216.639000", "143218.639000", "143220.658000", "143222.637000", "143224.638000", "143226.638000", "143228.639000", "143230.638000", "143232.638000", "143234.651000", "143236.638000", "143238.637000", "143240.638000", "143242.639000", "143244.639000", "143246.639000", "143248.639000", "143250.639000", "143252.638000", "143254.639000", "143256.637000", "143258.638000", "143300.638000", "143302.639000", "143304.638000", "143306.639000", "143308.639000", "143310.638000", "143312.637000", "143314.638000", "143316.639000", "143318.639000", "143320.638000", "143322.638000", "143324.639000", "143326.639000", "143328.639000", "143330.638000", "143332.638000", "143334.639000", "143336.639000", "143338.638000", "143340.639000", "143342.639000", "143344.639000", "143346.638000", "143348.637000", "143350.638000", "143352.639000", "143354.639000", "143356.639000", "143358.639000", "143400.639000", "143402.639000", "143404.639000", "143406.637000", "143408.639000", "143410.638000", "143412.639000", "143414.639000", "143416.639000", "143418.639000", "143420.638000", "143422.637000", "143424.638000", "143426.639000", "143428.639000", "143430.639000", "143432.639000", "143434.638000", "143436.639000", "143438.639000", "143440.637000", "143442.637000", "143444.638000", "143446.638000", "143448.639000", "143450.639000", "143452.639000", "143454.639000", "143456.638000", "143458.637000", "143500.638000", "143502.639000", "143504.639000", "143506.638000", "143508.639000", "143510.639000", "143512.638000", "143514.638000", "143516.638000", "143518.638000", "143520.638000", "143522.639000", "143524.639000", "143526.639000", "143528.639000", "143530.639000", "143532.638000", "143534.637000", "143536.639000", "143538.639000", "143540.638000", "143542.638000", "143544.639000", "143546.639000", "143548.639000", "143550.637000", "143552.638000", "143554.638000", "143556.470000"],
      "InstanceNumber": [1, 2, 3, 4, 5, 6, 7, 8, 9, 10, 11, 12, 13, 14, 15, 16, 17, 18, 19, 20, 21, 22, 23, 24, 25, 26, 27, 28, 29, 30, 31, 32, 33, 34, 35, 36, 37, 38, 39, 40, 41, 42, 43, 44, 45, 46, 47, 48, 49, 50, 51, 52, 53, 54, 55, 56, 57, 58, 59, 60, 61, 62, 63, 64, 65, 66, 67, 68, 69, 70, 71, 72, 73, 74, 75, 76, 77, 78, 79, 80, 81, 82, 83, 84, 85, 86, 87, 88, 89, 90, 91, 92, 93, 94, 95, 96, 97, 98, 99, 100, 101, 102, 103, 104, 105, 106, 107, 108, 109, 110, 111, 112, 113, 114, 115, 116, 117, 118, 119, 120, 121, 122, 123, 124, 125, 126, 127, 128, 129, 130, 131, 132, 133, 134, 135, 136, 137, 138, 139, 140, 141, 142, 143, 144, 145, 146, 147, 148, 149, 150, 151, 152, 153, 154, 155, 156, 157, 158, 159, 160, 161, 162, 163, 164, 165, 166, 167, 168, 169, 170, 171, 172, 173, 174, 175, 176, 177, 178, 179, 180, 181, 182, 183, 184, 185, 186, 187, 188, 189, 190, 191, 192, 193, 194, 195, 196, 197, 198, 199, 200, 201, 202, 203, 204, 205, 206, 207, 208, 209, 210, 211, 212, 213, 214, 215, 216, 217, 218, 219, 220, 221, 222, 223, 224, 225, 226, 227, 228, 229, 230, 231, 232, 233, 234, 235, 236, 237, 238, 239, 240, 241, 242, 243, 244, 245, 246, 247, 248, 249, 250, 251, 252, 253, 254, 255, 256],
      "LargestImagePixelValue": [3055, 3017, 2980, 3041, 3010, 3038, 3018, 3050, 3018, 2981, 3039, 2994, 3023, 2996, 3014, 2970, 3023, 3018, 3035, 3030, 3014, 3009, 2985, 3045, 3005, 3019, 2995, 2993, 2994, 3042, 3018, 3029, 3006, 3024, 3042, 3014, 3052, 2968, 3006, 3003, 3005, 2959, 3007, 3044, 2990, 3000, 2978, 3004, 2972, 2971, 3020, 3028, 2988, 2926, 3045, 3000, 3037, 3023, 3021, 3027, 2995, 3029, 3043, 3033, 3068, 3033, 3071, 3027, 2999, 3026, 3032, 3037, 3032, 3080, 3022, 3033, 2996, 3042, 3031, 3008, 3023, 3051, 3015, 3031, 3030, 3049, 3017, 3031, 3049, 3102, 3072, 3101, 3116, 3033, 3122, 3078, 3096, 3107, 3095, 3115, 3116, 3100, 3112, 3097, 3090, 3085, 3094, 3098, 3101, 3087, 3101, 3099, 3062, 3104, 3049, 3093, 3068, 3027, 3061, 3066, 3077, 3048, 3051, 3050, 3077, 3032, 3069, 3046, 3126, 3074, 3130, 3080, 3064, 3066, 3082, 3108, 3109, 3074, 3052, 3028, 3067, 3100, 3101, 3084, 3056, 3069, 3082, 3064, 3056, 3036, 3031, 3046, 3079, 3031, 3052, 3121, 3086, 3102, 3071, 3094, 3041, 3089, 3094, 3110, 3078, 3122, 3132, 3102, 3121, 3083, 3113, 3123, 3103, 3077, 3081, 3105, 3075, 3068, 3040, 3067, 3064, 3035, 3031, 3077, 3031, 3070, 3028, 3040, 3020, 3048, 3043, 3053, 3058, 3101, 3102, 3067, 3024, 3031, 3057, 3059, 3070, 3080, 3041, 3056, 3037, 3056, 3034, 3013, 3056, 3083, 3050, 3047, 3039, 3036, 3032, 3052, 3057, 3066, 3061, 3069, 3073, 3054, 3061, 3032, 3068, 3031, 3013, 3046, 3052, 3041, 3048, 3045, 3033, 3034, 3037, 3081, 3040, 3079, 3089, 3120, 3076, 3080, 3063, 3110, 3092, 3107, 3088, 3101, 3073, 3097, 3164, 3132, 3153, 3086, 3093, 3062],
      "WindowCenter": [744.0, 742.0, 742.0, 742.0, 741.0, 741.0, 741.0, 741.0, 741.0, 741.0, 742.0, 741.0, 741.0, 740.0, 740.0, 740.0, 740.0, 740.0, 740.0, 740.0, 740.0, 740.0, 740.0, 741.0, 740.0, 739.0, 740.0, 741.0, 741.0, 741.0, 741.0, 741.0, 740.0, 740.0, 741.0, 741.0, 742.0, 740.0, 740.0, 739.0, 739.0, 740.0, 740.0, 740.0, 740.0, 741.0, 741.0, 741.0, 740.0, 740.0, 741.0, 740.0, 740.0, 740.0, 740.0, 739.0, 740.0, 741.0, 742.0, 742.0, 742.0, 742.0, 742.0, 742.0, 743.0, 743.0, 744.0, 743.0, 742.0, 741.0, 742.0, 743.0, 742.0, 743.0, 743.0, 742.0, 742.0, 741.0, 741.0, 742.0, 742.0, 742.0, 741.0, 741.0, 742.0, 742.0, 743.0, 742.0, 742.0, 743.0, 742.0, 743.0, 743.0, 743.0, 743.0, 744.0, 744.0, 745.0, 746.0, 745.0, 746.0, 745.0, 745.0, 744.0, 742.0, 743.0, 743.0, 743.0, 745.0, 745.0, 744.0, 743.0, 742.0, 742.0, 743.0, 742.0, 741.0, 740.0, 741.0, 741.0, 742.0, 741.0, 741.0, 741.0, 742.0, 741.0, 741.0, 741.0, 743.0, 744.0, 743.0, 742.0, 740.0, 741.0, 744.0, 745.0, 744.0, 742.0, 742.0, 740.0, 741.0, 743.0, 744.0, 744.0, 744.0, 743.0, 743.0, 742.0, 742.0, 742.0, 742.0, 742.0, 742.0, 742.0, 744.0, 745.0, 745.0, 744.0, 745.0, 744.0, 744.0, 744.0, 745.0, 745.0, 744.0, 744.0, 746.0, 745.0, 745.0, 744.0, 744.0, 744.0, 745.0, 744.0, 744.0, 744.0, 744.0, 744.0, 743.0, 742.0, 743.0, 742.0, 743.0, 743.0, 742.0, 742.0, 743.0, 742.0, 741.0, 742.0, 742.0, 743.0, 744.0, 745.0, 743.0, 742.0, 742.0, 742.0, 741.0, 741.0, 742.0, 743.0, 742.0, 742.0, 741.0, 741.0, 741.0, 742.0, 744.0, 744.0, 743.0, 742.0, 741.0, 742.0, 743.0, 743.0, 743.0, 742.0, 743.0, 743.0, 743.0, 744.0, 744.0, 743.0, 743.0, 743.0, 743.0, 742.0, 741.0, 743.0, 745.0, 744.0, 743.0, 743.0, 743.0, 743.0, 743.0, 743.0, 745.0, 745.0, 744.0, 743.0, 743.0, 745.0, 746.0, 746.0, 745.0, 745.0, 744.0, 744.0, 745.0, 745.0, 746.0, 745.0, 745.0, 742.0],
      "WindowWidth": [1612.0, 1607.0, 1607.0, 1606.0, 1604.0, 1603.0, 1605.0, 1605.0, 1604.0, 1604.0, 1606.0, 1604.0, 1604.0, 1602.0, 1602.0, 1601.0, 1602.0, 1603.0, 1603.0, 1602.0, 1601.0, 1601.0, 1603.0, 1604.0, 1603.0, 1600.0, 1602.0, 1604.0, 1605.0, 1604.0, 1605.0, 1604.0, 1601.0, 1601.0, 1604.0, 1605.0, 1606.0, 1602.0, 1601.0, 1600.0, 1600.0, 1601.0, 1603.0, 1602.0, 1603.0, 1603.0, 1603.0, 1604.0, 1603.0, 1603.0, 1605.0, 1603.0, 1602.0, 1602.0, 1603.0, 1599.0, 1601.0, 1605.0, 1607.0, 1607.0, 1607.0, 1607.0, 1606.0, 1608.0, 1609.0, 1610.0, 1613.0, 1611.0, 1607.0, 1605.0, 1607.0, 1609.0, 1608.0, 1609.0, 1610.0, 1608.0, 1607.0, 1605.0, 1604.0, 1608.0, 1608.0, 1608.0, 1604.0, 1605.0, 1608.0, 1608.0, 1609.0, 1607.0, 1608.0, 1609.0, 1607.0, 1609.0, 1611.0, 1609.0, 1610.0, 1611.0, 1612.0, 1616.0, 1616.0, 1616.0, 1616.0, 1615.0, 1615.0, 1612.0, 1608.0, 1610.0, 1609.0, 1611.0, 1616.0, 1614.0, 1611.0, 1610.0, 1607.0, 1607.0, 1609.0, 1608.0, 1603.0, 1601.0, 1604.0, 1605.0, 1606.0, 1603.0, 1605.0, 1605.0, 1606.0, 1604.0, 1605.0, 1604.0, 1610.0, 1612.0, 1611.0, 1606.0, 1602.0, 1604.0, 1612.0, 1615.0, 1613.0, 1608.0, 1606.0, 1602.0, 1604.0, 1610.0, 1613.0, 1612.0, 1612.0, 1611.0, 1610.0, 1608.0, 1606.0, 1606.0, 1607.0, 1607.0, 1608.0, 1606.0, 1612.0, 1615.0, 1614.0, 1613.0, 1614.0, 1613.0, 1613.0, 1612.0, 1614.0, 1614.0, 1611.0, 1612.0, 1616.0, 1616.0, 1616.0, 1613.0, 1611.0, 1613.0, 1616.0, 1613.0, 1613.0, 1612.0, 1614.0, 1613.0, 1610.0, 1607.0, 1609.0, 1606.0, 1611.0, 1610.0, 1608.0, 1608.0, 1608.0, 1606.0, 1604.0, 1607.0, 1606.0, 1610.0, 1614.0, 1614.0, 1610.0, 1607.0, 1606.0, 1607.0, 1605.0, 1604.0, 1607.0, 1610.0, 1607.0, 1607.0, 1605.0, 1604.0, 1604.0, 1606.0, 1612.0, 1613.0, 1610.0, 1605.0, 1604.0, 1608.0, 1610.0, 1611.0, 1609.0, 1607.0, 1609.0, 1610.0, 1611.0, 1611.0, 1611.0, 1610.0, 1609.0, 1609.0, 1610.0, 1605.0, 1604.0, 1610.0, 1616.0, 1613.0, 1611.0, 1609.0, 1609.0, 1610.0, 1609.0, 1611.0, 1614.0, 1614.0, 1612.0, 1608.0, 1610.0, 1615.0, 1617.0, 1616.0, 1614.0, 1615.0, 1613.0, 1612.0, 1613.0, 1614.0, 1616.0, 1615.0, 1614.0, 1607.0]
    },
    "slices": {}
  }
}