{
 "AcquisitionMatrixPE": 100,
 "AcquisitionNumber": 1,
 "AcquisitionTime": "13:43:42.527500",
 "BandwidthPerPixelPhaseEncode": 18.519,
 "BaseResolution": 100,
 "BodyPartExamined": "BRAIN",
 "ConsistencyInfo": "N4_VE11C_LATEST_20160120",
 "ConversionSoftware": "dcm2niix",
 "ConversionSoftwareVersion": "v1.0.20180622 GCC4.9.2",
 "DerivedVendorReportedEchoSpacing": 0.000539986,
 "DeviceSerialNumber": "166078",
 "DwellTime": 2.1e-06,
 "EchoTime": 0.034,
 "EchoTrainLength": 100,
 "EffectiveEchoSpacing": 0.000539986,
 "FlipAngle": 90,
 "ImageOrientationPatientDICOM": [
  1,
  -7.88483e-05,
  -0.00047179,
  -5.20551e-08,
  0.986302,
  -0.164947
 ],
 "ImageType": [
  "ORIGINAL",
  "PRIMARY",
  "M",
  "ND",
  "MOSAIC"
 ],
 "InPlanePhaseEncodingDirectionDICOM": "COL",
 "InstitutionAddress": "Street_StreetNo_Bei_Jing_District_CN_ZIP",
 "InstitutionName": "BeiJing_Normal_University",
 "InstitutionalDepartmentName": "Department",
 "MRAcquisitionType": "2D",
 "MagneticFieldStrength": 3,
 "Manufacturer": "Siemens",
 "ManufacturersModelName": "Prisma",
 "Modality": "MR",
 "MultibandAccelerationFactor": 3,
 "PartialFourier": 1,
 "PatientPosition": "HFS",
 "PercentPhaseFOV": 100,
 "PhaseEncodingDirection": "j-",
 "PhaseEncodingSteps": 100,
 "PhaseResolution": 1,
 "PixelBandwidth": 2380,
 "ProcedureStepDescription": "BNU_P2018_64CH_Zhen.ZongLei",
 "ProtocolName": "bold_100x100_s3_2x2x2_static_256",
 "PulseSequenceDetails": "%SiemensSeq%_ep2d_bold",
 "ReceiveCoilActiveElements": "HC1-7;NC1",
 "ReceiveCoilName": "HeadNeck_64",
 "ReconMatrixPE": 100,
 "RepetitionTime": 2,
 "SAR": 0.0661823,
 "ScanOptions": "FS",
 "ScanningSequence": "EP",
 "SequenceName": "_epfid2d1_100",
 "SequenceVariant": "SK",
 "SeriesDescription": "bold_100x100_s3_2x2x2_static_256",
 "SeriesNumber": 7,
 "ShimSetting": [
  -5461,
  -11491,
  -1259,
  273,
  -89,
  -184,
  -187,
  30
 ],
 "SliceThickness": 2,
 "SliceTiming": [
  1.485,
  0,
  0.99,
  0.0825,
  1.0725,
  0.165,
  1.155,
  0.2475,
  1.2375,
  0.33,
  1.32,
  0.4125,
  1.4025,
  0.5775,
  1.5675,
  0.66,
  1.65,
  0.7425,
  1.7325,
  0.825,
  1.815,
  0.9075,
  1.8975,
  0.495,
  1.485,
  0,
  0.99,
  0.0825,
  1.0725,
  0.165,
  1.155,
  0.2475,
  1.2375,
  0.33,
  1.32,
  0.4125,
  1.4025,
  0.5775,
  1.5675,
  0.66,
  1.65,
  0.7425,
  1.7325,
  0.825,
  1.815,
  0.9075,
  1.8975,
  0.495,
  1.485,
  0,
  0.99,
  0.0825,
  1.0725,
  0.165,
  1.155,
  0.2475,
  1.2375,
  0.33,
  1.32,
  0.4125,
  1.4025,
  0.5775,
  1.5675,
  0.66,
  1.65,
  0.7425,
  1.7325,
  0.825,
  1.815,
  0.9075,
  1.8975,
  0.495
 ],
 "SoftwareVersions": "syngo_MR_E11",
 "SpacingBetweenSlices": 2,
 "StationName": "AWP166078",
 "TaskName": "imagenet",
 "TotalReadoutTime": 0.0534586,
 "TxRefAmp": 216.643,
 "dcmmeta_affine": [
  [
   -1.999999761581421,
   -1.0411029904844327e-07,
   -0.000956666306592524,
   99.7325668334961
  ],
  [
   0.00015769663150422275,
   1.9726048707962036,
   -0.32989412546157837,
   -78.03262329101562
  ],
  [
   -0.0009435794781893492,
   0.32989415526390076,
   1.9726046323776245,
   -94.775634765625
  ],
  [
   0.0,
   0.0,
   0.0,
   1.0
  ]
 ],
 "dcmmeta_reorient_transform": [
  [
   0.0,
   -1.0,
   0.0,
   99.0
  ],
  [
   1.0,
   0.0,
   0.0,
   0.0
  ],
  [
   0.0,
   0.0,
   1.0,
   0.0
  ],
  [
   0.0,
   0.0,
   0.0,
   1.0
  ]
 ],
 "dcmmeta_shape": [
  100,
  100,
  72,
  256
 ],
 "dcmmeta_slice_dim": 2,
 "dcmmeta_version": 0.6,
 "global": {
  "const": {
   "AcquisitionMatrix": [
    100,
    0,
    0,
    100
   ],
   "AngioFlag": "N",
   "BitsAllocated": 16,
   "BitsStored": 12,
   "BodyPartExamined": "BRAIN",
   "Columns": 900,
   "EchoNumbers": 1,
   "EchoTime": 34.0,
   "EchoTrainLength": 100,
   "FlipAngle": 90.0,
   "HighBit": 11,
   "ImageOrientationPatient": [
    0.99999988559869,
    -7.88483171e-05,
    -0.0004717897347,
    -5.2055148e-08,
    0.98630241787436,
    -0.1649470839245
   ],
   "ImagePositionPatient": [
    -899.73242691705,
    -906.2341109322,
    70.218989161917
   ],
   "ImageType": [
    "ORIGINAL",
    "PRIMARY",
    "M",
    "ND",
    "MOSAIC"
   ],
   "ImagedNucleus": "1H",
   "ImagingFrequency": 123.257776,
   "InPlanePhaseEncodingDirection": "COL",
   "MRAcquisitionType": "2D",
   "MagneticFieldStrength": 3.0,
   "Manufacturer": "SIEMENS",
   "ManufacturerModelName": "Prisma",
   "Modality": "MR",
   "NumberOfAverages": 1.0,
   "NumberOfPhaseEncodingSteps": 100,
   "PercentPhaseFieldOfView": 100.0,
   "PercentSampling": 100.0,
   "PerformedProcedureStepStartTime": "130212.680000",
   "PhotometricInterpretation": "MONOCHROME2",
   "PixelBandwidth": 2380.0,
   "PixelRepresentation": 0,
   "PixelSpacing": [
    2.0,
    2.0
   ],
   "ProtocolName": "bold_100x100_s3_2x2x2_static_256",
   "RepetitionTime": 2000.0,
   "Rows": 900,
   "SAR": 0.06618232338754,
   "SamplesPerPixel": 1,
   "ScanOptions": "FS",
   "ScanningSequence": "EP",
   "SequenceName": "*epfid2d1_100",
   "SequenceVariant": "SK",
   "SeriesDescription": "bold_100x100_s3_2x2x2_static_256",
   "SeriesNumber": 7,
   "SeriesTime": "134345.587000",
   "SliceLocation": -80.653877856303,
   "SliceThickness": 2.0,
   "SmallestImagePixelValue": 0,
   "SoftwareVersions": "syngo MR E11",
   "SpacingBetweenSlices": 2.0000000086767,
   "SpecificCharacterSet": "ISO_IR 100",
   "StudyID": "1",
   "StudyTime": "130212.611000",
   "TransmitCoilName": "Body",
   "VariableFlipAngleFlag": "N",
   "WindowCenterWidthExplanation": "Algo1",
   "dBdt": 0.0
  },
  "slices": {}
 },
 "time": {
  "samples": {
   "AcquisitionNumber": [
    1,
    2,
    3,
    4,
    5,
    6,
    7,
    8,
    9,
    10,
    11,
    12,
    13,
    14,
    15,
    16,
    17,
    18,
    19,
    20,
    21,
    22,
    23,
    24,
    25,
    26,
    27,
    28,
    29,
    30,
    31,
    32,
    33,
    34,
    35,
    36,
    37,
    38,
    39,
    40,
    41,
    42,
    43,
    44,
    45,
    46,
    47,
    48,
    49,
    50,
    51,
    52,
    53,
    54,
    55,
    56,
    57,
    58,
    59,
    60,
    61,
    62,
    63,
    64,
    65,
    66,
    67,
    68,
    69,
    70,
    71,
    72,
    73,
    74,
    75,
    76,
    77,
    78,
    79,
    80,
    81,
    82,
    83,
    84,
    85,
    86,
    87,
    88,
    89,
    90,
    91,
    92,
    93,
    94,
    95,
    96,
    97,
    98,
    99,
    100,
    101,
    102,
    103,
    104,
    105,
    106,
    107,
    108,
    109,
    110,
    111,
    112,
    113,
    114,
    115,
    116,
    117,
    118,
    119,
    120,
    121,
    122,
    123,
    124,
    125,
    126,
    127,
    128,
    129,
    130,
    131,
    132,
    133,
    134,
    135,
    136,
    137,
    138,
    139,
    140,
    141,
    142,
    143,
    144,
    145,
    146,
    147,
    148,
    149,
    150,
    151,
    152,
    153,
    154,
    155,
    156,
    157,
    158,
    159,
    160,
    161,
    162,
    163,
    164,
    165,
    166,
    167,
    168,
    169,
    170,
    171,
    172,
    173,
    174,
    175,
    176,
    177,
    178,
    179,
    180,
    181,
    182,
    183,
    184,
    185,
    186,
    187,
    188,
    189,
    190,
    191,
    192,
    193,
    194,
    195,
    196,
    197,
    198,
    199,
    200,
    201,
    202,
    203,
    204,
    205,
    206,
    207,
    208,
    209,
    210,
    211,
    212,
    213,
    214,
    215,
    216,
    217,
    218,
    219,
    220,
    221,
    222,
    223,
    224,
    225,
    226,
    227,
    228,
    229,
    230,
    231,
    232,
    233,
    234,
    235,
    236,
    237,
    238,
    239,
    240,
    241,
    242,
    243,
    244,
    245,
    246,
    247,
    248,
    249,
    250,
    251,
    252,
    253,
    254,
    255,
    256
   ],
   "AcquisitionTime": [
    "134342.527500",
    "134344.527500",
    "134346.527500",
    "134348.527500",
    "134350.527500",
    "134352.527500",
    "134354.527500",
    "134356.527500",
    "134358.527500",
    "134400.527500",
    "134402.527500",
    "134404.527500",
    "134406.527500",
    "134408.527500",
    "134410.527500",
    "134412.527500",
    "134414.527500",
    "134416.527500",
    "134418.527500",
    "134420.527500",
    "134422.527500",
    "134424.527500",
    "134426.527500",
    "134428.527500",
    "134430.527500",
    "134432.527500",
    "134434.527500",
    "134436.527500",
    "134438.527500",
    "134440.527500",
    "134442.527500",
    "134444.527500",
    "134446.527500",
    "134448.527500",
    "134450.527500",
    "134452.527500",
    "134454.527500",
    "134456.527500",
    "134458.527500",
    "134500.527500",
    "134502.527500",
    "134504.527500",
    "134506.527500",
    "134508.527500",
    "134510.527500",
    "134512.527500",
    "134514.527500",
    "134516.527500",
    "134518.527500",
    "134520.527500",
    "134522.527500",
    "134524.527500",
    "134526.527500",
    "134528.527500",
    "134530.527500",
    "134532.527500",
    "134534.527500",
    "134536.527500",
    "134538.527500",
    "134540.527500",
    "134542.527500",
    "134544.527500",
    "134546.527500",
    "134548.527500",
    "134550.527500",
    "134552.527500",
    "134554.527500",
    "134556.527500",
    "134558.527500",
    "134600.527500",
    "134602.527500",
    "134604.527500",
    "134606.527500",
    "134608.527500",
    "134610.527500",
    "134612.527500",
    "134614.527500",
    "134616.527500",
    "134618.527500",
    "134620.527500",
    "134622.527500",
    "134624.527500",
    "134626.527500",
    "134628.527500",
    "134630.527500",
    "134632.527500",
    "134634.527500",
    "134636.527500",
    "134638.527500",
    "134640.527500",
    "134642.527500",
    "134644.527500",
    "134646.527500",
    "134648.527500",
    "134650.527500",
    "134652.527500",
    "134654.527500",
    "134656.527500",
    "134658.527500",
    "134700.527500",
    "134702.527500",
    "134704.527500",
    "134706.527500",
    "134708.527500",
    "134710.527500",
    "134712.527500",
    "134714.527500",
    "134716.527500",
    "134718.527500",
    "134720.527500",
    "134722.527500",
    "134724.527500",
    "134726.527500",
    "134728.527500",
    "134730.527500",
    "134732.527500",
    "134734.527500",
    "134736.527500",
    "134738.527500",
    "134740.527500",
    "134742.527500",
    "134744.527500",
    "134746.527500",
    "134748.527500",
    "134750.527500",
    "134752.527500",
    "134754.527500",
    "134756.527500",
    "134758.527500",
    "134800.527500",
    "134802.527500",
    "134804.527500",
    "134806.527500",
    "134808.527500",
    "134810.527500",
    "134812.527500",
    "134814.527500",
    "134816.527500",
    "134818.527500",
    "134820.527500",
    "134822.527500",
    "134824.527500",
    "134826.527500",
    "134828.527500",
    "134830.527500",
    "134832.527500",
    "134834.527500",
    "134836.527500",
    "134838.527500",
    "134840.527500",
    "134842.527500",
    "134844.527500",
    "134846.527500",
    "134848.527500",
    "134850.527500",
    "134852.527500",
    "134854.527500",
    "134856.527500",
    "134858.527500",
    "134900.527500",
    "134902.527500",
    "134904.527500",
    "134906.527500",
    "134908.527500",
    "134910.527500",
    "134912.527500",
    "134914.527500",
    "134916.527500",
    "134918.527500",
    "134920.527500",
    "134922.527500",
    "134924.527500",
    "134926.527500",
    "134928.527500",
    "134930.527500",
    "134932.527500",
    "134934.527500",
    "134936.527500",
    "134938.527500",
    "134940.527500",
    "134942.527500",
    "134944.527500",
    "134946.527500",
    "134948.527500",
    "134950.527500",
    "134952.527500",
    "134954.527500",
    "134956.527500",
    "134958.527500",
    "135000.527500",
    "135002.527500",
    "135004.527500",
    "135006.527500",
    "135008.527500",
    "135010.527500",
    "135012.527500",
    "135014.527500",
    "135016.527500",
    "135018.527500",
    "135020.527500",
    "135022.527500",
    "135024.527500",
    "135026.527500",
    "135028.527500",
    "135030.527500",
    "135032.527500",
    "135034.527500",
    "135036.527500",
    "135038.527500",
    "135040.527500",
    "135042.527500",
    "135044.527500",
    "135046.527500",
    "135048.527500",
    "135050.527500",
    "135052.527500",
    "135054.527500",
    "135056.527500",
    "135058.527500",
    "135100.527500",
    "135102.527500",
    "135104.527500",
    "135106.527500",
    "135108.527500",
    "135110.527500",
    "135112.527500",
    "135114.527500",
    "135116.527500",
    "135118.527500",
    "135120.527500",
    "135122.527500",
    "135124.527500",
    "135126.527500",
    "135128.527500",
    "135130.527500",
    "135132.527500",
    "135134.527500",
    "135136.527500",
    "135138.527500",
    "135140.527500",
    "135142.527500",
    "135144.527500",
    "135146.527500",
    "135148.527500",
    "135150.527500",
    "135152.527500",
    "135154.527500",
    "135156.527500",
    "135158.527500",
    "135200.527500",
    "135202.527500",
    "135204.527500",
    "135206.527500",
    "135208.527500",
    "135210.527500",
    "135212.527500"
   ],
   "ContentTime": [
    "134345.591000",
    "134347.086000",
    "134349.087000",
    "134351.087000",
    "134353.087000",
    "134355.087000",
    "134357.086000",
    "134359.087000",
    "134401.087000",
    "134403.087000",
    "134405.086000",
    "134407.087000",
    "134409.086000",
    "134411.086000",
    "134413.087000",
    "134415.086000",
    "134417.086000",
    "134419.086000",
    "134421.086000",
    "134423.088000",
    "134425.086000",
    "134427.086000",
    "134429.087000",
    "134431.087000",
    "134433.087000",
    "134435.086000",
    "134437.086000",
    "134439.086000",
    "134441.088000",
    "134443.086000",
    "134445.087000",
    "134447.086000",
    "134449.087000",
    "134451.087000",
    "134453.086000",
    "134455.087000",
    "134457.086000",
    "134459.088000",
    "134501.087000",
    "134503.087000",
    "134505.086000",
    "134507.087000",
    "134509.086000",
    "134510.586000",
    "134513.087000",
    "134515.086000",
    "134517.088000",
    "134519.086000",
    "134521.087000",
    "134523.087000",
    "134525.087000",
    "134527.087000",
    "134529.086000",
    "134531.086000",
    "134533.088000",
    "134535.087000",
    "134537.087000",
    "134539.086000",
    "134541.086000",
    "134543.086000",
    "134545.086000",
    "134547.086000",
    "134549.087000",
    "134551.087000",
    "134553.087000",
    "134555.087000",
    "134557.087000",
    "134559.087000",
    "134601.087000",
    "134603.086000",
    "134605.086000",
    "134607.086000",
    "134609.088000",
    "134611.087000",
    "134613.086000",
    "134615.086000",
    "134617.087000",
    "134619.086000",
    "134621.086000",
    "134623.086000",
    "134625.087000",
    "134627.088000",
    "134629.087000",
    "134631.087000",
    "134633.086000",
    "134635.086000",
    "134637.086000",
    "134639.087000",
    "134641.087000",
    "134643.087000",
    "134645.087000",
    "134647.087000",
    "134649.086000",
    "134651.087000",
    "134653.086000",
    "134655.086000",
    "134657.086000",
    "134659.087000",
    "134701.087000",
    "134703.086000",
    "134705.087000",
    "134707.086000",
    "134709.087000",
    "134711.086000",
    "134713.086000",
    "134715.086000",
    "134717.086000",
    "134719.088000",
    "134721.086000",
    "134723.087000",
    "134725.087000",
    "134727.086000",
    "134729.086000",
    "134731.087000",
    "134733.086000",
    "134735.087000",
    "134737.087000",
    "134739.087000",
    "134741.087000",
    "134743.087000",
    "134745.086000",
    "134747.086000",
    "134749.086000",
    "134751.087000",
    "134753.088000",
    "134755.087000",
    "134757.087000",
    "134759.086000",
    "134801.087000",
    "134803.086000",
    "134805.086000",
    "134807.087000",
    "134809.099000",
    "134811.087000",
    "134813.086000",
    "134815.086000",
    "134817.086000",
    "134819.087000",
    "134821.086000",
    "134823.087000",
    "134825.086000",
    "134826.587000",
    "134829.087000",
    "134831.087000",
    "134833.086000",
    "134835.087000",
    "134837.087000",
    "134839.087000",
    "134841.086000",
    "134843.086000",
    "134845.087000",
    "134847.088000",
    "134849.086000",
    "134851.086000",
    "134853.087000",
    "134855.086000",
    "134857.086000",
    "134859.086000",
    "134901.086000",
    "134903.087000",
    "134905.087000",
    "134907.087000",
    "134909.086000",
    "134911.087000",
    "134913.086000",
    "134915.087000",
    "134917.087000",
    "134919.087000",
    "134921.088000",
    "134923.087000",
    "134925.087000",
    "134927.086000",
    "134929.086000",
    "134931.086000",
    "134933.087000",
    "134935.087000",
    "134937.087000",
    "134939.087000",
    "134941.087000",
    "134943.086000",
    "134945.086000",
    "134947.087000",
    "134949.086000",
    "134951.087000",
    "134953.086000",
    "134955.088000",
    "134957.088000",
    "134959.087000",
    "135001.087000",
    "135003.087000",
    "135005.086000",
    "135007.087000",
    "135009.087000",
    "135011.086000",
    "135013.088000",
    "135015.087000",
    "135017.086000",
    "135019.087000",
    "135021.087000",
    "135023.087000",
    "135025.086000",
    "135027.087000",
    "135029.086000",
    "135031.088000",
    "135033.087000",
    "135035.086000",
    "135036.586000",
    "135039.086000",
    "135041.086000",
    "135043.087000",
    "135045.087000",
    "135047.087000",
    "135048.588000",
    "135051.087000",
    "135053.087000",
    "135055.086000",
    "135057.086000",
    "135059.087000",
    "135100.586000",
    "135103.087000",
    "135105.088000",
    "135107.088000",
    "135109.086000",
    "135111.087000",
    "135113.087000",
    "135115.086000",
    "135117.087000",
    "135119.087000",
    "135120.587000",
    "135123.087000",
    "135125.087000",
    "135127.086000",
    "135129.086000",
    "135131.087000",
    "135133.087000",
    "135135.087000",
    "135137.086000",
    "135139.086000",
    "135141.088000",
    "135143.086000",
    "135145.086000",
    "135147.087000",
    "135149.087000",
    "135151.087000",
    "135153.086000",
    "135155.086000",
    "135156.586000",
    "135159.087000",
    "135201.087000",
    "135203.086000",
    "135205.087000",
    "135207.087000",
    "135209.087000",
    "135211.087000",
    "135213.087000",
    "135214.683000"
   ],
   "InstanceCreationTime": [
    "134345.591000",
    "134347.086000",
    "134349.087000",
    "134351.087000",
    "134353.087000",
    "134355.087000",
    "134357.086000",
    "134359.087000",
    "134401.087000",
    "134403.087000",
    "134405.086000",
    "134407.087000",
    "134409.086000",
    "134411.086000",
    "134413.087000",
    "134415.086000",
    "134417.086000",
    "134419.086000",
    "134421.086000",
    "134423.088000",
    "134425.086000",
    "134427.086000",
    "134429.087000",
    "134431.087000",
    "134433.087000",
    "134435.086000",
    "134437.086000",
    "134439.086000",
    "134441.088000",
    "134443.086000",
    "134445.087000",
    "134447.086000",
    "134449.087000",
    "134451.087000",
    "134453.086000",
    "134455.087000",
    "134457.086000",
    "134459.088000",
    "134501.087000",
    "134503.087000",
    "134505.086000",
    "134507.087000",
    "134509.086000",
    "134510.586000",
    "134513.087000",
    "134515.086000",
    "134517.088000",
    "134519.086000",
    "134521.087000",
    "134523.087000",
    "134525.087000",
    "134527.087000",
    "134529.086000",
    "134531.086000",
    "134533.088000",
    "134535.087000",
    "134537.087000",
    "134539.086000",
    "134541.086000",
    "134543.086000",
    "134545.086000",
    "134547.086000",
    "134549.087000",
    "134551.087000",
    "134553.087000",
    "134555.087000",
    "134557.087000",
    "134559.087000",
    "134601.087000",
    "134603.086000",
    "134605.086000",
    "134607.086000",
    "134609.088000",
    "134611.087000",
    "134613.086000",
    "134615.086000",
    "134617.087000",
    "134619.086000",
    "134621.086000",
    "134623.086000",
    "134625.087000",
    "134627.088000",
    "134629.087000",
    "134631.087000",
    "134633.086000",
    "134635.086000",
    "134637.086000",
    "134639.087000",
    "134641.087000",
    "134643.087000",
    "134645.087000",
    "134647.087000",
    "134649.086000",
    "134651.087000",
    "134653.086000",
    "134655.086000",
    "134657.086000",
    "134659.087000",
    "134701.087000",
    "134703.086000",
    "134705.087000",
    "134707.086000",
    "134709.087000",
    "134711.086000",
    "134713.086000",
    "134715.086000",
    "134717.086000",
    "134719.088000",
    "134721.086000",
    "134723.087000",
    "134725.087000",
    "134727.086000",
    "134729.086000",
    "134731.087000",
    "134733.086000",
    "134735.087000",
    "134737.087000",
    "134739.087000",
    "134741.087000",
    "134743.087000",
    "134745.086000",
    "134747.086000",
    "134749.086000",
    "134751.087000",
    "134753.088000",
    "134755.087000",
    "134757.087000",
    "134759.086000",
    "134801.087000",
    "134803.086000",
    "134805.086000",
    "134807.087000",
    "134809.099000",
    "134811.087000",
    "134813.086000",
    "134815.086000",
    "134817.086000",
    "134819.087000",
    "134821.086000",
    "134823.087000",
    "134825.086000",
    "134826.587000",
    "134829.087000",
    "134831.087000",
    "134833.086000",
    "134835.087000",
    "134837.087000",
    "134839.087000",
    "134841.086000",
    "134843.086000",
    "134845.087000",
    "134847.088000",
    "134849.086000",
    "134851.086000",
    "134853.087000",
    "134855.086000",
    "134857.086000",
    "134859.086000",
    "134901.086000",
    "134903.087000",
    "134905.087000",
    "134907.087000",
    "134909.086000",
    "134911.087000",
    "134913.086000",
    "134915.087000",
    "134917.087000",
    "134919.087000",
    "134921.088000",
    "134923.087000",
    "134925.087000",
    "134927.086000",
    "134929.086000",
    "134931.086000",
    "134933.087000",
    "134935.087000",
    "134937.087000",
    "134939.087000",
    "134941.087000",
    "134943.086000",
    "134945.086000",
    "134947.087000",
    "134949.086000",
    "134951.087000",
    "134953.086000",
    "134955.088000",
    "134957.088000",
    "134959.087000",
    "135001.087000",
    "135003.087000",
    "135005.086000",
    "135007.087000",
    "135009.087000",
    "135011.086000",
    "135013.088000",
    "135015.087000",
    "135017.086000",
    "135019.087000",
    "135021.087000",
    "135023.087000",
    "135025.086000",
    "135027.087000",
    "135029.086000",
    "135031.088000",
    "135033.087000",
    "135035.086000",
    "135036.586000",
    "135039.086000",
    "135041.086000",
    "135043.087000",
    "135045.087000",
    "135047.087000",
    "135048.588000",
    "135051.087000",
    "135053.087000",
    "135055.086000",
    "135057.086000",
    "135059.087000",
    "135100.586000",
    "135103.087000",
    "135105.088000",
    "135107.088000",
    "135109.086000",
    "135111.087000",
    "135113.087000",
    "135115.086000",
    "135117.087000",
    "135119.087000",
    "135120.587000",
    "135123.087000",
    "135125.087000",
    "135127.086000",
    "135129.086000",
    "135131.087000",
    "135133.087000",
    "135135.087000",
    "135137.086000",
    "135139.086000",
    "135141.088000",
    "135143.086000",
    "135145.086000",
    "135147.087000",
    "135149.087000",
    "135151.087000",
    "135153.086000",
    "135155.086000",
    "135156.586000",
    "135159.087000",
    "135201.087000",
    "135203.086000",
    "135205.087000",
    "135207.087000",
    "135209.087000",
    "135211.087000",
    "135213.087000",
    "135214.683000"
   ],
   "InstanceNumber": [
    1,
    2,
    3,
    4,
    5,
    6,
    7,
    8,
    9,
    10,
    11,
    12,
    13,
    14,
    15,
    16,
    17,
    18,
    19,
    20,
    21,
    22,
    23,
    24,
    25,
    26,
    27,
    28,
    29,
    30,
    31,
    32,
    33,
    34,
    35,
    36,
    37,
    38,
    39,
    40,
    41,
    42,
    43,
    44,
    45,
    46,
    47,
    48,
    49,
    50,
    51,
    52,
    53,
    54,
    55,
    56,
    57,
    58,
    59,
    60,
    61,
    62,
    63,
    64,
    65,
    66,
    67,
    68,
    69,
    70,
    71,
    72,
    73,
    74,
    75,
    76,
    77,
    78,
    79,
    80,
    81,
    82,
    83,
    84,
    85,
    86,
    87,
    88,
    89,
    90,
    91,
    92,
    93,
    94,
    95,
    96,
    97,
    98,
    99,
    100,
    101,
    102,
    103,
    104,
    105,
    106,
    107,
    108,
    109,
    110,
    111,
    112,
    113,
    114,
    115,
    116,
    117,
    118,
    119,
    120,
    121,
    122,
    123,
    124,
    125,
    126,
    127,
    128,
    129,
    130,
    131,
    132,
    133,
    134,
    135,
    136,
    137,
    138,
    139,
    140,
    141,
    142,
    143,
    144,
    145,
    146,
    147,
    148,
    149,
    150,
    151,
    152,
    153,
    154,
    155,
    156,
    157,
    158,
    159,
    160,
    161,
    162,
    163,
    164,
    165,
    166,
    167,
    168,
    169,
    170,
    171,
    172,
    173,
    174,
    175,
    176,
    177,
    178,
    179,
    180,
    181,
    182,
    183,
    184,
    185,
    186,
    187,
    188,
    189,
    190,
    191,
    192,
    193,
    194,
    195,
    196,
    197,
    198,
    199,
    200,
    201,
    202,
    203,
    204,
    205,
    206,
    207,
    208,
    209,
    210,
    211,
    212,
    213,
    214,
    215,
    216,
    217,
    218,
    219,
    220,
    221,
    222,
    223,
    224,
    225,
    226,
    227,
    228,
    229,
    230,
    231,
    232,
    233,
    234,
    235,
    236,
    237,
    238,
    239,
    240,
    241,
    242,
    243,
    244,
    245,
    246,
    247,
    248,
    249,
    250,
    251,
    252,
    253,
    254,
    255,
    256
   ],
   "LargestImagePixelValue": [
    3287,
    3373,
    3263,
    3316,
    3261,
    3330,
    3288,
    3271,
    3238,
    3295,
    3242,
    3344,
    3273,
    3331,
    3317,
    3314,
    3310,
    3311,
    3246,
    3327,
    3293,
    3291,
    3292,
    3347,
    3328,
    3302,
    3309,
    3310,
    3323,
    3330,
    3330,
    3343,
    3332,
    3346,
    3357,
    3372,
    3340,
    3343,
    3344,
    3334,
    3306,
    3339,
    3303,
    3313,
    3323,
    3345,
    3335,
    3303,
    3335,
    3318,
    3330,
    3339,
    3313,
    3359,
    3293,
    3353,
    3322,
    3318,
    3352,
    3318,
    3352,
    3344,
    3351,
    3350,
    3356,
    3326,
    3380,
    3368,
    3330,
    3323,
    3312,
    3327,
    3342,
    3338,
    3318,
    3321,
    3334,
    3359,
    3360,
    3366,
    3316,
    3306,
    3382,
    3327,
    3311,
    3337,
    3349,
    3310,
    3348,
    3282,
    3334,
    3352,
    3364,
    3283,
    3369,
    3341,
    3332,
    3371,
    3359,
    3370,
    3369,
    3380,
    3346,
    3349,
    3347,
    3332,
    3315,
    3300,
    3312,
    3327,
    3317,
    3308,
    3347,
    3343,
    3274,
    3332,
    3340,
    3340,
    3328,
    3340,
    3304,
    3312,
    3318,
    3299,
    3351,
    3316,
    3320,
    3304,
    3336,
    3337,
    3311,
    3323,
    3325,
    3341,
    3316,
    3331,
    3330,
    3294,
    3321,
    3346,
    3344,
    3315,
    3350,
    3335,
    3341,
    3341,
    3295,
    3309,
    3284,
    3338,
    3332,
    3297,
    3359,
    3308,
    3335,
    3350,
    3278,
    3352,
    3318,
    3301,
    3291,
    3289,
    3273,
    3354,
    3336,
    3342,
    3372,
    3350,
    3384,
    3387,
    3345,
    3341,
    3336,
    3290,
    3331,
    3297,
    3331,
    3349,
    3341,
    3348,
    3324,
    3348,
    3319,
    3319,
    3323,
    3288,
    3286,
    3277,
    3330,
    3301,
    3344,
    3302,
    3356,
    3294,
    3292,
    3314,
    3289,
    3305,
    3314,
    3305,
    3317,
    3291,
    3315,
    3314,
    3306,
    3329,
    3322,
    3296,
    3342,
    3314,
    3318,
    3283,
    3347,
    3352,
    3326,
    3362,
    3315,
    3331,
    3343,
    3459,
    3344,
    3324,
    3362,
    3339,
    3322,
    3324,
    3310,
    3305,
    3305,
    3315,
    3315,
    3344,
    3299,
    3348,
    3320,
    3331,
    3317,
    3306,
    3346,
    3333,
    3312,
    3315,
    3333,
    3347,
    3358,
    3351,
    3335,
    3377,
    3337,
    3358,
    3295,
    3328,
    3281,
    3284,
    3331,
    3305
   ],
   "WindowCenter": [
    792.0,
    789.0,
    787.0,
    786.0,
    786.0,
    785.0,
    785.0,
    784.0,
    784.0,
    786.0,
    786.0,
    786.0,
    786.0,
    786.0,
    787.0,
    786.0,
    785.0,
    784.0,
    783.0,
    784.0,
    784.0,
    784.0,
    785.0,
    786.0,
    786.0,
    786.0,
    787.0,
    786.0,
    785.0,
    785.0,
    786.0,
    786.0,
    786.0,
    787.0,
    789.0,
    789.0,
    789.0,
    789.0,
    790.0,
    792.0,
    791.0,
    792.0,
    791.0,
    791.0,
    791.0,
    792.0,
    794.0,
    795.0,
    796.0,
    796.0,
    793.0,
    793.0,
    793.0,
    793.0,
    792.0,
    793.0,
    792.0,
    790.0,
    791.0,
    790.0,
    791.0,
    790.0,
    790.0,
    790.0,
    790.0,
    789.0,
    790.0,
    792.0,
    791.0,
    792.0,
    792.0,
    792.0,
    792.0,
    791.0,
    791.0,
    791.0,
    792.0,
    793.0,
    793.0,
    792.0,
    790.0,
    790.0,
    790.0,
    791.0,
    791.0,
    791.0,
    790.0,
    791.0,
    791.0,
    787.0,
    792.0,
    791.0,
    790.0,
    789.0,
    789.0,
    791.0,
    791.0,
    791.0,
    790.0,
    791.0,
    793.0,
    791.0,
    790.0,
    789.0,
    788.0,
    788.0,
    788.0,
    788.0,
    790.0,
