{
 "AcquisitionMatrixPE": 100,
 "AcquisitionNumber": 1,
 "AcquisitionTime": "13:14:26.592500",
 "BandwidthPerPixelPhaseEncode": 18.519,
 "BaseResolution": 100,
 "BodyPartExamined": "BRAIN",
 "ConsistencyInfo": "N4_VE11C_LATEST_20160120",
 "ConversionSoftware": "dcm2niix",
 "ConversionSoftwareVersion": "v1.0.20180622 GCC4.9.2",
 "DerivedVendorReportedEchoSpacing": 0.000539986,
 "DeviceSerialNumber": "166078",
 "DwellTime": 2.1e-06,
 "EchoTime": 0.034,
 "EchoTrainLength": 100,
 "EffectiveEchoSpacing": 0.000539986,
 "FlipAngle": 90,
 "ImageOrientationPatientDICOM": [
  1,
  -7.88483e-05,
  -0.00047179,
  -5.20551e-08,
  0.986302,
  -0.164947
 ],
 "ImageType": [
  "ORIGINAL",
  "PRIMARY",
  "M",
  "ND",
  "MOSAIC"
 ],
 "InPlanePhaseEncodingDirectionDICOM": "COL",
 "InstitutionAddress": "Street_StreetNo_Bei_Jing_District_CN_ZIP",
 "InstitutionName": "BeiJing_Normal_University",
 "InstitutionalDepartmentName": "Department",
 "MRAcquisitionType": "2D",
 "MagneticFieldStrength": 3,
 "Manufacturer": "Siemens",
 "ManufacturersModelName": "Prisma",
 "Modality": "MR",
 "MultibandAccelerationFactor": 3,
 "PartialFourier": 1,
 "PatientPosition": "HFS",
 "PercentPhaseFOV": 100,
 "PhaseEncodingDirection": "j-",
 "PhaseEncodingSteps": 100,
 "PhaseResolution": 1,
 "PixelBandwidth": 2380,
 "ProcedureStepDescription": "BNU_P2018_64CH_Zhen.ZongLei",
 "ProtocolName": "bold_100x100_s3_2x2x2_static_256",
 "PulseSequenceDetails": "%SiemensSeq%_ep2d_bold",
 "ReceiveCoilActiveElements": "HC1-7;NC1",
 "ReceiveCoilName": "HeadNeck_64",
 "ReconMatrixPE": 100,
 "RepetitionTime": 2,
 "SAR": 0.0661823,
 "ScanOptions": "FS",
 "ScanningSequence": "EP",
 "SequenceName": "_epfid2d1_100",
 "SequenceVariant": "SK",
 "SeriesDescription": "bold_100x100_s3_2x2x2_static_256",
 "SeriesNumber": 4,
 "ShimSetting": [
  -5461,
  -11491,
  -1259,
  273,
  -89,
  -184,
  -187,
  30
 ],
 "SliceThickness": 2,
 "SliceTiming": [
  1.485,
  0,
  0.99,
  0.0825,
  1.0725,
  0.165,
  1.155,
  0.2475,
  1.2375,
  0.33,
  1.32,
  0.4125,
  1.4025,
  0.5775,
  1.5675,
  0.66,
  1.65,
  0.7425,
  1.7325,
  0.825,
  1.815,
  0.9075,
  1.8975,
  0.495,
  1.485,
  0,
  0.99,
  0.0825,
  1.0725,
  0.165,
  1.155,
  0.2475,
  1.2375,
  0.33,
  1.32,
  0.4125,
  1.4025,
  0.5775,
  1.5675,
  0.66,
  1.65,
  0.7425,
  1.7325,
  0.825,
  1.815,
  0.9075,
  1.8975,
  0.495,
  1.485,
  0,
  0.99,
  0.0825,
  1.0725,
  0.165,
  1.155,
  0.2475,
  1.2375,
  0.33,
  1.32,
  0.4125,
  1.4025,
  0.5775,
  1.5675,
  0.66,
  1.65,
  0.7425,
  1.7325,
  0.825,
  1.815,
  0.9075,
  1.8975,
  0.495
 ],
 "SoftwareVersions": "syngo_MR_E11",
 "SpacingBetweenSlices": 2,
 "StationName": "AWP166078",
 "TaskName": "imagenet",
 "TotalReadoutTime": 0.0534586,
 "TxRefAmp": 216.643,
 "dcmmeta_affine": [
  [
   -1.999999761581421,
   -1.0411029904844327e-07,
   -0.000956666306592524,
   99.7325668334961
  ],
  [
   0.00015769663150422275,
   1.9726048707962036,
   -0.32989412546157837,
   -78.03262329101562
  ],
  [
   -0.0009435794781893492,
   0.32989415526390076,
   1.9726046323776245,
   -94.775634765625
  ],
  [
   0.0,
   0.0,
   0.0,
   1.0
  ]
 ],
 "dcmmeta_reorient_transform": [
  [
   0.0,
   -1.0,
   0.0,
   99.0
  ],
  [
   1.0,
   0.0,
   0.0,
   0.0
  ],
  [
   0.0,
   0.0,
   1.0,
   0.0
  ],
  [
   0.0,
   0.0,
   0.0,
   1.0
  ]
 ],
 "dcmmeta_shape": [
  100,
  100,
  72,
  256
 ],
 "dcmmeta_slice_dim": 2,
 "dcmmeta_version": 0.6,
 "global": {
  "const": {
   "AcquisitionMatrix": [
    100,
    0,
    0,
    100
   ],
   "AngioFlag": "N",
   "BitsAllocated": 16,
   "BitsStored": 12,
   "BodyPartExamined": "BRAIN",
   "Columns": 900,
   "EchoNumbers": 1,
   "EchoTime": 34.0,
   "EchoTrainLength": 100,
   "FlipAngle": 90.0,
   "HighBit": 11,
   "ImageOrientationPatient": [
    0.99999988559869,
    -7.88483171e-05,
    -0.0004717897347,
    -5.2055148e-08,
    0.98630241787436,
    -0.1649470839245
   ],
   "ImagePositionPatient": [
    -899.73242691705,
    -906.2341109322,
    70.218989161917
   ],
   "ImageType": [
    "ORIGINAL",
    "PRIMARY",
    "M",
    "ND",
    "MOSAIC"
   ],
   "ImagedNucleus": "1H",
   "ImagingFrequency": 123.257758,
   "InPlanePhaseEncodingDirection": "COL",
   "MRAcquisitionType": "2D",
   "MagneticFieldStrength": 3.0,
   "Manufacturer": "SIEMENS",
   "ManufacturerModelName": "Prisma",
   "Modality": "MR",
   "NumberOfAverages": 1.0,
   "NumberOfPhaseEncodingSteps": 100,
   "PercentPhaseFieldOfView": 100.0,
   "PercentSampling": 100.0,
   "PerformedProcedureStepStartTime": "130212.680000",
   "PhotometricInterpretation": "MONOCHROME2",
   "PixelBandwidth": 2380.0,
   "PixelRepresentation": 0,
   "PixelSpacing": [
    2.0,
    2.0
   ],
   "ProtocolName": "bold_100x100_s3_2x2x2_static_256",
   "RepetitionTime": 2000.0,
   "Rows": 900,
   "SAR": 0.06618232338754,
   "SamplesPerPixel": 1,
   "ScanOptions": "FS",
   "ScanningSequence": "EP",
   "SequenceName": "*epfid2d1_100",
   "SequenceVariant": "SK",
   "SeriesDescription": "bold_100x100_s3_2x2x2_static_256",
   "SeriesNumber": 4,
   "SeriesTime": "131428.888000",
   "SliceLocation": -80.653877856303,
   "SliceThickness": 2.0,
   "SmallestImagePixelValue": 0,
   "SoftwareVersions": "syngo MR E11",
   "SpacingBetweenSlices": 2.0000000086767,
   "SpecificCharacterSet": "ISO_IR 100",
   "StudyID": "1",
   "StudyTime": "130212.611000",
   "TransmitCoilName": "Body",
   "VariableFlipAngleFlag": "N",
   "WindowCenterWidthExplanation": "Algo1",
   "dBdt": 0.0
  },
  "slices": {}
 },
 "time": {
  "samples": {
   "AcquisitionNumber": [
    1,
    2,
    3,
    4,
    5,
    6,
    7,
    8,
    9,
    10,
    11,
    12,
    13,
    14,
    15,
    16,
    17,
    18,
    19,
    20,
    21,
    22,
    23,
    24,
    25,
    26,
    27,
    28,
    29,
    30,
    31,
    32,
    33,
    34,
    35,
    36,
    37,
    38,
    39,
    40,
    41,
    42,
    43,
    44,
    45,
    46,
    47,
    48,
    49,
    50,
    51,
    52,
    53,
    54,
    55,
    56,
    57,
    58,
    59,
    60,
    61,
    62,
    63,
    64,
    65,
    66,
    67,
    68,
    69,
    70,
    71,
    72,
    73,
    74,
    75,
    76,
    77,
    78,
    79,
    80,
    81,
    82,
    83,
    84,
    85,
    86,
    87,
    88,
    89,
    90,
    91,
    92,
    93,
    94,
    95,
    96,
    97,
    98,
    99,
    100,
    101,
    102,
    103,
    104,
    105,
    106,
    107,
    108,
    109,
    110,
    111,
    112,
    113,
    114,
    115,
    116,
    117,
    118,
    119,
    120,
    121,
    122,
    123,
    124,
    125,
    126,
    127,
    128,
    129,
    130,
    131,
    132,
    133,
    134,
    135,
    136,
    137,
    138,
    139,
    140,
    141,
    142,
    143,
    144,
    145,
    146,
    147,
    148,
    149,
    150,
    151,
    152,
    153,
    154,
    155,
    156,
    157,
    158,
    159,
    160,
    161,
    162,
    163,
    164,
    165,
    166,
    167,
    168,
    169,
    170,
    171,
    172,
    173,
    174,
    175,
    176,
    177,
    178,
    179,
    180,
    181,
    182,
    183,
    184,
    185,
    186,
    187,
    188,
    189,
    190,
    191,
    192,
    193,
    194,
    195,
    196,
    197,
    198,
    199,
    200,
    201,
    202,
    203,
    204,
    205,
    206,
    207,
    208,
    209,
    210,
    211,
    212,
    213,
    214,
    215,
    216,
    217,
    218,
    219,
    220,
    221,
    222,
    223,
    224,
    225,
    226,
    227,
    228,
    229,
    230,
    231,
    232,
    233,
    234,
    235,
    236,
    237,
    238,
    239,
    240,
    241,
    242,
    243,
    244,
    245,
    246,
    247,
    248,
    249,
    250,
    251,
    252,
    253,
    254,
    255,
    256
   ],
   "AcquisitionTime": [
    "131426.592500",
    "131428.592500",
    "131430.592500",
    "131432.592500",
    "131434.592500",
    "131436.592500",
    "131438.592500",
    "131440.592500",
    "131442.592500",
    "131444.592500",
    "131446.592500",
    "131448.592500",
    "131450.592500",
    "131452.592500",
    "131454.592500",
    "131456.592500",
    "131458.592500",
    "131500.592500",
    "131502.592500",
    "131504.592500",
    "131506.592500",
    "131508.592500",
    "131510.592500",
    "131512.592500",
    "131514.592500",
    "131516.592500",
    "131518.592500",
    "131520.592500",
    "131522.592500",
    "131524.592500",
    "131526.592500",
    "131528.592500",
    "131530.592500",
    "131532.592500",
    "131534.592500",
    "131536.592500",
    "131538.592500",
    "131540.592500",
    "131542.592500",
    "131544.592500",
    "131546.592500",
    "131548.592500",
    "131550.592500",
    "131552.592500",
    "131554.592500",
    "131556.592500",
    "131558.592500",
    "131600.592500",
    "131602.592500",
    "131604.592500",
    "131606.592500",
    "131608.592500",
    "131610.592500",
    "131612.592500",
    "131614.592500",
    "131616.592500",
    "131618.592500",
    "131620.592500",
    "131622.592500",
    "131624.592500",
    "131626.592500",
    "131628.592500",
    "131630.592500",
    "131632.592500",
    "131634.592500",
    "131636.592500",
    "131638.592500",
    "131640.592500",
    "131642.592500",
    "131644.592500",
    "131646.592500",
    "131648.592500",
    "131650.592500",
    "131652.592500",
    "131654.592500",
    "131656.592500",
    "131658.592500",
    "131700.592500",
    "131702.592500",
    "131704.592500",
    "131706.592500",
    "131708.592500",
    "131710.592500",
    "131712.592500",
    "131714.592500",
    "131716.592500",
    "131718.592500",
    "131720.592500",
    "131722.592500",
    "131724.592500",
    "131726.592500",
    "131728.592500",
    "131730.592500",
    "131732.592500",
    "131734.592500",
    "131736.592500",
    "131738.592500",
    "131740.592500",
    "131742.592500",
    "131744.592500",
    "131746.592500",
    "131748.592500",
    "131750.592500",
    "131752.592500",
    "131754.592500",
    "131756.592500",
    "131758.592500",
    "131800.592500",
    "131802.592500",
    "131804.592500",
    "131806.592500",
    "131808.592500",
    "131810.592500",
    "131812.592500",
    "131814.592500",
    "131816.592500",
    "131818.592500",
    "131820.592500",
    "131822.592500",
    "131824.592500",
    "131826.592500",
    "131828.592500",
    "131830.592500",
    "131832.592500",
    "131834.592500",
    "131836.592500",
    "131838.592500",
    "131840.592500",
    "131842.592500",
    "131844.592500",
    "131846.592500",
    "131848.592500",
    "131850.592500",
    "131852.592500",
    "131854.592500",
    "131856.592500",
    "131858.592500",
    "131900.592500",
    "131902.592500",
    "131904.592500",
    "131906.592500",
    "131908.592500",
    "131910.592500",
    "131912.592500",
    "131914.592500",
    "131916.592500",
    "131918.592500",
    "131920.592500",
    "131922.592500",
    "131924.592500",
    "131926.592500",
    "131928.592500",
    "131930.592500",
    "131932.592500",
    "131934.592500",
    "131936.592500",
    "131938.592500",
    "131940.592500",
    "131942.592500",
    "131944.592500",
    "131946.592500",
    "131948.592500",
    "131950.592500",
    "131952.592500",
    "131954.592500",
    "131956.592500",
    "131958.592500",
    "132000.592500",
    "132002.592500",
    "132004.592500",
    "132006.592500",
    "132008.592500",
    "132010.592500",
    "132012.592500",
    "132014.592500",
    "132016.592500",
    "132018.592500",
    "132020.592500",
    "132022.592500",
    "132024.592500",
    "132026.592500",
    "132028.592500",
    "132030.592500",
    "132032.592500",
    "132034.592500",
    "132036.592500",
    "132038.592500",
    "132040.592500",
    "132042.592500",
    "132044.592500",
    "132046.592500",
    "132048.592500",
    "132050.592500",
    "132052.592500",
    "132054.592500",
    "132056.592500",
    "132058.592500",
    "132100.592500",
    "132102.592500",
    "132104.592500",
    "132106.592500",
    "132108.592500",
    "132110.592500",
    "132112.592500",
    "132114.592500",
    "132116.592500",
    "132118.592500",
    "132120.592500",
    "132122.592500",
    "132124.592500",
    "132126.592500",
    "132128.592500",
    "132130.592500",
    "132132.592500",
    "132134.592500",
    "132136.592500",
    "132138.592500",
    "132140.592500",
    "132142.592500",
    "132144.592500",
    "132146.592500",
    "132148.592500",
    "132150.592500",
    "132152.592500",
    "132154.592500",
    "132156.592500",
    "132158.592500",
    "132200.592500",
    "132202.592500",
    "132204.592500",
    "132206.592500",
    "132208.592500",
    "132210.592500",
    "132212.592500",
    "132214.592500",
    "132216.592500",
    "132218.592500",
    "132220.592500",
    "132222.592500",
    "132224.592500",
    "132226.592500",
    "132228.592500",
    "132230.592500",
    "132232.592500",
    "132234.592500",
    "132236.592500",
    "132238.592500",
    "132240.592500",
    "132242.592500",
    "132244.592500",
    "132246.592500",
    "132248.592500",
    "132250.592500",
    "132252.592500",
    "132254.592500",
    "132256.592500"
   ],
   "ContentTime": [
    "131428.891000",
    "131430.387000",
    "131432.387000",
    "131434.387000",
    "131436.385000",
    "131438.385000",
    "131440.386000",
    "131442.387000",
    "131444.386000",
    "131446.387000",
    "131448.386000",
    "131450.387000",
    "131452.385000",
    "131454.385000",
    "131456.386000",
    "131458.387000",
    "131500.387000",
    "131502.386000",
    "131504.387000",
    "131506.386000",
    "131508.387000",
    "131510.386000",
    "131512.386000",
    "131514.386000",
    "131516.387000",
    "131518.386000",
    "131520.386000",
    "131522.387000",
    "131524.386000",
    "131526.386000",
    "131528.386000",
    "131530.385000",
    "131532.387000",
    "131534.386000",
    "131536.387000",
    "131538.386000",
    "131540.386000",
    "131542.386000",
    "131544.386000",
    "131546.386000",
    "131548.386000",
    "131550.387000",
    "131552.387000",
    "131554.387000",
    "131556.387000",
    "131558.386000",
    "131600.387000",
    "131602.386000",
    "131604.386000",
    "131606.385000",
    "131608.387000",
    "131610.387000",
    "131612.387000",
    "131614.387000",
    "131616.387000",
    "131618.387000",
    "131620.386000",
    "131622.386000",
    "131624.387000",
    "131626.387000",
    "131628.387000",
    "131630.386000",
    "131632.387000",
    "131634.386000",
    "131636.386000",
    "131638.386000",
    "131640.386000",
    "131642.386000",
    "131644.387000",
    "131646.387000",
    "131648.386000",
    "131650.386000",
    "131652.387000",
    "131654.387000",
    "131656.386000",
    "131658.386000",
    "131700.387000",
    "131702.386000",
    "131704.387000",
    "131706.387000",
    "131708.386000",
    "131710.387000",
    "131712.385000",
    "131714.386000",
    "131716.385000",
    "131718.386000",
    "131720.387000",
    "131722.386000",
    "131724.387000",
    "131726.386000",
    "131728.386000",
    "131730.386000",
    "131732.386000",
    "131734.386000",
    "131736.386000",
    "131738.387000",
    "131740.387000",
    "131742.386000",
    "131744.386000",
    "131746.386000",
    "131748.385000",
    "131750.385000",
    "131752.387000",
    "131754.386000",
    "131756.386000",
    "131758.387000",
    "131800.386000",
    "131802.387000",
    "131804.387000",
    "131806.385000",
    "131808.385000",
    "131810.387000",
    "131812.386000",
    "131814.386000",
    "131816.386000",
    "131818.386000",
    "131820.387000",
    "131822.386000",
    "131824.386000",
    "131826.386000",
    "131828.387000",
    "131830.386000",
    "131832.386000",
    "131834.386000",
    "131836.387000",
    "131838.387000",
    "131840.386000",
    "131842.386000",
    "131844.387000",
    "131846.387000",
    "131848.386000",
    "131850.386000",
    "131852.387000",
    "131854.386000",
    "131856.387000",
    "131858.386000",
    "131900.386000",
    "131902.387000",
    "131904.387000",
    "131906.386000",
    "131908.386000",
    "131910.386000",
    "131912.386000",
    "131914.387000",
    "131916.386000",
    "131918.386000",
    "131920.386000",
    "131922.387000",
    "131924.386000",
    "131926.386000",
    "131928.387000",
    "131930.386000",
    "131932.386000",
    "131934.386000",
    "131936.386000",
    "131938.387000",
    "131940.386000",
    "131942.386000",
    "131944.386000",
    "131946.386000",
    "131948.387000",
    "131950.386000",
    "131952.386000",
    "131954.386000",
    "131956.386000",
    "131958.387000",
    "132000.386000",
    "132002.387000",
    "132004.386000",
    "132006.386000",
    "132008.386000",
    "132010.385000",
    "132012.387000",
    "132014.387000",
    "132016.386000",
    "132018.387000",
    "132020.387000",
    "132022.386000",
    "132024.386000",
    "132026.386000",
    "132028.385000",
    "132030.386000",
    "132032.387000",
    "132034.387000",
    "132036.386000",
    "132038.387000",
    "132040.386000",
    "132042.386000",
    "132044.386000",
    "132046.386000",
    "132048.387000",
    "132050.386000",
    "132052.386000",
    "132054.387000",
    "132056.386000",
    "132058.386000",
    "132100.385000",
    "132102.385000",
    "132104.386000",
    "132106.387000",
    "132108.387000",
    "132110.387000",
    "132112.386000",
    "132114.387000",
    "132116.386000",
    "132118.385000",
    "132120.386000",
    "132122.387000",
    "132124.387000",
    "132126.387000",
    "132128.386000",
    "132130.387000",
    "132132.387000",
    "132134.386000",
    "132136.386000",
    "132138.385000",
    "132140.387000",
    "132142.387000",
    "132144.387000",
    "132146.387000",
    "132148.386000",
    "132150.386000",
    "132152.385000",
    "132154.385000",
    "132156.386000",
    "132158.387000",
    "132200.387000",
    "132202.386000",
    "132204.386000",
    "132206.386000",
    "132208.386000",
    "132210.386000",
    "132212.386000",
    "132214.387000",
    "132216.386000",
    "132218.387000",
    "132220.387000",
    "132222.386000",
    "132224.386000",
    "132226.387000",
    "132228.386000",
    "132230.386000",
    "132232.386000",
    "132234.387000",
    "132236.387000",
    "132238.387000",
    "132240.387000",
    "132242.386000",
    "132244.386000",
    "132246.385000",
    "132248.385000",
    "132250.387000",
    "132252.387000",
    "132254.400000",
    "132256.386000",
    "132258.004000"
   ],
   "InstanceCreationTime": [
    "131428.891000",
    "131430.387000",
    "131432.387000",
    "131434.387000",
    "131436.385000",
    "131438.385000",
    "131440.386000",
    "131442.387000",
    "131444.386000",
    "131446.387000",
    "131448.386000",
    "131450.387000",
    "131452.385000",
    "131454.385000",
    "131456.386000",
    "131458.387000",
    "131500.387000",
    "131502.386000",
    "131504.387000",
    "131506.386000",
    "131508.387000",
    "131510.386000",
    "131512.386000",
    "131514.386000",
    "131516.387000",
    "131518.386000",
    "131520.386000",
    "131522.387000",
    "131524.386000",
    "131526.386000",
    "131528.386000",
    "131530.385000",
    "131532.387000",
    "131534.386000",
    "131536.387000",
    "131538.386000",
    "131540.386000",
    "131542.386000",
    "131544.386000",
    "131546.386000",
    "131548.386000",
    "131550.387000",
    "131552.387000",
    "131554.387000",
    "131556.387000",
    "131558.386000",
    "131600.387000",
    "131602.386000",
    "131604.386000",
    "131606.385000",
    "131608.387000",
    "131610.387000",
    "131612.387000",
    "131614.387000",
    "131616.387000",
    "131618.387000",
    "131620.386000",
    "131622.386000",
    "131624.387000",
    "131626.387000",
    "131628.387000",
    "131630.386000",
    "131632.387000",
    "131634.386000",
    "131636.386000",
    "131638.386000",
    "131640.386000",
    "131642.386000",
    "131644.387000",
    "131646.387000",
    "131648.386000",
    "131650.386000",
    "131652.387000",
    "131654.387000",
    "131656.386000",
    "131658.386000",
    "131700.387000",
    "131702.386000",
    "131704.387000",
    "131706.387000",
    "131708.386000",
    "131710.387000",
    "131712.385000",
    "131714.386000",
    "131716.385000",
    "131718.386000",
    "131720.387000",
    "131722.386000",
    "131724.387000",
    "131726.386000",
    "131728.386000",
    "131730.386000",
    "131732.386000",
    "131734.386000",
    "131736.386000",
    "131738.387000",
    "131740.387000",
    "131742.386000",
    "131744.386000",
    "131746.386000",
    "131748.385000",
    "131750.385000",
    "131752.387000",
    "131754.386000",
    "131756.386000",
    "131758.387000",
    "131800.386000",
    "131802.387000",
    "131804.387000",
    "131806.385000",
    "131808.385000",
    "131810.387000",
    "131812.386000",
    "131814.386000",
    "131816.386000",
    "131818.386000",
    "131820.387000",
    "131822.386000",
    "131824.386000",
    "131826.386000",
    "131828.387000",
    "131830.386000",
    "131832.386000",
    "131834.386000",
    "131836.387000",
    "131838.387000",
    "131840.386000",
    "131842.386000",
    "131844.387000",
    "131846.387000",
    "131848.386000",
    "131850.386000",
    "131852.387000",
    "131854.386000",
    "131856.387000",
    "131858.386000",
    "131900.386000",
    "131902.387000",
    "131904.387000",
    "131906.386000",
    "131908.386000",
    "131910.386000",
    "131912.386000",
    "131914.387000",
    "131916.386000",
    "131918.386000",
    "131920.386000",
    "131922.387000",
    "131924.386000",
    "131926.386000",
    "131928.387000",
    "131930.386000",
    "131932.386000",
    "131934.386000",
    "131936.386000",
    "131938.387000",
    "131940.386000",
    "131942.386000",
    "131944.386000",
    "131946.386000",
    "131948.387000",
    "131950.386000",
    "131952.386000",
    "131954.386000",
    "131956.386000",
    "131958.387000",
    "132000.386000",
    "132002.387000",
    "132004.386000",
    "132006.386000",
    "132008.386000",
    "132010.385000",
    "132012.387000",
    "132014.387000",
    "132016.386000",
    "132018.387000",
    "132020.387000",
    "132022.386000",
    "132024.386000",
    "132026.386000",
    "132028.385000",
    "132030.386000",
    "132032.387000",
    "132034.387000",
    "132036.386000",
    "132038.387000",
    "132040.386000",
    "132042.386000",
    "132044.386000",
    "132046.386000",
    "132048.387000",
    "132050.386000",
    "132052.386000",
    "132054.387000",
    "132056.386000",
    "132058.386000",
    "132100.385000",
    "132102.385000",
    "132104.386000",
    "132106.387000",
    "132108.387000",
    "132110.387000",
    "132112.386000",
    "132114.387000",
    "132116.386000",
    "132118.385000",
    "132120.386000",
    "132122.387000",
    "132124.387000",
    "132126.387000",
    "132128.386000",
    "132130.387000",
    "132132.387000",
    "132134.386000",
    "132136.386000",
    "132138.385000",
    "132140.387000",
    "132142.387000",
    "132144.387000",
    "132146.387000",
    "132148.386000",
    "132150.386000",
    "132152.385000",
    "132154.385000",
    "132156.386000",
    "132158.387000",
    "132200.387000",
    "132202.386000",
    "132204.386000",
    "132206.386000",
    "132208.386000",
    "132210.386000",
    "132212.386000",
    "132214.387000",
    "132216.386000",
    "132218.387000",
    "132220.387000",
    "132222.386000",
    "132224.386000",
    "132226.387000",
    "132228.386000",
    "132230.386000",
    "132232.386000",
    "132234.387000",
    "132236.387000",
    "132238.387000",
    "132240.387000",
    "132242.386000",
    "132244.386000",
    "132246.385000",
    "132248.385000",
    "132250.387000",
    "132252.387000",
    "132254.400000",
    "132256.386000",
    "132258.004000"
   ],
   "InstanceNumber": [
    1,
    2,
    3,
    4,
    5,
    6,
    7,
    8,
    9,
    10,
    11,
    12,
    13,
    14,
    15,
    16,
    17,
    18,
    19,
    20,
    21,
    22,
    23,
    24,
    25,
    26,
    27,
    28,
    29,
    30,
    31,
    32,
    33,
    34,
    35,
    36,
    37,
    38,
    39,
    40,
    41,
    42,
    43,
    44,
    45,
    46,
    47,
    48,
    49,
    50,
    51,
    52,
    53,
    54,
    55,
    56,
    57,
    58,
    59,
    60,
    61,
    62,
    63,
    64,
    65,
    66,
    67,
    68,
    69,
    70,
    71,
    72,
    73,
    74,
    75,
    76,
    77,
    78,
    79,
    80,
    81,
    82,
    83,
    84,
    85,
    86,
    87,
    88,
    89,
    90,
    91,
    92,
    93,
    94,
    95,
    96,
    97,
    98,
    99,
    100,
    101,
    102,
    103,
    104,
    105,
    106,
    107,
    108,
    109,
    110,
    111,
    112,
    113,
    114,
    115,
    116,
    117,
    118,
    119,
    120,
    121,
    122,
    123,
    124,
    125,
    126,
    127,
    128,
    129,
    130,
    131,
    132,
    133,
    134,
    135,
    136,
    137,
    138,
    139,
    140,
    141,
    142,
    143,
    144,
    145,
    146,
    147,
    148,
    149,
    150,
    151,
    152,
    153,
    154,
    155,
    156,
    157,
    158,
    159,
    160,
    161,
    162,
    163,
    164,
    165,
    166,
    167,
    168,
    169,
    170,
    171,
    172,
    173,
    174,
    175,
    176,
    177,
    178,
    179,
    180,
    181,
    182,
    183,
    184,
    185,
    186,
    187,
    188,
    189,
    190,
    191,
    192,
    193,
    194,
    195,
    196,
    197,
    198,
    199,
    200,
    201,
    202,
    203,
    204,
    205,
    206,
    207,
    208,
    209,
    210,
    211,
    212,
    213,
    214,
    215,
    216,
    217,
    218,
    219,
    220,
    221,
    222,
    223,
    224,
    225,
    226,
    227,
    228,
    229,
    230,
    231,
    232,
    233,
    234,
    235,
    236,
    237,
    238,
    239,
    240,
    241,
    242,
    243,
    244,
    245,
    246,
    247,
    248,
    249,
    250,
    251,
    252,
    253,
    254,
    255,
    256
   ],
   "LargestImagePixelValue": [
    3333,
    3276,
    3240,
    3233,
    3246,
    3230,
    3213,
    3212,
    3195,
    3216,
    3204,
    3202,
    3226,
    3229,
    3211,
    3185,
    3229,
    3209,
    3221,
    3254,
    3261,
    3261,
    3261,
    3213,
    3245,
    3222,
    3232,
    3231,
    3237,
    3184,
    3205,
    3244,
    3225,
    3260,
    3267,
    3233,
    3219,
    3226,
    3250,
    3258,
    3218,
    3265,
    3220,
    3239,
    3236,
    3243,
    3233,
    3236,
    3277,
    3216,
    3230,
    3254,
    3230,
    3235,
    3219,
    3236,
    3260,
    3262,
    3250,
    3230,
    3235,
    3256,
    3252,
    3215,
    3236,
    3222,
    3228,
    3274,
    3299,
    3231,
    3263,
    3287,
    3286,
    3259,
    3240,
    3238,
    3258,
    3249,
    3224,
    3267,
    3257,
    3283,
    3253,
    3282,
    3261,
    3303,
    3251,
    3263,
    3255,
    3297,
    3260,
    3262,
    3289,
    3290,
    3271,
    3268,
    3280,
    3285,
    3286,
    3260,
    3276,
    3263,
    3262,
    3260,
    3264,
    3288,
    3256,
    3260,
    3270,
    3269,
    3257,
    3265,
    3269,
    3248,
    3292,
    3245,
    3290,
    3316,
    3291,
    3289,
    3289,
    3272,
    3243,
    3290,
    3249,
    3288,
    3296,
    3264,
    3294,
    3293,
    3294,
    3354,
    3304,
    3308,
    3326,
    3311,
    3291,
    3312,
    3326,
    3306,
    3287,
    3331,
    3257,
    3304,
    3306,
    3321,
    3331,
    3302,
    3349,
    3328,
    3362,
    3331,
    3324,
    3322,
    3302,
    3330,
    3308,
    3356,
    3317,
    3307,
    3296,
    3304,
    3325,
    3309,
    3298,
    3299,
    3301,
    3304,
    3292,
    3292,
    3308,
    3309,
    3279,
    3322,
    3328,
    3310,
    3295,
    3318,
    3300,
    3330,
    3322,
    3351,
    3307,
    3320,
    3293,
    3285,
    3320,
    3345,
    3334,
    3339,
    3349,
    3370,
    3297,
    3337,
    3328,
    3333,
    3308,
    3329,
    3312,
    3339,
    3300,
    3351,
    3322,
    3339,
    3312,
    3346,
    3313,
    3357,
    3391,
    3353,
    3391,
    3335,
    3364,
    3315,
    3355,
    3347,
    3343,
    3365,
    3307,
    3321,
    3317,
    3328,
    3358,
    3333,
    3315,
    3326,
    3319,
    3390,
    3286,
    3299,
    3315,
    3301,
    3277,
    3286,
    3292,
    3297,
    3289,
    3271,
    3272,
    3325,
    3312,
    3327,
    3279,
    3331,
    3324,
    3355,
    3354,
    3304,
    3335,
    3318,
    3363,
    3339,
    3362,
    3369,
    3310,
    3337
   ],
   "WindowCenter": [
    792.0,
    791.0,
    790.0,
    790.0,
    789.0,
    791.0,
    791.0,
    790.0,
    789.0,
    789.0,
    790.0,
    790.0,
    789.0,
    789.0,
    788.0,
    787.0,
    787.0,
    787.0,
    786.0,
    786.0,
    785.0,
    786.0,
    787.0,
    788.0,
    788.0,
    788.0,
    788.0,
    789.0,
    790.0,
    790.0,
    788.0,
    787.0,
    785.0,
    785.0,
    788.0,
    789.0,
    789.0,
    789.0,
    788.0,
    789.0,
    789.0,
    790.0,
    788.0,
    788.0,
    789.0,
    789.0,
    791.0,
    790.0,
    790.0,
    789.0,
    790.0,
    789.0,
    789.0,
    788.0,
    788.0,
    788.0,
    788.0,
    789.0,
    791.0,
    790.0,
    791.0,
    790.0,
    791.0,
    789.0,
    789.0,
    791.0,
    791.0,
    789.0,
    788.0,
    788.0,
    788.0,
    789.0,
    789.0,
    789.0,
    789.0,
    789.0,
    790.0,
    791.0,
    792.0,
    791.0,
    790.0,
    790.0,
    791.0,
    791.0,
    791.0,
    791.0,
    791.0,
    791.0,
    792.0,
    791.0,
    790.0,
    789.0,
    788.0,
    789.0,
    791.0,
    791.0,
    791.0,
    792.0,
    791.0,
    791.0,
    792.0,
    791.0,
    790.0,
    789.0,
    788.0,
    789.0,
    790.0,
    791.0,
    790.0,
