{
  "AcquisitionMatrixPE": 100,
  "AcquisitionNumber": 1,
  "AcquisitionTime": "11:49:1.965000",
  "BandwidthPerPixelPhaseEncode": 18.519,
  "BaseResolution": 100,
  "BodyPartExamined": "BRAIN",
  "ConsistencyInfo": "N4_VE11C_LATEST_20160120",
  "ConversionSoftware": "dcm2niix",
  "ConversionSoftwareVersion": "v1.0.20180622 GCC4.9.2",
  "DerivedVendorReportedEchoSpacing": 0.000539986,
  "DeviceSerialNumber": "166078",
  "DwellTime": 2.1e-06,
  "EchoTime": 0.034,
  "EchoTrainLength": 100,
  "EffectiveEchoSpacing": 0.000539986,
  "FlipAngle": 90,
  "ImageOrientationPatientDICOM": [1, -8.08743e-06, -7.33286e-05, -7.46041e-09, 0.993962, -0.109726],
  "ImageType": [
    "ORIGINAL",
    "PRIMARY",
    "M",
    "ND",
    "MOSAIC"
],
  "InPlanePhaseEncodingDirectionDICOM": "COL",
  "InstitutionAddress": "Street_StreetNo_Bei_Jing_District_CN_ZIP",
  "InstitutionName": "BeiJing_Normal_University",
  "InstitutionalDepartmentName": "Department",
  "MRAcquisitionType": "2D",
  "MagneticFieldStrength": 3,
  "Manufacturer": "Siemens",
  "ManufacturersModelName": "Prisma",
  "Modality": "MR",
  "MultibandAccelerationFactor": 3,
  "PartialFourier": 1,
  "PatientPosition": "HFS",
  "PercentPhaseFOV": 100,
  "PhaseEncodingDirection": "j-",
  "PhaseEncodingSteps": 100,
  "PhaseResolution": 1,
  "PixelBandwidth": 2380,
  "ProcedureStepDescription": "BNU_P2018_64CH_Zhen.ZongLei",
  "ProtocolName": "bold_100x100_s3_2x2x2_static_256",
  "PulseSequenceDetails": "%SiemensSeq%_ep2d_bold",
  "ReceiveCoilActiveElements": "HC1-7;NC1",
  "ReceiveCoilName": "HeadNeck_64",
  "ReconMatrixPE": 100,
  "RepetitionTime": 2,
  "SAR": 0.0696117,
  "ScanOptions": "FS",
  "ScanningSequence": "EP",
  "SequenceName": "_epfid2d1_100",
  "SequenceVariant": "SK",
  "SeriesDescription": "bold_100x100_s3_2x2x2_static_256",
  "SeriesNumber": 12,
  "ShimSetting": [-5460, -11491, -1329, 515, -5, -227, -89, 35],
  "SliceThickness": 2,
  "SliceTiming": [1.485, 0, 0.99, 0.0825, 1.0725, 0.165, 1.155, 0.2475, 1.2375, 0.33, 1.32, 0.4125, 1.4025, 0.5775, 1.5675, 0.66, 1.65, 0.7425, 1.7325, 0.825, 1.815, 0.9075, 1.8975, 0.495, 1.485, 0, 0.99, 0.0825, 1.0725, 0.165, 1.155, 0.2475, 1.2375, 0.33, 1.32, 0.4125, 1.4025, 0.5775, 1.5675, 0.66, 1.65, 0.7425, 1.7325, 0.825, 1.815, 0.9075, 1.8975, 0.495, 1.485, 0, 0.99, 0.0825, 1.0725, 0.165, 1.155, 0.2475, 1.2375, 0.33, 1.32, 0.4125, 1.4025, 0.5775, 1.5675, 0.66, 1.65, 0.7425, 1.7325, 0.825, 1.815, 0.9075, 1.8975, 0.495],
  "SoftwareVersions": "syngo_MR_E11",
  "SpacingBetweenSlices": 2,
  "StationName": "AWP166078",
  "TaskName": "naturalvision",
  "TotalReadoutTime": 0.0534586,
  "TxRefAmp": 208.785,
  "dcmmeta_affine": [
    [-2.0, -1.49208201349893e-08, -0.0001475463795941323, 100.58197021484375],
    [1.617486122995615e-05, 1.9879237413406372, -0.21945223212242126, -86.40159606933594],
    [-0.0001466571120545268, 0.21945223212242126, 1.9879237413406372, -90.01042175292969],
    [0.0, 0.0, 0.0, 1.0]
],
  "dcmmeta_reorient_transform": [
    [0.0, -1.0, 0.0, 99.0],
    [1.0, 0.0, 0.0, 0.0],
    [0.0, 0.0, 1.0, 0.0],
    [0.0, 0.0, 0.0, 1.0]
],
  "dcmmeta_shape": [100, 100, 72, 256],
  "dcmmeta_slice_dim": 2,
  "dcmmeta_version": 0.6,
  "global": {
    "const": {
      "AcquisitionMatrix": [100, 0, 0, 100],
      "AngioFlag": "N",
      "BitsAllocated": 16,
      "BitsStored": 12,
      "BodyPartExamined": "BRAIN",
      "Columns": 900,
      "EchoNumbers": 1,
      "EchoTime": 34.0,
      "EchoTrainLength": 100,
      "FlipAngle": 90.0,
      "HighBit": 11,
      "ImageOrientationPatient": [0.99999999727876, -8.08743037e-06, -7.33285553e-05, -7.46041e-09, 0.99396185989396, -0.1097261184776],
      "ImagePositionPatient": [-900.58195693864, -905.56587011652, 19.554907297802],
      "ImageType": [
        "ORIGINAL",
        "PRIMARY",
        "M",
        "ND",
        "MOSAIC"
],
      "ImagedNucleus": "1H",
      "ImagingFrequency": 123.257787,
      "InPlanePhaseEncodingDirection": "COL",
      "MRAcquisitionType": "2D",
      "MagneticFieldStrength": 3.0,
      "Manufacturer": "SIEMENS",
      "ManufacturerModelName": "Prisma",
      "Modality": "MR",
      "NumberOfAverages": 1.0,
      "NumberOfPhaseEncodingSteps": 100,
      "PercentPhaseFieldOfView": 100.0,
      "PercentSampling": 100.0,
      "PerformedProcedureStepStartTime": "103043.874000",
      "PhotometricInterpretation": "MONOCHROME2",
      "PixelBandwidth": 2380.0,
      "PixelRepresentation": 0,
      "PixelSpacing": [2.0, 2.0],
      "ProtocolName": "bold_100x100_s3_2x2x2_static_256",
      "RepetitionTime": 2000.0,
      "Rows": 900,
      "SAR": 0.06961173641541,
      "SamplesPerPixel": 1,
      "ScanOptions": "FS",
      "ScanningSequence": "EP",
      "SequenceName": "*epfid2d1_100",
      "SequenceVariant": "SK",
      "SeriesDescription": "bold_100x100_s3_2x2x2_static_256",
      "SeriesNumber": 12,
      "SeriesTime": "114904.686000",
      "SliceLocation": -79.99383451224,
      "SliceThickness": 2.0,
      "SmallestImagePixelValue": 0,
      "SoftwareVersions": "syngo MR E11",
      "SpacingBetweenSlices": 1.999999976212,
      "SpecificCharacterSet": "ISO_IR 100",
      "StudyID": "1",
      "StudyTime": "103043.822000",
      "TransmitCoilName": "Body",
      "VariableFlipAngleFlag": "N",
      "WindowCenterWidthExplanation": "Algo1",
      "dBdt": 0.0},
    "slices": {}
  },
  "time": {
    "samples": {
      "AcquisitionNumber": [1, 2, 3, 4, 5, 6, 7, 8, 9, 10, 11, 12, 13, 14, 15, 16, 17, 18, 19, 20, 21, 22, 23, 24, 25, 26, 27, 28, 29, 30, 31, 32, 33, 34, 35, 36, 37, 38, 39, 40, 41, 42, 43, 44, 45, 46, 47, 48, 49, 50, 51, 52, 53, 54, 55, 56, 57, 58, 59, 60, 61, 62, 63, 64, 65, 66, 67, 68, 69, 70, 71, 72, 73, 74, 75, 76, 77, 78, 79, 80, 81, 82, 83, 84, 85, 86, 87, 88, 89, 90, 91, 92, 93, 94, 95, 96, 97, 98, 99, 100, 101, 102, 103, 104, 105, 106, 107, 108, 109, 110, 111, 112, 113, 114, 115, 116, 117, 118, 119, 120, 121, 122, 123, 124, 125, 126, 127, 128, 129, 130, 131, 132, 133, 134, 135, 136, 137, 138, 139, 140, 141, 142, 143, 144, 145, 146, 147, 148, 149, 150, 151, 152, 153, 154, 155, 156, 157, 158, 159, 160, 161, 162, 163, 164, 165, 166, 167, 168, 169, 170, 171, 172, 173, 174, 175, 176, 177, 178, 179, 180, 181, 182, 183, 184, 185, 186, 187, 188, 189, 190, 191, 192, 193, 194, 195, 196, 197, 198, 199, 200, 201, 202, 203, 204, 205, 206, 207, 208, 209, 210, 211, 212, 213, 214, 215, 216, 217, 218, 219, 220, 221, 222, 223, 224, 225, 226, 227, 228, 229, 230, 231, 232, 233, 234, 235, 236, 237, 238, 239, 240, 241, 242, 243, 244, 245, 246, 247, 248, 249, 250, 251, 252, 253, 254, 255, 256],
      "AcquisitionTime": ["114901.965000", "114903.965000", "114905.965000", "114907.965000", "114909.965000", "114911.965000", "114913.965000", "114915.965000", "114917.965000", "114919.965000", "114921.965000", "114923.965000", "114925.965000", "114927.965000", "114929.965000", "114931.965000", "114933.965000", "114935.965000", "114937.965000", "114939.965000", "114941.965000", "114943.965000", "114945.965000", "114947.965000", "114949.965000", "114951.965000", "114953.965000", "114955.965000", "114957.965000", "114959.965000", "115001.965000", "115003.965000", "115005.965000", "115007.965000", "115009.965000", "115011.965000", "115013.965000", "115015.965000", "115017.965000", "115019.965000", "115021.965000", "115023.965000", "115025.965000", "115027.965000", "115029.965000", "115031.965000", "115033.965000", "115035.965000", "115037.965000", "115039.965000", "115041.965000", "115043.965000", "115045.965000", "115047.965000", "115049.965000", "115051.965000", "115053.965000", "115055.965000", "115057.965000", "115059.965000", "115101.965000", "115103.965000", "115105.965000", "115107.965000", "115109.965000", "115111.965000", "115113.965000", "115115.965000", "115117.965000", "115119.965000", "115121.965000", "115123.965000", "115125.965000", "115127.965000", "115129.965000", "115131.965000", "115133.965000", "115135.965000", "115137.965000", "115139.965000", "115141.965000", "115143.965000", "115145.965000", "115147.965000", "115149.965000", "115151.965000", "115153.965000", "115155.965000", "115157.965000", "115159.965000", "115201.965000", "115203.965000", "115205.965000", "115207.965000", "115209.965000", "115211.965000", "115213.965000", "115215.965000", "115217.965000", "115219.965000", "115221.965000", "115223.965000", "115225.965000", "115227.965000", "115229.965000", "115231.965000", "115233.965000", "115235.965000", "115237.965000", "115239.965000", "115241.965000", "115243.965000", "115245.965000", "115247.965000", "115249.965000", "115251.965000", "115253.965000", "115255.965000", "115257.965000", "115259.965000", "115301.965000", "115303.965000", "115305.965000", "115307.965000", "115309.965000", "115311.965000", "115313.965000", "115315.965000", "115317.965000", "115319.965000", "115321.965000", "115323.965000", "115325.965000", "115327.965000", "115329.965000", "115331.965000", "115333.965000", "115335.965000", "115337.965000", "115339.965000", "115341.965000", "115343.965000", "115345.965000", "115347.965000", "115349.965000", "115351.965000", "115353.965000", "115355.965000", "115357.965000", "115359.965000", "115401.965000", "115403.965000", "115405.965000", "115407.965000", "115409.965000", "115411.965000", "115413.965000", "115415.965000", "115417.965000", "115419.965000", "115421.965000", "115423.965000", "115425.965000", "115427.965000", "115429.965000", "115431.965000", "115433.965000", "115435.965000", "115437.965000", "115439.965000", "115441.965000", "115443.965000", "115445.965000", "115447.965000", "115449.965000", "115451.965000", "115453.965000", "115455.965000", "115457.965000", "115459.965000", "115501.965000", "115503.965000", "115505.965000", "115507.965000", "115509.965000", "115511.965000", "115513.965000", "115515.965000", "115517.965000", "115519.965000", "115521.965000", "115523.965000", "115525.965000", "115527.965000", "115529.965000", "115531.965000", "115533.965000", "115535.965000", "115537.965000", "115539.965000", "115541.965000", "115543.965000", "115545.965000", "115547.965000", "115549.965000", "115551.965000", "115553.965000", "115555.965000", "115557.965000", "115559.965000", "115601.965000", "115603.965000", "115605.965000", "115607.965000", "115609.965000", "115611.965000", "115613.965000", "115615.965000", "115617.965000", "115619.965000", "115621.965000", "115623.965000", "115625.965000", "115627.965000", "115629.965000", "115631.965000", "115633.965000", "115635.965000", "115637.965000", "115639.965000", "115641.965000", "115643.965000", "115645.965000", "115647.965000", "115649.965000", "115651.965000", "115653.965000", "115655.965000", "115657.965000", "115659.965000", "115701.965000", "115703.965000", "115705.965000", "115707.965000", "115709.965000", "115711.965000", "115713.965000", "115715.965000", "115717.965000", "115719.965000", "115721.965000", "115723.965000", "115725.965000", "115727.965000", "115729.965000", "115731.965000"],
      "ContentTime": ["114904.690000", "114905.685000", "114907.686000", "114909.686000", "114911.687000", "114913.686000", "114915.685000", "114917.686000", "114919.686000", "114921.685000", "114923.686000", "114925.686000", "114927.687000", "114929.687000", "114931.686000", "114933.686000", "114935.686000", "114937.685000", "114939.685000", "114941.686000", "114943.686000", "114945.686000", "114947.687000", "114949.685000", "114951.686000", "114953.685000", "114955.686000", "114957.686000", "114959.687000", "115002.187000", "115003.686000", "115005.686000", "115007.686000", "115009.685000", "115011.685000", "115013.685000", "115015.686000", "115017.686000", "115019.687000", "115021.687000", "115023.686000", "115025.686000", "115027.685000", "115029.686000", "115032.186000", "115033.686000", "115035.687000", "115037.686000", "115039.687000", "115041.686000", "115044.186000", "115045.686000", "115048.185000", "115049.686000", "115051.687000", "115053.687000", "115055.687000", "115057.686000", "115100.186000", "115102.185000", "115103.685000", "115105.685000", "115107.686000", "115109.686000", "115111.687000", "115113.686000", "115115.686000", "115117.685000", "115119.686000", "115121.686000", "115123.685000", "115125.686000", "115127.686000", "115129.687000", "115131.687000", "115134.186000", "115135.686000", "115137.685000", "115139.686000", "115141.686000", "115143.686000", "115145.686000", "115147.686000", "115149.687000", "115152.185000", "115153.685000", "115155.686000", "115157.685000", "115159.685000", "115201.686000", "115203.686000", "115205.686000", "115207.686000", "115209.686000", "115211.685000", "115213.685000", "115215.686000", "115218.185000", "115219.686000", "115221.686000", "115223.687000", "115225.687000", "115227.685000", "115229.686000", "115232.185000", "115233.686000", "115235.686000", "115237.686000", "115239.686000", "115241.686000", "115243.685000", "115245.685000", "115248.186000", "115249.685000", "115251.686000", "115254.187000", "115255.687000", "115257.686000", "115259.686000", "115302.186000", "115303.686000", "115305.685000", "115307.686000", "115309.686000", "115311.687000", "115313.687000", "115315.686000", "115317.686000", "115319.685000", "115321.685000", "115323.685000", "115325.686000", "115327.685000", "115329.687000", "115331.686000", "115333.686000", "115336.185000", "115338.185000", "115340.186000", "115341.685000", "115343.686000", "115345.686000", "115347.686000", "115350.186000", "115351.686000", "115353.685000", "115355.685000", "115358.186000", "115359.685000", "115401.686000", "115403.686000", "115405.687000", "115408.187000", "115410.187000", "115411.685000", "115413.686000", "115415.685000", "115417.685000", "115420.185000", "115421.687000", "115423.687000", "115425.686000", "115427.686000", "115429.686000", "115431.685000", "115433.686000", "115435.685000", "115437.685000", "115440.186000", "115442.186000", "115443.687000", "115445.686000", "115447.685000", "115450.186000", "115451.685000", "115453.685000", "115456.186000", "115457.686000", "115459.687000", "115501.686000", "115503.686000", "115506.185000", "115507.685000", "115509.685000", "115511.686000", "115513.686000", "115515.686000", "115517.687000", "115520.186000", "115521.686000", "115523.685000", "115525.686000", "115527.686000", "115529.686000", "115531.686000", "115533.687000", "115535.687000", "115537.686000", "115539.686000", "115541.685000", "115543.685000", "115545.686000", "115547.686000", "115549.687000", "115551.687000", "115553.686000", "115555.686000", "115557.685000", "115559.686000", "115601.685000", "115603.686000", "115605.686000", "115607.686000", "115609.686000", "115612.186000", "115613.686000", "115616.185000", "115617.685000", "115619.685000", "115621.686000", "115623.686000", "115625.686000", "115627.687000", "115629.687000", "115631.686000", "115634.186000", "115635.686000", "115637.685000", "115639.685000", "115641.686000", "115643.686000", "115645.686000", "115647.686000", "115649.686000", "115651.686000", "115654.186000", "115655.686000", "115657.685000", "115700.187000", "115701.687000", "115703.687000", "115705.686000", "115707.685000", "115709.685000", "115711.686000", "115713.685000", "115715.685000", "115717.687000", "115720.187000", "115722.187000", "115723.686000", "115725.686000", "115727.685000", "115729.686000", "115732.186000", "115733.636000"],
      "InstanceCreationTime": ["114904.690000", "114905.685000", "114907.686000", "114909.686000", "114911.687000", "114913.686000", "114915.685000", "114917.686000", "114919.686000", "114921.685000", "114923.686000", "114925.686000", "114927.687000", "114929.687000", "114931.686000", "114933.686000", "114935.686000", "114937.685000", "114939.685000", "114941.686000", "114943.686000", "114945.686000", "114947.687000", "114949.685000", "114951.686000", "114953.685000", "114955.686000", "114957.686000", "114959.687000", "115002.187000", "115003.686000", "115005.686000", "115007.686000", "115009.685000", "115011.685000", "115013.685000", "115015.686000", "115017.686000", "115019.687000", "115021.687000", "115023.686000", "115025.686000", "115027.685000", "115029.686000", "115032.186000", "115033.686000", "115035.687000", "115037.686000", "115039.687000", "115041.686000", "115044.186000", "115045.686000", "115048.185000", "115049.686000", "115051.687000", "115053.687000", "115055.687000", "115057.686000", "115100.186000", "115102.185000", "115103.685000", "115105.685000", "115107.686000", "115109.686000", "115111.687000", "115113.686000", "115115.686000", "115117.685000", "115119.686000", "115121.686000", "115123.685000", "115125.686000", "115127.686000", "115129.687000", "115131.687000", "115134.186000", "115135.686000", "115137.685000", "115139.686000", "115141.686000", "115143.686000", "115145.686000", "115147.686000", "115149.687000", "115152.185000", "115153.685000", "115155.686000", "115157.685000", "115159.685000", "115201.686000", "115203.686000", "115205.686000", "115207.686000", "115209.686000", "115211.685000", "115213.685000", "115215.686000", "115218.185000", "115219.686000", "115221.686000", "115223.687000", "115225.687000", "115227.685000", "115229.686000", "115232.185000", "115233.686000", "115235.686000", "115237.686000", "115239.686000", "115241.686000", "115243.685000", "115245.685000", "115248.186000", "115249.685000", "115251.686000", "115254.187000", "115255.687000", "115257.686000", "115259.686000", "115302.186000", "115303.686000", "115305.685000", "115307.686000", "115309.686000", "115311.687000", "115313.687000", "115315.686000", "115317.686000", "115319.685000", "115321.685000", "115323.685000", "115325.686000", "115327.685000", "115329.687000", "115331.686000", "115333.686000", "115336.185000", "115338.185000", "115340.186000", "115341.685000", "115343.686000", "115345.686000", "115347.686000", "115350.186000", "115351.686000", "115353.685000", "115355.685000", "115358.186000", "115359.685000", "115401.686000", "115403.686000", "115405.687000", "115408.187000", "115410.187000", "115411.685000", "115413.686000", "115415.685000", "115417.685000", "115420.185000", "115421.687000", "115423.687000", "115425.686000", "115427.686000", "115429.686000", "115431.685000", "115433.686000", "115435.685000", "115437.685000", "115440.186000", "115442.186000", "115443.687000", "115445.686000", "115447.685000", "115450.186000", "115451.685000", "115453.685000", "115456.186000", "115457.686000", "115459.687000", "115501.686000", "115503.686000", "115506.185000", "115507.685000", "115509.685000", "115511.686000", "115513.686000", "115515.686000", "115517.687000", "115520.186000", "115521.686000", "115523.685000", "115525.686000", "115527.686000", "115529.686000", "115531.686000", "115533.687000", "115535.687000", "115537.686000", "115539.686000", "115541.685000", "115543.685000", "115545.686000", "115547.686000", "115549.687000", "115551.687000", "115553.686000", "115555.686000", "115557.685000", "115559.686000", "115601.685000", "115603.686000", "115605.686000", "115607.686000", "115609.686000", "115612.186000", "115613.686000", "115616.185000", "115617.685000", "115619.685000", "115621.686000", "115623.686000", "115625.686000", "115627.687000", "115629.687000", "115631.686000", "115634.186000", "115635.686000", "115637.685000", "115639.685000", "115641.686000", "115643.686000", "115645.686000", "115647.686000", "115649.686000", "115651.686000", "115654.186000", "115655.686000", "115657.685000", "115700.187000", "115701.687000", "115703.687000", "115705.686000", "115707.685000", "115709.685000", "115711.686000", "115713.685000", "115715.685000", "115717.687000", "115720.187000", "115722.187000", "115723.686000", "115725.686000", "115727.685000", "115729.686000", "115732.186000", "115733.636000"],
      "InstanceNumber": [1, 2, 3, 4, 5, 6, 7, 8, 9, 10, 11, 12, 13, 14, 15, 16, 17, 18, 19, 20, 21, 22, 23, 24, 25, 26, 27, 28, 29, 30, 31, 32, 33, 34, 35, 36, 37, 38, 39, 40, 41, 42, 43, 44, 45, 46, 47, 48, 49, 50, 51, 52, 53, 54, 55, 56, 57, 58, 59, 60, 61, 62, 63, 64, 65, 66, 67, 68, 69, 70, 71, 72, 73, 74, 75, 76, 77, 78, 79, 80, 81, 82, 83, 84, 85, 86, 87, 88, 89, 90, 91, 92, 93, 94, 95, 96, 97, 98, 99, 100, 101, 102, 103, 104, 105, 106, 107, 108, 109, 110, 111, 112, 113, 114, 115, 116, 117, 118, 119, 120, 121, 122, 123, 124, 125, 126, 127, 128, 129, 130, 131, 132, 133, 134, 135, 136, 137, 138, 139, 140, 141, 142, 143, 144, 145, 146, 147, 148, 149, 150, 151, 152, 153, 154, 155, 156, 157, 158, 159, 160, 161, 162, 163, 164, 165, 166, 167, 168, 169, 170, 171, 172, 173, 174, 175, 176, 177, 178, 179, 180, 181, 182, 183, 184, 185, 186, 187, 188, 189, 190, 191, 192, 193, 194, 195, 196, 197, 198, 199, 200, 201, 202, 203, 204, 205, 206, 207, 208, 209, 210, 211, 212, 213, 214, 215, 216, 217, 218, 219, 220, 221, 222, 223, 224, 225, 226, 227, 228, 229, 230, 231, 232, 233, 234, 235, 236, 237, 238, 239, 240, 241, 242, 243, 244, 245, 246, 247, 248, 249, 250, 251, 252, 253, 254, 255, 256],
      "LargestImagePixelValue": [2839, 2791, 2773, 2749, 2735, 2701, 2708, 2723, 2736, 2736, 2738, 2765, 2762, 2799, 2812, 2788, 2783, 2787, 2826, 2819, 2783, 2778, 2767, 2776, 2761, 2775, 2770, 2722, 2719, 2770, 2740, 2810, 2757, 2765, 2752, 2754, 2757, 2735, 2762, 2738, 2753, 2780, 2771, 2756, 2747, 2769, 2759, 2757, 2754, 2769, 2787, 2761, 2799, 2759, 2804, 2786, 2751, 2766, 2752, 2765, 2788, 2769, 2753, 2739, 2766, 2734, 2750, 2756, 2782, 2758, 2754, 2753, 2797, 2772, 2764, 2768, 2770, 2748, 2740, 2734, 2752, 2750, 2725, 2730, 2764, 2755, 2777, 2800, 2807, 2781, 2752, 2787, 2783, 2724, 2712, 2728, 2729, 2739, 2733, 2750, 2765, 2783, 2773, 2796, 2782, 2770, 2768, 2765, 2777, 2779, 2736, 2733, 2737, 2744, 2742, 2738, 2742, 2735, 2747, 2742, 2724, 2724, 2739, 2802, 2760, 2759, 2747, 2782, 2824, 2833, 2775, 2761, 2767, 2746, 2767, 2752, 2728, 2737, 2754, 2757, 2772, 2781, 2751, 2745, 2754, 2752, 2746, 2736, 2781, 2774, 2767, 2771, 2773, 2780, 2786, 2833, 2815, 2804, 2749, 2737, 2745, 2751, 2754, 2743, 2760, 2758, 2801, 2810, 2838, 2798, 2803, 2800, 2769, 2782, 2756, 2769, 2753, 2759, 2742, 2763, 2756, 2776, 2758, 2795, 2742, 2780, 2767, 2813, 2776, 2752, 2769, 2816, 2784, 2785, 2745, 2740, 2744, 2778, 2750, 2772, 2790, 2822, 2791, 2828, 2793, 2804, 2766, 2818, 2834, 2753, 2758, 2758, 2785, 2756, 2771, 2786, 2748, 2765, 2752, 2758, 2758, 2797, 2756, 2760, 2746, 2775, 2755, 2819, 2804, 2778, 2765, 2763, 2767, 2762, 2766, 2799, 2782, 2798, 2771, 2798, 2822, 2838, 2832, 2837, 2807, 2807, 2808, 2813, 2799, 2760, 2818, 2780, 2782, 2794, 2783, 2779],
      "WindowCenter": [758.0, 756.0, 756.0, 756.0, 756.0, 755.0, 755.0, 755.0, 755.0, 755.0, 756.0, 757.0, 757.0, 758.0, 757.0, 756.0, 757.0, 758.0, 759.0, 759.0, 758.0, 758.0, 757.0, 757.0, 757.0, 758.0, 758.0, 758.0, 758.0, 757.0, 757.0, 757.0, 756.0, 756.0, 756.0, 755.0, 754.0, 754.0, 754.0, 754.0, 754.0, 755.0, 755.0, 755.0, 755.0, 756.0, 756.0, 756.0, 756.0, 756.0, 757.0, 756.0, 757.0, 756.0, 757.0, 757.0, 757.0, 757.0, 757.0, 756.0, 756.0, 756.0, 757.0, 757.0, 757.0, 756.0, 756.0, 757.0, 757.0, 756.0, 756.0, 758.0, 758.0, 758.0, 756.0, 757.0, 757.0, 756.0, 756.0, 756.0, 757.0, 757.0, 757.0, 758.0, 757.0, 756.0, 757.0, 758.0, 758.0, 756.0, 755.0, 755.0, 754.0, 754.0, 755.0, 755.0, 756.0, 757.0, 757.0, 758.0, 758.0, 757.0, 757.0, 756.0, 755.0, 756.0, 757.0, 758.0, 758.0, 758.0, 757.0, 756.0, 755.0, 755.0, 756.0, 756.0, 757.0, 756.0, 756.0, 756.0, 757.0, 757.0, 757.0, 758.0, 757.0, 757.0, 757.0, 757.0, 757.0, 757.0, 758.0, 757.0, 757.0, 755.0, 756.0, 755.0, 755.0, 756.0, 756.0, 756.0, 757.0, 756.0, 756.0, 755.0, 756.0, 756.0, 756.0, 757.0, 757.0, 757.0, 757.0, 758.0, 757.0, 756.0, 756.0, 757.0, 757.0, 756.0, 756.0, 756.0, 756.0, 756.0, 756.0, 756.0, 756.0, 756.0, 758.0, 758.0, 757.0, 756.0, 755.0, 756.0, 755.0, 755.0, 755.0, 755.0, 756.0, 757.0, 757.0, 756.0, 756.0, 756.0, 756.0, 756.0, 756.0, 756.0, 756.0, 756.0, 754.0, 753.0, 753.0, 755.0, 755.0, 754.0, 753.0, 753.0, 755.0, 756.0, 756.0, 757.0, 756.0, 756.0, 757.0, 757.0, 757.0, 758.0, 758.0, 758.0, 758.0, 757.0, 757.0, 756.0, 756.0, 756.0, 757.0, 757.0, 756.0, 755.0, 755.0, 755.0, 756.0, 756.0, 756.0, 756.0, 755.0, 754.0, 755.0, 758.0, 757.0, 755.0, 754.0, 754.0, 756.0, 757.0, 756.0, 756.0, 755.0, 756.0, 757.0, 759.0, 759.0, 759.0, 759.0, 757.0, 756.0, 756.0, 756.0, 756.0, 755.0, 755.0, 755.0, 755.0, 756.0, 756.0, 756.0, 756.0],
      "WindowWidth": [1633.0, 1628.0, 1627.0, 1627.0, 1627.0, 1626.0, 1626.0, 1626.0, 1626.0, 1626.0, 1629.0, 1631.0, 1632.0, 1632.0, 1631.0, 1629.0, 1630.0, 1634.0, 1636.0, 1635.0, 1632.0, 1632.0, 1631.0, 1631.0, 1631.0, 1633.0, 1634.0, 1632.0, 1632.0, 1632.0, 1631.0, 1632.0, 1628.0, 1627.0, 1628.0, 1626.0, 1623.0, 1622.0, 1623.0, 1623.0, 1623.0, 1625.0, 1626.0, 1625.0, 1624.0, 1627.0, 1627.0, 1627.0, 1627.0, 1627.0, 1630.0, 1629.0, 1630.0, 1628.0, 1630.0, 1630.0, 1630.0, 1630.0, 1630.0, 1627.0, 1628.0, 1628.0, 1630.0, 1630.0, 1630.0, 1628.0, 1629.0, 1630.0, 1630.0, 1627.0, 1629.0, 1632.0, 1634.0, 1632.0, 1629.0, 1630.0, 1630.0, 1627.0, 1627.0, 1628.0, 1629.0, 1630.0, 1631.0, 1632.0, 1632.0, 1629.0, 1630.0, 1634.0, 1633.0, 1628.0, 1625.0, 1625.0, 1624.0, 1623.0, 1624.0, 1625.0, 1628.0, 1630.0, 1632.0, 1634.0, 1634.0, 1632.0, 1630.0, 1628.0, 1626.0, 1627.0, 1630.0, 1633.0, 1633.0, 1633.0, 1632.0, 1628.0, 1626.0, 1626.0, 1628.0, 1629.0, 1630.0, 1628.0, 1627.0, 1628.0, 1629.0, 1630.0, 1631.0, 1633.0, 1632.0, 1632.0, 1631.0, 1630.0, 1630.0, 1631.0, 1632.0, 1631.0, 1629.0, 1626.0, 1626.0, 1625.0, 1626.0, 1627.0, 1628.0, 1629.0, 1629.0, 1628.0, 1627.0, 1625.0, 1627.0, 1627.0, 1628.0, 1631.0, 1632.0, 1631.0, 1631.0, 1633.0, 1631.0, 1628.0, 1629.0, 1630.0, 1630.0, 1628.0, 1626.0, 1626.0, 1628.0, 1628.0, 1628.0, 1627.0, 1627.0, 1628.0, 1632.0, 1632.0, 1630.0, 1627.0, 1626.0, 1627.0, 1625.0, 1625.0, 1626.0, 1626.0, 1627.0, 1629.0, 1629.0, 1629.0, 1628.0, 1628.0, 1628.0, 1628.0, 1627.0, 1628.0, 1627.0, 1627.0, 1623.0, 1620.0, 1621.0, 1624.0, 1625.0, 1621.0, 1619.0, 1620.0, 1624.0, 1627.0, 1628.0, 1629.0, 1629.0, 1628.0, 1630.0, 1631.0, 1631.0, 1632.0, 1632.0, 1634.0, 1634.0, 1630.0, 1631.0, 1629.0, 1627.0, 1627.0, 1630.0, 1629.0, 1627.0, 1625.0, 1625.0, 1625.0, 1628.0, 1629.0, 1629.0, 1628.0, 1624.0, 1622.0, 1626.0, 1632.0, 1631.0, 1625.0, 1622.0, 1622.0, 1627.0, 1629.0, 1628.0, 1628.0, 1625.0, 1627.0, 1630.0, 1634.0, 1636.0, 1635.0, 1635.0, 1631.0, 1629.0, 1628.0, 1628.0, 1628.0, 1625.0, 1624.0, 1624.0, 1625.0, 1627.0, 1628.0, 1626.0, 1627.0]
    },
    "slices": {}
  }
}