{
 "AcquisitionMatrixPE": 100,
 "AcquisitionNumber": 1,
 "AcquisitionTime": "15:39:22.455000",
 "BandwidthPerPixelPhaseEncode": 18.519,
 "BaseResolution": 100,
 "BodyPartExamined": "BRAIN",
 "CoilCombinationMethod": "Sum of Squares",
 "ConsistencyInfo": "N4_VE11C_LATEST_20160120",
 "ConversionSoftware": "dcm2niix",
 "ConversionSoftwareVersion": "v1.0.20211006",
 "DerivedVendorReportedEchoSpacing": 0.000539986,
 "DeviceSerialNumber": "166078",
 "DwellTime": 2.1e-06,
 "EchoTime": 0.034,
 "EchoTrainLength": 100,
 "EffectiveEchoSpacing": 0.000539986,
 "FlipAngle": 90,
 "ImageOrientationPatientDICOM": [
  0.999877,
  0.00090137,
  0.0156322,
  -2.35915e-09,
  0.998342,
  -0.0575655
 ],
 "ImageOrientationText": "Tra>Cor(-3.3)>Sag(0.9)",
 "ImageType": [
  "ORIGINAL",
  "PRIMARY",
  "M",
  "ND",
  "MOSAIC"
 ],
 "ImagingFrequency": 123.258,
 "InPlanePhaseEncodingDirectionDICOM": "COL",
 "InstitutionAddress": "Street StreetNo,Bei Jing,District,CN,ZIP",
 "InstitutionName": "BeiJing Normal University",
 "InstitutionalDepartmentName": "Department",
 "MRAcquisitionType": "2D",
 "MagneticFieldStrength": 3,
 "Manufacturer": "Siemens",
 "ManufacturersModelName": "Prisma",
 "Modality": "MR",
 "MultibandAccelerationFactor": 3,
 "PartialFourier": 1,
 "PatientPosition": "HFS",
 "PercentPhaseFOV": 100,
 "PercentSampling": 100,
 "PhaseEncodingDirection": "j-",
 "PhaseEncodingSteps": 100,
 "PhaseResolution": 1,
 "PixelBandwidth": 2380,
 "ProcedureStepDescription": "BNU_P2018_64CH^Zhen.ZongLei",
 "ProtocolName": "bold_100x100_s3_2x2x2_static_256",
 "PulseSequenceDetails": "%SiemensSeq%\\ep2d_bold",
 "ReceiveCoilActiveElements": "HC1-7;NC1",
 "ReceiveCoilName": "HeadNeck_64",
 "ReconMatrixPE": 100,
 "RefLinesPE": 32,
 "RepetitionTime": 2,
 "SAR": 0.0728807,
 "ScanOptions": "FS",
 "ScanningSequence": "EP",
 "SequenceName": "*epfid2d1_100",
 "SequenceVariant": "SK",
 "SeriesDescription": "bold_100x100_s3_2x2x2_static_256",
 "SeriesNumber": 10,
 "ShimSetting": [
  -5445,
  -11514,
  -1240,
  285,
  -7,
  -231,
  -154,
  83
 ],
 "SliceThickness": 2,
 "SliceTiming": [
  1.485,
  0,
  0.99,
  0.0825,
  1.0725,
  0.165,
  1.155,
  0.2475,
  1.2375,
  0.33,
  1.32,
  0.4125,
  1.4025,
  0.5775,
  1.5675,
  0.66,
  1.65,
  0.7425,
  1.7325,
  0.825,
  1.815,
  0.9075,
  1.8975,
  0.495,
  1.485,
  0,
  0.99,
  0.0825,
  1.0725,
  0.165,
  1.155,
  0.2475,
  1.2375,
  0.33,
  1.32,
  0.4125,
  1.4025,
  0.5775,
  1.5675,
  0.66,
  1.65,
  0.7425,
  1.7325,
  0.825,
  1.815,
  0.9075,
  1.8975,
  0.495,
  1.485,
  0,
  0.99,
  0.0825,
  1.0725,
  0.165,
  1.155,
  0.2475,
  1.2375,
  0.33,
  1.32,
  0.4125,
  1.4025,
  0.5775,
  1.5675,
  0.66,
  1.65,
  0.7425,
  1.7325,
  0.825,
  1.815,
  0.9075,
  1.8975,
  0.495
 ],
 "SoftwareVersions": "syngo MR E11",
 "SpacingBetweenSlices": 2,
 "StationName": "AWP166078",
 "TaskName": "imagenet",
 "TotalReadoutTime": 0.0534586,
 "TxRefAmp": 202.73,
 "dcmmeta_affine": [
  [
   -1.999754786491394,
   -4.718291979344258e-09,
   0.03131626173853874,
   98.41871643066406
  ],
  [
   -0.001802740152925253,
   1.9966834783554077,
   -0.11511683464050293,
   -94.77869415283203
  ],
  [
   0.03126433119177818,
   0.1151309460401535,
   1.99643874168396,
   -59.11777877807617
  ],
  [
   0.0,
   0.0,
   0.0,
   1.0
  ]
 ],
 "dcmmeta_reorient_transform": [
  [
   0.0,
   -1.0,
   0.0,
   99.0
  ],
  [
   1.0,
   0.0,
   0.0,
   0.0
  ],
  [
   0.0,
   0.0,
   1.0,
   0.0
  ],
  [
   0.0,
   0.0,
   0.0,
   1.0
  ]
 ],
 "dcmmeta_shape": [
  100,
  100,
  72,
  256
 ],
 "dcmmeta_slice_dim": 2,
 "dcmmeta_version": 0.6,
 "global": {
  "const": {
   "AcquisitionMatrix": [
    100,
    0,
    0,
    100
   ],
   "AngioFlag": "N",
   "BitsAllocated": 16,
   "BitsStored": 12,
   "BodyPartExamined": "BRAIN",
   "Columns": 900,
   "EchoNumbers": 1,
   "EchoTime": 34.0,
   "EchoTrainLength": 100,
   "FlipAngle": 90.0,
   "HighBit": 11,
   "ImageOrientationPatient": [
    0.99987740396058,
    0.00090137006937,
    0.01563216495077,
    -2.359146e-09,
    0.99834173312791,
    -0.0575654748539
   ],
   "ImagePositionPatient": [
    -898.32063389822,
    -902.28745418584,
    -14.173168059849
   ],
   "ImageType": [
    "ORIGINAL",
    "PRIMARY",
    "M",
    "ND",
    "MOSAIC"
   ],
   "ImagedNucleus": "1H",
   "ImagingFrequency": 123.257726,
   "InPlanePhaseEncodingDirection": "COL",
   "MRAcquisitionType": "2D",
   "MagneticFieldStrength": 3.0,
   "Manufacturer": "SIEMENS",
   "ManufacturerModelName": "Prisma",
   "Modality": "MR",
   "NumberOfAverages": 1.0,
   "NumberOfPhaseEncodingSteps": 100,
   "PercentPhaseFieldOfView": 100.0,
   "PercentSampling": 100.0,
   "PerformedProcedureStepStartTime": "143130.298000",
   "PhotometricInterpretation": "MONOCHROME2",
   "PixelBandwidth": 2380.0,
   "PixelRepresentation": 0,
   "PixelSpacing": [
    2.0,
    2.0
   ],
   "ProtocolName": "bold_100x100_s3_2x2x2_static_256",
   "RepetitionTime": 2000.0,
   "Rows": 900,
   "SAR": 0.07288073351329,
   "SamplesPerPixel": 1,
   "ScanOptions": "FS",
   "ScanningSequence": "EP",
   "SequenceName": "*epfid2d1_100",
   "SequenceVariant": "SK",
   "SeriesDescription": "bold_100x100_s3_2x2x2_static_256",
   "SeriesNumber": 10,
   "SeriesTime": "153924.615000",
   "SliceLocation": -52.016146813481,
   "SliceThickness": 2.0,
   "SmallestImagePixelValue": 0,
   "SoftwareVersions": "syngo MR E11",
   "SpacingBetweenSlices": 2.0000000035893,
   "SpecificCharacterSet": "ISO_IR 100",
   "StudyID": "1",
   "StudyTime": "143130.205000",
   "TransmitCoilName": "Body",
   "VariableFlipAngleFlag": "N",
   "WindowCenterWidthExplanation": "Algo1",
   "dBdt": 0.0
  },
  "slices": {}
 },
 "time": {
  "samples": {
   "AcquisitionNumber": [
    1,
    2,
    3,
    4,
    5,
    6,
    7,
    8,
    9,
    10,
    11,
    12,
    13,
    14,
    15,
    16,
    17,
    18,
    19,
    20,
    21,
    22,
    23,
    24,
    25,
    26,
    27,
    28,
    29,
    30,
    31,
    32,
    33,
    34,
    35,
    36,
    37,
    38,
    39,
    40,
    41,
    42,
    43,
    44,
    45,
    46,
    47,
    48,
    49,
    50,
    51,
    52,
    53,
    54,
    55,
    56,
    57,
    58,
    59,
    60,
    61,
    62,
    63,
    64,
    65,
    66,
    67,
    68,
    69,
    70,
    71,
    72,
    73,
    74,
    75,
    76,
    77,
    78,
    79,
    80,
    81,
    82,
    83,
    84,
    85,
    86,
    87,
    88,
    89,
    90,
    91,
    92,
    93,
    94,
    95,
    96,
    97,
    98,
    99,
    100,
    101,
    102,
    103,
    104,
    105,
    106,
    107,
    108,
    109,
    110,
    111,
    112,
    113,
    114,
    115,
    116,
    117,
    118,
    119,
    120,
    121,
    122,
    123,
    124,
    125,
    126,
    127,
    128,
    129,
    130,
    131,
    132,
    133,
    134,
    135,
    136,
    137,
    138,
    139,
    140,
    141,
    142,
    143,
    144,
    145,
    146,
    147,
    148,
    149,
    150,
    151,
    152,
    153,
    154,
    155,
    156,
    157,
    158,
    159,
    160,
    161,
    162,
    163,
    164,
    165,
    166,
    167,
    168,
    169,
    170,
    171,
    172,
    173,
    174,
    175,
    176,
    177,
    178,
    179,
    180,
    181,
    182,
    183,
    184,
    185,
    186,
    187,
    188,
    189,
    190,
    191,
    192,
    193,
    194,
    195,
    196,
    197,
    198,
    199,
    200,
    201,
    202,
    203,
    204,
    205,
    206,
    207,
    208,
    209,
    210,
    211,
    212,
    213,
    214,
    215,
    216,
    217,
    218,
    219,
    220,
    221,
    222,
    223,
    224,
    225,
    226,
    227,
    228,
    229,
    230,
    231,
    232,
    233,
    234,
    235,
    236,
    237,
    238,
    239,
    240,
    241,
    242,
    243,
    244,
    245,
    246,
    247,
    248,
    249,
    250,
    251,
    252,
    253,
    254,
    255,
    256
   ],
   "AcquisitionTime": [
    "153922.455000",
    "153924.455000",
    "153926.455000",
    "153928.455000",
    "153930.455000",
    "153932.455000",
    "153934.455000",
    "153936.455000",
    "153938.455000",
    "153940.455000",
    "153942.455000",
    "153944.455000",
    "153946.455000",
    "153948.455000",
    "153950.455000",
    "153952.455000",
    "153954.455000",
    "153956.455000",
    "153958.455000",
    "154000.455000",
    "154002.455000",
    "154004.455000",
    "154006.455000",
    "154008.455000",
    "154010.455000",
    "154012.455000",
    "154014.455000",
    "154016.455000",
    "154018.455000",
    "154020.455000",
    "154022.455000",
    "154024.455000",
    "154026.455000",
    "154028.455000",
    "154030.455000",
    "154032.455000",
    "154034.455000",
    "154036.455000",
    "154038.455000",
    "154040.455000",
    "154042.455000",
    "154044.455000",
    "154046.455000",
    "154048.455000",
    "154050.455000",
    "154052.455000",
    "154054.455000",
    "154056.455000",
    "154058.455000",
    "154100.455000",
    "154102.455000",
    "154104.455000",
    "154106.455000",
    "154108.455000",
    "154110.455000",
    "154112.455000",
    "154114.455000",
    "154116.455000",
    "154118.455000",
    "154120.455000",
    "154122.455000",
    "154124.455000",
    "154126.455000",
    "154128.455000",
    "154130.455000",
    "154132.455000",
    "154134.455000",
    "154136.455000",
    "154138.455000",
    "154140.455000",
    "154142.455000",
    "154144.455000",
    "154146.455000",
    "154148.455000",
    "154150.455000",
    "154152.455000",
    "154154.455000",
    "154156.455000",
    "154158.455000",
    "154200.455000",
    "154202.455000",
    "154204.455000",
    "154206.455000",
    "154208.455000",
    "154210.455000",
    "154212.455000",
    "154214.455000",
    "154216.455000",
    "154218.455000",
    "154220.455000",
    "154222.455000",
    "154224.455000",
    "154226.455000",
    "154228.455000",
    "154230.455000",
    "154232.455000",
    "154234.455000",
    "154236.455000",
    "154238.455000",
    "154240.455000",
    "154242.455000",
    "154244.455000",
    "154246.455000",
    "154248.455000",
    "154250.455000",
    "154252.455000",
    "154254.455000",
    "154256.455000",
    "154258.455000",
    "154300.455000",
    "154302.455000",
    "154304.455000",
    "154306.455000",
    "154308.455000",
    "154310.455000",
    "154312.455000",
    "154314.455000",
    "154316.455000",
    "154318.455000",
    "154320.455000",
    "154322.455000",
    "154324.455000",
    "154326.455000",
    "154328.455000",
    "154330.455000",
    "154332.455000",
    "154334.455000",
    "154336.455000",
    "154338.455000",
    "154340.455000",
    "154342.455000",
    "154344.455000",
    "154346.455000",
    "154348.455000",
    "154350.455000",
    "154352.455000",
    "154354.455000",
    "154356.455000",
    "154358.455000",
    "154400.455000",
    "154402.455000",
    "154404.455000",
    "154406.455000",
    "154408.455000",
    "154410.455000",
    "154412.455000",
    "154414.455000",
    "154416.455000",
    "154418.455000",
    "154420.455000",
    "154422.455000",
    "154424.455000",
    "154426.455000",
    "154428.455000",
    "154430.455000",
    "154432.455000",
    "154434.455000",
    "154436.455000",
    "154438.455000",
    "154440.455000",
    "154442.455000",
    "154444.455000",
    "154446.455000",
    "154448.455000",
    "154450.455000",
    "154452.455000",
    "154454.455000",
    "154456.455000",
    "154458.455000",
    "154500.455000",
    "154502.455000",
    "154504.455000",
    "154506.455000",
    "154508.455000",
    "154510.455000",
    "154512.455000",
    "154514.455000",
    "154516.455000",
    "154518.455000",
    "154520.455000",
    "154522.455000",
    "154524.455000",
    "154526.455000",
    "154528.455000",
    "154530.455000",
    "154532.455000",
    "154534.455000",
    "154536.455000",
    "154538.455000",
    "154540.455000",
    "154542.455000",
    "154544.455000",
    "154546.455000",
    "154548.455000",
    "154550.455000",
    "154552.455000",
    "154554.455000",
    "154556.455000",
    "154558.455000",
    "154600.455000",
    "154602.455000",
    "154604.455000",
    "154606.455000",
    "154608.455000",
    "154610.455000",
    "154612.455000",
    "154614.455000",
    "154616.455000",
    "154618.455000",
    "154620.455000",
    "154622.455000",
    "154624.455000",
    "154626.455000",
    "154628.455000",
    "154630.455000",
    "154632.455000",
    "154634.455000",
    "154636.455000",
    "154638.455000",
    "154640.455000",
    "154642.455000",
    "154644.455000",
    "154646.455000",
    "154648.455000",
    "154650.455000",
    "154652.455000",
    "154654.455000",
    "154656.455000",
    "154658.455000",
    "154700.455000",
    "154702.455000",
    "154704.455000",
    "154706.455000",
    "154708.455000",
    "154710.455000",
    "154712.455000",
    "154714.455000",
    "154716.455000",
    "154718.455000",
    "154720.455000",
    "154722.455000",
    "154724.455000",
    "154726.455000",
    "154728.455000",
    "154730.455000",
    "154732.455000",
    "154734.455000",
    "154736.455000",
    "154738.455000",
    "154740.455000",
    "154742.455000",
    "154744.455000",
    "154746.455000",
    "154748.455000",
    "154750.455000",
    "154752.455000"
   ],
   "ContentTime": [
    "153924.619000",
    "153926.114000",
    "153928.113000",
    "153930.113000",
    "153932.115000",
    "153934.114000",
    "153936.114000",
    "153938.114000",
    "153940.114000",
    "153942.115000",
    "153944.115000",
    "153946.114000",
    "153948.114000",
    "153950.115000",
    "153952.115000",
    "153954.115000",
    "153956.115000",
    "153958.115000",
    "154000.115000",
    "154002.114000",
    "154004.113000",
    "154006.113000",
    "154008.114000",
    "154010.114000",
    "154012.114000",
    "154014.114000",
    "154016.114000",
    "154018.114000",
    "154020.114000",
    "154022.113000",
    "154024.114000",
    "154026.114000",
    "154028.114000",
    "154030.115000",
    "154032.115000",
    "154034.114000",
    "154036.114000",
    "154038.113000",
    "154040.113000",
    "154042.114000",
    "154044.115000",
    "154046.114000",
    "154048.634000",
    "154050.115000",
    "154052.114000",
    "154054.115000",
    "154056.113000",
    "154058.114000",
    "154100.614000",
    "154102.114000",
    "154104.114000",
    "154106.115000",
    "154108.115000",
    "154110.114000",
    "154112.114000",
    "154114.114000",
    "154116.113000",
    "154118.114000",
    "154120.615000",
    "154122.114000",
    "154124.114000",
    "154126.114000",
    "154128.114000",
    "154130.113000",
    "154132.113000",
    "154134.114000",
    "154136.115000",
    "154138.114000",
    "154140.114000",
    "154142.115000",
    "154144.115000",
    "154146.114000",
    "154148.114000",
    "154150.113000",
    "154152.114000",
    "154154.114000",
    "154156.115000",
    "154158.115000",
    "154200.114000",
    "154202.114000",
    "154204.115000",
    "154206.113000",
    "154208.114000",
    "154210.114000",
    "154212.134000",
    "154214.114000",
    "154216.115000",
    "154218.114000",
    "154220.614000",
    "154222.115000",
    "154224.113000",
    "154226.113000",
    "154228.115000",
    "154230.114000",
    "154232.114000",
    "154234.115000",
    "154236.115000",
    "154238.115000",
    "154240.114000",
    "154242.113000",
    "154244.113000",
    "154246.114000",
    "154248.115000",
    "154250.115000",
    "154252.115000",
    "154254.114000",
    "154256.114000",
    "154258.113000",
    "154300.113000",
    "154302.115000",
    "154304.114000",
    "154306.114000",
    "154308.114000",
    "154310.115000",
    "154312.115000",
    "154314.614000",
    "154316.113000",
    "154318.114000",
    "154320.115000",
    "154322.115000",
    "154324.114000",
    "154326.115000",
    "154328.115000",
    "154330.114000",
    "154332.115000",
    "154334.614000",
    "154336.113000",
    "154338.115000",
    "154340.115000",
    "154342.115000",
    "154344.114000",
    "154346.114000",
    "154348.114000",
    "154350.113000",
    "154352.113000",
    "154354.114000",
    "154356.115000",
    "154358.115000",
    "154400.115000",
    "154402.114000",
    "154404.115000",
    "154406.114000",
    "154408.613000",
    "154410.614000",
    "154412.114000",
    "154414.114000",
    "154416.115000",
    "154418.114000",
    "154420.114000",
    "154422.114000",
    "154424.114000",
    "154426.114000",
    "154428.614000",
    "154430.114000",
    "154432.114000",
    "154434.115000",
    "154436.114000",
    "154438.115000",
    "154440.114000",
    "154442.114000",
    "154444.114000",
    "154446.114000",
    "154448.115000",
    "154450.115000",
    "154452.115000",
    "154454.115000",
    "154456.614000",
    "154458.115000",
    "154500.114000",
    "154502.114000",
    "154504.114000",
    "154506.115000",
    "154508.114000",
    "154510.115000",
    "154512.115000",
    "154514.115000",
    "154516.115000",
    "154518.113000",
    "154520.114000",
    "154522.115000",
    "154524.114000",
    "154526.114000",
    "154528.115000",
    "154530.114000",
    "154532.115000",
    "154534.114000",
    "154536.114000",
    "154538.114000",
    "154540.114000",
    "154542.114000",
    "154544.115000",
    "154546.114000",
    "154548.114000",
    "154550.115000",
    "154552.114000",
    "154554.114000",
    "154556.114000",
    "154558.114000",
    "154600.114000",
    "154602.115000",
    "154604.114000",
    "154606.115000",
    "154608.115000",
    "154610.113000",
    "154612.113000",
    "154614.115000",
    "154616.114000",
    "154618.115000",
    "154620.114000",
    "154622.115000",
    "154624.115000",
    "154626.114000",
    "154628.113000",
    "154630.114000",
    "154632.114000",
    "154634.114000",
    "154636.115000",
    "154638.115000",
    "154640.115000",
    "154642.115000",
    "154644.126000",
    "154646.114000",
    "154648.113000",
    "154650.114000",
    "154652.114000",
    "154654.114000",
    "154656.614000",
    "154658.114000",
    "154700.114000",
    "154702.114000",
    "154704.114000",
    "154706.114000",
    "154708.115000",
    "154710.115000",
    "154712.115000",
    "154714.115000",
    "154716.115000",
    "154718.114000",
    "154720.114000",
    "154722.114000",
    "154724.115000",
    "154726.115000",
    "154728.114000",
    "154730.115000",
    "154732.114000",
    "154734.114000",
    "154736.114000",
    "154738.114000",
    "154740.113000",
    "154742.114000",
    "154744.114000",
    "154746.115000",
    "154748.115000",
    "154750.615000",
    "154752.114000",
    "154754.150000"
   ],
   "InstanceCreationTime": [
    "153924.619000",
    "153926.114000",
    "153928.113000",
    "153930.113000",
    "153932.115000",
    "153934.114000",
    "153936.114000",
    "153938.114000",
    "153940.114000",
    "153942.115000",
    "153944.115000",
    "153946.114000",
    "153948.114000",
    "153950.115000",
    "153952.115000",
    "153954.115000",
    "153956.115000",
    "153958.115000",
    "154000.115000",
    "154002.114000",
    "154004.113000",
    "154006.113000",
    "154008.114000",
    "154010.114000",
    "154012.114000",
    "154014.114000",
    "154016.114000",
    "154018.114000",
    "154020.114000",
    "154022.113000",
    "154024.114000",
    "154026.114000",
    "154028.114000",
    "154030.115000",
    "154032.115000",
    "154034.114000",
    "154036.114000",
    "154038.113000",
    "154040.113000",
    "154042.114000",
    "154044.115000",
    "154046.114000",
    "154048.634000",
    "154050.115000",
    "154052.114000",
    "154054.115000",
    "154056.113000",
    "154058.114000",
    "154100.614000",
    "154102.114000",
    "154104.114000",
    "154106.115000",
    "154108.115000",
    "154110.114000",
    "154112.114000",
    "154114.114000",
    "154116.113000",
    "154118.114000",
    "154120.615000",
    "154122.114000",
    "154124.114000",
    "154126.114000",
    "154128.114000",
    "154130.113000",
    "154132.113000",
    "154134.114000",
    "154136.115000",
    "154138.114000",
    "154140.114000",
    "154142.115000",
    "154144.115000",
    "154146.114000",
    "154148.114000",
    "154150.113000",
    "154152.114000",
    "154154.114000",
    "154156.115000",
    "154158.115000",
    "154200.114000",
    "154202.114000",
    "154204.115000",
    "154206.113000",
    "154208.114000",
    "154210.114000",
    "154212.134000",
    "154214.114000",
    "154216.115000",
    "154218.114000",
    "154220.614000",
    "154222.115000",
    "154224.113000",
    "154226.113000",
    "154228.115000",
    "154230.114000",
    "154232.114000",
    "154234.115000",
    "154236.115000",
    "154238.115000",
    "154240.114000",
    "154242.113000",
    "154244.113000",
    "154246.114000",
    "154248.115000",
    "154250.115000",
    "154252.115000",
    "154254.114000",
    "154256.114000",
    "154258.113000",
    "154300.113000",
    "154302.115000",
    "154304.114000",
    "154306.114000",
    "154308.114000",
    "154310.115000",
    "154312.115000",
    "154314.614000",
    "154316.113000",
    "154318.114000",
    "154320.115000",
    "154322.115000",
    "154324.114000",
    "154326.115000",
    "154328.115000",
    "154330.114000",
    "154332.115000",
    "154334.614000",
    "154336.113000",
    "154338.115000",
    "154340.115000",
    "154342.115000",
    "154344.114000",
    "154346.114000",
    "154348.114000",
    "154350.113000",
    "154352.113000",
    "154354.114000",
    "154356.115000",
    "154358.115000",
    "154400.115000",
    "154402.114000",
    "154404.115000",
    "154406.114000",
    "154408.613000",
    "154410.614000",
    "154412.114000",
    "154414.114000",
    "154416.115000",
    "154418.114000",
    "154420.114000",
    "154422.114000",
    "154424.114000",
    "154426.114000",
    "154428.614000",
    "154430.114000",
    "154432.114000",
    "154434.115000",
    "154436.114000",
    "154438.115000",
    "154440.114000",
    "154442.114000",
    "154444.114000",
    "154446.114000",
    "154448.115000",
    "154450.115000",
    "154452.115000",
    "154454.115000",
    "154456.614000",
    "154458.115000",
    "154500.114000",
    "154502.114000",
    "154504.114000",
    "154506.115000",
    "154508.114000",
    "154510.115000",
    "154512.115000",
    "154514.115000",
    "154516.115000",
    "154518.113000",
    "154520.114000",
    "154522.115000",
    "154524.114000",
    "154526.114000",
    "154528.115000",
    "154530.114000",
    "154532.115000",
    "154534.114000",
    "154536.114000",
    "154538.114000",
    "154540.114000",
    "154542.114000",
    "154544.115000",
    "154546.114000",
    "154548.114000",
    "154550.115000",
    "154552.114000",
    "154554.114000",
    "154556.114000",
    "154558.114000",
    "154600.114000",
    "154602.115000",
    "154604.114000",
    "154606.115000",
    "154608.115000",
    "154610.113000",
    "154612.113000",
    "154614.115000",
    "154616.114000",
    "154618.115000",
    "154620.114000",
    "154622.115000",
    "154624.115000",
    "154626.114000",
    "154628.113000",
    "154630.114000",
    "154632.114000",
    "154634.114000",
    "154636.115000",
    "154638.115000",
    "154640.115000",
    "154642.115000",
    "154644.126000",
    "154646.114000",
    "154648.113000",
    "154650.114000",
    "154652.114000",
    "154654.114000",
    "154656.614000",
    "154658.114000",
    "154700.114000",
    "154702.114000",
    "154704.114000",
    "154706.114000",
    "154708.115000",
    "154710.115000",
    "154712.115000",
    "154714.115000",
    "154716.115000",
    "154718.114000",
    "154720.114000",
    "154722.114000",
    "154724.115000",
    "154726.115000",
    "154728.114000",
    "154730.115000",
    "154732.114000",
    "154734.114000",
    "154736.114000",
    "154738.114000",
    "154740.113000",
    "154742.114000",
    "154744.114000",
    "154746.115000",
    "154748.115000",
    "154750.615000",
    "154752.114000",
    "154754.150000"
   ],
   "InstanceNumber": [
    1,
    2,
    3,
    4,
    5,
    6,
    7,
    8,
    9,
    10,
    11,
    12,
    13,
    14,
    15,
    16,
    17,
    18,
    19,
    20,
    21,
    22,
    23,
    24,
    25,
    26,
    27,
    28,
    29,
    30,
    31,
    32,
    33,
    34,
    35,
    36,
    37,
    38,
    39,
    40,
    41,
    42,
    43,
    44,
    45,
    46,
    47,
    48,
    49,
    50,
    51,
    52,
    53,
    54,
    55,
    56,
    57,
    58,
    59,
    60,
    61,
    62,
    63,
    64,
    65,
    66,
    67,
    68,
    69,
    70,
    71,
    72,
    73,
    74,
    75,
    76,
    77,
    78,
    79,
    80,
    81,
    82,
    83,
    84,
    85,
    86,
    87,
    88,
    89,
    90,
    91,
    92,
    93,
    94,
    95,
    96,
    97,
    98,
    99,
    100,
    101,
    102,
    103,
    104,
    105,
    106,
    107,
    108,
    109,
    110,
    111,
    112,
    113,
    114,
    115,
    116,
    117,
    118,
    119,
    120,
    121,
    122,
    123,
    124,
    125,
    126,
    127,
    128,
    129,
    130,
    131,
    132,
    133,
    134,
    135,
    136,
    137,
    138,
    139,
    140,
    141,
    142,
    143,
    144,
    145,
    146,
    147,
    148,
    149,
    150,
    151,
    152,
    153,
    154,
    155,
    156,
    157,
    158,
    159,
    160,
    161,
    162,
    163,
    164,
    165,
    166,
    167,
    168,
    169,
    170,
    171,
    172,
    173,
    174,
    175,
    176,
    177,
    178,
    179,
    180,
    181,
    182,
    183,
    184,
    185,
    186,
    187,
    188,
    189,
    190,
    191,
    192,
    193,
    194,
    195,
    196,
    197,
    198,
    199,
    200,
    201,
    202,
    203,
    204,
    205,
    206,
    207,
    208,
    209,
    210,
    211,
    212,
    213,
    214,
    215,
    216,
    217,
    218,
    219,
    220,
    221,
    222,
    223,
    224,
    225,
    226,
    227,
    228,
    229,
    230,
    231,
    232,
    233,
    234,
    235,
    236,
    237,
    238,
    239,
    240,
    241,
    242,
    243,
    244,
    245,
    246,
    247,
    248,
    249,
    250,
    251,
    252,
    253,
    254,
    255,
    256
   ],
   "LargestImagePixelValue": [
    4095,
    4077,
    4090,
    4079,
    4095,
    4078,
    4067,
    4084,
    4083,
    4048,
    4057,
    4048,
    4061,
    4076,
    4071,
    4095,
    4059,
    4095,
    4095,
    4095,
    4095,
    4095,
    4095,
    4095,
    4095,
    4095,
    4095,
    4095,
    4095,
    4095,
    4095,
    4095,
    4095,
    4095,
    4095,
    4095,
    4095,
    4095,
    4095,
    4095,
    4095,
    4095,
    4095,
    4095,
    4095,
    4095,
    4095,
    4095,
    4095,
    4095,
    4095,
    4095,
    4095,
    4095,
    4095,
    4095,
    4095,
    4095,
    4095,
    4095,
    4095,
    4095,
    4095,
    4095,
    4095,
    4095,
    4095,
    4095,
    4095,
    4095,
    4095,
    4095,
    4095,
    4095,
    4095,
    4095,
    4095,
    4095,
    4095,
    4095,
    4095,
    4095,
    4095,
    4095,
    4095,
    4095,
    4095,
    4095,
    4095,
    4095,
    4095,
    4095,
    4095,
    4095,
    4095,
    4095,
    4095,
    4095,
    4095,
    4095,
    4095,
    4095,
    4095,
    4095,
    4095,
    4095,
    4095,
    4095,
    4095,
    4095,
    4095,
    4095,
    4095,
    4095,
    4095,
    4095,
    4095,
    4095,
    4095,
    4095,
    4095,
    4095,
    4095,
    4095,
    4095,
    4095,
    4095,
    4095,
    4095,
    4095,
    4095,
    4095,
    4095,
    4095,
    4095,
    4095,
    4095,
    4095,
    4095,
    4095,
    4095,
    4095,
    4095,
    4095,
    4095,
    4095,
    4095,
    4095,
    4095,
    4095,
    4095,
    4095,
    4095,
    4095,
    4095,
    4095,
    4095,
    4095,
    4095,
    4095,
    4095,
    4095,
    4095,
    4095,
    4095,
    4095,
    4095,
    4095,
    4095,
    4095,
    4095,
    4095,
    4095,
    4095,
    4095,
    4095,
    4095,
    4095,
    4095,
    4095,
    4095,
    4095,
    4095,
    4095,
    4095,
    4095,
    4095,
    4095,
    4095,
    4095,
    4095,
    4095,
    4095,
    4095,
    4095,
    4095,
    4095,
    4095,
    4095,
    4095,
    4095,
    4095,
    4095,
    4095,
    4095,
    4095,
    4095,
    4095,
    4095,
    4095,
    4095,
    4095,
    4095,
    4095,
    4095,
    4095,
    4095,
    4095,
    4095,
    4095,
    4095,
    4095,
    4095,
    4095,
    4095,
    4095,
    4095,
    4095,
    4095,
    4095,
    4095,
    4095,
    4095,
    4095,
    4095,
    4095,
    4095,
    4095,
    4095,
    4095,
    4095,
    4095,
    4095,
    4095,
    4095,
    4095,
    4095,
    4095,
    4095,
    4095,
    4095,
    4095,
    4095,
    4095,
    4095,
    4095
   ],
   "WindowCenter": [
    823.0,
    824.0,
    824.0,
    822.0,
    820.0,
    821.0,
    822.0,
    821.0,
    821.0,
    821.0,
    823.0,
    823.0,
    822.0,
    821.0,
    822.0,
    823.0,
    822.0,
    820.0,
    820.0,
    819.0,
    820.0,
    821.0,
    820.0,
    819.0,
    821.0,
    821.0,
    820.0,
    817.0,
    816.0,
    817.0,
    818.0,
    820.0,
    821.0,
    820.0,
    819.0,
    819.0,
    821.0,
    821.0,
    821.0,
    821.0,
    821.0,
    823.0,
    823.0,
    821.0,
    819.0,
    818.0,
    820.0,
    821.0,
    821.0,
    819.0,
    819.0,
    821.0,
    822.0,
    823.0,
    821.0,
    821.0,
    820.0,
    820.0,
    821.0,
    823.0,
    824.0,
    822.0,
    821.0,
    821.0,
    823.0,
    823.0,
    821.0,
    819.0,
    819.0,
    820.0,
    823.0,
    823.0,
    822.0,
    821.0,
    822.0,
    822.0,
    822.0,
    821.0,
    822.0,
    822.0,
    822.0,
    822.0,
    822.0,
    821.0,
    821.0,
    821.0,
    820.0,
    821.0,
    821.0,
    822.0,
    822.0,
    821.0,
    821.0,
    822.0,
    822.0,
