{
  "AcquisitionMatrixPE": 100,
  "AcquisitionNumber": 1,
  "AcquisitionTime": "16:07:16.375000",
  "BandwidthPerPixelPhaseEncode": 18.519,
  "BaseResolution": 100,
  "BodyPartExamined": "BRAIN",
  "CoilCombinationMethod": "Sum of Squares",
  "ConsistencyInfo": "N4_VE11C_LATEST_20160120",
  "ConversionSoftware": "dcm2niix",
  "ConversionSoftwareVersion": "v1.0.20211006",
  "DerivedVendorReportedEchoSpacing": 0.000539986,
  "DeviceSerialNumber": "166078",
  "DwellTime": 2.1e-06,
  "EchoTime": 0.034,
  "EchoTrainLength": 100,
  "EffectiveEchoSpacing": 0.000539986,
  "FlipAngle": 90,
  "ImageOrientationPatientDICOM": [0.999877, 0.00090137, 0.0156322, -2.35915e-09, 0.998342, -0.0575655],
  "ImageOrientationText": "Tra>Cor(-3.3)>Sag(0.9)",
  "ImageType": [
    "ORIGINAL",
    "PRIMARY",
    "M",
    "ND",
    "MOSAIC"
],
  "ImagingFrequency": 123.258,
  "InPlanePhaseEncodingDirectionDICOM": "COL",
  "InstitutionAddress": "Street StreetNo,Bei Jing,District,CN,ZIP",
  "InstitutionName": "BeiJing Normal University",
  "InstitutionalDepartmentName": "Department",
  "MRAcquisitionType": "2D",
  "MagneticFieldStrength": 3,
  "Manufacturer": "Siemens",
  "ManufacturersModelName": "Prisma",
  "Modality": "MR",
  "MultibandAccelerationFactor": 3,
  "PartialFourier": 1,
  "PatientPosition": "HFS",
  "PercentPhaseFOV": 100,
  "PercentSampling": 100,
  "PhaseEncodingDirection": "j-",
  "PhaseEncodingSteps": 100,
  "PhaseResolution": 1,
  "PixelBandwidth": 2380,
  "ProcedureStepDescription": "BNU_P2018_64CH^Zhen.ZongLei",
  "ProtocolName": "bold_100x100_s3_2x2x2_static_256",
  "PulseSequenceDetails": "%SiemensSeq%\\ep2d_bold",
  "ReceiveCoilActiveElements": "HC1-7;NC1",
  "ReceiveCoilName": "HeadNeck_64",
  "ReconMatrixPE": 100,
  "RefLinesPE": 32,
  "RepetitionTime": 2,
  "SAR": 0.0728807,
  "ScanOptions": "FS",
  "ScanningSequence": "EP",
  "SequenceName": "*epfid2d1_100",
  "SequenceVariant": "SK",
  "SeriesDescription": "bold_100x100_s3_2x2x2_static_256",
  "SeriesNumber": 13,
  "ShimSetting": [-5445, -11514, -1240, 285, -7, -231, -154, 83],
  "SliceThickness": 2,
  "SliceTiming": [1.485, 0, 0.99, 0.0825, 1.0725, 0.165, 1.155, 0.2475, 1.2375, 0.33, 1.32, 0.4125, 1.4025, 0.5775, 1.5675, 0.66, 1.65, 0.7425, 1.7325, 0.825, 1.815, 0.9075, 1.8975, 0.495, 1.485, 0, 0.99, 0.0825, 1.0725, 0.165, 1.155, 0.2475, 1.2375, 0.33, 1.32, 0.4125, 1.4025, 0.5775, 1.5675, 0.66, 1.65, 0.7425, 1.7325, 0.825, 1.815, 0.9075, 1.8975, 0.495, 1.485, 0, 0.99, 0.0825, 1.0725, 0.165, 1.155, 0.2475, 1.2375, 0.33, 1.32, 0.4125, 1.4025, 0.5775, 1.5675, 0.66, 1.65, 0.7425, 1.7325, 0.825, 1.815, 0.9075, 1.8975, 0.495],
  "SoftwareVersions": "syngo MR E11",
  "SpacingBetweenSlices": 2,
  "StationName": "AWP166078",
  "TaskName": "naturalvision",
  "TotalReadoutTime": 0.0534586,
  "TxRefAmp": 202.73,
  "dcmmeta_affine": [
    [-1.999754786491394, -4.718291979344258e-09, 0.03131626173853874, 98.41871643066406],
    [-0.001802740152925253, 1.9966834783554077, -0.11511683464050293, -94.77869415283203],
    [0.03126433119177818, 0.1151309460401535, 1.99643874168396, -59.11777877807617],
    [0.0, 0.0, 0.0, 1.0]
],
  "dcmmeta_reorient_transform": [
    [0.0, -1.0, 0.0, 99.0],
    [1.0, 0.0, 0.0, 0.0],
    [0.0, 0.0, 1.0, 0.0],
    [0.0, 0.0, 0.0, 1.0]
],
  "dcmmeta_shape": [100, 100, 72, 256],
  "dcmmeta_slice_dim": 2,
  "dcmmeta_version": 0.6,
  "global": {
    "const": {
      "AcquisitionMatrix": [100, 0, 0, 100],
      "AngioFlag": "N",
      "BitsAllocated": 16,
      "BitsStored": 12,
      "BodyPartExamined": "BRAIN",
      "Columns": 900,
      "EchoNumbers": 1,
      "EchoTime": 34.0,
      "EchoTrainLength": 100,
      "FlipAngle": 90.0,
      "HighBit": 11,
      "ImageOrientationPatient": [0.99987740396058, 0.00090137006937, 0.01563216495077, -2.359146e-09, 0.99834173312791, -0.0575654748539],
      "ImagePositionPatient": [-898.32063389822, -902.28745418584, -14.173168059849],
      "ImageType": [
        "ORIGINAL",
        "PRIMARY",
        "M",
        "ND",
        "MOSAIC"
],
      "ImagedNucleus": "1H",
      "ImagingFrequency": 123.257738,
      "InPlanePhaseEncodingDirection": "COL",
      "MRAcquisitionType": "2D",
      "MagneticFieldStrength": 3.0,
      "Manufacturer": "SIEMENS",
      "ManufacturerModelName": "Prisma",
      "Modality": "MR",
      "NumberOfAverages": 1.0,
      "NumberOfPhaseEncodingSteps": 100,
      "PercentPhaseFieldOfView": 100.0,
      "PercentSampling": 100.0,
      "PerformedProcedureStepStartTime": "143130.298000",
      "PhotometricInterpretation": "MONOCHROME2",
      "PixelBandwidth": 2380.0,
      "PixelRepresentation": 0,
      "PixelSpacing": [2.0, 2.0],
      "ProtocolName": "bold_100x100_s3_2x2x2_static_256",
      "RepetitionTime": 2000.0,
      "Rows": 900,
      "SAR": 0.07288073351329,
      "SamplesPerPixel": 1,
      "ScanOptions": "FS",
      "ScanningSequence": "EP",
      "SequenceName": "*epfid2d1_100",
      "SequenceVariant": "SK",
      "SeriesDescription": "bold_100x100_s3_2x2x2_static_256",
      "SeriesNumber": 13,
      "SeriesTime": "160718.933000",
      "SliceLocation": -52.016146813481,
      "SliceThickness": 2.0,
      "SmallestImagePixelValue": 0,
      "SoftwareVersions": "syngo MR E11",
      "SpacingBetweenSlices": 2.0000000035893,
      "SpecificCharacterSet": "ISO_IR 100",
      "StudyID": "1",
      "StudyTime": "143130.205000",
      "TransmitCoilName": "Body",
      "VariableFlipAngleFlag": "N",
      "WindowCenterWidthExplanation": "Algo1",
      "dBdt": 0.0},
    "slices": {}
  },
  "time": {
    "samples": {
      "AcquisitionNumber": [1, 2, 3, 4, 5, 6, 7, 8, 9, 10, 11, 12, 13, 14, 15, 16, 17, 18, 19, 20, 21, 22, 23, 24, 25, 26, 27, 28, 29, 30, 31, 32, 33, 34, 35, 36, 37, 38, 39, 40, 41, 42, 43, 44, 45, 46, 47, 48, 49, 50, 51, 52, 53, 54, 55, 56, 57, 58, 59, 60, 61, 62, 63, 64, 65, 66, 67, 68, 69, 70, 71, 72, 73, 74, 75, 76, 77, 78, 79, 80, 81, 82, 83, 84, 85, 86, 87, 88, 89, 90, 91, 92, 93, 94, 95, 96, 97, 98, 99, 100, 101, 102, 103, 104, 105, 106, 107, 108, 109, 110, 111, 112, 113, 114, 115, 116, 117, 118, 119, 120, 121, 122, 123, 124, 125, 126, 127, 128, 129, 130, 131, 132, 133, 134, 135, 136, 137, 138, 139, 140, 141, 142, 143, 144, 145, 146, 147, 148, 149, 150, 151, 152, 153, 154, 155, 156, 157, 158, 159, 160, 161, 162, 163, 164, 165, 166, 167, 168, 169, 170, 171, 172, 173, 174, 175, 176, 177, 178, 179, 180, 181, 182, 183, 184, 185, 186, 187, 188, 189, 190, 191, 192, 193, 194, 195, 196, 197, 198, 199, 200, 201, 202, 203, 204, 205, 206, 207, 208, 209, 210, 211, 212, 213, 214, 215, 216, 217, 218, 219, 220, 221, 222, 223, 224, 225, 226, 227, 228, 229, 230, 231, 232, 233, 234, 235, 236, 237, 238, 239, 240, 241, 242, 243, 244, 245, 246, 247, 248, 249, 250, 251, 252, 253, 254, 255, 256],
      "AcquisitionTime": ["160716.375000", "160718.375000", "160720.375000", "160722.375000", "160724.375000", "160726.375000", "160728.375000", "160730.375000", "160732.375000", "160734.375000", "160736.375000", "160738.375000", "160740.375000", "160742.375000", "160744.375000", "160746.375000", "160748.375000", "160750.375000", "160752.375000", "160754.375000", "160756.375000", "160758.375000", "160800.375000", "160802.375000", "160804.375000", "160806.375000", "160808.375000", "160810.375000", "160812.375000", "160814.375000", "160816.375000", "160818.375000", "160820.375000", "160822.375000", "160824.375000", "160826.375000", "160828.375000", "160830.375000", "160832.375000", "160834.375000", "160836.375000", "160838.375000", "160840.375000", "160842.375000", "160844.375000", "160846.375000", "160848.375000", "160850.375000", "160852.375000", "160854.375000", "160856.375000", "160858.375000", "160900.375000", "160902.375000", "160904.375000", "160906.375000", "160908.375000", "160910.375000", "160912.375000", "160914.375000", "160916.375000", "160918.375000", "160920.375000", "160922.375000", "160924.375000", "160926.375000", "160928.375000", "160930.375000", "160932.375000", "160934.375000", "160936.375000", "160938.375000", "160940.375000", "160942.375000", "160944.375000", "160946.375000", "160948.375000", "160950.375000", "160952.375000", "160954.375000", "160956.375000", "160958.375000", "161000.375000", "161002.375000", "161004.375000", "161006.375000", "161008.375000", "161010.375000", "161012.375000", "161014.375000", "161016.375000", "161018.375000", "161020.375000", "161022.375000", "161024.375000", "161026.375000", "161028.375000", "161030.375000", "161032.375000", "161034.375000", "161036.375000", "161038.375000", "161040.375000", "161042.375000", "161044.375000", "161046.375000", "161048.375000", "161050.375000", "161052.375000", "161054.375000", "161056.375000", "161058.375000", "161100.375000", "161102.375000", "161104.375000", "161106.375000", "161108.375000", "161110.375000", "161112.375000", "161114.375000", "161116.375000", "161118.375000", "161120.375000", "161122.375000", "161124.375000", "161126.375000", "161128.375000", "161130.375000", "161132.375000", "161134.375000", "161136.375000", "161138.375000", "161140.375000", "161142.375000", "161144.375000", "161146.375000", "161148.375000", "161150.375000", "161152.375000", "161154.375000", "161156.375000", "161158.375000", "161200.375000", "161202.375000", "161204.375000", "161206.375000", "161208.375000", "161210.375000", "161212.375000", "161214.375000", "161216.375000", "161218.375000", "161220.375000", "161222.375000", "161224.375000", "161226.375000", "161228.375000", "161230.375000", "161232.375000", "161234.375000", "161236.375000", "161238.375000", "161240.375000", "161242.375000", "161244.375000", "161246.375000", "161248.375000", "161250.375000", "161252.375000", "161254.375000", "161256.375000", "161258.375000", "161300.375000", "161302.375000", "161304.375000", "161306.375000", "161308.375000", "161310.375000", "161312.375000", "161314.375000", "161316.375000", "161318.375000", "161320.375000", "161322.375000", "161324.375000", "161326.375000", "161328.375000", "161330.375000", "161332.375000", "161334.375000", "161336.375000", "161338.375000", "161340.375000", "161342.375000", "161344.375000", "161346.375000", "161348.375000", "161350.375000", "161352.375000", "161354.375000", "161356.375000", "161358.375000", "161400.375000", "161402.375000", "161404.375000", "161406.375000", "161408.375000", "161410.375000", "161412.375000", "161414.375000", "161416.375000", "161418.375000", "161420.375000", "161422.375000", "161424.375000", "161426.375000", "161428.375000", "161430.375000", "161432.375000", "161434.375000", "161436.375000", "161438.375000", "161440.375000", "161442.375000", "161444.375000", "161446.375000", "161448.375000", "161450.375000", "161452.375000", "161454.375000", "161456.375000", "161458.375000", "161500.375000", "161502.375000", "161504.375000", "161506.375000", "161508.375000", "161510.375000", "161512.375000", "161514.375000", "161516.375000", "161518.375000", "161520.375000", "161522.375000", "161524.375000", "161526.375000", "161528.375000", "161530.375000", "161532.375000", "161534.375000", "161536.375000", "161538.375000", "161540.375000", "161542.375000", "161544.375000", "161546.375000"],
      "ContentTime": ["160718.937000", "160720.432000", "160722.431000", "160724.432000", "160726.431000", "160728.431000", "160730.433000", "160732.433000", "160734.432000", "160736.432000", "160738.432000", "160740.431000", "160742.432000", "160744.431000", "160746.432000", "160748.433000", "160750.432000", "160752.432000", "160754.433000", "160756.431000", "160758.432000", "160800.431000", "160802.432000", "160804.431000", "160806.433000", "160808.432000", "160810.432000", "160812.432000", "160814.432000", "160816.431000", "160818.432000", "160820.432000", "160822.432000", "160824.432000", "160826.433000", "160828.432000", "160830.433000", "160832.431000", "160834.431000", "160836.431000", "160838.431000", "160840.433000", "160842.433000", "160844.433000", "160846.433000", "160848.432000", "160850.432000", "160852.432000", "160854.432000", "160856.432000", "160858.433000", "160900.432000", "160902.432000", "160904.433000", "160906.431000", "160908.432000", "160910.432000", "160912.432000", "160914.431000", "160916.432000", "160918.432000", "160920.432000", "160922.433000", "160924.431000", "160926.432000", "160928.431000", "160930.432000", "160932.431000", "160934.432000", "160936.433000", "160938.433000", "160940.433000", "160942.432000", "160944.432000", "160946.432000", "160948.432000", "160950.432000", "160952.433000", "160954.432000", "160956.432000", "160958.433000", "161000.431000", "161002.431000", "161004.432000", "161006.432000", "161008.433000", "161010.432000", "161012.433000", "161014.432000", "161016.432000", "161018.431000", "161020.431000", "161022.431000", "161024.431000", "161026.433000", "161028.433000", "161030.433000", "161032.432000", "161034.431000", "161036.431000", "161038.431000", "161040.431000", "161042.431000", "161044.433000", "161046.432000", "161048.433000", "161050.433000", "161052.431000", "161054.431000", "161056.431000", "161058.432000", "161100.433000", "161102.433000", "161104.433000", "161106.432000", "161108.433000", "161110.431000", "161112.431000", "161114.432000", "161116.431000", "161118.432000", "161120.433000", "161122.432000", "161124.433000", "161126.432000", "161128.432000", "161130.432000", "161132.431000", "161134.432000", "161136.433000", "161138.433000", "161140.433000", "161142.432000", "161144.432000", "161146.431000", "161148.431000", "161150.432000", "161152.431000", "161154.432000", "161156.433000", "161158.432000", "161200.432000", "161202.432000", "161204.432000", "161206.431000", "161208.432000", "161210.432000", "161212.432000", "161214.433000", "161216.433000", "161218.432000", "161220.431000", "161222.432000", "161224.431000", "161226.432000", "161228.432000", "161230.433000", "161232.433000", "161234.433000", "161236.431000", "161238.431000", "161240.432000", "161242.431000", "161244.432000", "161246.432000", "161248.432000", "161250.433000", "161252.433000", "161254.431000", "161256.432000", "161258.431000", "161300.432000", "161302.432000", "161304.433000", "161306.433000", "161308.433000", "161310.432000", "161312.431000", "161314.432000", "161316.431000", "161318.432000", "161320.432000", "161322.433000", "161324.433000", "161326.433000", "161328.433000", "161330.431000", "161332.431000", "161334.432000", "161336.432000", "161338.433000", "161340.432000", "161342.433000", "161344.433000", "161346.432000", "161348.432000", "161350.432000", "161352.432000", "161354.432000", "161356.433000", "161358.432000", "161400.433000", "161402.433000", "161404.432000", "161406.432000", "161408.432000", "161410.432000", "161412.432000", "161414.433000", "161416.432000", "161418.432000", "161420.433000", "161422.431000", "161424.431000", "161426.432000", "161428.432000", "161430.432000", "161432.432000", "161434.433000", "161436.433000", "161438.433000", "161440.431000", "161442.432000", "161444.431000", "161446.432000", "161448.433000", "161450.433000", "161452.432000", "161454.433000", "161456.432000", "161458.431000", "161500.432000", "161502.432000", "161504.432000", "161506.432000", "161508.433000", "161510.432000", "161512.433000", "161514.432000", "161516.432000", "161518.432000", "161520.431000", "161522.433000", "161524.433000", "161526.433000", "161528.433000", "161530.433000", "161532.432000", "161534.432000", "161536.432000", "161538.432000", "161540.433000", "161542.433000", "161544.433000", "161546.433000", "161548.251000"],
      "InstanceCreationTime": ["160718.937000", "160720.432000", "160722.431000", "160724.432000", "160726.431000", "160728.431000", "160730.433000", "160732.433000", "160734.432000", "160736.432000", "160738.432000", "160740.431000", "160742.432000", "160744.431000", "160746.432000", "160748.433000", "160750.432000", "160752.432000", "160754.433000", "160756.431000", "160758.432000", "160800.431000", "160802.432000", "160804.431000", "160806.433000", "160808.432000", "160810.432000", "160812.432000", "160814.432000", "160816.431000", "160818.432000", "160820.432000", "160822.432000", "160824.432000", "160826.433000", "160828.432000", "160830.433000", "160832.431000", "160834.431000", "160836.431000", "160838.431000", "160840.433000", "160842.433000", "160844.433000", "160846.433000", "160848.432000", "160850.432000", "160852.432000", "160854.432000", "160856.432000", "160858.433000", "160900.432000", "160902.432000", "160904.433000", "160906.431000", "160908.432000", "160910.432000", "160912.432000", "160914.431000", "160916.432000", "160918.432000", "160920.432000", "160922.433000", "160924.431000", "160926.432000", "160928.431000", "160930.432000", "160932.431000", "160934.432000", "160936.433000", "160938.433000", "160940.433000", "160942.432000", "160944.432000", "160946.432000", "160948.432000", "160950.432000", "160952.433000", "160954.432000", "160956.432000", "160958.433000", "161000.431000", "161002.431000", "161004.432000", "161006.432000", "161008.433000", "161010.432000", "161012.433000", "161014.432000", "161016.432000", "161018.431000", "161020.431000", "161022.431000", "161024.431000", "161026.433000", "161028.433000", "161030.433000", "161032.432000", "161034.431000", "161036.431000", "161038.431000", "161040.431000", "161042.431000", "161044.433000", "161046.432000", "161048.433000", "161050.433000", "161052.431000", "161054.431000", "161056.431000", "161058.432000", "161100.433000", "161102.433000", "161104.433000", "161106.432000", "161108.433000", "161110.431000", "161112.431000", "161114.432000", "161116.431000", "161118.432000", "161120.433000", "161122.432000", "161124.433000", "161126.432000", "161128.432000", "161130.432000", "161132.431000", "161134.432000", "161136.433000", "161138.433000", "161140.433000", "161142.432000", "161144.432000", "161146.431000", "161148.431000", "161150.432000", "161152.431000", "161154.432000", "161156.433000", "161158.432000", "161200.432000", "161202.432000", "161204.432000", "161206.431000", "161208.432000", "161210.432000", "161212.432000", "161214.433000", "161216.433000", "161218.432000", "161220.431000", "161222.432000", "161224.431000", "161226.432000", "161228.432000", "161230.433000", "161232.433000", "161234.433000", "161236.431000", "161238.431000", "161240.432000", "161242.431000", "161244.432000", "161246.432000", "161248.432000", "161250.433000", "161252.433000", "161254.431000", "161256.432000", "161258.431000", "161300.432000", "161302.432000", "161304.433000", "161306.433000", "161308.433000", "161310.432000", "161312.431000", "161314.432000", "161316.431000", "161318.432000", "161320.432000", "161322.433000", "161324.433000", "161326.433000", "161328.433000", "161330.431000", "161332.431000", "161334.432000", "161336.432000", "161338.433000", "161340.432000", "161342.433000", "161344.433000", "161346.432000", "161348.432000", "161350.432000", "161352.432000", "161354.432000", "161356.433000", "161358.432000", "161400.433000", "161402.433000", "161404.432000", "161406.432000", "161408.432000", "161410.432000", "161412.432000", "161414.433000", "161416.432000", "161418.432000", "161420.433000", "161422.431000", "161424.431000", "161426.432000", "161428.432000", "161430.432000", "161432.432000", "161434.433000", "161436.433000", "161438.433000", "161440.431000", "161442.432000", "161444.431000", "161446.432000", "161448.433000", "161450.433000", "161452.432000", "161454.433000", "161456.432000", "161458.431000", "161500.432000", "161502.432000", "161504.432000", "161506.432000", "161508.433000", "161510.432000", "161512.433000", "161514.432000", "161516.432000", "161518.432000", "161520.431000", "161522.433000", "161524.433000", "161526.433000", "161528.433000", "161530.433000", "161532.432000", "161534.432000", "161536.432000", "161538.432000", "161540.433000", "161542.433000", "161544.433000", "161546.433000", "161548.251000"],
      "InstanceNumber": [1, 2, 3, 4, 5, 6, 7, 8, 9, 10, 11, 12, 13, 14, 15, 16, 17, 18, 19, 20, 21, 22, 23, 24, 25, 26, 27, 28, 29, 30, 31, 32, 33, 34, 35, 36, 37, 38, 39, 40, 41, 42, 43, 44, 45, 46, 47, 48, 49, 50, 51, 52, 53, 54, 55, 56, 57, 58, 59, 60, 61, 62, 63, 64, 65, 66, 67, 68, 69, 70, 71, 72, 73, 74, 75, 76, 77, 78, 79, 80, 81, 82, 83, 84, 85, 86, 87, 88, 89, 90, 91, 92, 93, 94, 95, 96, 97, 98, 99, 100, 101, 102, 103, 104, 105, 106, 107, 108, 109, 110, 111, 112, 113, 114, 115, 116, 117, 118, 119, 120, 121, 122, 123, 124, 125, 126, 127, 128, 129, 130, 131, 132, 133, 134, 135, 136, 137, 138, 139, 140, 141, 142, 143, 144, 145, 146, 147, 148, 149, 150, 151, 152, 153, 154, 155, 156, 157, 158, 159, 160, 161, 162, 163, 164, 165, 166, 167, 168, 169, 170, 171, 172, 173, 174, 175, 176, 177, 178, 179, 180, 181, 182, 183, 184, 185, 186, 187, 188, 189, 190, 191, 192, 193, 194, 195, 196, 197, 198, 199, 200, 201, 202, 203, 204, 205, 206, 207, 208, 209, 210, 211, 212, 213, 214, 215, 216, 217, 218, 219, 220, 221, 222, 223, 224, 225, 226, 227, 228, 229, 230, 231, 232, 233, 234, 235, 236, 237, 238, 239, 240, 241, 242, 243, 244, 245, 246, 247, 248, 249, 250, 251, 252, 253, 254, 255, 256],
      "LargestImagePixelValue": [4095, 4095, 4095, 4095, 4095, 4095, 4095, 4095, 4095, 4095, 4095, 4095, 4095, 4095, 4095, 4095, 4095, 4095, 4095, 4095, 4095, 4095, 4095, 4095, 4095, 4095, 4095, 4095, 4095, 4061, 4095, 4084, 4070, 4095, 4095, 4084, 4095, 4085, 4066, 4095, 4095, 4095, 4095, 4095, 4095, 4094, 4095, 4081, 4095, 4067, 4095, 4073, 4095, 4095, 4095, 4095, 4073, 4095, 4095, 4086, 4095, 4049, 4095, 4095, 4095, 4089, 4095, 4095, 4095, 4095, 4095, 4095, 4082, 4091, 4095, 4095, 4095, 4095, 4095, 4095, 4095, 4095, 4095, 4090, 4095, 4089, 4095, 4095, 4095, 4095, 4064, 4095, 4087, 4070, 4095, 4095, 4070, 4095, 4095, 4087, 4095, 4095, 4095, 4095, 4095, 4094, 4095, 4095, 4095, 4095, 4095, 4093, 4095, 4095, 4095, 4089, 4095, 4095, 4095, 4085, 4095, 4095, 4095, 4095, 4095, 4095, 4095, 4095, 4095, 4095, 4095, 4095, 4095, 4095, 4095, 4095, 4095, 4095, 4095, 4095, 4095, 4095, 4095, 4095, 4095, 4095, 4095, 4083, 4095, 4095, 4095, 4095, 4095, 4095, 4095, 4095, 4095, 4095, 4095, 4095, 4090, 4095, 4086, 4080, 4092, 4095, 4095, 4086, 4044, 4053, 4070, 4055, 4062, 4042, 4048, 4095, 4095, 4077, 4077, 4085, 4056, 4047, 4078, 4079, 4095, 4095, 4095, 4076, 4095, 4066, 4095, 4081, 4071, 4095, 4084, 4062, 4095, 4081, 4073, 4084, 4058, 4071, 4073, 4055, 4095, 4095, 4075, 4058, 4076, 4062, 4092, 4075, 4076, 4095, 4095, 4095, 4095, 4095, 4095, 4095, 4095, 4095, 4095, 4095, 4095, 4095, 4095, 4095, 4095, 4095, 4095, 4095, 4095, 4095, 4095, 4095, 4095, 4095, 4095, 4095, 4095, 4095, 4095, 4095, 4095, 4095, 4095, 4095, 4095, 4095, 4095, 4095, 4095, 4095, 4095, 4095],
      "WindowCenter": [824.0, 821.0, 820.0, 822.0, 824.0, 823.0, 821.0, 820.0, 821.0, 821.0, 823.0, 823.0, 822.0, 820.0, 821.0, 822.0, 823.0, 822.0, 821.0, 820.0, 820.0, 822.0, 822.0, 820.0, 819.0, 819.0, 822.0, 823.0, 821.0, 820.0, 819.0, 821.0, 821.0, 820.0, 819.0, 820.0, 821.0, 821.0, 820.0, 819.0, 821.0, 821.0, 821.0, 819.0, 818.0, 819.0, 820.0, 821.0, 821.0, 821.0, 820.0, 819.0, 819.0, 820.0, 821.0, 821.0, 820.0, 820.0, 822.0, 822.0, 821.0, 819.0, 818.0, 820.0, 821.0, 821.0, 820.0, 819.0, 820.0, 820.0, 819.0, 819.0, 820.0, 821.0, 820.0, 819.0, 819.0, 820.0, 820.0, 818.0, 816.0, 817.0, 820.0, 821.0, 821.0, 819.0, 819.0, 818.0, 819.0, 820.0, 820.0, 820.0, 819.0, 818.0, 820.0, 820.0, 819.0, 816.0, 815.0, 815.0, 815.0, 815.0, 814.0, 815.0, 817.0, 819.0, 819.0, 818.0, 817.0, 818.0, 819.0, 819.0, 819.0, 818.0, 818.0, 818.0, 817.0, 818.0, 819.0, 819.0, 817.0, 817.0, 818.0, 816.0, 818.0, 818.0, 820.0, 821.0, 820.0, 819.0, 819.0, 819.0, 819.0, 818.0, 818.0, 817.0, 817.0, 816.0, 816.0, 816.0, 816.0, 818.0, 818.0, 817.0, 817.0, 815.0, 815.0, 816.0, 817.0, 816.0, 815.0, 815.0, 813.0, 812.0, 814.0, 815.0, 813.0, 812.0, 814.0, 815.0, 815.0, 813.0, 813.0, 815.0, 816.0, 814.0, 812.0, 813.0, 817.0, 817.0, 815.0, 815.0, 817.0, 816.0, 816.0, 816.0, 816.0, 816.0, 816.0, 816.0, 818.0, 819.0, 819.0, 818.0, 816.0, 817.0, 817.0, 818.0, 818.0, 819.0, 818.0, 817.0, 817.0, 816.0, 815.0, 814.0, 814.0, 816.0, 816.0, 816.0, 815.0, 815.0, 816.0, 815.0, 814.0, 813.0, 814.0, 815.0, 817.0, 816.0, 815.0, 814.0, 815.0, 814.0, 817.0, 814.0, 814.0, 818.0, 821.0, 820.0, 819.0, 818.0, 819.0, 821.0, 821.0, 818.0, 819.0, 821.0, 822.0, 819.0, 818.0, 817.0, 818.0, 819.0, 819.0, 817.0, 815.0, 817.0, 819.0, 820.0, 819.0, 816.0, 815.0, 816.0, 819.0, 819.0, 818.0, 816.0, 816.0, 819.0, 820.0, 818.0, 815.0, 814.0, 816.0, 819.0],
      "WindowWidth": [1863.0, 1855.0, 1852.0, 1860.0, 1864.0, 1861.0, 1855.0, 1852.0, 1853.0, 1857.0, 1863.0, 1863.0, 1856.0, 1853.0, 1853.0, 1858.0, 1861.0, 1858.0, 1854.0, 1851.0, 1852.0, 1857.0, 1858.0, 1853.0, 1848.0, 1850.0, 1859.0, 1863.0, 1856.0, 1850.0, 1849.0, 1854.0, 1857.0, 1853.0, 1849.0, 1850.0, 1854.0, 1854.0, 1850.0, 1850.0, 1855.0, 1856.0, 1854.0, 1849.0, 1845.0, 1847.0, 1852.0, 1854.0, 1854.0, 1854.0, 1852.0, 1850.0, 1849.0, 1852.0, 1856.0, 1853.0, 1851.0, 1852.0, 1857.0, 1859.0, 1854.0, 1846.0, 1845.0, 1852.0, 1856.0, 1854.0, 1850.0, 1848.0, 1851.0, 1851.0, 1848.0, 1847.0, 1850.0, 1854.0, 1851.0, 1847.0, 1850.0, 1852.0, 1851.0, 1845.0, 1838.0, 1841.0, 1851.0, 1855.0, 1854.0, 1849.0, 1846.0, 1846.0, 1849.0, 1852.0, 1852.0, 1851.0, 1846.0, 1844.0, 1850.0, 1851.0, 1847.0, 1840.0, 1836.0, 1836.0, 1834.0, 1834.0, 1833.0, 1835.0, 1842.0, 1848.0, 1849.0, 1843.0, 1842.0, 1845.0, 1848.0, 1850.0, 1847.0, 1843.0, 1843.0, 1843.0, 1842.0, 1845.0, 1849.0, 1846.0, 1841.0, 1842.0, 1845.0, 1836.0, 1844.0, 1843.0, 1850.0, 1853.0, 1852.0, 1847.0, 1847.0, 1847.0, 1846.0, 1843.0, 1842.0, 1841.0, 1839.0, 1836.0, 1838.0, 1836.0, 1837.0, 1844.0, 1845.0, 1841.0, 1839.0, 1834.0, 1833.0, 1837.0, 1840.0, 1837.0, 1833.0, 1832.0, 1827.0, 1825.0, 1832.0, 1832.0, 1826.0, 1823.0, 1830.0, 1835.0, 1832.0, 1826.0, 1829.0, 1835.0, 1837.0, 1829.0, 1825.0, 1828.0, 1839.0, 1841.0, 1834.0, 1834.0, 1839.0, 1838.0, 1835.0, 1836.0, 1837.0, 1836.0, 1836.0, 1838.0, 1844.0, 1846.0, 1847.0, 1842.0, 1837.0, 1839.0, 1842.0, 1843.0, 1845.0, 1846.0, 1845.0, 1839.0, 1839.0, 1838.0, 1835.0, 1828.0, 1832.0, 1837.0, 1839.0, 1835.0, 1833.0, 1833.0, 1836.0, 1834.0, 1830.0, 1829.0, 1829.0, 1835.0, 1840.0, 1838.0, 1834.0, 1830.0, 1835.0, 1832.0, 1842.0, 1832.0, 1832.0, 1843.0, 1854.0, 1853.0, 1846.0, 1844.0, 1848.0, 1853.0, 1853.0, 1845.0, 1848.0, 1856.0, 1857.0, 1849.0, 1842.0, 1841.0, 1844.0, 1847.0, 1846.0, 1838.0, 1835.0, 1838.0, 1848.0, 1849.0, 1845.0, 1838.0, 1834.0, 1838.0, 1846.0, 1848.0, 1843.0, 1836.0, 1837.0, 1845.0, 1849.0, 1842.0, 1835.0, 1832.0, 1836.0, 1848.0]
    },
    "slices": {}
  }
}