{
  "AcquisitionMatrixPE": 100,
  "AcquisitionNumber": 1,
  "AcquisitionTime": "15:27:7.347500",
  "BandwidthPerPixelPhaseEncode": 18.519,
  "BaseResolution": 100,
  "BodyPartExamined": "BRAIN",
  "CoilCombinationMethod": "Sum of Squares",
  "ConsistencyInfo": "N4_VE11C_LATEST_20160120",
  "ConversionSoftware": "dcm2niix",
  "ConversionSoftwareVersion": "v1.0.20211006",
  "DerivedVendorReportedEchoSpacing": 0.000539986,
  "DeviceSerialNumber": "166078",
  "DwellTime": 2.1e-06,
  "EchoTime": 0.034,
  "EchoTrainLength": 100,
  "EffectiveEchoSpacing": 0.000539986,
  "FlipAngle": 90,
  "ImageOrientationPatientDICOM": [0.999877, 0.00090137, 0.0156322, -2.35915e-09, 0.998342, -0.0575655],
  "ImageOrientationText": "Tra>Cor(-3.3)>Sag(0.9)",
  "ImageType": [
    "ORIGINAL",
    "PRIMARY",
    "M",
    "ND",
    "MOSAIC"
],
  "ImagingFrequency": 123.258,
  "InPlanePhaseEncodingDirectionDICOM": "COL",
  "InstitutionAddress": "Street StreetNo,Bei Jing,District,CN,ZIP",
  "InstitutionName": "BeiJing Normal University",
  "InstitutionalDepartmentName": "Department",
  "MRAcquisitionType": "2D",
  "MagneticFieldStrength": 3,
  "Manufacturer": "Siemens",
  "ManufacturersModelName": "Prisma",
  "Modality": "MR",
  "MultibandAccelerationFactor": 3,
  "PartialFourier": 1,
  "PatientPosition": "HFS",
  "PercentPhaseFOV": 100,
  "PercentSampling": 100,
  "PhaseEncodingDirection": "j-",
  "PhaseEncodingSteps": 100,
  "PhaseResolution": 1,
  "PixelBandwidth": 2380,
  "ProcedureStepDescription": "BNU_P2018_64CH^Zhen.ZongLei",
  "ProtocolName": "bold_100x100_s3_2x2x2_static_256",
  "PulseSequenceDetails": "%SiemensSeq%\\ep2d_bold",
  "ReceiveCoilActiveElements": "HC1-7;NC1",
  "ReceiveCoilName": "HeadNeck_64",
  "ReconMatrixPE": 100,
  "RefLinesPE": 32,
  "RepetitionTime": 2,
  "SAR": 0.0728807,
  "ScanOptions": "FS",
  "ScanningSequence": "EP",
  "SequenceName": "*epfid2d1_100",
  "SequenceVariant": "SK",
  "SeriesDescription": "bold_100x100_s3_2x2x2_static_256",
  "SeriesNumber": 7,
  "ShimSetting": [-5445, -11514, -1240, 285, -7, -231, -154, 83],
  "SliceThickness": 2,
  "SliceTiming": [1.485, 0, 0.99, 0.0825, 1.0725, 0.165, 1.155, 0.2475, 1.2375, 0.33, 1.32, 0.4125, 1.4025, 0.5775, 1.5675, 0.66, 1.65, 0.7425, 1.7325, 0.825, 1.815, 0.9075, 1.8975, 0.495, 1.485, 0, 0.99, 0.0825, 1.0725, 0.165, 1.155, 0.2475, 1.2375, 0.33, 1.32, 0.4125, 1.4025, 0.5775, 1.5675, 0.66, 1.65, 0.7425, 1.7325, 0.825, 1.815, 0.9075, 1.8975, 0.495, 1.485, 0, 0.99, 0.0825, 1.0725, 0.165, 1.155, 0.2475, 1.2375, 0.33, 1.32, 0.4125, 1.4025, 0.5775, 1.5675, 0.66, 1.65, 0.7425, 1.7325, 0.825, 1.815, 0.9075, 1.8975, 0.495],
  "SoftwareVersions": "syngo MR E11",
  "SpacingBetweenSlices": 2,
  "StationName": "AWP166078",
  "TaskName": "naturalvision",
  "TotalReadoutTime": 0.0534586,
  "TxRefAmp": 202.73,
  "dcmmeta_affine": [
    [-1.999754786491394, -4.718291979344258e-09, 0.03131626173853874, 98.41871643066406],
    [-0.001802740152925253, 1.9966834783554077, -0.11511683464050293, -94.77869415283203],
    [0.03126433119177818, 0.1151309460401535, 1.99643874168396, -59.11777877807617],
    [0.0, 0.0, 0.0, 1.0]
],
  "dcmmeta_reorient_transform": [
    [0.0, -1.0, 0.0, 99.0],
    [1.0, 0.0, 0.0, 0.0],
    [0.0, 0.0, 1.0, 0.0],
    [0.0, 0.0, 0.0, 1.0]
],
  "dcmmeta_shape": [100, 100, 72, 256],
  "dcmmeta_slice_dim": 2,
  "dcmmeta_version": 0.6,
  "global": {
    "const": {
      "AcquisitionMatrix": [100, 0, 0, 100],
      "AngioFlag": "N",
      "BitsAllocated": 16,
      "BitsStored": 12,
      "BodyPartExamined": "BRAIN",
      "Columns": 900,
      "EchoNumbers": 1,
      "EchoTime": 34.0,
      "EchoTrainLength": 100,
      "FlipAngle": 90.0,
      "HighBit": 11,
      "ImageOrientationPatient": [0.99987740396058, 0.00090137006937, 0.01563216495077, -2.359146e-09, 0.99834173312791, -0.0575654748539],
      "ImagePositionPatient": [-898.32063389822, -902.28745418584, -14.173168059849],
      "ImageType": [
        "ORIGINAL",
        "PRIMARY",
        "M",
        "ND",
        "MOSAIC"
],
      "ImagedNucleus": "1H",
      "ImagingFrequency": 123.257734,
      "InPlanePhaseEncodingDirection": "COL",
      "MRAcquisitionType": "2D",
      "MagneticFieldStrength": 3.0,
      "Manufacturer": "SIEMENS",
      "ManufacturerModelName": "Prisma",
      "Modality": "MR",
      "NumberOfAverages": 1.0,
      "NumberOfPhaseEncodingSteps": 100,
      "PercentPhaseFieldOfView": 100.0,
      "PercentSampling": 100.0,
      "PerformedProcedureStepStartTime": "143130.298000",
      "PhotometricInterpretation": "MONOCHROME2",
      "PixelBandwidth": 2380.0,
      "PixelRepresentation": 0,
      "PixelSpacing": [2.0, 2.0],
      "ProtocolName": "bold_100x100_s3_2x2x2_static_256",
      "RepetitionTime": 2000.0,
      "Rows": 900,
      "SAR": 0.07288073351329,
      "SamplesPerPixel": 1,
      "ScanOptions": "FS",
      "ScanningSequence": "EP",
      "SequenceName": "*epfid2d1_100",
      "SequenceVariant": "SK",
      "SeriesDescription": "bold_100x100_s3_2x2x2_static_256",
      "SeriesNumber": 7,
      "SeriesTime": "152710.079000",
      "SliceLocation": -52.016146813481,
      "SliceThickness": 2.0,
      "SmallestImagePixelValue": 0,
      "SoftwareVersions": "syngo MR E11",
      "SpacingBetweenSlices": 2.0000000035893,
      "SpecificCharacterSet": "ISO_IR 100",
      "StudyID": "1",
      "StudyTime": "143130.205000",
      "TransmitCoilName": "Body",
      "VariableFlipAngleFlag": "N",
      "WindowCenterWidthExplanation": "Algo1",
      "dBdt": 0.0},
    "slices": {}
  },
  "time": {
    "samples": {
      "AcquisitionNumber": [1, 2, 3, 4, 5, 6, 7, 8, 9, 10, 11, 12, 13, 14, 15, 16, 17, 18, 19, 20, 21, 22, 23, 24, 25, 26, 27, 28, 29, 30, 31, 32, 33, 34, 35, 36, 37, 38, 39, 40, 41, 42, 43, 44, 45, 46, 47, 48, 49, 50, 51, 52, 53, 54, 55, 56, 57, 58, 59, 60, 61, 62, 63, 64, 65, 66, 67, 68, 69, 70, 71, 72, 73, 74, 75, 76, 77, 78, 79, 80, 81, 82, 83, 84, 85, 86, 87, 88, 89, 90, 91, 92, 93, 94, 95, 96, 97, 98, 99, 100, 101, 102, 103, 104, 105, 106, 107, 108, 109, 110, 111, 112, 113, 114, 115, 116, 117, 118, 119, 120, 121, 122, 123, 124, 125, 126, 127, 128, 129, 130, 131, 132, 133, 134, 135, 136, 137, 138, 139, 140, 141, 142, 143, 144, 145, 146, 147, 148, 149, 150, 151, 152, 153, 154, 155, 156, 157, 158, 159, 160, 161, 162, 163, 164, 165, 166, 167, 168, 169, 170, 171, 172, 173, 174, 175, 176, 177, 178, 179, 180, 181, 182, 183, 184, 185, 186, 187, 188, 189, 190, 191, 192, 193, 194, 195, 196, 197, 198, 199, 200, 201, 202, 203, 204, 205, 206, 207, 208, 209, 210, 211, 212, 213, 214, 215, 216, 217, 218, 219, 220, 221, 222, 223, 224, 225, 226, 227, 228, 229, 230, 231, 232, 233, 234, 235, 236, 237, 238, 239, 240, 241, 242, 243, 244, 245, 246, 247, 248, 249, 250, 251, 252, 253, 254, 255, 256],
      "AcquisitionTime": ["152707.347500", "152709.347500", "152711.347500", "152713.347500", "152715.347500", "152717.347500", "152719.347500", "152721.347500", "152723.347500", "152725.347500", "152727.347500", "152729.347500", "152731.347500", "152733.347500", "152735.347500", "152737.347500", "152739.347500", "152741.347500", "152743.347500", "152745.347500", "152747.347500", "152749.347500", "152751.347500", "152753.347500", "152755.347500", "152757.347500", "152759.347500", "152801.347500", "152803.347500", "152805.347500", "152807.347500", "152809.347500", "152811.347500", "152813.347500", "152815.347500", "152817.347500", "152819.347500", "152821.347500", "152823.347500", "152825.347500", "152827.347500", "152829.347500", "152831.347500", "152833.347500", "152835.347500", "152837.347500", "152839.347500", "152841.347500", "152843.347500", "152845.347500", "152847.347500", "152849.347500", "152851.347500", "152853.347500", "152855.347500", "152857.347500", "152859.347500", "152901.347500", "152903.347500", "152905.347500", "152907.347500", "152909.347500", "152911.347500", "152913.347500", "152915.347500", "152917.347500", "152919.347500", "152921.347500", "152923.347500", "152925.347500", "152927.347500", "152929.347500", "152931.347500", "152933.347500", "152935.347500", "152937.347500", "152939.347500", "152941.347500", "152943.347500", "152945.347500", "152947.347500", "152949.347500", "152951.347500", "152953.347500", "152955.347500", "152957.347500", "152959.347500", "153001.347500", "153003.347500", "153005.347500", "153007.347500", "153009.347500", "153011.347500", "153013.347500", "153015.347500", "153017.347500", "153019.347500", "153021.347500", "153023.347500", "153025.347500", "153027.347500", "153029.347500", "153031.347500", "153033.347500", "153035.347500", "153037.347500", "153039.347500", "153041.347500", "153043.347500", "153045.347500", "153047.347500", "153049.347500", "153051.347500", "153053.347500", "153055.347500", "153057.347500", "153059.347500", "153101.347500", "153103.347500", "153105.347500", "153107.347500", "153109.347500", "153111.347500", "153113.347500", "153115.347500", "153117.347500", "153119.347500", "153121.347500", "153123.347500", "153125.347500", "153127.347500", "153129.347500", "153131.347500", "153133.347500", "153135.347500", "153137.347500", "153139.347500", "153141.347500", "153143.347500", "153145.347500", "153147.347500", "153149.347500", "153151.347500", "153153.347500", "153155.347500", "153157.347500", "153159.347500", "153201.347500", "153203.347500", "153205.347500", "153207.347500", "153209.347500", "153211.347500", "153213.347500", "153215.347500", "153217.347500", "153219.347500", "153221.347500", "153223.347500", "153225.347500", "153227.347500", "153229.347500", "153231.347500", "153233.347500", "153235.347500", "153237.347500", "153239.347500", "153241.347500", "153243.347500", "153245.347500", "153247.347500", "153249.347500", "153251.347500", "153253.347500", "153255.347500", "153257.347500", "153259.347500", "153301.347500", "153303.347500", "153305.347500", "153307.347500", "153309.347500", "153311.347500", "153313.347500", "153315.347500", "153317.347500", "153319.347500", "153321.347500", "153323.347500", "153325.347500", "153327.347500", "153329.347500", "153331.347500", "153333.347500", "153335.347500", "153337.347500", "153339.347500", "153341.347500", "153343.347500", "153345.347500", "153347.347500", "153349.347500", "153351.347500", "153353.347500", "153355.347500", "153357.347500", "153359.347500", "153401.347500", "153403.347500", "153405.347500", "153407.347500", "153409.347500", "153411.347500", "153413.347500", "153415.347500", "153417.347500", "153419.347500", "153421.347500", "153423.347500", "153425.347500", "153427.347500", "153429.347500", "153431.347500", "153433.347500", "153435.347500", "153437.347500", "153439.347500", "153441.347500", "153443.347500", "153445.347500", "153447.347500", "153449.347500", "153451.347500", "153453.347500", "153455.347500", "153457.347500", "153459.347500", "153501.347500", "153503.347500", "153505.347500", "153507.347500", "153509.347500", "153511.347500", "153513.347500", "153515.347500", "153517.347500", "153519.347500", "153521.347500", "153523.347500", "153525.347500", "153527.347500", "153529.347500", "153531.347500", "153533.347500", "153535.347500", "153537.347500"],
      "ContentTime": ["152710.082000", "152711.576000", "152713.576000", "152715.577000", "152717.577000", "152719.577000", "152721.577000", "152723.577000", "152725.578000", "152727.578000", "152729.576000", "152731.576000", "152733.577000", "152735.578000", "152737.577000", "152739.577000", "152741.577000", "152743.577000", "152745.577000", "152747.576000", "152749.576000", "152751.576000", "152753.578000", "152755.578000", "152757.577000", "152759.578000", "152801.577000", "152803.576000", "152805.576000", "152807.576000", "152809.577000", "152811.578000", "152813.578000", "152815.577000", "152817.577000", "152819.577000", "152821.576000", "152823.577000", "152825.577000", "152827.578000", "152829.578000", "152831.577000", "152833.577000", "152835.578000", "152837.577000", "152839.577000", "152841.576000", "152843.577000", "152845.578000", "152847.577000", "152849.577000", "152851.577000", "152853.578000", "152855.577000", "152857.576000", "152859.576000", "152901.577000", "152903.577000", "152905.578000", "152907.577000", "152909.577000", "152911.578000", "152913.577000", "152915.577000", "152917.576000", "152919.577000", "152921.577000", "152923.578000", "152925.577000", "152927.578000", "152929.578000", "152931.577000", "152933.576000", "152935.576000", "152937.577000", "152939.577000", "152941.578000", "152943.578000", "152945.578000", "152947.577000", "152949.577000", "152951.576000", "152953.576000", "152955.578000", "152957.578000", "152959.578000", "153001.577000", "153003.577000", "153005.577000", "153007.576000", "153009.577000", "153011.576000", "153013.578000", "153015.578000", "153017.577000", "153019.577000", "153021.577000", "153023.576000", "153025.576000", "153027.576000", "153029.577000", "153031.578000", "153033.577000", "153035.577000", "153037.578000", "153039.577000", "153041.576000", "153043.577000", "153045.576000", "153047.577000", "153049.577000", "153051.577000", "153053.577000", "153055.578000", "153057.577000", "153059.576000", "153101.577000", "153103.576000", "153105.578000", "153107.577000", "153109.577000", "153111.578000", "153113.578000", "153115.577000", "153117.576000", "153119.576000", "153121.576000", "153123.578000", "153125.577000", "153127.577000", "153129.578000", "153131.578000", "153133.593000", "153135.577000", "153137.577000", "153139.576000", "153141.578000", "153143.577000", "153145.577000", "153147.577000", "153149.578000", "153151.576000", "153153.577000", "153155.577000", "153157.577000", "153159.578000", "153201.578000", "153203.578000", "153205.578000", "153207.578000", "153209.577000", "153211.576000", "153213.576000", "153215.578000", "153217.577000", "153219.577000", "153221.577000", "153223.577000", "153225.577000", "153227.576000", "153229.576000", "153231.576000", "153233.578000", "153235.577000", "153237.577000", "153239.578000", "153241.578000", "153243.577000", "153245.577000", "153247.576000", "153249.577000", "153251.577000", "153253.577000", "153255.578000", "153257.578000", "153259.578000", "153301.576000", "153303.576000", "153305.576000", "153307.577000", "153309.577000", "153311.578000", "153313.577000", "153315.577000", "153317.578000", "153319.576000", "153321.577000", "153323.577000", "153325.598000", "153327.577000", "153329.577000", "153331.597000", "153333.577000", "153335.577000", "153337.577000", "153339.576000", "153341.577000", "153343.578000", "153345.578000", "153347.578000", "153349.578000", "153351.578000", "153353.577000", "153355.577000", "153357.577000", "153359.576000", "153401.578000", "153403.577000", "153405.578000", "153407.578000", "153409.578000", "153411.577000", "153413.577000", "153415.577000", "153417.578000", "153419.578000", "153421.578000", "153423.578000", "153425.577000", "153427.578000", "153429.576000", "153431.576000", "153433.576000", "153435.578000", "153437.578000", "153439.578000", "153441.577000", "153443.577000", "153445.578000", "153447.576000", "153449.577000", "153451.576000", "153453.577000", "153455.578000", "153457.578000", "153459.577000", "153501.578000", "153503.577000", "153505.577000", "153507.576000", "153509.576000", "153511.577000", "153513.578000", "153515.577000", "153517.577000", "153519.578000", "153521.577000", "153523.577000", "153525.577000", "153527.577000", "153529.578000", "153531.577000", "153533.578000", "153535.578000", "153537.578000", "153539.427000"],
      "InstanceCreationTime": ["152710.082000", "152711.576000", "152713.576000", "152715.577000", "152717.577000", "152719.577000", "152721.577000", "152723.577000", "152725.578000", "152727.578000", "152729.576000", "152731.576000", "152733.577000", "152735.578000", "152737.577000", "152739.577000", "152741.577000", "152743.577000", "152745.577000", "152747.576000", "152749.576000", "152751.576000", "152753.578000", "152755.578000", "152757.577000", "152759.578000", "152801.577000", "152803.576000", "152805.576000", "152807.576000", "152809.577000", "152811.578000", "152813.578000", "152815.577000", "152817.577000", "152819.577000", "152821.576000", "152823.577000", "152825.577000", "152827.578000", "152829.578000", "152831.577000", "152833.577000", "152835.578000", "152837.577000", "152839.577000", "152841.576000", "152843.577000", "152845.578000", "152847.577000", "152849.577000", "152851.577000", "152853.578000", "152855.577000", "152857.576000", "152859.576000", "152901.577000", "152903.577000", "152905.578000", "152907.577000", "152909.577000", "152911.578000", "152913.577000", "152915.577000", "152917.576000", "152919.577000", "152921.577000", "152923.578000", "152925.577000", "152927.578000", "152929.578000", "152931.577000", "152933.576000", "152935.576000", "152937.577000", "152939.577000", "152941.578000", "152943.578000", "152945.578000", "152947.577000", "152949.577000", "152951.576000", "152953.576000", "152955.578000", "152957.578000", "152959.578000", "153001.577000", "153003.577000", "153005.577000", "153007.576000", "153009.577000", "153011.576000", "153013.578000", "153015.578000", "153017.577000", "153019.577000", "153021.577000", "153023.576000", "153025.576000", "153027.576000", "153029.577000", "153031.578000", "153033.577000", "153035.577000", "153037.578000", "153039.577000", "153041.576000", "153043.577000", "153045.576000", "153047.577000", "153049.577000", "153051.577000", "153053.577000", "153055.578000", "153057.577000", "153059.576000", "153101.577000", "153103.576000", "153105.578000", "153107.577000", "153109.577000", "153111.578000", "153113.578000", "153115.577000", "153117.576000", "153119.576000", "153121.576000", "153123.578000", "153125.577000", "153127.577000", "153129.578000", "153131.578000", "153133.593000", "153135.577000", "153137.577000", "153139.576000", "153141.578000", "153143.577000", "153145.577000", "153147.577000", "153149.578000", "153151.576000", "153153.577000", "153155.577000", "153157.577000", "153159.578000", "153201.578000", "153203.578000", "153205.578000", "153207.578000", "153209.577000", "153211.576000", "153213.576000", "153215.578000", "153217.577000", "153219.577000", "153221.577000", "153223.577000", "153225.577000", "153227.576000", "153229.576000", "153231.576000", "153233.578000", "153235.577000", "153237.577000", "153239.578000", "153241.578000", "153243.577000", "153245.577000", "153247.576000", "153249.577000", "153251.577000", "153253.577000", "153255.578000", "153257.578000", "153259.578000", "153301.576000", "153303.576000", "153305.576000", "153307.577000", "153309.577000", "153311.578000", "153313.577000", "153315.577000", "153317.578000", "153319.576000", "153321.577000", "153323.577000", "153325.598000", "153327.577000", "153329.577000", "153331.597000", "153333.577000", "153335.577000", "153337.577000", "153339.576000", "153341.577000", "153343.578000", "153345.578000", "153347.578000", "153349.578000", "153351.578000", "153353.577000", "153355.577000", "153357.577000", "153359.576000", "153401.578000", "153403.577000", "153405.578000", "153407.578000", "153409.578000", "153411.577000", "153413.577000", "153415.577000", "153417.578000", "153419.578000", "153421.578000", "153423.578000", "153425.577000", "153427.578000", "153429.576000", "153431.576000", "153433.576000", "153435.578000", "153437.578000", "153439.578000", "153441.577000", "153443.577000", "153445.578000", "153447.576000", "153449.577000", "153451.576000", "153453.577000", "153455.578000", "153457.578000", "153459.577000", "153501.578000", "153503.577000", "153505.577000", "153507.576000", "153509.576000", "153511.577000", "153513.578000", "153515.577000", "153517.577000", "153519.578000", "153521.577000", "153523.577000", "153525.577000", "153527.577000", "153529.578000", "153531.577000", "153533.578000", "153535.578000", "153537.578000", "153539.427000"],
      "InstanceNumber": [1, 2, 3, 4, 5, 6, 7, 8, 9, 10, 11, 12, 13, 14, 15, 16, 17, 18, 19, 20, 21, 22, 23, 24, 25, 26, 27, 28, 29, 30, 31, 32, 33, 34, 35, 36, 37, 38, 39, 40, 41, 42, 43, 44, 45, 46, 47, 48, 49, 50, 51, 52, 53, 54, 55, 56, 57, 58, 59, 60, 61, 62, 63, 64, 65, 66, 67, 68, 69, 70, 71, 72, 73, 74, 75, 76, 77, 78, 79, 80, 81, 82, 83, 84, 85, 86, 87, 88, 89, 90, 91, 92, 93, 94, 95, 96, 97, 98, 99, 100, 101, 102, 103, 104, 105, 106, 107, 108, 109, 110, 111, 112, 113, 114, 115, 116, 117, 118, 119, 120, 121, 122, 123, 124, 125, 126, 127, 128, 129, 130, 131, 132, 133, 134, 135, 136, 137, 138, 139, 140, 141, 142, 143, 144, 145, 146, 147, 148, 149, 150, 151, 152, 153, 154, 155, 156, 157, 158, 159, 160, 161, 162, 163, 164, 165, 166, 167, 168, 169, 170, 171, 172, 173, 174, 175, 176, 177, 178, 179, 180, 181, 182, 183, 184, 185, 186, 187, 188, 189, 190, 191, 192, 193, 194, 195, 196, 197, 198, 199, 200, 201, 202, 203, 204, 205, 206, 207, 208, 209, 210, 211, 212, 213, 214, 215, 216, 217, 218, 219, 220, 221, 222, 223, 224, 225, 226, 227, 228, 229, 230, 231, 232, 233, 234, 235, 236, 237, 238, 239, 240, 241, 242, 243, 244, 245, 246, 247, 248, 249, 250, 251, 252, 253, 254, 255, 256],
      "LargestImagePixelValue": [4095, 4095, 4094, 4095, 4095, 4095, 4095, 4095, 4095, 4095, 4095, 4095, 4095, 4095, 4095, 4095, 4095, 4095, 4095, 4095, 4095, 4095, 4095, 4095, 4095, 4095, 4095, 4095, 4095, 4095, 4095, 4095, 4095, 4095, 4095, 4095, 4095, 4095, 4095, 4095, 4095, 4095, 4095, 4095, 4095, 4095, 4095, 4095, 4095, 4095, 4095, 4095, 4095, 4095, 4095, 4095, 4095, 4095, 4095, 4095, 4095, 4095, 4095, 4095, 4095, 4095, 4095, 4095, 4095, 4095, 4095, 4093, 4095, 4095, 4095, 4095, 4095, 4095, 4095, 4095, 4095, 4095, 4095, 4095, 4095, 4095, 4095, 4095, 4095, 4095, 4095, 4095, 4095, 4095, 4095, 4095, 4095, 4095, 4095, 4095, 4095, 4095, 4095, 4095, 4095, 4095, 4095, 4095, 4095, 4095, 4095, 4095, 4095, 4095, 4095, 4095, 4095, 4095, 4095, 4095, 4095, 4095, 4095, 4095, 4095, 4095, 4095, 4095, 4095, 4095, 4095, 4095, 4095, 4095, 4095, 4095, 4095, 4095, 4095, 4095, 4095, 4095, 4095, 4095, 4095, 4095, 4095, 4095, 4095, 4095, 4095, 4095, 4095, 4095, 4095, 4095, 4095, 4095, 4095, 4095, 4095, 4095, 4095, 4095, 4095, 4095, 4095, 4095, 4095, 4095, 4095, 4095, 4095, 4095, 4095, 4095, 4095, 4095, 4095, 4095, 4095, 4095, 4095, 4095, 4095, 4095, 4095, 4095, 4095, 4095, 4095, 4095, 4095, 4095, 4095, 4095, 4095, 4095, 4095, 4095, 4095, 4095, 4095, 4095, 4095, 4095, 4095, 4095, 4095, 4095, 4095, 4095, 4095, 4095, 4095, 4095, 4095, 4095, 4095, 4095, 4095, 4095, 4095, 4095, 4095, 4095, 4095, 4095, 4095, 4095, 4095, 4095, 4095, 4095, 4095, 4095, 4095, 4095, 4095, 4095, 4095, 4095, 4095, 4095, 4095, 4095, 4095, 4095, 4095, 4095, 4095, 4095, 4095, 4095, 4095, 4095],
      "WindowCenter": [825.0, 823.0, 823.0, 820.0, 820.0, 821.0, 821.0, 820.0, 818.0, 818.0, 820.0, 821.0, 820.0, 820.0, 820.0, 821.0, 821.0, 820.0, 818.0, 820.0, 819.0, 819.0, 820.0, 821.0, 821.0, 820.0, 820.0, 819.0, 819.0, 821.0, 821.0, 821.0, 820.0, 819.0, 819.0, 819.0, 821.0, 821.0, 819.0, 818.0, 819.0, 820.0, 821.0, 821.0, 820.0, 821.0, 822.0, 822.0, 821.0, 821.0, 820.0, 821.0, 821.0, 820.0, 819.0, 819.0, 820.0, 821.0, 821.0, 820.0, 821.0, 822.0, 821.0, 821.0, 821.0, 822.0, 822.0, 822.0, 820.0, 820.0, 820.0, 821.0, 823.0, 823.0, 822.0, 820.0, 820.0, 821.0, 821.0, 821.0, 821.0, 821.0, 821.0, 821.0, 820.0, 820.0, 820.0, 821.0, 821.0, 820.0, 820.0, 821.0, 821.0, 819.0, 818.0, 818.0, 820.0, 822.0, 822.0, 821.0, 820.0, 821.0, 821.0, 821.0, 820.0, 820.0, 820.0, 820.0, 820.0, 820.0, 820.0, 821.0, 822.0, 821.0, 819.0, 818.0, 818.0, 819.0, 821.0, 821.0, 820.0, 819.0, 820.0, 821.0, 822.0, 822.0, 821.0, 819.0, 820.0, 821.0, 822.0, 821.0, 820.0, 821.0, 821.0, 821.0, 821.0, 822.0, 822.0, 821.0, 820.0, 820.0, 821.0, 821.0, 821.0, 820.0, 820.0, 820.0, 822.0, 822.0, 822.0, 821.0, 821.0, 822.0, 822.0, 821.0, 821.0, 821.0, 821.0, 821.0, 821.0, 821.0, 820.0, 821.0, 821.0, 821.0, 821.0, 821.0, 821.0, 822.0, 821.0, 819.0, 819.0, 820.0, 820.0, 820.0, 819.0, 819.0, 821.0, 822.0, 822.0, 821.0, 819.0, 819.0, 820.0, 821.0, 821.0, 820.0, 820.0, 821.0, 821.0, 821.0, 819.0, 819.0, 821.0, 822.0, 822.0, 820.0, 819.0, 820.0, 820.0, 821.0, 822.0, 822.0, 823.0, 822.0, 821.0, 820.0, 821.0, 821.0, 821.0, 820.0, 819.0, 819.0, 819.0, 821.0, 821.0, 821.0, 820.0, 821.0, 822.0, 822.0, 822.0, 822.0, 822.0, 821.0, 822.0, 822.0, 821.0, 821.0, 822.0, 821.0, 822.0, 822.0, 822.0, 821.0, 821.0, 821.0, 822.0, 823.0, 823.0, 821.0, 819.0, 819.0, 822.0, 823.0, 823.0, 823.0, 822.0, 822.0, 823.0, 822.0, 822.0, 822.0, 822.0, 823.0],
      "WindowWidth": [1868.0, 1864.0, 1862.0, 1853.0, 1853.0, 1856.0, 1856.0, 1851.0, 1846.0, 1846.0, 1853.0, 1857.0, 1854.0, 1851.0, 1853.0, 1855.0, 1856.0, 1852.0, 1847.0, 1852.0, 1848.0, 1849.0, 1854.0, 1857.0, 1857.0, 1854.0, 1851.0, 1849.0, 1850.0, 1857.0, 1858.0, 1856.0, 1852.0, 1850.0, 1848.0, 1849.0, 1856.0, 1855.0, 1849.0, 1846.0, 1850.0, 1854.0, 1857.0, 1856.0, 1854.0, 1858.0, 1861.0, 1860.0, 1857.0, 1855.0, 1854.0, 1856.0, 1856.0, 1852.0, 1848.0, 1848.0, 1853.0, 1857.0, 1854.0, 1853.0, 1856.0, 1857.0, 1856.0, 1857.0, 1857.0, 1858.0, 1859.0, 1860.0, 1853.0, 1851.0, 1851.0, 1856.0, 1861.0, 1861.0, 1857.0, 1853.0, 1853.0, 1856.0, 1856.0, 1856.0, 1855.0, 1854.0, 1855.0, 1854.0, 1852.0, 1850.0, 1851.0, 1854.0, 1856.0, 1854.0, 1853.0, 1857.0, 1854.0, 1849.0, 1846.0, 1846.0, 1853.0, 1859.0, 1860.0, 1856.0, 1853.0, 1856.0, 1856.0, 1855.0, 1853.0, 1852.0, 1852.0, 1851.0, 1853.0, 1851.0, 1852.0, 1858.0, 1859.0, 1854.0, 1849.0, 1846.0, 1846.0, 1850.0, 1855.0, 1855.0, 1850.0, 1849.0, 1851.0, 1855.0, 1858.0, 1857.0, 1856.0, 1850.0, 1851.0, 1857.0, 1860.0, 1856.0, 1854.0, 1854.0, 1856.0, 1854.0, 1856.0, 1858.0, 1859.0, 1856.0, 1852.0, 1852.0, 1854.0, 1855.0, 1856.0, 1852.0, 1851.0, 1852.0, 1859.0, 1860.0, 1857.0, 1856.0, 1857.0, 1860.0, 1858.0, 1856.0, 1856.0, 1856.0, 1857.0, 1854.0, 1855.0, 1853.0, 1852.0, 1853.0, 1855.0, 1856.0, 1855.0, 1854.0, 1856.0, 1858.0, 1857.0, 1849.0, 1850.0, 1851.0, 1851.0, 1851.0, 1849.0, 1849.0, 1855.0, 1859.0, 1860.0, 1856.0, 1849.0, 1849.0, 1852.0, 1855.0, 1855.0, 1851.0, 1852.0, 1855.0, 1857.0, 1853.0, 1850.0, 1849.0, 1854.0, 1860.0, 1858.0, 1852.0, 1848.0, 1851.0, 1854.0, 1855.0, 1858.0, 1860.0, 1862.0, 1858.0, 1853.0, 1852.0, 1855.0, 1854.0, 1855.0, 1850.0, 1848.0, 1849.0, 1850.0, 1854.0, 1856.0, 1854.0, 1852.0, 1856.0, 1859.0, 1859.0, 1860.0, 1860.0, 1860.0, 1856.0, 1858.0, 1858.0, 1856.0, 1857.0, 1858.0, 1856.0, 1858.0, 1859.0, 1860.0, 1855.0, 1854.0, 1856.0, 1860.0, 1864.0, 1863.0, 1854.0, 1849.0, 1848.0, 1858.0, 1862.0, 1863.0, 1862.0, 1860.0, 1859.0, 1860.0, 1860.0, 1857.0, 1857.0, 1859.0, 1861.0]
    },
    "slices": {}
  }
}