{
  "AcquisitionMatrixPE": 100,
  "AcquisitionNumber": 1,
  "AcquisitionTime": "15:57:54.837500",
  "BandwidthPerPixelPhaseEncode": 18.519,
  "BaseResolution": 100,
  "BodyPartExamined": "BRAIN",
  "CoilCombinationMethod": "Sum of Squares",
  "ConsistencyInfo": "N4_VE11C_LATEST_20160120",
  "ConversionSoftware": "dcm2niix",
  "ConversionSoftwareVersion": "v1.0.20211006",
  "DerivedVendorReportedEchoSpacing": 0.000539986,
  "DeviceSerialNumber": "166078",
  "DwellTime": 2.1e-06,
  "EchoTime": 0.034,
  "EchoTrainLength": 100,
  "EffectiveEchoSpacing": 0.000539986,
  "FlipAngle": 90,
  "ImageOrientationPatientDICOM": [0.999877, 0.00090137, 0.0156322, -2.35915e-09, 0.998342, -0.0575655],
  "ImageOrientationText": "Tra>Cor(-3.3)>Sag(0.9)",
  "ImageType": [
    "ORIGINAL",
    "PRIMARY",
    "M",
    "ND",
    "MOSAIC"
],
  "ImagingFrequency": 123.258,
  "InPlanePhaseEncodingDirectionDICOM": "COL",
  "InstitutionAddress": "Street StreetNo,Bei Jing,District,CN,ZIP",
  "InstitutionName": "BeiJing Normal University",
  "InstitutionalDepartmentName": "Department",
  "MRAcquisitionType": "2D",
  "MagneticFieldStrength": 3,
  "Manufacturer": "Siemens",
  "ManufacturersModelName": "Prisma",
  "Modality": "MR",
  "MultibandAccelerationFactor": 3,
  "PartialFourier": 1,
  "PatientPosition": "HFS",
  "PercentPhaseFOV": 100,
  "PercentSampling": 100,
  "PhaseEncodingDirection": "j-",
  "PhaseEncodingSteps": 100,
  "PhaseResolution": 1,
  "PixelBandwidth": 2380,
  "ProcedureStepDescription": "BNU_P2018_64CH^Zhen.ZongLei",
  "ProtocolName": "bold_100x100_s3_2x2x2_static_256",
  "PulseSequenceDetails": "%SiemensSeq%\\ep2d_bold",
  "ReceiveCoilActiveElements": "HC1-7;NC1",
  "ReceiveCoilName": "HeadNeck_64",
  "ReconMatrixPE": 100,
  "RefLinesPE": 32,
  "RepetitionTime": 2,
  "SAR": 0.0728807,
  "ScanOptions": "FS",
  "ScanningSequence": "EP",
  "SequenceName": "*epfid2d1_100",
  "SequenceVariant": "SK",
  "SeriesDescription": "bold_100x100_s3_2x2x2_static_256",
  "SeriesNumber": 12,
  "ShimSetting": [-5445, -11514, -1240, 285, -7, -231, -154, 83],
  "SliceThickness": 2,
  "SliceTiming": [1.485, 0, 0.99, 0.0825, 1.0725, 0.165, 1.155, 0.2475, 1.2375, 0.33, 1.32, 0.4125, 1.4025, 0.5775, 1.5675, 0.66, 1.65, 0.7425, 1.7325, 0.825, 1.815, 0.9075, 1.8975, 0.495, 1.485, 0, 0.99, 0.0825, 1.0725, 0.165, 1.155, 0.2475, 1.2375, 0.33, 1.32, 0.4125, 1.4025, 0.5775, 1.5675, 0.66, 1.65, 0.7425, 1.7325, 0.825, 1.815, 0.9075, 1.8975, 0.495, 1.485, 0, 0.99, 0.0825, 1.0725, 0.165, 1.155, 0.2475, 1.2375, 0.33, 1.32, 0.4125, 1.4025, 0.5775, 1.5675, 0.66, 1.65, 0.7425, 1.7325, 0.825, 1.815, 0.9075, 1.8975, 0.495],
  "SoftwareVersions": "syngo MR E11",
  "SpacingBetweenSlices": 2,
  "StationName": "AWP166078",
  "TaskName": "naturalvision",
  "TotalReadoutTime": 0.0534586,
  "TxRefAmp": 202.73,
  "dcmmeta_affine": [
    [-1.999754786491394, -4.718291979344258e-09, 0.03131626173853874, 98.41871643066406],
    [-0.001802740152925253, 1.9966834783554077, -0.11511683464050293, -94.77869415283203],
    [0.03126433119177818, 0.1151309460401535, 1.99643874168396, -59.11777877807617],
    [0.0, 0.0, 0.0, 1.0]
],
  "dcmmeta_reorient_transform": [
    [0.0, -1.0, 0.0, 99.0],
    [1.0, 0.0, 0.0, 0.0],
    [0.0, 0.0, 1.0, 0.0],
    [0.0, 0.0, 0.0, 1.0]
],
  "dcmmeta_shape": [100, 100, 72, 256],
  "dcmmeta_slice_dim": 2,
  "dcmmeta_version": 0.6,
  "global": {
    "const": {
      "AcquisitionMatrix": [100, 0, 0, 100],
      "AngioFlag": "N",
      "BitsAllocated": 16,
      "BitsStored": 12,
      "BodyPartExamined": "BRAIN",
      "Columns": 900,
      "EchoNumbers": 1,
      "EchoTime": 34.0,
      "EchoTrainLength": 100,
      "FlipAngle": 90.0,
      "HighBit": 11,
      "ImageOrientationPatient": [0.99987740396058, 0.00090137006937, 0.01563216495077, -2.359146e-09, 0.99834173312791, -0.0575654748539],
      "ImagePositionPatient": [-898.32063389822, -902.28745418584, -14.173168059849],
      "ImageType": [
        "ORIGINAL",
        "PRIMARY",
        "M",
        "ND",
        "MOSAIC"
],
      "ImagedNucleus": "1H",
      "ImagingFrequency": 123.257734,
      "InPlanePhaseEncodingDirection": "COL",
      "MRAcquisitionType": "2D",
      "MagneticFieldStrength": 3.0,
      "Manufacturer": "SIEMENS",
      "ManufacturerModelName": "Prisma",
      "Modality": "MR",
      "NumberOfAverages": 1.0,
      "NumberOfPhaseEncodingSteps": 100,
      "PercentPhaseFieldOfView": 100.0,
      "PercentSampling": 100.0,
      "PerformedProcedureStepStartTime": "143130.298000",
      "PhotometricInterpretation": "MONOCHROME2",
      "PixelBandwidth": 2380.0,
      "PixelRepresentation": 0,
      "PixelSpacing": [2.0, 2.0],
      "ProtocolName": "bold_100x100_s3_2x2x2_static_256",
      "RepetitionTime": 2000.0,
      "Rows": 900,
      "SAR": 0.07288073351329,
      "SamplesPerPixel": 1,
      "ScanOptions": "FS",
      "ScanningSequence": "EP",
      "SequenceName": "*epfid2d1_100",
      "SequenceVariant": "SK",
      "SeriesDescription": "bold_100x100_s3_2x2x2_static_256",
      "SeriesNumber": 12,
      "SeriesTime": "155757.249000",
      "SliceLocation": -52.016146813481,
      "SliceThickness": 2.0,
      "SmallestImagePixelValue": 0,
      "SoftwareVersions": "syngo MR E11",
      "SpacingBetweenSlices": 2.0000000035893,
      "SpecificCharacterSet": "ISO_IR 100",
      "StudyID": "1",
      "StudyTime": "143130.205000",
      "TransmitCoilName": "Body",
      "VariableFlipAngleFlag": "N",
      "WindowCenterWidthExplanation": "Algo1",
      "dBdt": 0.0},
    "slices": {}
  },
  "time": {
    "samples": {
      "AcquisitionNumber": [1, 2, 3, 4, 5, 6, 7, 8, 9, 10, 11, 12, 13, 14, 15, 16, 17, 18, 19, 20, 21, 22, 23, 24, 25, 26, 27, 28, 29, 30, 31, 32, 33, 34, 35, 36, 37, 38, 39, 40, 41, 42, 43, 44, 45, 46, 47, 48, 49, 50, 51, 52, 53, 54, 55, 56, 57, 58, 59, 60, 61, 62, 63, 64, 65, 66, 67, 68, 69, 70, 71, 72, 73, 74, 75, 76, 77, 78, 79, 80, 81, 82, 83, 84, 85, 86, 87, 88, 89, 90, 91, 92, 93, 94, 95, 96, 97, 98, 99, 100, 101, 102, 103, 104, 105, 106, 107, 108, 109, 110, 111, 112, 113, 114, 115, 116, 117, 118, 119, 120, 121, 122, 123, 124, 125, 126, 127, 128, 129, 130, 131, 132, 133, 134, 135, 136, 137, 138, 139, 140, 141, 142, 143, 144, 145, 146, 147, 148, 149, 150, 151, 152, 153, 154, 155, 156, 157, 158, 159, 160, 161, 162, 163, 164, 165, 166, 167, 168, 169, 170, 171, 172, 173, 174, 175, 176, 177, 178, 179, 180, 181, 182, 183, 184, 185, 186, 187, 188, 189, 190, 191, 192, 193, 194, 195, 196, 197, 198, 199, 200, 201, 202, 203, 204, 205, 206, 207, 208, 209, 210, 211, 212, 213, 214, 215, 216, 217, 218, 219, 220, 221, 222, 223, 224, 225, 226, 227, 228, 229, 230, 231, 232, 233, 234, 235, 236, 237, 238, 239, 240, 241, 242, 243, 244, 245, 246, 247, 248, 249, 250, 251, 252, 253, 254, 255, 256],
      "AcquisitionTime": ["155754.837500", "155756.837500", "155758.837500", "155800.837500", "155802.837500", "155804.837500", "155806.837500", "155808.837500", "155810.837500", "155812.837500", "155814.837500", "155816.837500", "155818.837500", "155820.837500", "155822.837500", "155824.837500", "155826.837500", "155828.837500", "155830.837500", "155832.837500", "155834.837500", "155836.837500", "155838.837500", "155840.837500", "155842.837500", "155844.837500", "155846.837500", "155848.837500", "155850.837500", "155852.837500", "155854.837500", "155856.837500", "155858.837500", "155900.837500", "155902.837500", "155904.837500", "155906.837500", "155908.837500", "155910.837500", "155912.837500", "155914.837500", "155916.837500", "155918.837500", "155920.837500", "155922.837500", "155924.837500", "155926.837500", "155928.837500", "155930.837500", "155932.837500", "155934.837500", "155936.837500", "155938.837500", "155940.837500", "155942.837500", "155944.837500", "155946.837500", "155948.837500", "155950.837500", "155952.837500", "155954.837500", "155956.837500", "155958.837500", "160000.837500", "160002.837500", "160004.837500", "160006.837500", "160008.837500", "160010.837500", "160012.837500", "160014.837500", "160016.837500", "160018.837500", "160020.837500", "160022.837500", "160024.837500", "160026.837500", "160028.837500", "160030.837500", "160032.837500", "160034.837500", "160036.837500", "160038.837500", "160040.837500", "160042.837500", "160044.837500", "160046.837500", "160048.837500", "160050.837500", "160052.837500", "160054.837500", "160056.837500", "160058.837500", "160100.837500", "160102.837500", "160104.837500", "160106.837500", "160108.837500", "160110.837500", "160112.837500", "160114.837500", "160116.837500", "160118.837500", "160120.837500", "160122.837500", "160124.837500", "160126.837500", "160128.837500", "160130.837500", "160132.837500", "160134.837500", "160136.837500", "160138.837500", "160140.837500", "160142.837500", "160144.837500", "160146.837500", "160148.837500", "160150.837500", "160152.837500", "160154.837500", "160156.837500", "160158.837500", "160200.837500", "160202.837500", "160204.837500", "160206.837500", "160208.837500", "160210.837500", "160212.837500", "160214.837500", "160216.837500", "160218.837500", "160220.837500", "160222.837500", "160224.837500", "160226.837500", "160228.837500", "160230.837500", "160232.837500", "160234.837500", "160236.837500", "160238.837500", "160240.837500", "160242.837500", "160244.837500", "160246.837500", "160248.837500", "160250.837500", "160252.837500", "160254.837500", "160256.837500", "160258.837500", "160300.837500", "160302.837500", "160304.837500", "160306.837500", "160308.837500", "160310.837500", "160312.837500", "160314.837500", "160316.837500", "160318.837500", "160320.837500", "160322.837500", "160324.837500", "160326.837500", "160328.837500", "160330.837500", "160332.837500", "160334.837500", "160336.837500", "160338.837500", "160340.837500", "160342.837500", "160344.837500", "160346.837500", "160348.837500", "160350.837500", "160352.837500", "160354.837500", "160356.837500", "160358.837500", "160400.837500", "160402.837500", "160404.837500", "160406.837500", "160408.837500", "160410.837500", "160412.837500", "160414.837500", "160416.837500", "160418.837500", "160420.837500", "160422.837500", "160424.837500", "160426.837500", "160428.837500", "160430.837500", "160432.837500", "160434.837500", "160436.837500", "160438.837500", "160440.837500", "160442.837500", "160444.837500", "160446.837500", "160448.837500", "160450.837500", "160452.837500", "160454.837500", "160456.837500", "160458.837500", "160500.837500", "160502.837500", "160504.837500", "160506.837500", "160508.837500", "160510.837500", "160512.837500", "160514.837500", "160516.837500", "160518.837500", "160520.837500", "160522.837500", "160524.837500", "160526.837500", "160528.837500", "160530.837500", "160532.837500", "160534.837500", "160536.837500", "160538.837500", "160540.837500", "160542.837500", "160544.837500", "160546.837500", "160548.837500", "160550.837500", "160552.837500", "160554.837500", "160556.837500", "160558.837500", "160600.837500", "160602.837500", "160604.837500", "160606.837500", "160608.837500", "160610.837500", "160612.837500", "160614.837500", "160616.837500", "160618.837500", "160620.837500", "160622.837500", "160624.837500"],
      "ContentTime": ["155757.253000", "155758.748000", "155800.748000", "155802.748000", "155804.748000", "155806.749000", "155808.749000", "155810.747000", "155812.748000", "155814.749000", "155816.749000", "155818.748000", "155820.749000", "155822.749000", "155824.748000", "155826.748000", "155828.749000", "155830.748000", "155832.749000", "155834.748000", "155836.748000", "155838.749000", "155840.749000", "155842.749000", "155844.748000", "155846.748000", "155848.748000", "155850.748000", "155852.748000", "155854.748000", "155856.748000", "155858.748000", "155900.748000", "155902.747000", "155904.748000", "155906.749000", "155908.748000", "155910.748000", "155912.749000", "155914.748000", "155916.749000", "155918.748000", "155920.748000", "155922.748000", "155924.748000", "155926.749000", "155928.748000", "155930.748000", "155932.748000", "155934.749000", "155936.748000", "155938.748000", "155940.748000", "155942.748000", "155944.749000", "155946.749000", "155948.749000", "155950.748000", "155952.748000", "155954.749000", "155956.749000", "155958.749000", "160000.748000", "160002.749000", "160004.749000", "160006.748000", "160008.748000", "160010.749000", "160012.748000", "160014.748000", "160016.749000", "160018.749000", "160020.749000", "160022.749000", "160024.748000", "160026.749000", "160028.749000", "160030.749000", "160032.749000", "160034.749000", "160036.749000", "160038.748000", "160040.749000", "160042.748000", "160044.748000", "160046.748000", "160048.749000", "160050.749000", "160052.749000", "160054.748000", "160056.749000", "160058.748000", "160100.749000", "160102.749000", "160104.748000", "160106.749000", "160108.749000", "160110.749000", "160112.748000", "160114.748000", "160116.748000", "160118.748000", "160120.749000", "160122.748000", "160124.749000", "160126.748000", "160128.749000", "160130.749000", "160132.749000", "160134.749000", "160136.749000", "160138.749000", "160140.749000", "160142.749000", "160144.748000", "160146.748000", "160148.748000", "160150.748000", "160152.749000", "160154.748000", "160156.749000", "160158.749000", "160200.749000", "160202.748000", "160204.749000", "160206.749000", "160208.749000", "160210.749000", "160212.749000", "160214.749000", "160216.749000", "160218.749000", "160220.749000", "160222.749000", "160224.748000", "160226.749000", "160228.749000", "160230.748000", "160232.747000", "160234.748000", "160236.748000", "160238.748000", "160240.748000", "160242.748000", "160244.748000", "160246.748000", "160248.749000", "160250.748000", "160252.749000", "160254.748000", "160256.748000", "160258.748000", "160300.749000", "160302.748000", "160304.749000", "160306.748000", "160308.749000", "160310.748000", "160312.749000", "160314.749000", "160316.749000", "160318.749000", "160320.749000", "160322.749000", "160324.749000", "160326.749000", "160328.749000", "160330.748000", "160332.749000", "160334.749000", "160336.748000", "160338.749000", "160340.749000", "160342.747000", "160344.749000", "160346.749000", "160348.749000", "160350.748000", "160352.749000", "160354.749000", "160356.749000", "160358.748000", "160400.749000", "160402.748000", "160404.749000", "160406.749000", "160408.748000", "160410.749000", "160412.749000", "160414.749000", "160416.748000", "160418.749000", "160420.749000", "160422.749000", "160424.749000", "160426.749000", "160428.748000", "160430.749000", "160432.749000", "160434.749000", "160436.749000", "160438.749000", "160440.749000", "160442.749000", "160444.749000", "160446.749000", "160448.749000", "160450.749000", "160452.747000", "160454.749000", "160456.748000", "160458.749000", "160500.749000", "160502.749000", "160504.749000", "160506.749000", "160508.749000", "160510.748000", "160512.749000", "160514.749000", "160516.749000", "160518.749000", "160520.748000", "160522.749000", "160524.748000", "160526.749000", "160528.748000", "160530.749000", "160532.748000", "160534.749000", "160536.749000", "160538.749000", "160540.748000", "160542.749000", "160544.748000", "160546.748000", "160548.749000", "160550.748000", "160552.749000", "160554.749000", "160556.749000", "160558.749000", "160600.749000", "160602.748000", "160604.749000", "160606.748000", "160608.749000", "160610.749000", "160612.748000", "160614.748000", "160616.748000", "160618.749000", "160620.749000", "160622.760000", "160624.749000", "160626.536000"],
      "InstanceCreationTime": ["155757.253000", "155758.748000", "155800.748000", "155802.748000", "155804.748000", "155806.749000", "155808.749000", "155810.747000", "155812.748000", "155814.749000", "155816.749000", "155818.748000", "155820.749000", "155822.749000", "155824.748000", "155826.748000", "155828.749000", "155830.748000", "155832.749000", "155834.748000", "155836.748000", "155838.749000", "155840.749000", "155842.749000", "155844.748000", "155846.748000", "155848.748000", "155850.748000", "155852.748000", "155854.748000", "155856.748000", "155858.748000", "155900.748000", "155902.747000", "155904.748000", "155906.749000", "155908.748000", "155910.748000", "155912.749000", "155914.748000", "155916.749000", "155918.748000", "155920.748000", "155922.748000", "155924.748000", "155926.749000", "155928.748000", "155930.748000", "155932.748000", "155934.749000", "155936.748000", "155938.748000", "155940.748000", "155942.748000", "155944.749000", "155946.749000", "155948.749000", "155950.748000", "155952.748000", "155954.749000", "155956.749000", "155958.749000", "160000.748000", "160002.749000", "160004.749000", "160006.748000", "160008.748000", "160010.749000", "160012.748000", "160014.748000", "160016.749000", "160018.749000", "160020.749000", "160022.749000", "160024.748000", "160026.749000", "160028.749000", "160030.749000", "160032.749000", "160034.749000", "160036.749000", "160038.748000", "160040.749000", "160042.748000", "160044.748000", "160046.748000", "160048.749000", "160050.749000", "160052.749000", "160054.748000", "160056.749000", "160058.748000", "160100.749000", "160102.749000", "160104.748000", "160106.749000", "160108.749000", "160110.749000", "160112.748000", "160114.748000", "160116.748000", "160118.748000", "160120.749000", "160122.748000", "160124.749000", "160126.748000", "160128.749000", "160130.749000", "160132.749000", "160134.749000", "160136.749000", "160138.749000", "160140.749000", "160142.749000", "160144.748000", "160146.748000", "160148.748000", "160150.748000", "160152.749000", "160154.748000", "160156.749000", "160158.749000", "160200.749000", "160202.748000", "160204.749000", "160206.749000", "160208.749000", "160210.749000", "160212.749000", "160214.749000", "160216.749000", "160218.749000", "160220.749000", "160222.749000", "160224.748000", "160226.749000", "160228.749000", "160230.748000", "160232.747000", "160234.748000", "160236.748000", "160238.748000", "160240.748000", "160242.748000", "160244.748000", "160246.748000", "160248.749000", "160250.748000", "160252.749000", "160254.748000", "160256.748000", "160258.748000", "160300.749000", "160302.748000", "160304.749000", "160306.748000", "160308.749000", "160310.748000", "160312.749000", "160314.749000", "160316.749000", "160318.749000", "160320.749000", "160322.749000", "160324.749000", "160326.749000", "160328.749000", "160330.748000", "160332.749000", "160334.749000", "160336.748000", "160338.749000", "160340.749000", "160342.747000", "160344.749000", "160346.749000", "160348.749000", "160350.748000", "160352.749000", "160354.749000", "160356.749000", "160358.748000", "160400.749000", "160402.748000", "160404.749000", "160406.749000", "160408.748000", "160410.749000", "160412.749000", "160414.749000", "160416.748000", "160418.749000", "160420.749000", "160422.749000", "160424.749000", "160426.749000", "160428.748000", "160430.749000", "160432.749000", "160434.749000", "160436.749000", "160438.749000", "160440.749000", "160442.749000", "160444.749000", "160446.749000", "160448.749000", "160450.749000", "160452.747000", "160454.749000", "160456.748000", "160458.749000", "160500.749000", "160502.749000", "160504.749000", "160506.749000", "160508.749000", "160510.748000", "160512.749000", "160514.749000", "160516.749000", "160518.749000", "160520.748000", "160522.749000", "160524.748000", "160526.749000", "160528.748000", "160530.749000", "160532.748000", "160534.749000", "160536.749000", "160538.749000", "160540.748000", "160542.749000", "160544.748000", "160546.748000", "160548.749000", "160550.748000", "160552.749000", "160554.749000", "160556.749000", "160558.749000", "160600.749000", "160602.748000", "160604.749000", "160606.748000", "160608.749000", "160610.749000", "160612.748000", "160614.748000", "160616.748000", "160618.749000", "160620.749000", "160622.760000", "160624.749000", "160626.536000"],
      "InstanceNumber": [1, 2, 3, 4, 5, 6, 7, 8, 9, 10, 11, 12, 13, 14, 15, 16, 17, 18, 19, 20, 21, 22, 23, 24, 25, 26, 27, 28, 29, 30, 31, 32, 33, 34, 35, 36, 37, 38, 39, 40, 41, 42, 43, 44, 45, 46, 47, 48, 49, 50, 51, 52, 53, 54, 55, 56, 57, 58, 59, 60, 61, 62, 63, 64, 65, 66, 67, 68, 69, 70, 71, 72, 73, 74, 75, 76, 77, 78, 79, 80, 81, 82, 83, 84, 85, 86, 87, 88, 89, 90, 91, 92, 93, 94, 95, 96, 97, 98, 99, 100, 101, 102, 103, 104, 105, 106, 107, 108, 109, 110, 111, 112, 113, 114, 115, 116, 117, 118, 119, 120, 121, 122, 123, 124, 125, 126, 127, 128, 129, 130, 131, 132, 133, 134, 135, 136, 137, 138, 139, 140, 141, 142, 143, 144, 145, 146, 147, 148, 149, 150, 151, 152, 153, 154, 155, 156, 157, 158, 159, 160, 161, 162, 163, 164, 165, 166, 167, 168, 169, 170, 171, 172, 173, 174, 175, 176, 177, 178, 179, 180, 181, 182, 183, 184, 185, 186, 187, 188, 189, 190, 191, 192, 193, 194, 195, 196, 197, 198, 199, 200, 201, 202, 203, 204, 205, 206, 207, 208, 209, 210, 211, 212, 213, 214, 215, 216, 217, 218, 219, 220, 221, 222, 223, 224, 225, 226, 227, 228, 229, 230, 231, 232, 233, 234, 235, 236, 237, 238, 239, 240, 241, 242, 243, 244, 245, 246, 247, 248, 249, 250, 251, 252, 253, 254, 255, 256],
      "LargestImagePixelValue": [4095, 4085, 4095, 4095, 4095, 4085, 4087, 4069, 4066, 4077, 4095, 4093, 4095, 4095, 4095, 4095, 4095, 4095, 4093, 4074, 4033, 3960, 4005, 4082, 4031, 4046, 4095, 4095, 4088, 4052, 4058, 4059, 4055, 4029, 3994, 4059, 4033, 4034, 4095, 4055, 4055, 4094, 4095, 4084, 4030, 3970, 3993, 4017, 4010, 4071, 4056, 4036, 4021, 4006, 4012, 3997, 4004, 3967, 3960, 3984, 4006, 4095, 4037, 4069, 4005, 4074, 4095, 4095, 4050, 4093, 3999, 3998, 4041, 4041, 4030, 4023, 4021, 4046, 4029, 3995, 3990, 3985, 4032, 4020, 4012, 3991, 4026, 3996, 4022, 4059, 4095, 4055, 4018, 4037, 3984, 4018, 4095, 4095, 4095, 4095, 4095, 4095, 4095, 4095, 4065, 4073, 4095, 4095, 4095, 4095, 4095, 4095, 4095, 4095, 4095, 4095, 4077, 4020, 4040, 4083, 4095, 4095, 4095, 4095, 4095, 4095, 4095, 4095, 4063, 4095, 4095, 4095, 4095, 4095, 4095, 4089, 4094, 4084, 4059, 4095, 4095, 4095, 4095, 4095, 4075, 4095, 4089, 4072, 4012, 4008, 4083, 4087, 4019, 4056, 4095, 4095, 4095, 4095, 4095, 4095, 4041, 4072, 4095, 4095, 4095, 4095, 4095, 4095, 4038, 4093, 4050, 4093, 4089, 4095, 4095, 4095, 4049, 4075, 4086, 4092, 4016, 4095, 4095, 4095, 4095, 4052, 3961, 4012, 4011, 4088, 4094, 4095, 4068, 4095, 4095, 4095, 4095, 4095, 4095, 4084, 4095, 4095, 4095, 4067, 4077, 4095, 4095, 4095, 4095, 4095, 4095, 4095, 4095, 4095, 4095, 4090, 4095, 4095, 4095, 4063, 4025, 4057, 4044, 4085, 4086, 4052, 4073, 4065, 4036, 3987, 4027, 4070, 4063, 4023, 4095, 4095, 4095, 4095, 4095, 4094, 4052, 4048, 4090, 4095, 4095, 4095, 4095, 4095, 4095, 4095, 4095, 4095, 4095, 4095, 4095, 4095],
      "WindowCenter": [818.0, 818.0, 819.0, 818.0, 817.0, 817.0, 817.0, 816.0, 816.0, 816.0, 819.0, 821.0, 819.0, 816.0, 814.0, 815.0, 816.0, 816.0, 816.0, 814.0, 813.0, 812.0, 814.0, 814.0, 813.0, 813.0, 815.0, 816.0, 816.0, 815.0, 814.0, 814.0, 814.0, 814.0, 815.0, 815.0, 814.0, 814.0, 815.0, 815.0, 815.0, 815.0, 814.0, 814.0, 813.0, 812.0, 814.0, 816.0, 816.0, 815.0, 815.0, 816.0, 816.0, 815.0, 815.0, 814.0, 813.0, 812.0, 813.0, 814.0, 815.0, 817.0, 816.0, 814.0, 813.0, 813.0, 814.0, 815.0, 815.0, 814.0, 814.0, 815.0, 814.0, 812.0, 812.0, 812.0, 814.0, 814.0, 813.0, 811.0, 811.0, 814.0, 815.0, 814.0, 813.0, 813.0, 813.0, 813.0, 816.0, 816.0, 816.0, 815.0, 813.0, 813.0, 814.0, 815.0, 816.0, 815.0, 815.0, 817.0, 817.0, 814.0, 814.0, 814.0, 813.0, 811.0, 814.0, 816.0, 817.0, 817.0, 817.0, 816.0, 816.0, 815.0, 817.0, 817.0, 815.0, 814.0, 815.0, 816.0, 817.0, 817.0, 816.0, 814.0, 815.0, 817.0, 816.0, 813.0, 811.0, 814.0, 818.0, 819.0, 818.0, 816.0, 814.0, 815.0, 817.0, 817.0, 816.0, 815.0, 815.0, 814.0, 816.0, 817.0, 816.0, 814.0, 815.0, 815.0, 813.0, 811.0, 813.0, 817.0, 816.0, 815.0, 814.0, 815.0, 816.0, 817.0, 816.0, 815.0, 814.0, 815.0, 818.0, 818.0, 816.0, 814.0, 816.0, 818.0, 816.0, 814.0, 814.0, 815.0, 817.0, 818.0, 817.0, 815.0, 813.0, 814.0, 816.0, 815.0, 814.0, 814.0, 816.0, 818.0, 818.0, 816.0, 813.0, 812.0, 812.0, 814.0, 816.0, 817.0, 816.0, 814.0, 815.0, 817.0, 818.0, 816.0, 814.0, 814.0, 815.0, 816.0, 816.0, 814.0, 813.0, 814.0, 815.0, 813.0, 813.0, 813.0, 809.0, 812.0, 813.0, 815.0, 817.0, 817.0, 816.0, 814.0, 815.0, 815.0, 815.0, 815.0, 814.0, 815.0, 815.0, 814.0, 815.0, 815.0, 814.0, 812.0, 812.0, 813.0, 812.0, 810.0, 812.0, 813.0, 814.0, 815.0, 815.0, 814.0, 812.0, 812.0, 814.0, 817.0, 817.0, 815.0, 814.0, 813.0, 813.0, 815.0, 818.0, 818.0, 815.0, 813.0, 814.0, 816.0],
      "WindowWidth": [1845.0, 1845.0, 1847.0, 1844.0, 1840.0, 1840.0, 1841.0, 1838.0, 1836.0, 1838.0, 1848.0, 1853.0, 1847.0, 1838.0, 1831.0, 1834.0, 1838.0, 1838.0, 1836.0, 1832.0, 1828.0, 1825.0, 1831.0, 1832.0, 1829.0, 1828.0, 1834.0, 1839.0, 1839.0, 1834.0, 1831.0, 1832.0, 1831.0, 1830.0, 1832.0, 1833.0, 1831.0, 1831.0, 1834.0, 1836.0, 1834.0, 1833.0, 1832.0, 1831.0, 1827.0, 1825.0, 1831.0, 1836.0, 1837.0, 1833.0, 1833.0, 1836.0, 1837.0, 1834.0, 1834.0, 1829.0, 1827.0, 1823.0, 1827.0, 1829.0, 1834.0, 1840.0, 1837.0, 1830.0, 1826.0, 1827.0, 1831.0, 1834.0, 1834.0, 1831.0, 1832.0, 1832.0, 1830.0, 1825.0, 1823.0, 1825.0, 1832.0, 1831.0, 1826.0, 1820.0, 1822.0, 1829.0, 1834.0, 1830.0, 1828.0, 1828.0, 1826.0, 1828.0, 1836.0, 1837.0, 1836.0, 1833.0, 1827.0, 1827.0, 1830.0, 1832.0, 1837.0, 1833.0, 1836.0, 1841.0, 1840.0, 1832.0, 1830.0, 1830.0, 1826.0, 1822.0, 1830.0, 1837.0, 1842.0, 1839.0, 1838.0, 1838.0, 1835.0, 1833.0, 1839.0, 1839.0, 1834.0, 1830.0, 1834.0, 1838.0, 1842.0, 1842.0, 1835.0, 1831.0, 1836.0, 1841.0, 1838.0, 1829.0, 1822.0, 1830.0, 1844.0, 1848.0, 1844.0, 1837.0, 1832.0, 1836.0, 1841.0, 1841.0, 1838.0, 1834.0, 1833.0, 1832.0, 1839.0, 1839.0, 1837.0, 1832.0, 1833.0, 1833.0, 1828.0, 1821.0, 1829.0, 1839.0, 1838.0, 1832.0, 1831.0, 1833.0, 1838.0, 1842.0, 1839.0, 1833.0, 1830.0, 1833.0, 1844.0, 1846.0, 1837.0, 1831.0, 1838.0, 1843.0, 1837.0, 1831.0, 1830.0, 1834.0, 1842.0, 1844.0, 1841.0, 1834.0, 1828.0, 1831.0, 1837.0, 1834.0, 1829.0, 1830.0, 1836.0, 1843.0, 1843.0, 1836.0, 1827.0, 1824.0, 1824.0, 1831.0, 1837.0, 1840.0, 1836.0, 1830.0, 1832.0, 1842.0, 1843.0, 1835.0, 1831.0, 1832.0, 1834.0, 1837.0, 1836.0, 1831.0, 1826.0, 1829.0, 1832.0, 1828.0, 1825.0, 1826.0, 1812.0, 1823.0, 1824.0, 1831.0, 1839.0, 1840.0, 1836.0, 1830.0, 1832.0, 1833.0, 1833.0, 1832.0, 1830.0, 1832.0, 1832.0, 1830.0, 1834.0, 1833.0, 1828.0, 1823.0, 1824.0, 1827.0, 1822.0, 1818.0, 1823.0, 1827.0, 1830.0, 1832.0, 1833.0, 1829.0, 1824.0, 1824.0, 1832.0, 1839.0, 1839.0, 1832.0, 1830.0, 1828.0, 1825.0, 1833.0, 1844.0, 1844.0, 1834.0, 1826.0, 1830.0, 1836.0]
    },
    "slices": {}
  }
}