{
  "AcquisitionMatrixPE": 100,
  "AcquisitionNumber": 1,
  "AcquisitionTime": "15:06:39.665000",
  "BandwidthPerPixelPhaseEncode": 18.519,
  "BaseResolution": 100,
  "BodyPartExamined": "BRAIN",
  "ConsistencyInfo": "N4_VE11C_LATEST_20160120",
  "ConversionSoftware": "dcm2niix",
  "ConversionSoftwareVersion": "v1.0.20180622 GCC4.9.2",
  "DerivedVendorReportedEchoSpacing": 0.000539986,
  "DeviceSerialNumber": "166078",
  "DwellTime": 2.1e-06,
  "EchoTime": 0.034,
  "EchoTrainLength": 100,
  "EffectiveEchoSpacing": 0.000539986,
  "FlipAngle": 90,
  "ImageOrientationPatientDICOM": [0.999152, 0.00136559, 0.0411479, 4.816e-12, 0.99945, -0.033169],
  "ImageType": [
    "ORIGINAL",
    "PRIMARY",
    "M",
    "ND",
    "MOSAIC"
],
  "InPlanePhaseEncodingDirectionDICOM": "COL",
  "InstitutionAddress": "Street_StreetNo_Bei_Jing_District_CN_ZIP",
  "InstitutionName": "BeiJing_Normal_University",
  "InstitutionalDepartmentName": "Department",
  "MRAcquisitionType": "2D",
  "MagneticFieldStrength": 3,
  "Manufacturer": "Siemens",
  "ManufacturersModelName": "Prisma",
  "Modality": "MR",
  "MultibandAccelerationFactor": 3,
  "PartialFourier": 1,
  "PatientPosition": "HFS",
  "PercentPhaseFOV": 100,
  "PhaseEncodingDirection": "j-",
  "PhaseEncodingSteps": 100,
  "PhaseResolution": 1,
  "PixelBandwidth": 2380,
  "ProcedureStepDescription": "BNU_P2018_64CH_Zhen.ZongLei",
  "ProtocolName": "bold_100x100_s3_2x2x2_static_256",
  "PulseSequenceDetails": "%SiemensSeq%_ep2d_bold",
  "ReceiveCoilActiveElements": "HC1-7;NC1",
  "ReceiveCoilName": "HeadNeck_64",
  "ReconMatrixPE": 100,
  "RepetitionTime": 2,
  "SAR": 0.0629992,
  "ScanOptions": "FS",
  "ScanningSequence": "EP",
  "SequenceName": "_epfid2d1_100",
  "SequenceVariant": "SK",
  "SeriesDescription": "bold_100x100_s3_2x2x2_static_256",
  "SeriesNumber": 15,
  "ShimSetting": [-5445, -11520, -1270, 378, 4, -262, -144, -18],
  "SliceThickness": 2,
  "SliceTiming": [1.485, 0, 0.99, 0.0825, 1.0725, 0.165, 1.155, 0.2475, 1.2375, 0.33, 1.32, 0.4125, 1.4025, 0.5775, 1.5675, 0.66, 1.65, 0.7425, 1.7325, 0.825, 1.815, 0.9075, 1.8975, 0.495, 1.485, 0, 0.99, 0.0825, 1.0725, 0.165, 1.155, 0.2475, 1.2375, 0.33, 1.32, 0.4125, 1.4025, 0.5775, 1.5675, 0.66, 1.65, 0.7425, 1.7325, 0.825, 1.815, 0.9075, 1.8975, 0.495, 1.485, 0, 0.99, 0.0825, 1.0725, 0.165, 1.155, 0.2475, 1.2375, 0.33, 1.32, 0.4125, 1.4025, 0.5775, 1.5675, 0.66, 1.65, 0.7425, 1.7325, 0.825, 1.815, 0.9075, 1.8975, 0.495],
  "SoftwareVersions": "syngo_MR_E11",
  "SpacingBetweenSlices": 2,
  "StationName": "AWP166078",
  "TaskName": "naturalvision",
  "TotalReadoutTime": 0.0534586,
  "TxRefAmp": 212.008,
  "dcmmeta_affine": [
    [-1.9983042478561401, 9.632000058656942e-12, 0.08234109729528427, 97.17378234863281],
    [-0.0027311723679304123, 1.9988994598388672, -0.0662817731499672, -80.50149536132812],
    [0.08229578286409378, 0.06633801758289337, 1.9972047805786133, -74.54894256591797],
    [0.0, 0.0, 0.0, 1.0]
],
  "dcmmeta_reorient_transform": [
    [0.0, -1.0, 0.0, 99.0],
    [1.0, 0.0, 0.0, 0.0],
    [0.0, 0.0, 1.0, 0.0],
    [0.0, 0.0, 0.0, 1.0]
],
  "dcmmeta_shape": [100, 100, 72, 256],
  "dcmmeta_slice_dim": 2,
  "dcmmeta_version": 0.6,
  "global": {
    "const": {
      "AcquisitionMatrix": [100, 0, 0, 100],
      "AngioFlag": "N",
      "BitsAllocated": 16,
      "BitsStored": 12,
      "BodyPartExamined": "BRAIN",
      "Columns": 900,
      "EchoNumbers": 1,
      "EchoTime": 34.0,
      "EchoTrainLength": 100,
      "FlipAngle": 90.0,
      "HighBit": 11,
      "ImageOrientationPatient": [0.99915213361018, 0.00136558619318, 0.04114789273563, 4.816e-12, 0.99944975706204, -0.0331690082551],
      "ImagePositionPatient": [-896.49548544095, -918.0418304751, -74.364589782442],
      "ImageType": [
        "ORIGINAL",
        "PRIMARY",
        "M",
        "ND",
        "MOSAIC"
],
      "ImagedNucleus": "1H",
      "ImagingFrequency": 123.257717,
      "InPlanePhaseEncodingDirection": "COL",
      "MRAcquisitionType": "2D",
      "MagneticFieldStrength": 3.0,
      "Manufacturer": "SIEMENS",
      "ManufacturerModelName": "Prisma",
      "Modality": "MR",
      "NumberOfAverages": 1.0,
      "NumberOfPhaseEncodingSteps": 100,
      "PercentPhaseFieldOfView": 100.0,
      "PercentSampling": 100.0,
      "PerformedProcedureStepStartTime": "132411.673000",
      "PhotometricInterpretation": "MONOCHROME2",
      "PixelBandwidth": 2380.0,
      "PixelRepresentation": 0,
      "PixelSpacing": [2.0, 2.0],
      "ProtocolName": "bold_100x100_s3_2x2x2_static_256",
      "RepetitionTime": 2000.0,
      "Rows": 900,
      "SAR": 0.06299918427388,
      "SamplesPerPixel": 1,
      "ScanOptions": "FS",
      "ScanningSequence": "EP",
      "SequenceName": "*epfid2d1_100",
      "SequenceVariant": "SK",
      "SeriesDescription": "bold_100x100_s3_2x2x2_static_256",
      "SeriesNumber": 15,
      "SeriesTime": "150642.631000",
      "SliceLocation": -67.776164611748,
      "SliceThickness": 2.0,
      "SmallestImagePixelValue": 0,
      "SoftwareVersions": "syngo MR E11",
      "SpacingBetweenSlices": 2.0000000254204,
      "SpecificCharacterSet": "ISO_IR 100",
      "StudyID": "1",
      "StudyTime": "132411.552000",
      "TransmitCoilName": "Body",
      "VariableFlipAngleFlag": "N",
      "WindowCenterWidthExplanation": "Algo1",
      "dBdt": 0.0},
    "slices": {}
  },
  "time": {
    "samples": {
      "AcquisitionNumber": [1, 2, 3, 4, 5, 6, 7, 8, 9, 10, 11, 12, 13, 14, 15, 16, 17, 18, 19, 20, 21, 22, 23, 24, 25, 26, 27, 28, 29, 30, 31, 32, 33, 34, 35, 36, 37, 38, 39, 40, 41, 42, 43, 44, 45, 46, 47, 48, 49, 50, 51, 52, 53, 54, 55, 56, 57, 58, 59, 60, 61, 62, 63, 64, 65, 66, 67, 68, 69, 70, 71, 72, 73, 74, 75, 76, 77, 78, 79, 80, 81, 82, 83, 84, 85, 86, 87, 88, 89, 90, 91, 92, 93, 94, 95, 96, 97, 98, 99, 100, 101, 102, 103, 104, 105, 106, 107, 108, 109, 110, 111, 112, 113, 114, 115, 116, 117, 118, 119, 120, 121, 122, 123, 124, 125, 126, 127, 128, 129, 130, 131, 132, 133, 134, 135, 136, 137, 138, 139, 140, 141, 142, 143, 144, 145, 146, 147, 148, 149, 150, 151, 152, 153, 154, 155, 156, 157, 158, 159, 160, 161, 162, 163, 164, 165, 166, 167, 168, 169, 170, 171, 172, 173, 174, 175, 176, 177, 178, 179, 180, 181, 182, 183, 184, 185, 186, 187, 188, 189, 190, 191, 192, 193, 194, 195, 196, 197, 198, 199, 200, 201, 202, 203, 204, 205, 206, 207, 208, 209, 210, 211, 212, 213, 214, 215, 216, 217, 218, 219, 220, 221, 222, 223, 224, 225, 226, 227, 228, 229, 230, 231, 232, 233, 234, 235, 236, 237, 238, 239, 240, 241, 242, 243, 244, 245, 246, 247, 248, 249, 250, 251, 252, 253, 254, 255, 256],
      "AcquisitionTime": ["150639.665000", "150641.665000", "150643.665000", "150645.665000", "150647.665000", "150649.665000", "150651.665000", "150653.665000", "150655.665000", "150657.665000", "150659.665000", "150701.665000", "150703.665000", "150705.665000", "150707.665000", "150709.665000", "150711.665000", "150713.665000", "150715.665000", "150717.665000", "150719.665000", "150721.665000", "150723.665000", "150725.665000", "150727.665000", "150729.665000", "150731.665000", "150733.665000", "150735.665000", "150737.665000", "150739.665000", "150741.665000", "150743.665000", "150745.665000", "150747.665000", "150749.665000", "150751.665000", "150753.665000", "150755.665000", "150757.665000", "150759.665000", "150801.665000", "150803.665000", "150805.665000", "150807.665000", "150809.665000", "150811.665000", "150813.665000", "150815.665000", "150817.665000", "150819.665000", "150821.665000", "150823.665000", "150825.665000", "150827.665000", "150829.665000", "150831.665000", "150833.665000", "150835.665000", "150837.665000", "150839.665000", "150841.665000", "150843.665000", "150845.665000", "150847.665000", "150849.665000", "150851.665000", "150853.665000", "150855.665000", "150857.665000", "150859.665000", "150901.665000", "150903.665000", "150905.665000", "150907.665000", "150909.665000", "150911.665000", "150913.665000", "150915.665000", "150917.665000", "150919.665000", "150921.665000", "150923.665000", "150925.665000", "150927.665000", "150929.665000", "150931.665000", "150933.665000", "150935.665000", "150937.665000", "150939.665000", "150941.665000", "150943.665000", "150945.665000", "150947.665000", "150949.665000", "150951.665000", "150953.665000", "150955.665000", "150957.665000", "150959.665000", "151001.665000", "151003.665000", "151005.665000", "151007.665000", "151009.665000", "151011.665000", "151013.665000", "151015.665000", "151017.665000", "151019.665000", "151021.665000", "151023.665000", "151025.665000", "151027.665000", "151029.665000", "151031.665000", "151033.665000", "151035.665000", "151037.665000", "151039.665000", "151041.665000", "151043.665000", "151045.665000", "151047.665000", "151049.665000", "151051.665000", "151053.665000", "151055.665000", "151057.665000", "151059.665000", "151101.665000", "151103.665000", "151105.665000", "151107.665000", "151109.665000", "151111.665000", "151113.665000", "151115.665000", "151117.665000", "151119.665000", "151121.665000", "151123.665000", "151125.665000", "151127.665000", "151129.665000", "151131.665000", "151133.665000", "151135.665000", "151137.665000", "151139.665000", "151141.665000", "151143.665000", "151145.665000", "151147.665000", "151149.665000", "151151.665000", "151153.665000", "151155.665000", "151157.665000", "151159.665000", "151201.665000", "151203.665000", "151205.665000", "151207.665000", "151209.665000", "151211.665000", "151213.665000", "151215.665000", "151217.665000", "151219.665000", "151221.665000", "151223.665000", "151225.665000", "151227.665000", "151229.665000", "151231.665000", "151233.665000", "151235.665000", "151237.665000", "151239.665000", "151241.665000", "151243.665000", "151245.665000", "151247.665000", "151249.665000", "151251.665000", "151253.665000", "151255.665000", "151257.665000", "151259.665000", "151301.665000", "151303.665000", "151305.665000", "151307.665000", "151309.665000", "151311.665000", "151313.665000", "151315.665000", "151317.665000", "151319.665000", "151321.665000", "151323.665000", "151325.665000", "151327.665000", "151329.665000", "151331.665000", "151333.665000", "151335.665000", "151337.665000", "151339.665000", "151341.665000", "151343.665000", "151345.665000", "151347.665000", "151349.665000", "151351.665000", "151353.665000", "151355.665000", "151357.665000", "151359.665000", "151401.665000", "151403.665000", "151405.665000", "151407.665000", "151409.665000", "151411.665000", "151413.665000", "151415.665000", "151417.665000", "151419.665000", "151421.665000", "151423.665000", "151425.665000", "151427.665000", "151429.665000", "151431.665000", "151433.665000", "151435.665000", "151437.665000", "151439.665000", "151441.665000", "151443.665000", "151445.665000", "151447.665000", "151449.665000", "151451.665000", "151453.665000", "151455.665000", "151457.665000", "151459.665000", "151501.665000", "151503.665000", "151505.665000", "151507.665000", "151509.665000"],
      "ContentTime": ["150642.634000", "150644.129000", "150646.130000", "150648.130000", "150650.131000", "150652.131000", "150654.130000", "150656.130000", "150658.129000", "150700.130000", "150702.129000", "150704.129000", "150706.131000", "150708.131000", "150710.130000", "150712.131000", "150714.129000", "150716.129000", "150718.129000", "150720.130000", "150722.130000", "150724.130000", "150726.131000", "150728.130000", "150730.129000", "150732.130000", "150734.129000", "150736.130000", "150738.129000", "150740.130000", "150742.131000", "150744.131000", "150746.131000", "150748.130000", "150750.129000", "150752.129000", "150754.130000", "150756.129000", "150758.130000", "150800.131000", "150802.131000", "150804.130000", "150806.130000", "150808.130000", "150810.130000", "150812.129000", "150814.130000", "150816.131000", "150818.131000", "150820.131000", "150822.131000", "150824.129000", "150826.129000", "150828.129000", "150830.130000", "150832.131000", "150834.130000", "150836.131000", "150838.131000", "150840.129000", "150842.131000", "150844.130000", "150846.129000", "150848.129000", "150850.130000", "150852.130000", "150854.130000", "150856.130000", "150858.129000", "150900.130000", "150902.130000", "150904.130000", "150906.130000", "150908.131000", "150910.130000", "150912.131000", "150914.130000", "150916.130000", "150918.130000", "150920.129000", "150922.129000", "150924.129000", "150926.130000", "150928.130000", "150930.130000", "150932.131000", "150934.129000", "150936.129000", "150938.129000", "150940.129000", "150942.131000", "150944.131000", "150946.131000", "150948.130000", "150950.129000", "150952.130000", "150954.129000", "150956.129000", "150958.129000", "151000.130000", "151002.130000", "151004.131000", "151006.130000", "151008.129000", "151010.129000", "151012.129000", "151014.130000", "151016.130000", "151018.131000", "151020.130000", "151022.131000", "151024.131000", "151026.129000", "151028.129000", "151030.129000", "151032.130000", "151034.129000", "151036.131000", "151038.130000", "151040.130000", "151042.130000", "151044.130000", "151046.129000", "151048.130000", "151050.130000", "151052.131000", "151054.131000", "151056.130000", "151058.130000", "151100.129000", "151102.129000", "151104.129000", "151106.139000", "151108.129000", "151110.131000", "151112.130000", "151114.131000", "151116.131000", "151118.129000", "151120.130000", "151122.129000", "151124.129000", "151126.129000", "151128.131000", "151130.131000", "151132.130000", "151134.130000", "151136.130000", "151138.130000", "151140.130000", "151142.130000", "151144.129000", "151146.131000", "151148.130000", "151150.130000", "151152.131000", "151154.130000", "151156.130000", "151158.130000", "151200.130000", "151202.130000", "151204.130000", "151206.130000", "151208.131000", "151210.130000", "151212.130000", "151214.130000", "151216.130000", "151218.130000", "151220.131000", "151222.131000", "151224.131000", "151226.131000", "151228.129000", "151230.129000", "151232.129000", "151234.129000", "151236.129000", "151238.131000", "151240.130000", "151242.130000", "151244.131000", "151246.129000", "151248.129000", "151250.129000", "151252.129000", "151254.130000", "151256.131000", "151258.131000", "151300.131000", "151302.130000", "151304.130000", "151306.130000", "151308.130000", "151310.130000", "151312.130000", "151314.130000", "151316.130000", "151318.130000", "151320.129000", "151322.130000", "151324.130000", "151326.130000", "151328.130000", "151330.131000", "151332.130000", "151334.130000", "151336.131000", "151338.129000", "151340.130000", "151342.129000", "151344.130000", "151346.129000", "151348.130000", "151350.131000", "151352.131000", "151354.131000", "151356.130000", "151358.130000", "151400.129000", "151402.130000", "151404.130000", "151406.130000", "151408.130000", "151410.131000", "151412.130000", "151414.130000", "151416.130000", "151418.130000", "151420.130000", "151422.131000", "151424.130000", "151426.131000", "151428.131000", "151430.130000", "151432.129000", "151434.130000", "151436.130000", "151438.129000", "151440.130000", "151442.131000", "151444.130000", "151446.131000", "151448.129000", "151450.129000", "151452.130000", "151454.129000", "151456.129000", "151458.131000", "151500.130000", "151502.130000", "151504.130000", "151506.129000", "151508.130000", "151510.130000", "151511.758000"],
      "InstanceCreationTime": ["150642.634000", "150644.129000", "150646.130000", "150648.130000", "150650.131000", "150652.131000", "150654.130000", "150656.130000", "150658.129000", "150700.130000", "150702.129000", "150704.129000", "150706.131000", "150708.131000", "150710.130000", "150712.131000", "150714.129000", "150716.129000", "150718.129000", "150720.130000", "150722.130000", "150724.130000", "150726.131000", "150728.130000", "150730.129000", "150732.130000", "150734.129000", "150736.130000", "150738.129000", "150740.130000", "150742.131000", "150744.131000", "150746.131000", "150748.130000", "150750.129000", "150752.129000", "150754.130000", "150756.129000", "150758.130000", "150800.131000", "150802.131000", "150804.130000", "150806.130000", "150808.130000", "150810.130000", "150812.129000", "150814.130000", "150816.131000", "150818.131000", "150820.131000", "150822.131000", "150824.129000", "150826.129000", "150828.129000", "150830.130000", "150832.131000", "150834.130000", "150836.131000", "150838.131000", "150840.129000", "150842.131000", "150844.130000", "150846.129000", "150848.129000", "150850.130000", "150852.130000", "150854.130000", "150856.130000", "150858.129000", "150900.130000", "150902.130000", "150904.130000", "150906.130000", "150908.131000", "150910.130000", "150912.131000", "150914.130000", "150916.130000", "150918.130000", "150920.129000", "150922.129000", "150924.129000", "150926.130000", "150928.130000", "150930.130000", "150932.131000", "150934.129000", "150936.129000", "150938.129000", "150940.129000", "150942.131000", "150944.131000", "150946.131000", "150948.130000", "150950.129000", "150952.130000", "150954.129000", "150956.129000", "150958.129000", "151000.130000", "151002.130000", "151004.131000", "151006.130000", "151008.129000", "151010.129000", "151012.129000", "151014.130000", "151016.130000", "151018.131000", "151020.130000", "151022.131000", "151024.131000", "151026.129000", "151028.129000", "151030.129000", "151032.130000", "151034.129000", "151036.131000", "151038.130000", "151040.130000", "151042.130000", "151044.130000", "151046.129000", "151048.130000", "151050.130000", "151052.131000", "151054.131000", "151056.130000", "151058.130000", "151100.129000", "151102.129000", "151104.129000", "151106.139000", "151108.129000", "151110.131000", "151112.130000", "151114.131000", "151116.131000", "151118.129000", "151120.130000", "151122.129000", "151124.129000", "151126.129000", "151128.131000", "151130.131000", "151132.130000", "151134.130000", "151136.130000", "151138.130000", "151140.130000", "151142.130000", "151144.129000", "151146.131000", "151148.130000", "151150.130000", "151152.131000", "151154.130000", "151156.130000", "151158.130000", "151200.130000", "151202.130000", "151204.130000", "151206.130000", "151208.131000", "151210.130000", "151212.130000", "151214.130000", "151216.130000", "151218.130000", "151220.131000", "151222.131000", "151224.131000", "151226.131000", "151228.129000", "151230.129000", "151232.129000", "151234.129000", "151236.129000", "151238.131000", "151240.130000", "151242.130000", "151244.131000", "151246.129000", "151248.129000", "151250.129000", "151252.129000", "151254.130000", "151256.131000", "151258.131000", "151300.131000", "151302.130000", "151304.130000", "151306.130000", "151308.130000", "151310.130000", "151312.130000", "151314.130000", "151316.130000", "151318.130000", "151320.129000", "151322.130000", "151324.130000", "151326.130000", "151328.130000", "151330.131000", "151332.130000", "151334.130000", "151336.131000", "151338.129000", "151340.130000", "151342.129000", "151344.130000", "151346.129000", "151348.130000", "151350.131000", "151352.131000", "151354.131000", "151356.130000", "151358.130000", "151400.129000", "151402.130000", "151404.130000", "151406.130000", "151408.130000", "151410.131000", "151412.130000", "151414.130000", "151416.130000", "151418.130000", "151420.130000", "151422.131000", "151424.130000", "151426.131000", "151428.131000", "151430.130000", "151432.129000", "151434.130000", "151436.130000", "151438.129000", "151440.130000", "151442.131000", "151444.130000", "151446.131000", "151448.129000", "151450.129000", "151452.130000", "151454.129000", "151456.129000", "151458.131000", "151500.130000", "151502.130000", "151504.130000", "151506.129000", "151508.130000", "151510.130000", "151511.758000"],
      "InstanceNumber": [1, 2, 3, 4, 5, 6, 7, 8, 9, 10, 11, 12, 13, 14, 15, 16, 17, 18, 19, 20, 21, 22, 23, 24, 25, 26, 27, 28, 29, 30, 31, 32, 33, 34, 35, 36, 37, 38, 39, 40, 41, 42, 43, 44, 45, 46, 47, 48, 49, 50, 51, 52, 53, 54, 55, 56, 57, 58, 59, 60, 61, 62, 63, 64, 65, 66, 67, 68, 69, 70, 71, 72, 73, 74, 75, 76, 77, 78, 79, 80, 81, 82, 83, 84, 85, 86, 87, 88, 89, 90, 91, 92, 93, 94, 95, 96, 97, 98, 99, 100, 101, 102, 103, 104, 105, 106, 107, 108, 109, 110, 111, 112, 113, 114, 115, 116, 117, 118, 119, 120, 121, 122, 123, 124, 125, 126, 127, 128, 129, 130, 131, 132, 133, 134, 135, 136, 137, 138, 139, 140, 141, 142, 143, 144, 145, 146, 147, 148, 149, 150, 151, 152, 153, 154, 155, 156, 157, 158, 159, 160, 161, 162, 163, 164, 165, 166, 167, 168, 169, 170, 171, 172, 173, 174, 175, 176, 177, 178, 179, 180, 181, 182, 183, 184, 185, 186, 187, 188, 189, 190, 191, 192, 193, 194, 195, 196, 197, 198, 199, 200, 201, 202, 203, 204, 205, 206, 207, 208, 209, 210, 211, 212, 213, 214, 215, 216, 217, 218, 219, 220, 221, 222, 223, 224, 225, 226, 227, 228, 229, 230, 231, 232, 233, 234, 235, 236, 237, 238, 239, 240, 241, 242, 243, 244, 245, 246, 247, 248, 249, 250, 251, 252, 253, 254, 255, 256],
      "LargestImagePixelValue": [2704, 2533, 2430, 2385, 2420, 2420, 2597, 2446, 2386, 2394, 2405, 2397, 2398, 2425, 2405, 2394, 2363, 2415, 2407, 2412, 2401, 2409, 2403, 2473, 2390, 2451, 2416, 2417, 2363, 2381, 2389, 2403, 2376, 2479, 2408, 2373, 2396, 2434, 2932, 2385, 2383, 2345, 2387, 2361, 2394, 2381, 2389, 2418, 2386, 2399, 2442, 2364, 2402, 2371, 2379, 2370, 2379, 2369, 2412, 2373, 2351, 2403, 2369, 2469, 2395, 2413, 2451, 2416, 2417, 2425, 2413, 2374, 2419, 2449, 2425, 2385, 2415, 2365, 2320, 2337, 2353, 2354, 2354, 2334, 2337, 2384, 2329, 2359, 2329, 2323, 2336, 2332, 2343, 2345, 2364, 2332, 2310, 2324, 2373, 2308, 2335, 2332, 2461, 2321, 2329, 2359, 2322, 2348, 2330, 2493, 2353, 2344, 2359, 2376, 2328, 2330, 2337, 2499, 2334, 2328, 2348, 2320, 2345, 2672, 2331, 2366, 2519, 2354, 2345, 2367, 2325, 2368, 2346, 2345, 2445, 2354, 2350, 2336, 2342, 2364, 2384, 2425, 2416, 2400, 2436, 2654, 2373, 2433, 2481, 2560, 2462, 2468, 2484, 2451, 2513, 2452, 2537, 2482, 2548, 2454, 2514, 2488, 2443, 2524, 2491, 2559, 2527, 2470, 2551, 2505, 2446, 2526, 2485, 2518, 2500, 2590, 2512, 2564, 2533, 2577, 2426, 2567, 2520, 2487, 2590, 2500, 2529, 2422, 2407, 2429, 2457, 2449, 2417, 2462, 2439, 2547, 2471, 2478, 2338, 2375, 2337, 2335, 2327, 2386, 2359, 2335, 2343, 2437, 2347, 2373, 2428, 2356, 2396, 2569, 2456, 2421, 2335, 2464, 2447, 2448, 2418, 2459, 2396, 2428, 2425, 2476, 2413, 2418, 2428, 2449, 2432, 2391, 2410, 2548, 2483, 2511, 2439, 2538, 2415, 2523, 2439, 2521, 2411, 2502, 2516, 2508, 2545, 2468, 2468, 2371, 2462, 2451, 2518, 2484, 2401, 2502],
      "WindowCenter": [724.0, 722.0, 720.0, 720.0, 719.0, 720.0, 722.0, 723.0, 721.0, 721.0, 721.0, 721.0, 719.0, 718.0, 718.0, 719.0, 719.0, 719.0, 719.0, 718.0, 719.0, 720.0, 719.0, 719.0, 718.0, 719.0, 718.0, 717.0, 716.0, 717.0, 717.0, 718.0, 718.0, 719.0, 716.0, 720.0, 719.0, 720.0, 726.0, 719.0, 719.0, 721.0, 721.0, 718.0, 717.0, 717.0, 718.0, 718.0, 716.0, 716.0, 719.0, 719.0, 719.0, 717.0, 716.0, 715.0, 715.0, 714.0, 717.0, 717.0, 717.0, 719.0, 718.0, 719.0, 717.0, 718.0, 719.0, 719.0, 718.0, 719.0, 719.0, 718.0, 720.0, 721.0, 720.0, 718.0, 720.0, 716.0, 716.0, 715.0, 715.0, 716.0, 718.0, 717.0, 718.0, 718.0, 717.0, 717.0, 717.0, 716.0, 716.0, 716.0, 715.0, 716.0, 719.0, 717.0, 716.0, 715.0, 715.0, 714.0, 715.0, 716.0, 718.0, 713.0, 713.0, 716.0, 718.0, 718.0, 717.0, 719.0, 715.0, 712.0, 712.0, 713.0, 714.0, 715.0, 715.0, 719.0, 718.0, 718.0, 716.0, 716.0, 717.0, 723.0, 717.0, 717.0, 717.0, 714.0, 715.0, 717.0, 717.0, 715.0, 714.0, 714.0, 716.0, 716.0, 714.0, 715.0, 718.0, 719.0, 719.0, 716.0, 714.0, 713.0, 714.0, 718.0, 716.0, 720.0, 719.0, 721.0, 721.0, 721.0, 719.0, 718.0, 719.0, 719.0, 721.0, 720.0, 719.0, 718.0, 720.0, 720.0, 719.0, 719.0, 718.0, 720.0, 720.0, 721.0, 721.0, 720.0, 720.0, 720.0, 720.0, 721.0, 720.0, 719.0, 717.0, 719.0, 722.0, 723.0, 719.0, 720.0, 718.0, 718.0, 720.0, 717.0, 716.0, 715.0, 717.0, 717.0, 716.0, 715.0, 715.0, 716.0, 715.0, 717.0, 718.0, 718.0, 718.0, 717.0, 715.0, 716.0, 715.0, 713.0, 713.0, 713.0, 713.0, 715.0, 714.0, 715.0, 717.0, 718.0, 718.0, 719.0, 715.0, 714.0, 713.0, 717.0, 717.0, 717.0, 717.0, 716.0, 716.0, 716.0, 715.0, 716.0, 716.0, 716.0, 718.0, 718.0, 716.0, 715.0, 715.0, 717.0, 717.0, 717.0, 715.0, 717.0, 718.0, 719.0, 718.0, 717.0, 715.0, 719.0, 721.0, 720.0, 718.0, 716.0, 716.0, 717.0, 719.0, 717.0, 717.0, 716.0, 714.0, 716.0],
      "WindowWidth": [1542.0, 1536.0, 1533.0, 1531.0, 1530.0, 1531.0, 1537.0, 1539.0, 1534.0, 1534.0, 1535.0, 1534.0, 1531.0, 1527.0, 1528.0, 1530.0, 1531.0, 1530.0, 1529.0, 1528.0, 1529.0, 1531.0, 1529.0, 1530.0, 1528.0, 1529.0, 1526.0, 1525.0, 1523.0, 1524.0, 1525.0, 1528.0, 1528.0, 1528.0, 1521.0, 1532.0, 1531.0, 1533.0, 1546.0, 1529.0, 1532.0, 1536.0, 1534.0, 1528.0, 1526.0, 1526.0, 1528.0, 1528.0, 1523.0, 1522.0, 1529.0, 1531.0, 1529.0, 1525.0, 1523.0, 1520.0, 1519.0, 1519.0, 1526.0, 1524.0, 1526.0, 1530.0, 1528.0, 1529.0, 1525.0, 1528.0, 1530.0, 1529.0, 1528.0, 1530.0, 1530.0, 1528.0, 1532.0, 1534.0, 1533.0, 1528.0, 1531.0, 1523.0, 1522.0, 1520.0, 1519.0, 1522.0, 1527.0, 1525.0, 1526.0, 1527.0, 1525.0, 1526.0, 1524.0, 1522.0, 1522.0, 1522.0, 1521.0, 1524.0, 1529.0, 1525.0, 1522.0, 1520.0, 1520.0, 1518.0, 1521.0, 1523.0, 1526.0, 1516.0, 1517.0, 1524.0, 1527.0, 1527.0, 1525.0, 1529.0, 1519.0, 1512.0, 1511.0, 1514.0, 1518.0, 1520.0, 1519.0, 1529.0, 1528.0, 1526.0, 1522.0, 1522.0, 1525.0, 1537.0, 1526.0, 1524.0, 1525.0, 1517.0, 1521.0, 1526.0, 1524.0, 1520.0, 1518.0, 1518.0, 1523.0, 1521.0, 1517.0, 1521.0, 1527.0, 1531.0, 1530.0, 1522.0, 1517.0, 1515.0, 1517.0, 1525.0, 1522.0, 1531.0, 1529.0, 1533.0, 1535.0, 1533.0, 1530.0, 1527.0, 1528.0, 1531.0, 1535.0, 1531.0, 1529.0, 1526.0, 1530.0, 1531.0, 1529.0, 1530.0, 1526.0, 1531.0, 1532.0, 1534.0, 1535.0, 1532.0, 1531.0, 1532.0, 1532.0, 1533.0, 1530.0, 1529.0, 1524.0, 1529.0, 1537.0, 1539.0, 1529.0, 1530.0, 1525.0, 1526.0, 1531.0, 1524.0, 1522.0, 1520.0, 1524.0, 1524.0, 1520.0, 1518.0, 1519.0, 1521.0, 1519.0, 1522.0, 1527.0, 1525.0, 1527.0, 1523.0, 1519.0, 1523.0, 1520.0, 1515.0, 1514.0, 1513.0, 1515.0, 1519.0, 1517.0, 1519.0, 1523.0, 1527.0, 1526.0, 1528.0, 1518.0, 1516.0, 1515.0, 1524.0, 1524.0, 1523.0, 1523.0, 1522.0, 1521.0, 1521.0, 1520.0, 1521.0, 1521.0, 1522.0, 1526.0, 1527.0, 1521.0, 1518.0, 1520.0, 1523.0, 1523.0, 1523.0, 1519.0, 1524.0, 1528.0, 1528.0, 1526.0, 1525.0, 1519.0, 1528.0, 1535.0, 1530.0, 1527.0, 1521.0, 1521.0, 1524.0, 1528.0, 1525.0, 1523.0, 1521.0, 1517.0, 1523.0]
    },
    "slices": {}
  }
}