{
 "AcquisitionMatrixPE": 100,
 "AcquisitionNumber": 1,
 "AcquisitionTime": "13:28:40.017500",
 "BandwidthPerPixelPhaseEncode": 18.519,
 "BaseResolution": 100,
 "BodyPartExamined": "BRAIN",
 "ConsistencyInfo": "N4_VE11C_LATEST_20160120",
 "ConversionSoftware": "dcm2niix",
 "ConversionSoftwareVersion": "v1.0.20180622 GCC4.9.2",
 "DerivedVendorReportedEchoSpacing": 0.000539986,
 "DeviceSerialNumber": "166078",
 "DwellTime": 2.1e-06,
 "EchoTime": 0.034,
 "EchoTrainLength": 100,
 "EffectiveEchoSpacing": 0.000539986,
 "FlipAngle": 90,
 "ImageOrientationPatientDICOM": [
  0.999152,
  0.00136559,
  0.0411479,
  4.816e-12,
  0.99945,
  -0.033169
 ],
 "ImageType": [
  "ORIGINAL",
  "PRIMARY",
  "M",
  "ND",
  "MOSAIC"
 ],
 "InPlanePhaseEncodingDirectionDICOM": "COL",
 "InstitutionAddress": "Street_StreetNo_Bei_Jing_District_CN_ZIP",
 "InstitutionName": "BeiJing_Normal_University",
 "InstitutionalDepartmentName": "Department",
 "MRAcquisitionType": "2D",
 "MagneticFieldStrength": 3,
 "Manufacturer": "Siemens",
 "ManufacturersModelName": "Prisma",
 "Modality": "MR",
 "MultibandAccelerationFactor": 3,
 "PartialFourier": 1,
 "PatientPosition": "HFS",
 "PercentPhaseFOV": 100,
 "PhaseEncodingDirection": "j-",
 "PhaseEncodingSteps": 100,
 "PhaseResolution": 1,
 "PixelBandwidth": 2380,
 "ProcedureStepDescription": "BNU_P2018_64CH_Zhen.ZongLei",
 "ProtocolName": "bold_100x100_s3_2x2x2_static_256",
 "PulseSequenceDetails": "%SiemensSeq%_ep2d_bold",
 "ReceiveCoilActiveElements": "HC1-7;NC1",
 "ReceiveCoilName": "HeadNeck_64",
 "ReconMatrixPE": 100,
 "RepetitionTime": 2,
 "SAR": 0.0629992,
 "ScanOptions": "FS",
 "ScanningSequence": "EP",
 "SequenceName": "_epfid2d1_100",
 "SequenceVariant": "SK",
 "SeriesDescription": "bold_100x100_s3_2x2x2_static_256",
 "SeriesNumber": 3,
 "ShimSetting": [
  -5445,
  -11520,
  -1270,
  378,
  4,
  -262,
  -144,
  -18
 ],
 "SliceThickness": 2,
 "SliceTiming": [
  1.485,
  0,
  0.99,
  0.0825,
  1.0725,
  0.165,
  1.155,
  0.2475,
  1.2375,
  0.33,
  1.32,
  0.4125,
  1.4025,
  0.5775,
  1.5675,
  0.66,
  1.65,
  0.7425,
  1.7325,
  0.825,
  1.815,
  0.9075,
  1.8975,
  0.495,
  1.485,
  0,
  0.99,
  0.0825,
  1.0725,
  0.165,
  1.155,
  0.2475,
  1.2375,
  0.33,
  1.32,
  0.4125,
  1.4025,
  0.5775,
  1.5675,
  0.66,
  1.65,
  0.7425,
  1.7325,
  0.825,
  1.815,
  0.9075,
  1.8975,
  0.495,
  1.485,
  0,
  0.99,
  0.0825,
  1.0725,
  0.165,
  1.155,
  0.2475,
  1.2375,
  0.33,
  1.32,
  0.4125,
  1.4025,
  0.5775,
  1.5675,
  0.66,
  1.65,
  0.7425,
  1.7325,
  0.825,
  1.815,
  0.9075,
  1.8975,
  0.495
 ],
 "SoftwareVersions": "syngo_MR_E11",
 "SpacingBetweenSlices": 2,
 "StationName": "AWP166078",
 "TaskName": "imagenet",
 "TotalReadoutTime": 0.0534586,
 "TxRefAmp": 212.008,
 "dcmmeta_affine": [
  [
   -1.9983042478561401,
   9.632000058656942e-12,
   0.08234109729528427,
   97.17378234863281
  ],
  [
   -0.0027311723679304123,
   1.9988994598388672,
   -0.0662817731499672,
   -80.50149536132812
  ],
  [
   0.08229578286409378,
   0.06633801758289337,
   1.9972047805786133,
   -74.54894256591797
  ],
  [
   0.0,
   0.0,
   0.0,
   1.0
  ]
 ],
 "dcmmeta_reorient_transform": [
  [
   0.0,
   -1.0,
   0.0,
   99.0
  ],
  [
   1.0,
   0.0,
   0.0,
   0.0
  ],
  [
   0.0,
   0.0,
   1.0,
   0.0
  ],
  [
   0.0,
   0.0,
   0.0,
   1.0
  ]
 ],
 "dcmmeta_shape": [
  100,
  100,
  72,
  256
 ],
 "dcmmeta_slice_dim": 2,
 "dcmmeta_version": 0.6,
 "global": {
  "const": {
   "AcquisitionMatrix": [
    100,
    0,
    0,
    100
   ],
   "AngioFlag": "N",
   "BitsAllocated": 16,
   "BitsStored": 12,
   "BodyPartExamined": "BRAIN",
   "Columns": 900,
   "EchoNumbers": 1,
   "EchoTime": 34.0,
   "EchoTrainLength": 100,
   "FlipAngle": 90.0,
   "HighBit": 11,
   "ImageOrientationPatient": [
    0.99915213361018,
    0.00136558619318,
    0.04114789273563,
    4.816e-12,
    0.99944975706204,
    -0.0331690082551
   ],
   "ImagePositionPatient": [
    -896.49548544095,
    -918.0418304751,
    -74.364589782442
   ],
   "ImageType": [
    "ORIGINAL",
    "PRIMARY",
    "M",
    "ND",
    "MOSAIC"
   ],
   "ImagedNucleus": "1H",
   "ImagingFrequency": 123.257697,
   "InPlanePhaseEncodingDirection": "COL",
   "MRAcquisitionType": "2D",
   "MagneticFieldStrength": 3.0,
   "Manufacturer": "SIEMENS",
   "ManufacturerModelName": "Prisma",
   "Modality": "MR",
   "NumberOfAverages": 1.0,
   "NumberOfPhaseEncodingSteps": 100,
   "PercentPhaseFieldOfView": 100.0,
   "PercentSampling": 100.0,
   "PerformedProcedureStepStartTime": "132411.673000",
   "PhotometricInterpretation": "MONOCHROME2",
   "PixelBandwidth": 2380.0,
   "PixelRepresentation": 0,
   "PixelSpacing": [
    2.0,
    2.0
   ],
   "ProtocolName": "bold_100x100_s3_2x2x2_static_256",
   "RepetitionTime": 2000.0,
   "Rows": 900,
   "SAR": 0.06299918427388,
   "SamplesPerPixel": 1,
   "ScanOptions": "FS",
   "ScanningSequence": "EP",
   "SequenceName": "*epfid2d1_100",
   "SequenceVariant": "SK",
   "SeriesDescription": "bold_100x100_s3_2x2x2_static_256",
   "SeriesNumber": 3,
   "SeriesTime": "132842.713000",
   "SliceLocation": -67.776164611748,
   "SliceThickness": 2.0,
   "SmallestImagePixelValue": 0,
   "SoftwareVersions": "syngo MR E11",
   "SpacingBetweenSlices": 2.0000000254204,
   "SpecificCharacterSet": "ISO_IR 100",
   "StudyID": "1",
   "StudyTime": "132411.552000",
   "TransmitCoilName": "Body",
   "VariableFlipAngleFlag": "N",
   "WindowCenterWidthExplanation": "Algo1",
   "dBdt": 0.0
  },
  "slices": {}
 },
 "time": {
  "samples": {
   "AcquisitionNumber": [
    1,
    2,
    3,
    4,
    5,
    6,
    7,
    8,
    9,
    10,
    11,
    12,
    13,
    14,
    15,
    16,
    17,
    18,
    19,
    20,
    21,
    22,
    23,
    24,
    25,
    26,
    27,
    28,
    29,
    30,
    31,
    32,
    33,
    34,
    35,
    36,
    37,
    38,
    39,
    40,
    41,
    42,
    43,
    44,
    45,
    46,
    47,
    48,
    49,
    50,
    51,
    52,
    53,
    54,
    55,
    56,
    57,
    58,
    59,
    60,
    61,
    62,
    63,
    64,
    65,
    66,
    67,
    68,
    69,
    70,
    71,
    72,
    73,
    74,
    75,
    76,
    77,
    78,
    79,
    80,
    81,
    82,
    83,
    84,
    85,
    86,
    87,
    88,
    89,
    90,
    91,
    92,
    93,
    94,
    95,
    96,
    97,
    98,
    99,
    100,
    101,
    102,
    103,
    104,
    105,
    106,
    107,
    108,
    109,
    110,
    111,
    112,
    113,
    114,
    115,
    116,
    117,
    118,
    119,
    120,
    121,
    122,
    123,
    124,
    125,
    126,
    127,
    128,
    129,
    130,
    131,
    132,
    133,
    134,
    135,
    136,
    137,
    138,
    139,
    140,
    141,
    142,
    143,
    144,
    145,
    146,
    147,
    148,
    149,
    150,
    151,
    152,
    153,
    154,
    155,
    156,
    157,
    158,
    159,
    160,
    161,
    162,
    163,
    164,
    165,
    166,
    167,
    168,
    169,
    170,
    171,
    172,
    173,
    174,
    175,
    176,
    177,
    178,
    179,
    180,
    181,
    182,
    183,
    184,
    185,
    186,
    187,
    188,
    189,
    190,
    191,
    192,
    193,
    194,
    195,
    196,
    197,
    198,
    199,
    200,
    201,
    202,
    203,
    204,
    205,
    206,
    207,
    208,
    209,
    210,
    211,
    212,
    213,
    214,
    215,
    216,
    217,
    218,
    219,
    220,
    221,
    222,
    223,
    224,
    225,
    226,
    227,
    228,
    229,
    230,
    231,
    232,
    233,
    234,
    235,
    236,
    237,
    238,
    239,
    240,
    241,
    242,
    243,
    244,
    245,
    246,
    247,
    248,
    249,
    250,
    251,
    252,
    253,
    254,
    255,
    256
   ],
   "AcquisitionTime": [
    "132840.017500",
    "132842.017500",
    "132844.017500",
    "132846.017500",
    "132848.017500",
    "132850.017500",
    "132852.017500",
    "132854.017500",
    "132856.017500",
    "132858.017500",
    "132900.017500",
    "132902.017500",
    "132904.017500",
    "132906.017500",
    "132908.017500",
    "132910.017500",
    "132912.017500",
    "132914.017500",
    "132916.017500",
    "132918.017500",
    "132920.017500",
    "132922.017500",
    "132924.017500",
    "132926.017500",
    "132928.017500",
    "132930.017500",
    "132932.017500",
    "132934.017500",
    "132936.017500",
    "132938.017500",
    "132940.017500",
    "132942.017500",
    "132944.017500",
    "132946.017500",
    "132948.017500",
    "132950.017500",
    "132952.017500",
    "132954.017500",
    "132956.017500",
    "132958.017500",
    "133000.017500",
    "133002.017500",
    "133004.017500",
    "133006.017500",
    "133008.017500",
    "133010.017500",
    "133012.017500",
    "133014.017500",
    "133016.017500",
    "133018.017500",
    "133020.017500",
    "133022.017500",
    "133024.017500",
    "133026.017500",
    "133028.017500",
    "133030.017500",
    "133032.017500",
    "133034.017500",
    "133036.017500",
    "133038.017500",
    "133040.017500",
    "133042.017500",
    "133044.017500",
    "133046.017500",
    "133048.017500",
    "133050.017500",
    "133052.017500",
    "133054.017500",
    "133056.017500",
    "133058.017500",
    "133100.017500",
    "133102.017500",
    "133104.017500",
    "133106.017500",
    "133108.017500",
    "133110.017500",
    "133112.017500",
    "133114.017500",
    "133116.017500",
    "133118.017500",
    "133120.017500",
    "133122.017500",
    "133124.017500",
    "133126.017500",
    "133128.017500",
    "133130.017500",
    "133132.017500",
    "133134.017500",
    "133136.017500",
    "133138.017500",
    "133140.017500",
    "133142.017500",
    "133144.017500",
    "133146.017500",
    "133148.017500",
    "133150.017500",
    "133152.017500",
    "133154.017500",
    "133156.017500",
    "133158.017500",
    "133200.017500",
    "133202.017500",
    "133204.017500",
    "133206.017500",
    "133208.017500",
    "133210.017500",
    "133212.017500",
    "133214.017500",
    "133216.017500",
    "133218.017500",
    "133220.017500",
    "133222.017500",
    "133224.017500",
    "133226.017500",
    "133228.017500",
    "133230.017500",
    "133232.017500",
    "133234.017500",
    "133236.017500",
    "133238.017500",
    "133240.017500",
    "133242.017500",
    "133244.017500",
    "133246.017500",
    "133248.017500",
    "133250.017500",
    "133252.017500",
    "133254.017500",
    "133256.017500",
    "133258.017500",
    "133300.017500",
    "133302.017500",
    "133304.017500",
    "133306.017500",
    "133308.017500",
    "133310.017500",
    "133312.017500",
    "133314.017500",
    "133316.017500",
    "133318.017500",
    "133320.017500",
    "133322.017500",
    "133324.017500",
    "133326.017500",
    "133328.017500",
    "133330.017500",
    "133332.017500",
    "133334.017500",
    "133336.017500",
    "133338.017500",
    "133340.017500",
    "133342.017500",
    "133344.017500",
    "133346.017500",
    "133348.017500",
    "133350.017500",
    "133352.017500",
    "133354.017500",
    "133356.017500",
    "133358.017500",
    "133400.017500",
    "133402.017500",
    "133404.017500",
    "133406.017500",
    "133408.017500",
    "133410.017500",
    "133412.017500",
    "133414.017500",
    "133416.017500",
    "133418.017500",
    "133420.017500",
    "133422.017500",
    "133424.017500",
    "133426.017500",
    "133428.017500",
    "133430.017500",
    "133432.017500",
    "133434.017500",
    "133436.017500",
    "133438.017500",
    "133440.017500",
    "133442.017500",
    "133444.017500",
    "133446.017500",
    "133448.017500",
    "133450.017500",
    "133452.017500",
    "133454.017500",
    "133456.017500",
    "133458.017500",
    "133500.017500",
    "133502.017500",
    "133504.017500",
    "133506.017500",
    "133508.017500",
    "133510.017500",
    "133512.017500",
    "133514.017500",
    "133516.017500",
    "133518.017500",
    "133520.017500",
    "133522.017500",
    "133524.017500",
    "133526.017500",
    "133528.017500",
    "133530.017500",
    "133532.017500",
    "133534.017500",
    "133536.017500",
    "133538.017500",
    "133540.017500",
    "133542.017500",
    "133544.017500",
    "133546.017500",
    "133548.017500",
    "133550.017500",
    "133552.017500",
    "133554.017500",
    "133556.017500",
    "133558.017500",
    "133600.017500",
    "133602.017500",
    "133604.017500",
    "133606.017500",
    "133608.017500",
    "133610.017500",
    "133612.017500",
    "133614.017500",
    "133616.017500",
    "133618.017500",
    "133620.017500",
    "133622.017500",
    "133624.017500",
    "133626.017500",
    "133628.017500",
    "133630.017500",
    "133632.017500",
    "133634.017500",
    "133636.017500",
    "133638.017500",
    "133640.017500",
    "133642.017500",
    "133644.017500",
    "133646.017500",
    "133648.017500",
    "133650.017500",
    "133652.017500",
    "133654.017500",
    "133656.017500",
    "133658.017500",
    "133700.017500",
    "133702.017500",
    "133704.017500",
    "133706.017500",
    "133708.017500",
    "133710.017500"
   ],
   "ContentTime": [
    "132842.717000",
    "132844.211000",
    "132846.711000",
    "132848.212000",
    "132850.211000",
    "132852.211000",
    "132854.212000",
    "132856.213000",
    "132858.213000",
    "132900.212000",
    "132902.212000",
    "132904.211000",
    "132906.211000",
    "132908.211000",
    "132910.212000",
    "132912.213000",
    "132914.212000",
    "132916.213000",
    "132918.212000",
    "132920.211000",
    "132922.212000",
    "132924.212000",
    "132926.211000",
    "132928.212000",
    "132930.212000",
    "132932.212000",
    "132934.212000",
    "132936.211000",
    "132938.212000",
    "132940.212000",
    "132942.211000",
    "132944.211000",
    "132946.213000",
    "132948.212000",
    "132950.212000",
    "132952.212000",
    "132954.211000",
    "132956.211000",
    "132958.211000",
    "133000.211000",
    "133002.211000",
    "133004.212000",
    "133006.212000",
    "133008.212000",
    "133010.213000",
    "133012.212000",
    "133014.211000",
    "133016.211000",
    "133018.211000",
    "133020.213000",
    "133022.212000",
    "133024.212000",
    "133026.213000",
    "133028.213000",
    "133030.211000",
    "133032.711000",
    "133034.212000",
    "133036.712000",
    "133038.212000",
    "133040.212000",
    "133042.213000",
    "133044.212000",
    "133046.211000",
    "133048.211000",
    "133050.712000",
    "133052.211000",
    "133054.211000",
    "133056.213000",
    "133058.212000",
    "133100.213000",
    "133102.213000",
    "133104.212000",
    "133106.212000",
    "133108.711000",
    "133110.211000",
    "133112.211000",
    "133114.213000",
    "133116.213000",
    "133118.212000",
    "133120.212000",
    "133122.211000",
    "133124.211000",
    "133126.212000",
    "133128.211000",
    "133130.213000",
    "133132.212000",
    "133134.213000",
    "133136.213000",
    "133138.213000",
    "133140.211000",
    "133142.211000",
    "133144.211000",
    "133146.212000",
    "133148.213000",
    "133150.212000",
    "133152.213000",
    "133154.212000",
    "133156.711000",
    "133158.212000",
    "133200.211000",
    "133202.212000",
    "133204.211000",
    "133206.212000",
    "133208.213000",
    "133210.213000",
    "133212.213000",
    "133214.212000",
    "133216.211000",
    "133218.212000",
    "133220.212000",
    "133222.212000",
    "133224.212000",
    "133226.212000",
    "133228.212000",
    "133230.212000",
    "133232.212000",
    "133234.211000",
    "133236.211000",
    "133238.212000",
    "133240.213000",
    "133242.213000",
    "133244.213000",
    "133246.212000",
    "133248.212000",
    "133250.211000",
    "133252.211000",
    "133254.212000",
    "133256.212000",
    "133258.212000",
    "133300.212000",
    "133302.213000",
    "133304.212000",
    "133306.211000",
    "133308.212000",
    "133310.211000",
    "133312.211000",
    "133314.212000",
    "133316.212000",
    "133318.213000",
    "133320.212000",
    "133322.712000",
    "133324.211000",
    "133326.211000",
    "133328.211000",
    "133330.212000",
    "133332.211000",
    "133334.212000",
    "133336.212000",
    "133338.212000",
    "133340.212000",
    "133342.212000",
    "133344.211000",
    "133346.211000",
    "133348.212000",
    "133350.713000",
    "133352.213000",
    "133354.213000",
    "133356.213000",
    "133358.711000",
    "133400.211000",
    "133402.212000",
    "133404.211000",
    "133406.211000",
    "133408.213000",
    "133410.213000",
    "133412.212000",
    "133414.212000",
    "133416.212000",
    "133418.212000",
    "133420.212000",
    "133422.212000",
    "133424.211000",
    "133426.213000",
    "133428.213000",
    "133430.712000",
    "133432.212000",
    "133434.211000",
    "133436.211000",
    "133438.211000",
    "133440.211000",
    "133442.211000",
    "133444.213000",
    "133446.212000",
    "133448.212000",
    "133450.213000",
    "133452.212000",
    "133454.211000",
    "133456.212000",
    "133458.212000",
    "133500.212000",
    "133502.213000",
    "133504.212000",
    "133506.213000",
    "133508.213000",
    "133510.211000",
    "133512.211000",
    "133514.212000",
    "133516.212000",
    "133518.213000",
    "133520.712000",
    "133522.212000",
    "133524.213000",
    "133526.211000",
    "133528.212000",
    "133530.212000",
    "133532.211000",
    "133534.212000",
    "133536.213000",
    "133538.212000",
    "133540.213000",
    "133542.213000",
    "133544.211000",
    "133546.211000",
    "133548.211000",
    "133550.712000",
    "133552.211000",
    "133554.212000",
    "133556.212000",
    "133558.212000",
    "133600.212000",
    "133602.211000",
    "133604.212000",
    "133606.212000",
    "133608.212000",
    "133610.213000",
    "133612.213000",
    "133614.212000",
    "133616.212000",
    "133618.211000",
    "133620.211000",
    "133622.212000",
    "133624.212000",
    "133626.211000",
    "133628.213000",
    "133630.212000",
    "133632.212000",
    "133634.213000",
    "133636.212000",
    "133638.211000",
    "133640.212000",
    "133642.212000",
    "133644.211000",
    "133646.213000",
    "133648.212000",
    "133650.713000",
    "133652.213000",
    "133654.211000",
    "133656.211000",
    "133658.211000",
    "133700.212000",
    "133702.211000",
    "133704.212000",
    "133706.213000",
    "133708.213000",
    "133710.212000",
    "133712.112000"
   ],
   "InstanceCreationTime": [
    "132842.717000",
    "132844.211000",
    "132846.711000",
    "132848.212000",
    "132850.211000",
    "132852.211000",
    "132854.212000",
    "132856.213000",
    "132858.213000",
    "132900.212000",
    "132902.212000",
    "132904.211000",
    "132906.211000",
    "132908.211000",
    "132910.212000",
    "132912.213000",
    "132914.212000",
    "132916.213000",
    "132918.212000",
    "132920.211000",
    "132922.212000",
    "132924.212000",
    "132926.211000",
    "132928.212000",
    "132930.212000",
    "132932.212000",
    "132934.212000",
    "132936.211000",
    "132938.212000",
    "132940.212000",
    "132942.211000",
    "132944.211000",
    "132946.213000",
    "132948.212000",
    "132950.212000",
    "132952.212000",
    "132954.211000",
    "132956.211000",
    "132958.211000",
    "133000.211000",
    "133002.211000",
    "133004.212000",
    "133006.212000",
    "133008.212000",
    "133010.213000",
    "133012.212000",
    "133014.211000",
    "133016.211000",
    "133018.211000",
    "133020.213000",
    "133022.212000",
    "133024.212000",
    "133026.213000",
    "133028.213000",
    "133030.211000",
    "133032.711000",
    "133034.212000",
    "133036.712000",
    "133038.212000",
    "133040.212000",
    "133042.213000",
    "133044.212000",
    "133046.211000",
    "133048.211000",
    "133050.712000",
    "133052.211000",
    "133054.211000",
    "133056.213000",
    "133058.212000",
    "133100.213000",
    "133102.213000",
    "133104.212000",
    "133106.212000",
    "133108.711000",
    "133110.211000",
    "133112.211000",
    "133114.213000",
    "133116.213000",
    "133118.212000",
    "133120.212000",
    "133122.211000",
    "133124.211000",
    "133126.212000",
    "133128.211000",
    "133130.213000",
    "133132.212000",
    "133134.213000",
    "133136.213000",
    "133138.213000",
    "133140.211000",
    "133142.211000",
    "133144.211000",
    "133146.212000",
    "133148.213000",
    "133150.212000",
    "133152.213000",
    "133154.212000",
    "133156.711000",
    "133158.212000",
    "133200.211000",
    "133202.212000",
    "133204.211000",
    "133206.212000",
    "133208.213000",
    "133210.213000",
    "133212.213000",
    "133214.212000",
    "133216.211000",
    "133218.212000",
    "133220.212000",
    "133222.212000",
    "133224.212000",
    "133226.212000",
    "133228.212000",
    "133230.212000",
    "133232.212000",
    "133234.211000",
    "133236.211000",
    "133238.212000",
    "133240.213000",
    "133242.213000",
    "133244.213000",
    "133246.212000",
    "133248.212000",
    "133250.211000",
    "133252.211000",
    "133254.212000",
    "133256.212000",
    "133258.212000",
    "133300.212000",
    "133302.213000",
    "133304.212000",
    "133306.211000",
    "133308.212000",
    "133310.211000",
    "133312.211000",
    "133314.212000",
    "133316.212000",
    "133318.213000",
    "133320.212000",
    "133322.712000",
    "133324.211000",
    "133326.211000",
    "133328.211000",
    "133330.212000",
    "133332.211000",
    "133334.212000",
    "133336.212000",
    "133338.212000",
    "133340.212000",
    "133342.212000",
    "133344.211000",
    "133346.211000",
    "133348.212000",
    "133350.713000",
    "133352.213000",
    "133354.213000",
    "133356.213000",
    "133358.711000",
    "133400.211000",
    "133402.212000",
    "133404.211000",
    "133406.211000",
    "133408.213000",
    "133410.213000",
    "133412.212000",
    "133414.212000",
    "133416.212000",
    "133418.212000",
    "133420.212000",
    "133422.212000",
    "133424.211000",
    "133426.213000",
    "133428.213000",
    "133430.712000",
    "133432.212000",
    "133434.211000",
    "133436.211000",
    "133438.211000",
    "133440.211000",
    "133442.211000",
    "133444.213000",
    "133446.212000",
    "133448.212000",
    "133450.213000",
    "133452.212000",
    "133454.211000",
    "133456.212000",
    "133458.212000",
    "133500.212000",
    "133502.213000",
    "133504.212000",
    "133506.213000",
    "133508.213000",
    "133510.211000",
    "133512.211000",
    "133514.212000",
    "133516.212000",
    "133518.213000",
    "133520.712000",
    "133522.212000",
    "133524.213000",
    "133526.211000",
    "133528.212000",
    "133530.212000",
    "133532.211000",
    "133534.212000",
    "133536.213000",
    "133538.212000",
    "133540.213000",
    "133542.213000",
    "133544.211000",
    "133546.211000",
    "133548.211000",
    "133550.712000",
    "133552.211000",
    "133554.212000",
    "133556.212000",
    "133558.212000",
    "133600.212000",
    "133602.211000",
    "133604.212000",
    "133606.212000",
    "133608.212000",
    "133610.213000",
    "133612.213000",
    "133614.212000",
    "133616.212000",
    "133618.211000",
    "133620.211000",
    "133622.212000",
    "133624.212000",
    "133626.211000",
    "133628.213000",
    "133630.212000",
    "133632.212000",
    "133634.213000",
    "133636.212000",
    "133638.211000",
    "133640.212000",
    "133642.212000",
    "133644.211000",
    "133646.213000",
    "133648.212000",
    "133650.713000",
    "133652.213000",
    "133654.211000",
    "133656.211000",
    "133658.211000",
    "133700.212000",
    "133702.211000",
    "133704.212000",
    "133706.213000",
    "133708.213000",
    "133710.212000",
    "133712.112000"
   ],
   "InstanceNumber": [
    1,
    2,
    3,
    4,
    5,
    6,
    7,
    8,
    9,
    10,
    11,
    12,
    13,
    14,
    15,
    16,
    17,
    18,
    19,
    20,
    21,
    22,
    23,
    24,
    25,
    26,
    27,
    28,
    29,
    30,
    31,
    32,
    33,
    34,
    35,
    36,
    37,
    38,
    39,
    40,
    41,
    42,
    43,
    44,
    45,
    46,
    47,
    48,
    49,
    50,
    51,
    52,
    53,
    54,
    55,
    56,
    57,
    58,
    59,
    60,
    61,
    62,
    63,
    64,
    65,
    66,
    67,
    68,
    69,
    70,
    71,
    72,
    73,
    74,
    75,
    76,
    77,
    78,
    79,
    80,
    81,
    82,
    83,
    84,
    85,
    86,
    87,
    88,
    89,
    90,
    91,
    92,
    93,
    94,
    95,
    96,
    97,
    98,
    99,
    100,
    101,
    102,
    103,
    104,
    105,
    106,
    107,
    108,
    109,
    110,
    111,
    112,
    113,
    114,
    115,
    116,
    117,
    118,
    119,
    120,
    121,
    122,
    123,
    124,
    125,
    126,
    127,
    128,
    129,
    130,
    131,
    132,
    133,
    134,
    135,
    136,
    137,
    138,
    139,
    140,
    141,
    142,
    143,
    144,
    145,
    146,
    147,
    148,
    149,
    150,
    151,
    152,
    153,
    154,
    155,
    156,
    157,
    158,
    159,
    160,
    161,
    162,
    163,
    164,
    165,
    166,
    167,
    168,
    169,
    170,
    171,
    172,
    173,
    174,
    175,
    176,
    177,
    178,
    179,
    180,
    181,
    182,
    183,
    184,
    185,
    186,
    187,
    188,
    189,
    190,
    191,
    192,
    193,
    194,
    195,
    196,
    197,
    198,
    199,
    200,
    201,
    202,
    203,
    204,
    205,
    206,
    207,
    208,
    209,
    210,
    211,
    212,
    213,
    214,
    215,
    216,
    217,
    218,
    219,
    220,
    221,
    222,
    223,
    224,
    225,
    226,
    227,
    228,
    229,
    230,
    231,
    232,
    233,
    234,
    235,
    236,
    237,
    238,
    239,
    240,
    241,
    242,
    243,
    244,
    245,
    246,
    247,
    248,
    249,
    250,
    251,
    252,
    253,
    254,
    255,
    256
   ],
   "LargestImagePixelValue": [
    2626,
    2525,
    2556,
    2544,
    2544,
    2557,
    2580,
    2579,
    2583,
    2606,
    2448,
    2454,
    2482,
    2494,
    2467,
    2460,
    2537,
    2479,
    2518,
    2467,
    2528,
    2513,
    2537,
    2499,
    2521,
    2524,
    2521,
    2527,
    2459,
    2558,
    2537,
    2495,
    2474,
    2512,
    2406,
    2552,
    2503,
    2548,
    2490,
    2515,
    2512,
    2486,
    2501,
    2475,
    2481,
    2454,
    2494,
    2462,
    2414,
    2394,
    2466,
    2466,
    2467,
    2499,
    2480,
    2500,
    2416,
    2409,
    2345,
    2538,
    2428,
    2493,
    2456,
    2424,
    2516,
    2506,
    2524,
    2404,
    2405,
    2460,
    2520,
    2494,
    2571,
    2522,
    2559,
    2379,
    2369,
    2543,
    2489,
    2499,
    2433,
    2422,
    2381,
    2541,
    2416,
    2466,
    2487,
    2503,
    2426,
    2409,
    2389,
    2483,
    2471,
    2434,
    2395,
    2484,
    2483,
    2478,
    2390,
    2525,
    2504,
    2511,
    2385,
    2424,
    2479,
    2469,
    2488,
    2459,
    2499,
    2400,
    2465,
    2370,
    2517,
    2459,
    2429,
    2482,
    2529,
    2483,
    2436,
    2415,
    2362,
    2540,
    2382,
    2503,
    2465,
    2451,
    2428,
    2399,
    2489,
    2439,
    2472,
    2462,
    2456,
    2358,
    2523,
    2426,
    2538,
    2415,
    2502,
    2482,
    2537,
    2522,
    2511,
    2488,
    2357,
    2453,
    2385,
    2514,
    2487,
    2503,
    2415,
    2558,
    2528,
    2441,
    2546,
    2460,
    2468,
    2373,
    2489,
    2441,
    2393,
    2493,
    2443,
    2539,
    2463,
    2380,
    2569,
    2517,
    2488,
    2390,
    2501,
    2465,
    2485,
    2412,
    2557,
    2501,
    2571,
    2512,
    2469,
    2538,
    2450,
    2555,
    2498,
    2490,
    2458,
    2481,
    2417,
    2393,
    2519,
    2399,
    2488,
    2391,
    2465,
    2413,
    2519,
    2483,
    2479,
    2489,
    2484,
    2405,
    2469,
    2445,
    2474,
    2376,
    2552,
    2439,
    2524,
    2487,
    2478,
    2498,
    2396,
    2523,
    2424,
    2484,
    2405,
    2515,
    2468,
    2491,
    2524,
    2513,
    2508,
    2523,
    2449,
    2533,
    2464,
    2519,
    2467,
    2425,
    2484,
    2494,
    2670,
    2541,
    2404,
    2501,
    2428,
    2467,
    2461,
    2516,
    2513,
    2374,
    2543,
    2437,
    2536,
    2488,
    2525,
    2415,
    2397,
    2532,
    2504,
    2494,
    2456,
    2493,
    2382,
    2505,
    2458,
    2538
   ],
   "WindowCenter": [
    723.0,
    722.0,
    723.0,
    722.0,
    722.0,
    722.0,
    722.0,
    721.0,
    721.0,
    723.0,
    722.0,
    722.0,
    722.0,
    722.0,
    720.0,
    720.0,
    723.0,
    722.0,
    723.0,
    721.0,
    721.0,
    721.0,
    721.0,
    720.0,
    721.0,
    721.0,
    720.0,
    720.0,
    720.0,
    721.0,
    720.0,
    719.0,
    718.0,
    719.0,
    717.0,
    719.0,
    718.0,
    719.0,
    719.0,
    720.0,
    721.0,
    718.0,
    718.0,
    717.0,
    717.0,
    717.0,
    719.0,
    718.0,
    717.0,
    716.0,
    717.0,
    717.0,
    718.0,
    719.0,
    719.0,
    719.0,
    716.0,
    716.0,
    715.0,
    718.0,
    718.0,
    719.0,
    718.0,
    715.0,
    716.0,
    717.0,
    717.0,
    716.0,
    716.0,
    717.0,
    718.0,
    717.0,
    718.0,
    717.0,
    717.0,
    714.0,
    714.0,
    717.0,
    717.0,
    718.0,
    715.0,
    714.0,
    714.0,
    717.0,
    716.0,
    718.0,
    719.0,
    717.0,
    715.0,
    716.0,
    716.0,
    716.0,
    714.0,
    714.0,
    715.0,
    716.0,
    717.0,
    716.0,
    716.0,
    718.0,
    717.0,
    717.0,
    715.0,
    716.0,
    716.0,
    714.0,
    714.0,
    716.0,
    717.0,
    716.0,
