{
  "AcquisitionMatrixPE": 100,
  "AcquisitionNumber": 1,
  "AcquisitionTime": "14:36:46.617500",
  "BandwidthPerPixelPhaseEncode": 18.519,
  "BaseResolution": 100,
  "BodyPartExamined": "BRAIN",
  "ConsistencyInfo": "N4_VE11C_LATEST_20160120",
  "ConversionSoftware": "dcm2niix",
  "ConversionSoftwareVersion": "v1.0.20180622 GCC4.9.2",
  "DerivedVendorReportedEchoSpacing": 0.000539986,
  "DeviceSerialNumber": "166078",
  "DwellTime": 2.1e-06,
  "EchoTime": 0.034,
  "EchoTrainLength": 100,
  "EffectiveEchoSpacing": 0.000539986,
  "FlipAngle": 90,
  "ImageOrientationPatientDICOM": [0.999152, 0.00136559, 0.0411479, 4.816e-12, 0.99945, -0.033169],
  "ImageType": [
    "ORIGINAL",
    "PRIMARY",
    "M",
    "ND",
    "MOSAIC"
],
  "InPlanePhaseEncodingDirectionDICOM": "COL",
  "InstitutionAddress": "Street_StreetNo_Bei_Jing_District_CN_ZIP",
  "InstitutionName": "BeiJing_Normal_University",
  "InstitutionalDepartmentName": "Department",
  "MRAcquisitionType": "2D",
  "MagneticFieldStrength": 3,
  "Manufacturer": "Siemens",
  "ManufacturersModelName": "Prisma",
  "Modality": "MR",
  "MultibandAccelerationFactor": 3,
  "PartialFourier": 1,
  "PatientPosition": "HFS",
  "PercentPhaseFOV": 100,
  "PhaseEncodingDirection": "j-",
  "PhaseEncodingSteps": 100,
  "PhaseResolution": 1,
  "PixelBandwidth": 2380,
  "ProcedureStepDescription": "BNU_P2018_64CH_Zhen.ZongLei",
  "ProtocolName": "bold_100x100_s3_2x2x2_static_256",
  "PulseSequenceDetails": "%SiemensSeq%_ep2d_bold",
  "ReceiveCoilActiveElements": "HC1-7;NC1",
  "ReceiveCoilName": "HeadNeck_64",
  "ReconMatrixPE": 100,
  "RepetitionTime": 2,
  "SAR": 0.0629992,
  "ScanOptions": "FS",
  "ScanningSequence": "EP",
  "SequenceName": "_epfid2d1_100",
  "SequenceVariant": "SK",
  "SeriesDescription": "bold_100x100_s3_2x2x2_static_256",
  "SeriesNumber": 12,
  "ShimSetting": [-5445, -11520, -1270, 378, 4, -262, -144, -18],
  "SliceThickness": 2,
  "SliceTiming": [1.485, 0, 0.99, 0.0825, 1.0725, 0.165, 1.155, 0.2475, 1.2375, 0.33, 1.32, 0.4125, 1.4025, 0.5775, 1.5675, 0.66, 1.65, 0.7425, 1.7325, 0.825, 1.815, 0.9075, 1.895, 0.495, 1.485, 0, 0.99, 0.0825, 1.0725, 0.165, 1.155, 0.2475, 1.2375, 0.33, 1.32, 0.4125, 1.4025, 0.5775, 1.5675, 0.66, 1.65, 0.7425, 1.7325, 0.825, 1.815, 0.9075, 1.895, 0.495, 1.485, 0, 0.99, 0.0825, 1.0725, 0.165, 1.155, 0.2475, 1.2375, 0.33, 1.32, 0.4125, 1.4025, 0.5775, 1.5675, 0.66, 1.65, 0.7425, 1.7325, 0.825, 1.815, 0.9075, 1.895, 0.495],
  "SoftwareVersions": "syngo_MR_E11",
  "SpacingBetweenSlices": 2,
  "StationName": "AWP166078",
  "TaskName": "naturalvision",
  "TotalReadoutTime": 0.0534586,
  "TxRefAmp": 212.008,
  "dcmmeta_affine": [
    [-1.9983042478561401, 9.632000058656942e-12, 0.08234109729528427, 97.17378234863281],
    [-0.0027311723679304123, 1.9988994598388672, -0.0662817731499672, -80.50149536132812],
    [0.08229578286409378, 0.06633801758289337, 1.9972047805786133, -74.54894256591797],
    [0.0, 0.0, 0.0, 1.0]
],
  "dcmmeta_reorient_transform": [
    [0.0, -1.0, 0.0, 99.0],
    [1.0, 0.0, 0.0, 0.0],
    [0.0, 0.0, 1.0, 0.0],
    [0.0, 0.0, 0.0, 1.0]
],
  "dcmmeta_shape": [100, 100, 72, 256],
  "dcmmeta_slice_dim": 2,
  "dcmmeta_version": 0.6,
  "global": {
    "const": {
      "AcquisitionMatrix": [100, 0, 0, 100],
      "AngioFlag": "N",
      "BitsAllocated": 16,
      "BitsStored": 12,
      "BodyPartExamined": "BRAIN",
      "Columns": 900,
      "EchoNumbers": 1,
      "EchoTime": 34.0,
      "EchoTrainLength": 100,
      "FlipAngle": 90.0,
      "HighBit": 11,
      "ImageOrientationPatient": [0.99915213361018, 0.00136558619318, 0.04114789273563, 4.816e-12, 0.99944975706204, -0.0331690082551],
      "ImagePositionPatient": [-896.49548544095, -918.0418304751, -74.364589782442],
      "ImageType": [
        "ORIGINAL",
        "PRIMARY",
        "M",
        "ND",
        "MOSAIC"
],
      "ImagedNucleus": "1H",
      "ImagingFrequency": 123.257715,
      "InPlanePhaseEncodingDirection": "COL",
      "MRAcquisitionType": "2D",
      "MagneticFieldStrength": 3.0,
      "Manufacturer": "SIEMENS",
      "ManufacturerModelName": "Prisma",
      "Modality": "MR",
      "NumberOfAverages": 1.0,
      "NumberOfPhaseEncodingSteps": 100,
      "PercentPhaseFieldOfView": 100.0,
      "PercentSampling": 100.0,
      "PerformedProcedureStepStartTime": "132411.673000",
      "PhotometricInterpretation": "MONOCHROME2",
      "PixelBandwidth": 2380.0,
      "PixelRepresentation": 0,
      "PixelSpacing": [2.0, 2.0],
      "ProtocolName": "bold_100x100_s3_2x2x2_static_256",
      "RepetitionTime": 2000.0,
      "Rows": 900,
      "SAR": 0.06299918427388,
      "SamplesPerPixel": 1,
      "ScanOptions": "FS",
      "ScanningSequence": "EP",
      "SequenceName": "*epfid2d1_100",
      "SequenceVariant": "SK",
      "SeriesDescription": "bold_100x100_s3_2x2x2_static_256",
      "SeriesNumber": 12,
      "SeriesTime": "143649.313000",
      "SliceLocation": -67.776164611748,
      "SliceThickness": 2.0,
      "SmallestImagePixelValue": 0,
      "SoftwareVersions": "syngo MR E11",
      "SpacingBetweenSlices": 2.0000000254204,
      "SpecificCharacterSet": "ISO_IR 100",
      "StudyID": "1",
      "StudyTime": "132411.552000",
      "TransmitCoilName": "Body",
      "VariableFlipAngleFlag": "N",
      "WindowCenterWidthExplanation": "Algo1",
      "dBdt": 0.0},
    "slices": {}
  },
  "time": {
    "samples": {
      "AcquisitionNumber": [1, 2, 3, 4, 5, 6, 7, 8, 9, 10, 11, 12, 13, 14, 15, 16, 17, 18, 19, 20, 21, 22, 23, 24, 25, 26, 27, 28, 29, 30, 31, 32, 33, 34, 35, 36, 37, 38, 39, 40, 41, 42, 43, 44, 45, 46, 47, 48, 49, 50, 51, 52, 53, 54, 55, 56, 57, 58, 59, 60, 61, 62, 63, 64, 65, 66, 67, 68, 69, 70, 71, 72, 73, 74, 75, 76, 77, 78, 79, 80, 81, 82, 83, 84, 85, 86, 87, 88, 89, 90, 91, 92, 93, 94, 95, 96, 97, 98, 99, 100, 101, 102, 103, 104, 105, 106, 107, 108, 109, 110, 111, 112, 113, 114, 115, 116, 117, 118, 119, 120, 121, 122, 123, 124, 125, 126, 127, 128, 129, 130, 131, 132, 133, 134, 135, 136, 137, 138, 139, 140, 141, 142, 143, 144, 145, 146, 147, 148, 149, 150, 151, 152, 153, 154, 155, 156, 157, 158, 159, 160, 161, 162, 163, 164, 165, 166, 167, 168, 169, 170, 171, 172, 173, 174, 175, 176, 177, 178, 179, 180, 181, 182, 183, 184, 185, 186, 187, 188, 189, 190, 191, 192, 193, 194, 195, 196, 197, 198, 199, 200, 201, 202, 203, 204, 205, 206, 207, 208, 209, 210, 211, 212, 213, 214, 215, 216, 217, 218, 219, 220, 221, 222, 223, 224, 225, 226, 227, 228, 229, 230, 231, 232, 233, 234, 235, 236, 237, 238, 239, 240, 241, 242, 243, 244, 245, 246, 247, 248, 249, 250, 251, 252, 253, 254, 255, 256],
      "AcquisitionTime": ["143646.617500", "143648.617500", "143650.617500", "143652.617500", "143654.617500", "143656.617500", "143658.617500", "143700.617500", "143702.617500", "143704.617500", "143706.617500", "143708.617500", "143710.617500", "143712.617500", "143714.617500", "143716.617500", "143718.617500", "143720.617500", "143722.617500", "143724.617500", "143726.617500", "143728.617500", "143730.617500", "143732.617500", "143734.617500", "143736.617500", "143738.617500", "143740.617500", "143742.617500", "143744.617500", "143746.617500", "143748.617500", "143750.617500", "143752.617500", "143754.617500", "143756.617500", "143758.617500", "143800.617500", "143802.617500", "143804.617500", "143806.617500", "143808.617500", "143810.617500", "143812.617500", "143814.617500", "143816.617500", "143818.617500", "143820.617500", "143822.617500", "143824.617500", "143826.617500", "143828.617500", "143830.617500", "143832.617500", "143834.617500", "143836.617500", "143838.617500", "143840.617500", "143842.617500", "143844.617500", "143846.617500", "143848.617500", "143850.617500", "143852.617500", "143854.617500", "143856.617500", "143858.617500", "143900.617500", "143902.617500", "143904.617500", "143906.617500", "143908.617500", "143910.617500", "143912.617500", "143914.617500", "143916.617500", "143918.617500", "143920.617500", "143922.617500", "143924.617500", "143926.617500", "143928.617500", "143930.617500", "143932.617500", "143934.617500", "143936.617500", "143938.617500", "143940.617500", "143942.617500", "143944.617500", "143946.617500", "143948.617500", "143950.617500", "143952.617500", "143954.617500", "143956.617500", "143958.617500", "144000.617500", "144002.617500", "144004.617500", "144006.617500", "144008.617500", "144010.617500", "144012.617500", "144014.617500", "144016.617500", "144018.617500", "144020.617500", "144022.617500", "144024.617500", "144026.617500", "144028.617500", "144030.617500", "144032.617500", "144034.617500", "144036.617500", "144038.617500", "144040.617500", "144042.617500", "144044.617500", "144046.617500", "144048.617500", "144050.617500", "144052.617500", "144054.617500", "144056.617500", "144058.617500", "144100.617500", "144102.617500", "144104.617500", "144106.617500", "144108.617500", "144110.617500", "144112.617500", "144114.617500", "144116.617500", "144118.617500", "144120.617500", "144122.617500", "144124.617500", "144126.617500", "144128.617500", "144130.617500", "144132.617500", "144134.617500", "144136.617500", "144138.617500", "144140.617500", "144142.617500", "144144.617500", "144146.617500", "144148.617500", "144150.617500", "144152.617500", "144154.617500", "144156.617500", "144158.617500", "144200.617500", "144202.617500", "144204.617500", "144206.617500", "144208.617500", "144210.617500", "144212.617500", "144214.617500", "144216.617500", "144218.617500", "144220.617500", "144222.617500", "144224.617500", "144226.617500", "144228.617500", "144230.617500", "144232.617500", "144234.617500", "144236.617500", "144238.617500", "144240.617500", "144242.617500", "144244.617500", "144246.617500", "144248.617500", "144250.617500", "144252.617500", "144254.617500", "144256.617500", "144258.617500", "144300.617500", "144302.617500", "144304.617500", "144306.617500", "144308.617500", "144310.617500", "144312.617500", "144314.617500", "144316.617500", "144318.617500", "144320.617500", "144322.617500", "144324.617500", "144326.617500", "144328.617500", "144330.617500", "144332.617500", "144334.617500", "144336.617500", "144338.617500", "144340.617500", "144342.617500", "144344.617500", "144346.617500", "144348.617500", "144350.617500", "144352.617500", "144354.617500", "144356.617500", "144358.617500", "144400.617500", "144402.617500", "144404.617500", "144406.617500", "144408.617500", "144410.617500", "144412.617500", "144414.617500", "144416.617500", "144418.617500", "144420.617500", "144422.617500", "144424.617500", "144426.617500", "144428.617500", "144430.617500", "144432.617500", "144434.617500", "144436.617500", "144438.617500", "144440.617500", "144442.617500", "144444.617500", "144446.617500", "144448.617500", "144450.617500", "144452.617500", "144454.617500", "144456.617500", "144458.617500", "144500.617500", "144502.617500", "144504.617500", "144506.617500", "144508.617500", "144510.617500", "144512.617500", "144514.617500", "144516.617500"],
      "ContentTime": ["143649.316000", "143650.811000", "143652.812000", "143654.811000", "143656.811000", "143658.810000", "143700.810000", "143702.810000", "143704.811000", "143706.812000", "143708.812000", "143710.812000", "143712.811000", "143714.811000", "143716.810000", "143718.810000", "143720.811000", "143722.811000", "143724.811000", "143726.812000", "143728.811000", "143730.812000", "143732.811000", "143734.811000", "143736.810000", "143738.810000", "143740.812000", "143742.811000", "143744.811000", "143746.812000", "143748.811000", "143750.811000", "143752.811000", "143754.811000", "143756.811000", "143758.811000", "143800.812000", "143802.812000", "143804.811000", "143806.811000", "143808.811000", "143810.811000", "143812.810000", "143814.812000", "143816.811000", "143818.811000", "143820.811000", "143822.812000", "143824.811000", "143826.810000", "143828.811000", "143830.810000", "143832.812000", "143834.812000", "143836.811000", "143838.812000", "143840.811000", "143842.811000", "143844.810000", "143846.811000", "143848.812000", "143850.811000", "143852.811000", "143854.812000", "143856.811000", "143858.811000", "143900.811000", "143902.811000", "143904.810000", "143906.812000", "143908.812000", "143910.812000", "143912.811000", "143914.811000", "143916.810000", "143918.810000", "143920.810000", "143922.811000", "143924.811000", "143926.812000", "143928.811000", "143930.811000", "143932.811000", "143934.811000", "143936.811000", "143938.810000", "143940.811000", "143942.812000", "143944.812000", "143946.812000", "143948.811000", "143950.812000", "143952.810000", "143954.811000", "143956.810000", "143958.812000", "144000.812000", "144002.812000", "144004.811000", "144006.811000", "144008.811000", "144010.811000", "144012.810000", "144014.811000", "144016.812000", "144018.812000", "144020.812000", "144022.812000", "144024.812000", "144026.811000", "144028.810000", "144030.811000", "144032.811000", "144034.831000", "144036.812000", "144038.812000", "144040.811000", "144042.811000", "144044.811000", "144046.810000", "144048.811000", "144050.810000", "144052.812000", "144054.811000", "144056.812000", "144058.812000", "144100.812000", "144102.810000", "144104.811000", "144106.811000", "144108.811000", "144110.811000", "144112.812000", "144114.812000", "144116.812000", "144118.811000", "144120.811000", "144122.811000", "144124.811000", "144126.811000", "144128.812000", "144130.812000", "144132.812000", "144134.812000", "144136.810000", "144138.810000", "144140.811000", "144142.810000", "144144.812000", "144146.811000", "144148.812000", "144150.812000", "144152.812000", "144154.811000", "144156.810000", "144158.810000", "144200.810000", "144202.812000", "144204.811000", "144206.812000", "144208.812000", "144210.812000", "144212.810000", "144214.811000", "144216.810000", "144218.811000", "144220.811000", "144222.811000", "144224.811000", "144226.811000", "144228.811000", "144230.811000", "144232.811000", "144234.811000", "144236.812000", "144238.812000", "144240.812000", "144242.811000", "144244.812000", "144246.810000", "144248.810000", "144250.811000", "144252.811000", "144254.811000", "144256.812000", "144258.811000", "144300.811000", "144302.811000", "144304.811000", "144306.810000", "144308.810000", "144310.811000", "144312.812000", "144314.812000", "144316.812000", "144318.812000", "144320.812000", "144322.810000", "144324.811000", "144326.810000", "144328.812000", "144330.812000", "144332.812000", "144334.812000", "144336.812000", "144338.812000", "144340.810000", "144342.810000", "144344.810000", "144346.812000", "144348.811000", "144350.811000", "144352.811000", "144354.811000", "144356.810000", "144358.810000", "144400.810000", "144402.811000", "144404.812000", "144406.812000", "144408.812000", "144410.811000", "144412.812000", "144414.810000", "144416.811000", "144418.810000", "144420.810000", "144422.811000", "144424.811000", "144426.812000", "144428.811000", "144430.811000", "144432.811000", "144434.810000", "144436.810000", "144438.812000", "144440.812000", "144442.812000", "144444.811000", "144446.812000", "144448.810000", "144450.810000", "144452.810000", "144454.810000", "144456.811000", "144458.811000", "144500.811000", "144502.811000", "144504.811000", "144506.810000", "144508.811000", "144510.811000", "144512.811000", "144514.824000", "144516.812000", "144518.377000"],
      "InstanceCreationTime": ["143649.316000", "143650.811000", "143652.812000", "143654.811000", "143656.811000", "143658.810000", "143700.810000", "143702.810000", "143704.811000", "143706.812000", "143708.812000", "143710.812000", "143712.811000", "143714.811000", "143716.810000", "143718.810000", "143720.811000", "143722.811000", "143724.811000", "143726.812000", "143728.811000", "143730.812000", "143732.811000", "143734.811000", "143736.810000", "143738.810000", "143740.812000", "143742.811000", "143744.811000", "143746.812000", "143748.811000", "143750.811000", "143752.811000", "143754.811000", "143756.811000", "143758.811000", "143800.812000", "143802.812000", "143804.811000", "143806.811000", "143808.811000", "143810.811000", "143812.810000", "143814.812000", "143816.811000", "143818.811000", "143820.811000", "143822.812000", "143824.811000", "143826.810000", "143828.811000", "143830.810000", "143832.812000", "143834.812000", "143836.811000", "143838.812000", "143840.811000", "143842.811000", "143844.810000", "143846.811000", "143848.812000", "143850.811000", "143852.811000", "143854.812000", "143856.811000", "143858.811000", "143900.811000", "143902.811000", "143904.810000", "143906.812000", "143908.812000", "143910.812000", "143912.811000", "143914.811000", "143916.810000", "143918.810000", "143920.810000", "143922.811000", "143924.811000", "143926.812000", "143928.811000", "143930.811000", "143932.811000", "143934.811000", "143936.811000", "143938.810000", "143940.811000", "143942.812000", "143944.812000", "143946.812000", "143948.811000", "143950.812000", "143952.810000", "143954.811000", "143956.810000", "143958.812000", "144000.812000", "144002.812000", "144004.811000", "144006.811000", "144008.811000", "144010.811000", "144012.810000", "144014.811000", "144016.812000", "144018.812000", "144020.812000", "144022.812000", "144024.812000", "144026.811000", "144028.810000", "144030.811000", "144032.811000", "144034.831000", "144036.812000", "144038.812000", "144040.811000", "144042.811000", "144044.811000", "144046.810000", "144048.811000", "144050.810000", "144052.812000", "144054.811000", "144056.812000", "144058.812000", "144100.812000", "144102.810000", "144104.811000", "144106.811000", "144108.811000", "144110.811000", "144112.812000", "144114.812000", "144116.812000", "144118.811000", "144120.811000", "144122.811000", "144124.811000", "144126.811000", "144128.812000", "144130.812000", "144132.812000", "144134.812000", "144136.810000", "144138.810000", "144140.811000", "144142.810000", "144144.812000", "144146.811000", "144148.812000", "144150.812000", "144152.812000", "144154.811000", "144156.810000", "144158.810000", "144200.810000", "144202.812000", "144204.811000", "144206.812000", "144208.812000", "144210.812000", "144212.810000", "144214.811000", "144216.810000", "144218.811000", "144220.811000", "144222.811000", "144224.811000", "144226.811000", "144228.811000", "144230.811000", "144232.811000", "144234.811000", "144236.812000", "144238.812000", "144240.812000", "144242.811000", "144244.812000", "144246.810000", "144248.810000", "144250.811000", "144252.811000", "144254.811000", "144256.812000", "144258.811000", "144300.811000", "144302.811000", "144304.811000", "144306.810000", "144308.810000", "144310.811000", "144312.812000", "144314.812000", "144316.812000", "144318.812000", "144320.812000", "144322.810000", "144324.811000", "144326.810000", "144328.812000", "144330.812000", "144332.812000", "144334.812000", "144336.812000", "144338.812000", "144340.810000", "144342.810000", "144344.810000", "144346.812000", "144348.811000", "144350.811000", "144352.811000", "144354.811000", "144356.810000", "144358.810000", "144400.810000", "144402.811000", "144404.812000", "144406.812000", "144408.812000", "144410.811000", "144412.812000", "144414.810000", "144416.811000", "144418.810000", "144420.810000", "144422.811000", "144424.811000", "144426.812000", "144428.811000", "144430.811000", "144432.811000", "144434.810000", "144436.810000", "144438.812000", "144440.812000", "144442.812000", "144444.811000", "144446.812000", "144448.810000", "144450.810000", "144452.810000", "144454.810000", "144456.811000", "144458.811000", "144500.811000", "144502.811000", "144504.811000", "144506.810000", "144508.811000", "144510.811000", "144512.811000", "144514.824000", "144516.812000", "144518.377000"],
      "InstanceNumber": [1, 2, 3, 4, 5, 6, 7, 8, 9, 10, 11, 12, 13, 14, 15, 16, 17, 18, 19, 20, 21, 22, 23, 24, 25, 26, 27, 28, 29, 30, 31, 32, 33, 34, 35, 36, 37, 38, 39, 40, 41, 42, 43, 44, 45, 46, 47, 48, 49, 50, 51, 52, 53, 54, 55, 56, 57, 58, 59, 60, 61, 62, 63, 64, 65, 66, 67, 68, 69, 70, 71, 72, 73, 74, 75, 76, 77, 78, 79, 80, 81, 82, 83, 84, 85, 86, 87, 88, 89, 90, 91, 92, 93, 94, 95, 96, 97, 98, 99, 100, 101, 102, 103, 104, 105, 106, 107, 108, 109, 110, 111, 112, 113, 114, 115, 116, 117, 118, 119, 120, 121, 122, 123, 124, 125, 126, 127, 128, 129, 130, 131, 132, 133, 134, 135, 136, 137, 138, 139, 140, 141, 142, 143, 144, 145, 146, 147, 148, 149, 150, 151, 152, 153, 154, 155, 156, 157, 158, 159, 160, 161, 162, 163, 164, 165, 166, 167, 168, 169, 170, 171, 172, 173, 174, 175, 176, 177, 178, 179, 180, 181, 182, 183, 184, 185, 186, 187, 188, 189, 190, 191, 192, 193, 194, 195, 196, 197, 198, 199, 200, 201, 202, 203, 204, 205, 206, 207, 208, 209, 210, 211, 212, 213, 214, 215, 216, 217, 218, 219, 220, 221, 222, 223, 224, 225, 226, 227, 228, 229, 230, 231, 232, 233, 234, 235, 236, 237, 238, 239, 240, 241, 242, 243, 244, 245, 246, 247, 248, 249, 250, 251, 252, 253, 254, 255, 256],
      "LargestImagePixelValue": [2407, 2416, 2383, 2389, 2347, 2348, 2377, 2357, 2343, 2571, 2356, 2601, 2409, 2396, 2387, 2366, 2372, 2376, 2380, 2410, 2383, 2368, 2356, 2343, 2370, 2360, 2373, 2361, 2337, 2346, 2346, 2370, 2343, 2329, 2342, 2354, 2327, 2432, 2381, 2369, 2362, 2321, 2353, 2363, 2366, 2376, 2393, 2345, 2367, 2339, 2376, 2350, 2368, 2386, 2371, 2343, 2364, 2375, 2336, 2355, 2435, 2362, 2342, 2363, 2361, 2398, 2374, 2429, 2377, 2682, 2387, 2381, 2366, 2355, 2384, 2399, 2380, 2403, 2915, 2504, 2377, 2381, 2401, 2404, 2395, 2382, 2398, 2417, 2392, 2415, 2394, 2415, 2409, 2386, 2379, 2406, 2385, 2423, 2378, 2415, 2389, 2372, 2368, 2400, 2390, 2403, 2404, 2373, 2393, 2371, 2407, 2385, 2442, 2375, 2349, 2380, 2386, 2372, 2394, 2381, 2372, 2384, 2385, 2379, 2396, 2380, 2387, 2373, 2412, 2550, 2388, 2379, 2377, 2365, 2388, 2368, 2366, 2407, 2366, 2368, 2376, 2380, 2354, 2451, 2386, 2380, 2388, 2376, 2424, 2415, 2436, 2395, 2422, 2370, 2417, 2424, 2397, 2389, 2410, 2409, 2391, 2406, 2397, 2411, 2379, 2376, 2425, 2371, 2391, 2360, 2417, 2402, 2349, 2375, 2394, 2343, 2345, 2391, 2414, 2412, 2369, 2334, 2379, 2399, 2417, 2371, 2409, 2355, 2346, 2413, 2356, 2359, 2370, 2413, 2341, 2368, 2347, 2340, 2358, 2332, 2315, 2368, 2361, 2331, 2326, 2374, 2340, 2493, 2483, 2426, 2371, 2380, 2383, 2345, 2392, 2478, 2371, 2423, 2393, 2441, 2350, 2388, 2405, 2396, 2375, 2404, 2405, 2402, 2400, 2362, 2401, 2408, 2389, 2559, 2419, 2398, 2416, 2383, 2361, 2411, 2380, 2389, 2362, 2479, 2373, 2592, 2580, 2365, 2412, 2375, 2383, 2382, 2402, 2404, 2388, 2396],
      "WindowCenter": [721.0, 721.0, 719.0, 721.0, 721.0, 720.0, 720.0, 718.0, 716.0, 721.0, 719.0, 723.0, 721.0, 723.0, 723.0, 722.0, 721.0, 721.0, 722.0, 724.0, 723.0, 721.0, 721.0, 721.0, 722.0, 721.0, 721.0, 721.0, 719.0, 717.0, 717.0, 719.0, 718.0, 716.0, 715.0, 715.0, 715.0, 720.0, 721.0, 720.0, 718.0, 717.0, 718.0, 719.0, 718.0, 718.0, 720.0, 719.0, 721.0, 719.0, 719.0, 719.0, 720.0, 719.0, 720.0, 719.0, 720.0, 721.0, 721.0, 720.0, 721.0, 720.0, 719.0, 720.0, 719.0, 720.0, 721.0, 723.0, 721.0, 723.0, 720.0, 718.0, 717.0, 717.0, 717.0, 718.0, 718.0, 718.0, 725.0, 720.0, 717.0, 716.0, 720.0, 719.0, 719.0, 719.0, 720.0, 720.0, 721.0, 720.0, 721.0, 722.0, 721.0, 718.0, 717.0, 716.0, 716.0, 717.0, 718.0, 720.0, 718.0, 717.0, 717.0, 718.0, 718.0, 717.0, 717.0, 717.0, 718.0, 718.0, 719.0, 718.0, 722.0, 720.0, 718.0, 716.0, 717.0, 720.0, 721.0, 718.0, 716.0, 715.0, 715.0, 715.0, 717.0, 719.0, 718.0, 718.0, 717.0, 718.0, 716.0, 715.0, 716.0, 717.0, 718.0, 716.0, 717.0, 718.0, 716.0, 715.0, 715.0, 715.0, 716.0, 719.0, 717.0, 716.0, 718.0, 718.0, 718.0, 717.0, 717.0, 715.0, 715.0, 717.0, 717.0, 717.0, 716.0, 714.0, 715.0, 716.0, 717.0, 716.0, 716.0, 715.0, 716.0, 715.0, 718.0, 716.0, 715.0, 714.0, 716.0, 718.0, 717.0, 717.0, 715.0, 713.0, 711.0, 711.0, 712.0, 715.0, 714.0, 712.0, 715.0, 714.0, 714.0, 715.0, 718.0, 718.0, 716.0, 717.0, 717.0, 715.0, 715.0, 716.0, 716.0, 716.0, 714.0, 713.0, 715.0, 713.0, 713.0, 715.0, 716.0, 717.0, 716.0, 716.0, 715.0, 720.0, 719.0, 716.0, 715.0, 714.0, 713.0, 714.0, 716.0, 717.0, 715.0, 716.0, 716.0, 717.0, 717.0, 717.0, 716.0, 715.0, 715.0, 716.0, 717.0, 717.0, 716.0, 715.0, 716.0, 714.0, 712.0, 715.0, 713.0, 712.0, 713.0, 713.0, 712.0, 714.0, 713.0, 714.0, 714.0, 717.0, 714.0, 717.0, 717.0, 715.0, 717.0, 717.0, 715.0, 714.0, 713.0, 713.0, 713.0, 713.0],
      "WindowWidth": [1536.0, 1534.0, 1531.0, 1535.0, 1535.0, 1534.0, 1534.0, 1528.0, 1524.0, 1535.0, 1531.0, 1539.0, 1537.0, 1542.0, 1542.0, 1538.0, 1536.0, 1536.0, 1538.0, 1542.0, 1541.0, 1537.0, 1536.0, 1537.0, 1538.0, 1537.0, 1535.0, 1535.0, 1532.0, 1526.0, 1527.0, 1531.0, 1527.0, 1523.0, 1522.0, 1522.0, 1522.0, 1533.0, 1536.0, 1533.0, 1529.0, 1525.0, 1528.0, 1530.0, 1529.0, 1528.0, 1534.0, 1533.0, 1536.0, 1531.0, 1532.0, 1532.0, 1534.0, 1532.0, 1533.0, 1531.0, 1534.0, 1536.0, 1536.0, 1534.0, 1537.0, 1534.0, 1532.0, 1533.0, 1530.0, 1533.0, 1537.0, 1541.0, 1535.0, 1540.0, 1533.0, 1527.0, 1525.0, 1524.0, 1526.0, 1528.0, 1528.0, 1527.0, 1543.0, 1532.0, 1526.0, 1524.0, 1534.0, 1530.0, 1530.0, 1530.0, 1533.0, 1534.0, 1535.0, 1532.0, 1535.0, 1539.0, 1535.0, 1528.0, 1525.0, 1524.0, 1524.0, 1526.0, 1529.0, 1532.0, 1527.0, 1525.0, 1525.0, 1528.0, 1528.0, 1524.0, 1526.0, 1526.0, 1528.0, 1529.0, 1529.0, 1528.0, 1536.0, 1533.0, 1527.0, 1523.0, 1525.0, 1532.0, 1537.0, 1528.0, 1521.0, 1519.0, 1520.0, 1519.0, 1524.0, 1530.0, 1529.0, 1527.0, 1524.0, 1528.0, 1522.0, 1521.0, 1522.0, 1526.0, 1527.0, 1524.0, 1525.0, 1527.0, 1523.0, 1521.0, 1520.0, 1520.0, 1523.0, 1530.0, 1526.0, 1523.0, 1527.0, 1529.0, 1529.0, 1525.0, 1525.0, 1521.0, 1521.0, 1525.0, 1526.0, 1525.0, 1522.0, 1519.0, 1521.0, 1522.0, 1524.0, 1523.0, 1522.0, 1521.0, 1522.0, 1520.0, 1527.0, 1522.0, 1520.0, 1518.0, 1523.0, 1527.0, 1526.0, 1525.0, 1520.0, 1515.0, 1509.0, 1510.0, 1514.0, 1520.0, 1517.0, 1512.0, 1520.0, 1517.0, 1518.0, 1521.0, 1529.0, 1528.0, 1522.0, 1526.0, 1524.0, 1521.0, 1521.0, 1522.0, 1522.0, 1521.0, 1518.0, 1516.0, 1519.0, 1516.0, 1515.0, 1520.0, 1524.0, 1527.0, 1524.0, 1523.0, 1520.0, 1532.0, 1530.0, 1522.0, 1521.0, 1517.0, 1516.0, 1517.0, 1522.0, 1525.0, 1521.0, 1522.0, 1521.0, 1526.0, 1525.0, 1524.0, 1522.0, 1519.0, 1520.0, 1523.0, 1525.0, 1524.0, 1523.0, 1521.0, 1522.0, 1516.0, 1512.0, 1518.0, 1514.0, 1512.0, 1515.0, 1514.0, 1513.0, 1516.0, 1515.0, 1517.0, 1517.0, 1525.0, 1518.0, 1522.0, 1524.0, 1520.0, 1523.0, 1524.0, 1519.0, 1518.0, 1515.0, 1514.0, 1514.0, 1514.0]
    },
    "slices": {}
  }
}