{
 "AcquisitionMatrixPE": 100,
 "AcquisitionNumber": 1,
 "AcquisitionTime": "14:08:51.295000",
 "BandwidthPerPixelPhaseEncode": 18.519,
 "BaseResolution": 100,
 "BodyPartExamined": "BRAIN",
 "ConsistencyInfo": "N4_VE11C_LATEST_20160120",
 "ConversionSoftware": "dcm2niix",
 "ConversionSoftwareVersion": "v1.0.20180622 GCC4.9.2",
 "DerivedVendorReportedEchoSpacing": 0.000539986,
 "DeviceSerialNumber": "166078",
 "DwellTime": 2.1e-06,
 "EchoTime": 0.034,
 "EchoTrainLength": 100,
 "EffectiveEchoSpacing": 0.000539986,
 "FlipAngle": 90,
 "ImageOrientationPatientDICOM": [
  0.999152,
  0.00136559,
  0.0411479,
  4.816e-12,
  0.99945,
  -0.033169
 ],
 "ImageType": [
  "ORIGINAL",
  "PRIMARY",
  "M",
  "ND",
  "MOSAIC"
 ],
 "InPlanePhaseEncodingDirectionDICOM": "COL",
 "InstitutionAddress": "Street_StreetNo_Bei_Jing_District_CN_ZIP",
 "InstitutionName": "BeiJing_Normal_University",
 "InstitutionalDepartmentName": "Department",
 "MRAcquisitionType": "2D",
 "MagneticFieldStrength": 3,
 "Manufacturer": "Siemens",
 "ManufacturersModelName": "Prisma",
 "Modality": "MR",
 "MultibandAccelerationFactor": 3,
 "PartialFourier": 1,
 "PatientPosition": "HFS",
 "PercentPhaseFOV": 100,
 "PhaseEncodingDirection": "j-",
 "PhaseEncodingSteps": 100,
 "PhaseResolution": 1,
 "PixelBandwidth": 2380,
 "ProcedureStepDescription": "BNU_P2018_64CH_Zhen.ZongLei",
 "ProtocolName": "bold_100x100_s3_2x2x2_static_256",
 "PulseSequenceDetails": "%SiemensSeq%_ep2d_bold",
 "ReceiveCoilActiveElements": "HC1-7;NC1",
 "ReceiveCoilName": "HeadNeck_64",
 "ReconMatrixPE": 100,
 "RepetitionTime": 2,
 "SAR": 0.0629992,
 "ScanOptions": "FS",
 "ScanningSequence": "EP",
 "SequenceName": "_epfid2d1_100",
 "SequenceVariant": "SK",
 "SeriesDescription": "bold_100x100_s3_2x2x2_static_256",
 "SeriesNumber": 7,
 "ShimSetting": [
  -5445,
  -11520,
  -1270,
  378,
  4,
  -262,
  -144,
  -18
 ],
 "SliceThickness": 2,
 "SliceTiming": [
  1.485,
  0,
  0.99,
  0.0825,
  1.0725,
  0.165,
  1.155,
  0.2475,
  1.2375,
  0.33,
  1.32,
  0.4125,
  1.4025,
  0.5775,
  1.5675,
  0.66,
  1.65,
  0.7425,
  1.7325,
  0.825,
  1.815,
  0.9075,
  1.8975,
  0.495,
  1.485,
  0,
  0.99,
  0.0825,
  1.0725,
  0.165,
  1.155,
  0.2475,
  1.2375,
  0.33,
  1.32,
  0.4125,
  1.4025,
  0.5775,
  1.5675,
  0.66,
  1.65,
  0.7425,
  1.7325,
  0.825,
  1.815,
  0.9075,
  1.8975,
  0.495,
  1.485,
  0,
  0.99,
  0.0825,
  1.0725,
  0.165,
  1.155,
  0.2475,
  1.2375,
  0.33,
  1.32,
  0.4125,
  1.4025,
  0.5775,
  1.5675,
  0.66,
  1.65,
  0.7425,
  1.7325,
  0.825,
  1.815,
  0.9075,
  1.8975,
  0.495
 ],
 "SoftwareVersions": "syngo_MR_E11",
 "SpacingBetweenSlices": 2,
 "StationName": "AWP166078",
 "TaskName": "imagenet",
 "TotalReadoutTime": 0.0534586,
 "TxRefAmp": 212.008,
 "dcmmeta_affine": [
  [
   -1.9983042478561401,
   9.632000058656942e-12,
   0.08234109729528427,
   97.17378234863281
  ],
  [
   -0.0027311723679304123,
   1.9988994598388672,
   -0.0662817731499672,
   -80.50149536132812
  ],
  [
   0.08229578286409378,
   0.06633801758289337,
   1.9972047805786133,
   -74.54894256591797
  ],
  [
   0.0,
   0.0,
   0.0,
   1.0
  ]
 ],
 "dcmmeta_reorient_transform": [
  [
   0.0,
   -1.0,
   0.0,
   99.0
  ],
  [
   1.0,
   0.0,
   0.0,
   0.0
  ],
  [
   0.0,
   0.0,
   1.0,
   0.0
  ],
  [
   0.0,
   0.0,
   0.0,
   1.0
  ]
 ],
 "dcmmeta_shape": [
  100,
  100,
  72,
  256
 ],
 "dcmmeta_slice_dim": 2,
 "dcmmeta_version": 0.6,
 "global": {
  "const": {
   "AcquisitionMatrix": [
    100,
    0,
    0,
    100
   ],
   "AngioFlag": "N",
   "BitsAllocated": 16,
   "BitsStored": 12,
   "BodyPartExamined": "BRAIN",
   "Columns": 900,
   "EchoNumbers": 1,
   "EchoTime": 34.0,
   "EchoTrainLength": 100,
   "FlipAngle": 90.0,
   "HighBit": 11,
   "ImageOrientationPatient": [
    0.99915213361018,
    0.00136558619318,
    0.04114789273563,
    4.816e-12,
    0.99944975706204,
    -0.0331690082551
   ],
   "ImagePositionPatient": [
    -896.49548544095,
    -918.0418304751,
    -74.364589782442
   ],
   "ImageType": [
    "ORIGINAL",
    "PRIMARY",
    "M",
    "ND",
    "MOSAIC"
   ],
   "ImagedNucleus": "1H",
   "ImagingFrequency": 123.257713,
   "InPlanePhaseEncodingDirection": "COL",
   "MRAcquisitionType": "2D",
   "MagneticFieldStrength": 3.0,
   "Manufacturer": "SIEMENS",
   "ManufacturerModelName": "Prisma",
   "Modality": "MR",
   "NumberOfAverages": 1.0,
   "NumberOfPhaseEncodingSteps": 100,
   "PercentPhaseFieldOfView": 100.0,
   "PercentSampling": 100.0,
   "PerformedProcedureStepStartTime": "132411.673000",
   "PhotometricInterpretation": "MONOCHROME2",
   "PixelBandwidth": 2380.0,
   "PixelRepresentation": 0,
   "PixelSpacing": [
    2.0,
    2.0
   ],
   "ProtocolName": "bold_100x100_s3_2x2x2_static_256",
   "RepetitionTime": 2000.0,
   "Rows": 900,
   "SAR": 0.06299918427388,
   "SamplesPerPixel": 1,
   "ScanOptions": "FS",
   "ScanningSequence": "EP",
   "SequenceName": "*epfid2d1_100",
   "SequenceVariant": "SK",
   "SeriesDescription": "bold_100x100_s3_2x2x2_static_256",
   "SeriesNumber": 7,
   "SeriesTime": "140853.425000",
   "SliceLocation": -67.776164611748,
   "SliceThickness": 2.0,
   "SmallestImagePixelValue": 0,
   "SoftwareVersions": "syngo MR E11",
   "SpacingBetweenSlices": 2.0000000254204,
   "SpecificCharacterSet": "ISO_IR 100",
   "StudyID": "1",
   "StudyTime": "132411.552000",
   "TransmitCoilName": "Body",
   "VariableFlipAngleFlag": "N",
   "WindowCenterWidthExplanation": "Algo1",
   "dBdt": 0.0
  },
  "slices": {}
 },
 "time": {
  "samples": {
   "AcquisitionNumber": [
    1,
    2,
    3,
    4,
    5,
    6,
    7,
    8,
    9,
    10,
    11,
    12,
    13,
    14,
    15,
    16,
    17,
    18,
    19,
    20,
    21,
    22,
    23,
    24,
    25,
    26,
    27,
    28,
    29,
    30,
    31,
    32,
    33,
    34,
    35,
    36,
    37,
    38,
    39,
    40,
    41,
    42,
    43,
    44,
    45,
    46,
    47,
    48,
    49,
    50,
    51,
    52,
    53,
    54,
    55,
    56,
    57,
    58,
    59,
    60,
    61,
    62,
    63,
    64,
    65,
    66,
    67,
    68,
    69,
    70,
    71,
    72,
    73,
    74,
    75,
    76,
    77,
    78,
    79,
    80,
    81,
    82,
    83,
    84,
    85,
    86,
    87,
    88,
    89,
    90,
    91,
    92,
    93,
    94,
    95,
    96,
    97,
    98,
    99,
    100,
    101,
    102,
    103,
    104,
    105,
    106,
    107,
    108,
    109,
    110,
    111,
    112,
    113,
    114,
    115,
    116,
    117,
    118,
    119,
    120,
    121,
    122,
    123,
    124,
    125,
    126,
    127,
    128,
    129,
    130,
    131,
    132,
    133,
    134,
    135,
    136,
    137,
    138,
    139,
    140,
    141,
    142,
    143,
    144,
    145,
    146,
    147,
    148,
    149,
    150,
    151,
    152,
    153,
    154,
    155,
    156,
    157,
    158,
    159,
    160,
    161,
    162,
    163,
    164,
    165,
    166,
    167,
    168,
    169,
    170,
    171,
    172,
    173,
    174,
    175,
    176,
    177,
    178,
    179,
    180,
    181,
    182,
    183,
    184,
    185,
    186,
    187,
    188,
    189,
    190,
    191,
    192,
    193,
    194,
    195,
    196,
    197,
    198,
    199,
    200,
    201,
    202,
    203,
    204,
    205,
    206,
    207,
    208,
    209,
    210,
    211,
    212,
    213,
    214,
    215,
    216,
    217,
    218,
    219,
    220,
    221,
    222,
    223,
    224,
    225,
    226,
    227,
    228,
    229,
    230,
    231,
    232,
    233,
    234,
    235,
    236,
    237,
    238,
    239,
    240,
    241,
    242,
    243,
    244,
    245,
    246,
    247,
    248,
    249,
    250,
    251,
    252,
    253,
    254,
    255,
    256
   ],
   "AcquisitionTime": [
    "140851.295000",
    "140853.295000",
    "140855.295000",
    "140857.295000",
    "140859.295000",
    "140901.295000",
    "140903.295000",
    "140905.295000",
    "140907.295000",
    "140909.295000",
    "140911.295000",
    "140913.295000",
    "140915.295000",
    "140917.295000",
    "140919.295000",
    "140921.295000",
    "140923.295000",
    "140925.295000",
    "140927.295000",
    "140929.295000",
    "140931.295000",
    "140933.295000",
    "140935.295000",
    "140937.295000",
    "140939.295000",
    "140941.295000",
    "140943.295000",
    "140945.295000",
    "140947.295000",
    "140949.295000",
    "140951.295000",
    "140953.295000",
    "140955.295000",
    "140957.295000",
    "140959.295000",
    "141001.295000",
    "141003.295000",
    "141005.295000",
    "141007.295000",
    "141009.295000",
    "141011.295000",
    "141013.295000",
    "141015.295000",
    "141017.295000",
    "141019.295000",
    "141021.295000",
    "141023.295000",
    "141025.295000",
    "141027.295000",
    "141029.295000",
    "141031.295000",
    "141033.295000",
    "141035.295000",
    "141037.295000",
    "141039.295000",
    "141041.295000",
    "141043.295000",
    "141045.295000",
    "141047.295000",
    "141049.295000",
    "141051.295000",
    "141053.295000",
    "141055.295000",
    "141057.295000",
    "141059.295000",
    "141101.295000",
    "141103.295000",
    "141105.295000",
    "141107.295000",
    "141109.295000",
    "141111.295000",
    "141113.295000",
    "141115.295000",
    "141117.295000",
    "141119.295000",
    "141121.295000",
    "141123.295000",
    "141125.295000",
    "141127.295000",
    "141129.295000",
    "141131.295000",
    "141133.295000",
    "141135.295000",
    "141137.295000",
    "141139.295000",
    "141141.295000",
    "141143.295000",
    "141145.295000",
    "141147.295000",
    "141149.295000",
    "141151.295000",
    "141153.295000",
    "141155.295000",
    "141157.295000",
    "141159.295000",
    "141201.295000",
    "141203.295000",
    "141205.295000",
    "141207.295000",
    "141209.295000",
    "141211.295000",
    "141213.295000",
    "141215.295000",
    "141217.295000",
    "141219.295000",
    "141221.295000",
    "141223.295000",
    "141225.295000",
    "141227.295000",
    "141229.295000",
    "141231.295000",
    "141233.295000",
    "141235.295000",
    "141237.295000",
    "141239.295000",
    "141241.295000",
    "141243.295000",
    "141245.295000",
    "141247.295000",
    "141249.295000",
    "141251.295000",
    "141253.295000",
    "141255.295000",
    "141257.295000",
    "141259.295000",
    "141301.295000",
    "141303.295000",
    "141305.295000",
    "141307.295000",
    "141309.295000",
    "141311.295000",
    "141313.295000",
    "141315.295000",
    "141317.295000",
    "141319.295000",
    "141321.295000",
    "141323.295000",
    "141325.295000",
    "141327.295000",
    "141329.295000",
    "141331.295000",
    "141333.295000",
    "141335.295000",
    "141337.295000",
    "141339.295000",
    "141341.295000",
    "141343.295000",
    "141345.295000",
    "141347.295000",
    "141349.295000",
    "141351.295000",
    "141353.295000",
    "141355.295000",
    "141357.295000",
    "141359.295000",
    "141401.295000",
    "141403.295000",
    "141405.295000",
    "141407.295000",
    "141409.295000",
    "141411.295000",
    "141413.295000",
    "141415.295000",
    "141417.295000",
    "141419.295000",
    "141421.295000",
    "141423.295000",
    "141425.295000",
    "141427.295000",
    "141429.295000",
    "141431.295000",
    "141433.295000",
    "141435.295000",
    "141437.295000",
    "141439.295000",
    "141441.295000",
    "141443.295000",
    "141445.295000",
    "141447.295000",
    "141449.295000",
    "141451.295000",
    "141453.295000",
    "141455.295000",
    "141457.295000",
    "141459.295000",
    "141501.295000",
    "141503.295000",
    "141505.295000",
    "141507.295000",
    "141509.295000",
    "141511.295000",
    "141513.295000",
    "141515.295000",
    "141517.295000",
    "141519.295000",
    "141521.295000",
    "141523.295000",
    "141525.295000",
    "141527.295000",
    "141529.295000",
    "141531.295000",
    "141533.295000",
    "141535.295000",
    "141537.295000",
    "141539.295000",
    "141541.295000",
    "141543.295000",
    "141545.295000",
    "141547.295000",
    "141549.295000",
    "141551.295000",
    "141553.295000",
    "141555.295000",
    "141557.295000",
    "141559.295000",
    "141601.295000",
    "141603.295000",
    "141605.295000",
    "141607.295000",
    "141609.295000",
    "141611.295000",
    "141613.295000",
    "141615.295000",
    "141617.295000",
    "141619.295000",
    "141621.295000",
    "141623.295000",
    "141625.295000",
    "141627.295000",
    "141629.295000",
    "141631.295000",
    "141633.295000",
    "141635.295000",
    "141637.295000",
    "141639.295000",
    "141641.295000",
    "141643.295000",
    "141645.295000",
    "141647.295000",
    "141649.295000",
    "141651.295000",
    "141653.295000",
    "141655.295000",
    "141657.295000",
    "141659.295000",
    "141701.295000",
    "141703.295000",
    "141705.295000",
    "141707.295000",
    "141709.295000",
    "141711.295000",
    "141713.295000",
    "141715.295000",
    "141717.295000",
    "141719.295000",
    "141721.295000"
   ],
   "ContentTime": [
    "140853.429000",
    "140854.923000",
    "140856.924000",
    "140858.924000",
    "140900.923000",
    "140902.923000",
    "140904.923000",
    "140906.924000",
    "140908.924000",
    "140910.924000",
    "140912.924000",
    "140914.923000",
    "140916.923000",
    "140918.924000",
    "140920.924000",
    "140922.925000",
    "140924.924000",
    "140926.924000",
    "140928.924000",
    "140930.924000",
    "140932.924000",
    "140934.924000",
    "140936.924000",
    "140938.924000",
    "140940.925000",
    "140942.925000",
    "140944.924000",
    "140946.925000",
    "140948.923000",
    "140950.924000",
    "140952.924000",
    "140954.923000",
    "140956.924000",
    "140958.925000",
    "141000.924000",
    "141002.924000",
    "141004.923000",
    "141006.923000",
    "141008.924000",
    "141010.923000",
    "141012.924000",
    "141014.924000",
    "141016.924000",
    "141018.924000",
    "141020.925000",
    "141022.924000",
    "141024.924000",
    "141026.924000",
    "141028.924000",
    "141030.923000",
    "141032.925000",
    "141034.925000",
    "141036.925000",
    "141038.924000",
    "141040.924000",
    "141042.923000",
    "141044.924000",
    "141046.923000",
    "141048.923000",
    "141050.924000",
    "141052.925000",
    "141054.925000",
    "141056.924000",
    "141058.923000",
    "141100.924000",
    "141102.923000",
    "141104.924000",
    "141106.923000",
    "141108.925000",
    "141110.925000",
    "141112.924000",
    "141114.924000",
    "141116.924000",
    "141118.924000",
    "141120.924000",
    "141122.923000",
    "141124.924000",
    "141126.925000",
    "141128.924000",
    "141130.924000",
    "141132.924000",
    "141134.924000",
    "141136.924000",
    "141138.924000",
    "141140.923000",
    "141142.925000",
    "141144.925000",
    "141146.924000",
    "141148.925000",
    "141150.924000",
    "141152.923000",
    "141154.923000",
    "141156.923000",
    "141158.923000",
    "141200.924000",
    "141202.924000",
    "141204.925000",
    "141206.924000",
    "141208.924000",
    "141210.924000",
    "141212.924000",
    "141214.923000",
    "141216.923000",
    "141218.924000",
    "141220.925000",
    "141222.924000",
    "141224.923000",
    "141226.924000",
    "141228.924000",
    "141230.923000",
    "141232.923000",
    "141234.924000",
    "141236.924000",
    "141238.925000",
    "141240.924000",
    "141242.923000",
    "141244.924000",
    "141246.924000",
    "141248.924000",
    "141250.924000",
    "141252.925000",
    "141254.925000",
    "141256.924000",
    "141258.924000",
    "141300.923000",
    "141302.923000",
    "141304.923000",
    "141306.923000",
    "141308.923000",
    "141310.925000",
    "141312.925000",
    "141314.924000",
    "141316.925000",
    "141318.924000",
    "141320.924000",
    "141322.924000",
    "141324.923000",
    "141326.924000",
    "141328.925000",
    "141330.924000",
    "141332.924000",
    "141334.924000",
    "141336.924000",
    "141338.924000",
    "141340.924000",
    "141342.924000",
    "141344.924000",
    "141346.924000",
    "141348.924000",
    "141350.925000",
    "141352.924000",
    "141354.923000",
    "141356.923000",
    "141358.923000",
    "141400.924000",
    "141402.924000",
    "141404.924000",
    "141406.924000",
    "141408.925000",
    "141410.924000",
    "141412.924000",
    "141414.923000",
    "141416.924000",
    "141418.923000",
    "141420.925000",
    "141422.934000",
    "141424.924000",
    "141426.924000",
    "141428.923000",
    "141430.924000",
    "141432.924000",
    "141434.924000",
    "141436.924000",
    "141438.925000",
    "141440.925000",
    "141442.925000",
    "141444.924000",
    "141446.924000",
    "141448.924000",
    "141450.924000",
    "141452.923000",
    "141454.923000",
    "141456.925000",
    "141458.925000",
    "141500.924000",
    "141502.924000",
    "141504.923000",
    "141506.924000",
    "141508.924000",
    "141510.924000",
    "141512.925000",
    "141514.925000",
    "141516.925000",
    "141518.925000",
    "141520.924000",
    "141522.923000",
    "141524.924000",
    "141526.924000",
    "141528.923000",
    "141530.925000",
    "141532.925000",
    "141534.925000",
    "141536.925000",
    "141538.923000",
    "141540.924000",
    "141542.923000",
    "141544.924000",
    "141546.924000",
    "141548.924000",
    "141550.925000",
    "141552.924000",
    "141554.924000",
    "141556.924000",
    "141558.924000",
    "141600.924000",
    "141602.924000",
    "141604.923000",
    "141606.925000",
    "141608.925000",
    "141610.924000",
    "141612.924000",
    "141614.924000",
    "141616.924000",
    "141618.924000",
    "141620.924000",
    "141622.925000",
    "141624.924000",
    "141626.925000",
    "141628.925000",
    "141630.923000",
    "141632.924000",
    "141634.924000",
    "141636.924000",
    "141638.924000",
    "141640.925000",
    "141642.924000",
    "141644.925000",
    "141646.924000",
    "141648.923000",
    "141650.924000",
    "141652.923000",
    "141654.924000",
    "141656.924000",
    "141658.925000",
    "141700.925000",
    "141702.925000",
    "141704.923000",
    "141706.924000",
    "141708.923000",
    "141710.923000",
    "141712.923000",
    "141714.923000",
    "141716.924000",
    "141718.924000",
    "141720.925000",
    "141722.671000"
   ],
   "InstanceCreationTime": [
    "140853.429000",
    "140854.923000",
    "140856.924000",
    "140858.924000",
    "140900.923000",
    "140902.923000",
    "140904.923000",
    "140906.924000",
    "140908.924000",
    "140910.924000",
    "140912.924000",
    "140914.923000",
    "140916.923000",
    "140918.924000",
    "140920.924000",
    "140922.925000",
    "140924.924000",
    "140926.924000",
    "140928.924000",
    "140930.924000",
    "140932.924000",
    "140934.924000",
    "140936.924000",
    "140938.924000",
    "140940.925000",
    "140942.925000",
    "140944.924000",
    "140946.925000",
    "140948.923000",
    "140950.924000",
    "140952.924000",
    "140954.923000",
    "140956.924000",
    "140958.925000",
    "141000.924000",
    "141002.924000",
    "141004.923000",
    "141006.923000",
    "141008.924000",
    "141010.923000",
    "141012.924000",
    "141014.924000",
    "141016.924000",
    "141018.924000",
    "141020.925000",
    "141022.924000",
    "141024.924000",
    "141026.924000",
    "141028.924000",
    "141030.923000",
    "141032.925000",
    "141034.925000",
    "141036.925000",
    "141038.924000",
    "141040.924000",
    "141042.923000",
    "141044.924000",
    "141046.923000",
    "141048.923000",
    "141050.924000",
    "141052.925000",
    "141054.925000",
    "141056.924000",
    "141058.923000",
    "141100.924000",
    "141102.923000",
    "141104.924000",
    "141106.923000",
    "141108.925000",
    "141110.925000",
    "141112.924000",
    "141114.924000",
    "141116.924000",
    "141118.924000",
    "141120.924000",
    "141122.923000",
    "141124.924000",
    "141126.925000",
    "141128.924000",
    "141130.924000",
    "141132.924000",
    "141134.924000",
    "141136.924000",
    "141138.924000",
    "141140.923000",
    "141142.925000",
    "141144.925000",
    "141146.924000",
    "141148.925000",
    "141150.924000",
    "141152.923000",
    "141154.923000",
    "141156.923000",
    "141158.923000",
    "141200.924000",
    "141202.924000",
    "141204.925000",
    "141206.924000",
    "141208.924000",
    "141210.924000",
    "141212.924000",
    "141214.923000",
    "141216.923000",
    "141218.924000",
    "141220.925000",
    "141222.924000",
    "141224.923000",
    "141226.924000",
    "141228.924000",
    "141230.923000",
    "141232.923000",
    "141234.924000",
    "141236.924000",
    "141238.925000",
    "141240.924000",
    "141242.923000",
    "141244.924000",
    "141246.924000",
    "141248.924000",
    "141250.924000",
    "141252.925000",
    "141254.925000",
    "141256.924000",
    "141258.924000",
    "141300.923000",
    "141302.923000",
    "141304.923000",
    "141306.923000",
    "141308.923000",
    "141310.925000",
    "141312.925000",
    "141314.924000",
    "141316.925000",
    "141318.924000",
    "141320.924000",
    "141322.924000",
    "141324.923000",
    "141326.924000",
    "141328.925000",
    "141330.924000",
    "141332.924000",
    "141334.924000",
    "141336.924000",
    "141338.924000",
    "141340.924000",
    "141342.924000",
    "141344.924000",
    "141346.924000",
    "141348.924000",
    "141350.925000",
    "141352.924000",
    "141354.923000",
    "141356.923000",
    "141358.923000",
    "141400.924000",
    "141402.924000",
    "141404.924000",
    "141406.924000",
    "141408.925000",
    "141410.924000",
    "141412.924000",
    "141414.923000",
    "141416.924000",
    "141418.923000",
    "141420.925000",
    "141422.934000",
    "141424.924000",
    "141426.924000",
    "141428.923000",
    "141430.924000",
    "141432.924000",
    "141434.924000",
    "141436.924000",
    "141438.925000",
    "141440.925000",
    "141442.925000",
    "141444.924000",
    "141446.924000",
    "141448.924000",
    "141450.924000",
    "141452.923000",
    "141454.923000",
    "141456.925000",
    "141458.925000",
    "141500.924000",
    "141502.924000",
    "141504.923000",
    "141506.924000",
    "141508.924000",
    "141510.924000",
    "141512.925000",
    "141514.925000",
    "141516.925000",
    "141518.925000",
    "141520.924000",
    "141522.923000",
    "141524.924000",
    "141526.924000",
    "141528.923000",
    "141530.925000",
    "141532.925000",
    "141534.925000",
    "141536.925000",
    "141538.923000",
    "141540.924000",
    "141542.923000",
    "141544.924000",
    "141546.924000",
    "141548.924000",
    "141550.925000",
    "141552.924000",
    "141554.924000",
    "141556.924000",
    "141558.924000",
    "141600.924000",
    "141602.924000",
    "141604.923000",
    "141606.925000",
    "141608.925000",
    "141610.924000",
    "141612.924000",
    "141614.924000",
    "141616.924000",
    "141618.924000",
    "141620.924000",
    "141622.925000",
    "141624.924000",
    "141626.925000",
    "141628.925000",
    "141630.923000",
    "141632.924000",
    "141634.924000",
    "141636.924000",
    "141638.924000",
    "141640.925000",
    "141642.924000",
    "141644.925000",
    "141646.924000",
    "141648.923000",
    "141650.924000",
    "141652.923000",
    "141654.924000",
    "141656.924000",
    "141658.925000",
    "141700.925000",
    "141702.925000",
    "141704.923000",
    "141706.924000",
    "141708.923000",
    "141710.923000",
    "141712.923000",
    "141714.923000",
    "141716.924000",
    "141718.924000",
    "141720.925000",
    "141722.671000"
   ],
   "InstanceNumber": [
    1,
    2,
    3,
    4,
    5,
    6,
    7,
    8,
    9,
    10,
    11,
    12,
    13,
    14,
    15,
    16,
    17,
    18,
    19,
    20,
    21,
    22,
    23,
    24,
    25,
    26,
    27,
    28,
    29,
    30,
    31,
    32,
    33,
    34,
    35,
    36,
    37,
    38,
    39,
    40,
    41,
    42,
    43,
    44,
    45,
    46,
    47,
    48,
    49,
    50,
    51,
    52,
    53,
    54,
    55,
    56,
    57,
    58,
    59,
    60,
    61,
    62,
    63,
    64,
    65,
    66,
    67,
    68,
    69,
    70,
    71,
    72,
    73,
    74,
    75,
    76,
    77,
    78,
    79,
    80,
    81,
    82,
    83,
    84,
    85,
    86,
    87,
    88,
    89,
    90,
    91,
    92,
    93,
    94,
    95,
    96,
    97,
    98,
    99,
    100,
    101,
    102,
    103,
    104,
    105,
    106,
    107,
    108,
    109,
    110,
    111,
    112,
    113,
    114,
    115,
    116,
    117,
    118,
    119,
    120,
    121,
    122,
    123,
    124,
    125,
    126,
    127,
    128,
    129,
    130,
    131,
    132,
    133,
    134,
    135,
    136,
    137,
    138,
    139,
    140,
    141,
    142,
    143,
    144,
    145,
    146,
    147,
    148,
    149,
    150,
    151,
    152,
    153,
    154,
    155,
    156,
    157,
    158,
    159,
    160,
    161,
    162,
    163,
    164,
    165,
    166,
    167,
    168,
    169,
    170,
    171,
    172,
    173,
    174,
    175,
    176,
    177,
    178,
    179,
    180,
    181,
    182,
    183,
    184,
    185,
    186,
    187,
    188,
    189,
    190,
    191,
    192,
    193,
    194,
    195,
    196,
    197,
    198,
    199,
    200,
    201,
    202,
    203,
    204,
    205,
    206,
    207,
    208,
    209,
    210,
    211,
    212,
    213,
    214,
    215,
    216,
    217,
    218,
    219,
    220,
    221,
    222,
    223,
    224,
    225,
    226,
    227,
    228,
    229,
    230,
    231,
    232,
    233,
    234,
    235,
    236,
    237,
    238,
    239,
    240,
    241,
    242,
    243,
    244,
    245,
    246,
    247,
    248,
    249,
    250,
    251,
    252,
    253,
    254,
    255,
    256
   ],
   "LargestImagePixelValue": [
    2442,
    2407,
    2380,
    2353,
    2372,
    2389,
    2421,
    2427,
    2414,
    2415,
    2435,
    2433,
    2427,
    2403,
    2453,
    2410,
    2432,
    2442,
    2424,
    2416,
    2384,
    2441,
    2414,
    2408,
    2431,
    2441,
    2410,
    2443,
    2440,
    2434,
    2443,
    2425,
    2423,
    2420,
    2409,
    2430,
    2424,
    2398,
    2448,
    2424,
    2420,
    2425,
    2452,
    2419,
    2405,
    2426,
    2423,
    2415,
    2419,
    2413,
    2413,
    2434,
    2458,
    2445,
    2403,
    2417,
    2370,
    2393,
    2417,
    2412,
    2429,
    2414,
    2425,
    2409,
    2413,
    2411,
    2426,
    2434,
    2429,
    2415,
    2438,
    2454,
    2437,
    2410,
    2443,
    2425,
    2417,
    2450,
    2425,
    2411,
    2449,
    2420,
    2440,
    2422,
    2423,
    2426,
    2425,
    2413,
    2432,
    2411,
    2421,
    2438,
    2442,
    2412,
    2411,
    2431,
    2405,
    2421,
    2406,
    2399,
    2444,
    2418,
    2395,
    2427,
    2391,
    2441,
    2403,
    2410,
    2781,
    2432,
    2419,
    2396,
    2400,
    2398,
    2473,
    2438,
    2409,
    2443,
    2440,
    2423,
    2422,
    2422,
    2444,
    2431,
    2452,
    2424,
    2443,
    2407,
    2445,
    2430,
    2461,
    2411,
    2399,
    2400,
    2433,
    2425,
    2445,
    2393,
    2459,
    2425,
    2368,
    2435,
    2426,
    2414,
    2421,
    2421,
    2393,
    2406,
    2395,
    2401,
    2418,
    2422,
    2421,
    2415,
    2414,
    2425,
    2404,
    2417,
    2435,
    2459,
    2433,
    2436,
    2404,
    2415,
    2422,
    2396,
    2424,
    2406,
    2396,
    2409,
    2419,
    2412,
    2390,
    2451,
    2414,
    2396,
    2398,
    2383,
    2383,
    2407,
    2438,
    2394,
    2453,
    2428,
    2417,
    2416,
    2417,
    2411,
    2399,
    2418,
    2419,
    2431,
    2405,
    2424,
    2431,
    2415,
    2423,
    2428,
    2432,
    2410,
    2411,
    2404,
    2385,
    2409,
    2409,
    2407,
    2439,
    2415,
    2545,
    2395,
    2394,
    2375,
    2423,
    2408,
    2415,
    2433,
    2404,
    2436,
    2394,
    2418,
    2416,
    2715,
    2398,
    2418,
    2383,
    2404,
    2387,
    2396,
    2463,
    2398,
    2425,
    2420,
    2421,
    2430,
    2435,
    2418,
    2416,
    2444,
    2494,
    2443,
    2424,
    2394,
    2401,
    2434,
    2440,
    2416,
    2434,
    2418,
    2414,
    2425,
    2401,
    2427,
    2410,
    2407,
    2383,
    2416
   ],
   "WindowCenter": [
    723.0,
    721.0,
    721.0,
    722.0,
    723.0,
    720.0,
    721.0,
    721.0,
    721.0,
    722.0,
    723.0,
    723.0,
    722.0,
    721.0,
    723.0,
    722.0,
    721.0,
    721.0,
    721.0,
    722.0,
    721.0,
    720.0,
    720.0,
    720.0,
    721.0,
    720.0,
    720.0,
    721.0,
    720.0,
    719.0,
    719.0,
    721.0,
    721.0,
    720.0,
    719.0,
    719.0,
    718.0,
    719.0,
    721.0,
    720.0,
    719.0,
    720.0,
    722.0,
    720.0,
    719.0,
    719.0,
    719.0,
    719.0,
    719.0,
    720.0,
    721.0,
    720.0,
    720.0,
    721.0,
    720.0,
    718.0,
    715.0,
    715.0,
    715.0,
    715.0,
    716.0,
    717.0,
    718.0,
    719.0,
    720.0,
    719.0,
    720.0,
    719.0,
    719.0,
    722.0,
    723.0,
    722.0,
    720.0,
    720.0,
    720.0,
    720.0,
    720.0,
    721.0,
    721.0,
    720.0,
    720.0,
    718.0,
    720.0,
    721.0,
    720.0,
    720.0,
    719.0,
    720.0,
    720.0,
    719.0,
    719.0,
    719.0,
    721.0,
    721.0,
    721.0,
    720.0,
    718.0,
    717.0,
    718.0,
    720.0,
    720.0,
    720.0,
    720.0,
    720.0,
    719.0,
    719.0,
    718.0,
    718.0,
    726.0,
    721.0,
