{
  "AcquisitionMatrixPE": 100,
  "AcquisitionNumber": 1,
  "AcquisitionTime": "11:58:0.687500",
  "BandwidthPerPixelPhaseEncode": 18.519,
  "BaseResolution": 100,
  "BodyPartExamined": "BRAIN",
  "ConsistencyInfo": "N4_VE11C_LATEST_20160120",
  "ConversionSoftware": "dcm2niix",
  "ConversionSoftwareVersion": "v1.0.20180622 GCC4.9.2",
  "DerivedVendorReportedEchoSpacing": 0.000539986,
  "DeviceSerialNumber": "166078",
  "DwellTime": 2.1e-06,
  "EchoTime": 0.034,
  "EchoTrainLength": 100,
  "EffectiveEchoSpacing": 0.000539986,
  "FlipAngle": 90,
  "ImageOrientationPatientDICOM": [0.999473, 0.00824314, 0.031406, 4.92206e-08, 0.967238, -0.253873],
  "ImageType": [
    "ORIGINAL",
    "PRIMARY",
    "M",
    "ND",
    "MOSAIC"
],
  "InPlanePhaseEncodingDirectionDICOM": "COL",
  "InstitutionAddress": "Street_StreetNo_Bei_Jing_District_CN_ZIP",
  "InstitutionName": "BeiJing_Normal_University",
  "InstitutionalDepartmentName": "Department",
  "MRAcquisitionType": "2D",
  "MagneticFieldStrength": 3,
  "Manufacturer": "Siemens",
  "ManufacturersModelName": "Prisma",
  "Modality": "MR",
  "MultibandAccelerationFactor": 3,
  "PartialFourier": 1,
  "PatientPosition": "HFS",
  "PercentPhaseFOV": 100,
  "PhaseEncodingDirection": "j-",
  "PhaseEncodingSteps": 100,
  "PhaseResolution": 1,
  "PixelBandwidth": 2380,
  "ProcedureStepDescription": "BNU_P2018_64CH_Zhen.ZongLei",
  "ProtocolName": "bold_100x100_s3_2x2x2_static_256",
  "PulseSequenceDetails": "%SiemensSeq%_ep2d_bold",
  "ReceiveCoilActiveElements": "HC1-7;NC1",
  "ReceiveCoilName": "HeadNeck_64",
  "ReconMatrixPE": 100,
  "RepetitionTime": 2,
  "SAR": 0.0696149,
  "ScanOptions": "FS",
  "ScanningSequence": "EP",
  "SequenceName": "_epfid2d1_100",
  "SequenceVariant": "SK",
  "SeriesDescription": "bold_100x100_s3_2x2x2_static_256",
  "SeriesNumber": 8,
  "ShimSetting": [-5447, -11491, -1251, 371, 28, -218, -150, 17],
  "SliceThickness": 2,
  "SliceTiming": [1.4825, 0, 0.9875, 0.0825, 1.07, 0.165, 1.1525, 0.2475, 1.235, 0.3275, 1.3175, 0.41, 1.4, 0.575, 1.565, 0.6575, 1.6475, 0.74, 1.73, 0.8225, 1.8125, 0.905, 1.895, 0.4925, 1.4825, 0, 0.9875, 0.0825, 1.07, 0.165, 1.1525, 0.2475, 1.235, 0.3275, 1.3175, 0.41, 1.4, 0.575, 1.565, 0.6575, 1.6475, 0.74, 1.73, 0.8225, 1.8125, 0.905, 1.895, 0.4925, 1.4825, 0, 0.9875, 0.0825, 1.07, 0.165, 1.1525, 0.2475, 1.235, 0.3275, 1.3175, 0.41, 1.4, 0.575, 1.565, 0.6575, 1.6475, 0.74, 1.73, 0.8225, 1.8125, 0.905, 1.895, 0.4925],
  "SoftwareVersions": "syngo_MR_E11",
  "SpacingBetweenSlices": 2,
  "StationName": "AWP166078",
  "TaskName": "naturalvision",
  "TotalReadoutTime": 0.0534586,
  "TxRefAmp": 220.196,
  "dcmmeta_affine": [
    [-1.9989454746246338, 9.844122672575395e-08, 0.0649394616484642, 96.32490539550781],
    [-0.01648627035319805, 1.9344751834869385, -0.5074779987335205, -74.63701629638672],
    [0.06281191110610962, 0.5077457427978516, 1.933455228805542, -100.90156555175781],
    [0.0, 0.0, 0.0, 1.0]
],
  "dcmmeta_reorient_transform": [
    [0.0, -1.0, 0.0, 99.0],
    [1.0, 0.0, 0.0, 0.0],
    [0.0, 0.0, 1.0, 0.0],
    [0.0, 0.0, 0.0, 1.0]
],
  "dcmmeta_shape": [100, 100, 72, 256],
  "dcmmeta_slice_dim": 2,
  "dcmmeta_version": 0.6,
  "global": {
    "const": {
      "AcquisitionMatrix": [100, 0, 0, 100],
      "AngioFlag": "N",
      "BitsAllocated": 16,
      "BitsStored": 12,
      "BodyPartExamined": "BRAIN",
      "Columns": 900,
      "EchoNumbers": 1,
      "EchoTime": 34.0,
      "EchoTrainLength": 100,
      "FlipAngle": 90.0,
      "HighBit": 11,
      "ImageOrientationPatient": [0.9994727193567, 0.00824313522471, 0.03140595458493, 4.9220613e-08, 0.96723759800227, -0.2538728599335],
      "ImagePositionPatient": [-895.90312624488, -897.2606132429, 127.33878323411],
      "ImageType": [
        "ORIGINAL",
        "PRIMARY",
        "M",
        "ND",
        "MOSAIC"
],
      "ImagedNucleus": "1H",
      "ImagingFrequency": 123.257752,
      "InPlanePhaseEncodingDirection": "COL",
      "LargestImagePixelValue": 4095,
      "MRAcquisitionType": "2D",
      "MagneticFieldStrength": 3.0,
      "Manufacturer": "SIEMENS",
      "ManufacturerModelName": "Prisma",
      "Modality": "MR",
      "NumberOfAverages": 1.0,
      "NumberOfPhaseEncodingSteps": 100,
      "PercentPhaseFieldOfView": 100.0,
      "PercentSampling": 100.0,
      "PerformedProcedureStepStartTime": "110239.207000",
      "PhotometricInterpretation": "MONOCHROME2",
      "PixelBandwidth": 2380.0,
      "PixelRepresentation": 0,
      "PixelSpacing": [2.0, 2.0],
      "ProtocolName": "bold_100x100_s3_2x2x2_static_256",
      "RepetitionTime": 2000.0,
      "Rows": 900,
      "SAR": 0.06961487953929,
      "SamplesPerPixel": 1,
      "ScanOptions": "FS",
      "ScanningSequence": "EP",
      "SequenceName": "*epfid2d1_100",
      "SequenceVariant": "SK",
      "SeriesDescription": "bold_100x100_s3_2x2x2_static_256",
      "SeriesNumber": 8,
      "SeriesTime": "115802.857000",
      "SliceLocation": -75.478363608097,
      "SliceThickness": 2.0,
      "SmallestImagePixelValue": 0,
      "SoftwareVersions": "syngo MR E11",
      "SpacingBetweenSlices": 2.000000058032,
      "SpecificCharacterSet": "ISO_IR 100",
      "StudyID": "1",
      "StudyTime": "110239.153000",
      "TransmitCoilName": "Body",
      "VariableFlipAngleFlag": "N",
      "WindowCenterWidthExplanation": "Algo1",
      "dBdt": 0.0},
    "slices": {}
  },
  "time": {
    "samples": {
      "AcquisitionNumber": [1, 2, 3, 4, 5, 6, 7, 8, 9, 10, 11, 12, 13, 14, 15, 16, 17, 18, 19, 20, 21, 22, 23, 24, 25, 26, 27, 28, 29, 30, 31, 32, 33, 34, 35, 36, 37, 38, 39, 40, 41, 42, 43, 44, 45, 46, 47, 48, 49, 50, 51, 52, 53, 54, 55, 56, 57, 58, 59, 60, 61, 62, 63, 64, 65, 66, 67, 68, 69, 70, 71, 72, 73, 74, 75, 76, 77, 78, 79, 80, 81, 82, 83, 84, 85, 86, 87, 88, 89, 90, 91, 92, 93, 94, 95, 96, 97, 98, 99, 100, 101, 102, 103, 104, 105, 106, 107, 108, 109, 110, 111, 112, 113, 114, 115, 116, 117, 118, 119, 120, 121, 122, 123, 124, 125, 126, 127, 128, 129, 130, 131, 132, 133, 134, 135, 136, 137, 138, 139, 140, 141, 142, 143, 144, 145, 146, 147, 148, 149, 150, 151, 152, 153, 154, 155, 156, 157, 158, 159, 160, 161, 162, 163, 164, 165, 166, 167, 168, 169, 170, 171, 172, 173, 174, 175, 176, 177, 178, 179, 180, 181, 182, 183, 184, 185, 186, 187, 188, 189, 190, 191, 192, 193, 194, 195, 196, 197, 198, 199, 200, 201, 202, 203, 204, 205, 206, 207, 208, 209, 210, 211, 212, 213, 214, 215, 216, 217, 218, 219, 220, 221, 222, 223, 224, 225, 226, 227, 228, 229, 230, 231, 232, 233, 234, 235, 236, 237, 238, 239, 240, 241, 242, 243, 244, 245, 246, 247, 248, 249, 250, 251, 252, 253, 254, 255, 256],
      "AcquisitionTime": ["115800.687500", "115802.687500", "115804.687500", "115806.687500", "115808.687500", "115810.687500", "115812.687500", "115814.687500", "115816.687500", "115818.687500", "115820.687500", "115822.687500", "115824.687500", "115826.687500", "115828.687500", "115830.687500", "115832.687500", "115834.687500", "115836.687500", "115838.687500", "115840.687500", "115842.687500", "115844.687500", "115846.687500", "115848.687500", "115850.687500", "115852.687500", "115854.687500", "115856.687500", "115858.687500", "115900.687500", "115902.687500", "115904.687500", "115906.687500", "115908.687500", "115910.687500", "115912.687500", "115914.687500", "115916.687500", "115918.687500", "115920.687500", "115922.687500", "115924.687500", "115926.687500", "115928.687500", "115930.687500", "115932.687500", "115934.687500", "115936.687500", "115938.687500", "115940.687500", "115942.687500", "115944.687500", "115946.687500", "115948.687500", "115950.687500", "115952.687500", "115954.687500", "115956.687500", "115958.687500", "120000.687500", "120002.687500", "120004.687500", "120006.687500", "120008.687500", "120010.687500", "120012.687500", "120014.687500", "120016.687500", "120018.687500", "120020.687500", "120022.687500", "120024.687500", "120026.687500", "120028.687500", "120030.687500", "120032.687500", "120034.687500", "120036.687500", "120038.687500", "120040.687500", "120042.687500", "120044.687500", "120046.687500", "120048.687500", "120050.687500", "120052.687500", "120054.687500", "120056.687500", "120058.687500", "120100.687500", "120102.687500", "120104.687500", "120106.687500", "120108.687500", "120110.687500", "120112.687500", "120114.687500", "120116.687500", "120118.687500", "120120.687500", "120122.687500", "120124.687500", "120126.687500", "120128.687500", "120130.687500", "120132.687500", "120134.687500", "120136.687500", "120138.687500", "120140.687500", "120142.687500", "120144.687500", "120146.687500", "120148.687500", "120150.687500", "120152.687500", "120154.687500", "120156.687500", "120158.687500", "120200.687500", "120202.687500", "120204.687500", "120206.687500", "120208.687500", "120210.687500", "120212.687500", "120214.687500", "120216.687500", "120218.687500", "120220.687500", "120222.687500", "120224.687500", "120226.687500", "120228.687500", "120230.687500", "120232.687500", "120234.687500", "120236.687500", "120238.687500", "120240.687500", "120242.687500", "120244.687500", "120246.687500", "120248.687500", "120250.687500", "120252.687500", "120254.687500", "120256.687500", "120258.687500", "120300.687500", "120302.687500", "120304.687500", "120306.687500", "120308.687500", "120310.687500", "120312.687500", "120314.687500", "120316.687500", "120318.687500", "120320.687500", "120322.687500", "120324.687500", "120326.687500", "120328.687500", "120330.687500", "120332.687500", "120334.687500", "120336.687500", "120338.687500", "120340.687500", "120342.687500", "120344.687500", "120346.687500", "120348.687500", "120350.687500", "120352.687500", "120354.687500", "120356.687500", "120358.687500", "120400.687500", "120402.687500", "120404.687500", "120406.687500", "120408.687500", "120410.687500", "120412.687500", "120414.687500", "120416.687500", "120418.687500", "120420.687500", "120422.687500", "120424.687500", "120426.687500", "120428.687500", "120430.687500", "120432.687500", "120434.687500", "120436.687500", "120438.687500", "120440.687500", "120442.687500", "120444.687500", "120446.687500", "120448.687500", "120450.687500", "120452.687500", "120454.687500", "120456.687500", "120458.687500", "120500.687500", "120502.687500", "120504.687500", "120506.687500", "120508.687500", "120510.687500", "120512.687500", "120514.687500", "120516.687500", "120518.687500", "120520.687500", "120522.687500", "120524.687500", "120526.687500", "120528.687500", "120530.687500", "120532.687500", "120534.687500", "120536.687500", "120538.687500", "120540.687500", "120542.687500", "120544.687500", "120546.687500", "120548.687500", "120550.687500", "120552.687500", "120554.687500", "120556.687500", "120558.687500", "120600.687500", "120602.687500", "120604.687500", "120606.687500", "120608.687500", "120610.687500", "120612.687500", "120614.687500", "120616.687500", "120618.687500", "120620.687500", "120622.687500", "120624.687500", "120626.687500", "120628.687500", "120630.687500"],
      "ContentTime": ["115802.861000", "115804.356000", "115806.356000", "115808.356000", "115810.356000", "115812.355000", "115814.355000", "115816.357000", "115818.356000", "115820.358000", "115822.357000", "115824.356000", "115826.357000", "115828.356000", "115830.355000", "115832.355000", "115834.357000", "115836.357000", "115838.356000", "115840.356000", "115842.357000", "115844.357000", "115846.356000", "115848.356000", "115850.356000", "115852.357000", "115854.356000", "115856.356000", "115858.357000", "115900.357000", "115902.356000", "115904.355000", "115906.356000", "115908.356000", "115910.357000", "115912.356000", "115914.356000", "115916.356000", "115918.356000", "115920.357000", "115922.355000", "115924.356000", "115926.356000", "115928.356000", "115930.357000", "115932.356000", "115934.356000", "115936.356000", "115938.355000", "115940.355000", "115942.355000", "115944.356000", "115946.356000", "115948.356000", "115950.356000", "115952.356000", "115954.357000", "115956.355000", "115958.355000", "120000.356000", "120002.356000", "120004.357000", "120006.357000", "120008.356000", "120010.356000", "120012.357000", "120014.356000", "120016.356000", "120018.356000", "120020.356000", "120022.356000", "120024.356000", "120026.356000", "120028.357000", "120030.357000", "120032.355000", "120034.355000", "120036.356000", "120038.357000", "120040.356000", "120042.356000", "120044.357000", "120046.357000", "120048.355000", "120050.355000", "120052.355000", "120054.357000", "120056.356000", "120058.356000", "120100.356000", "120102.356000", "120104.357000", "120106.355000", "120108.356000", "120110.356000", "120112.356000", "120114.356000", "120116.356000", "120118.356000", "120120.356000", "120122.357000", "120124.356000", "120126.355000", "120128.356000", "120130.357000", "120132.356000", "120134.356000", "120136.356000", "120138.356000", "120140.356000", "120142.355000", "120144.355000", "120146.357000", "120148.357000", "120150.356000", "120152.357000", "120154.356000", "120156.357000", "120158.355000", "120200.355000", "120202.356000", "120204.356000", "120206.357000", "120208.857000", "120211.356000", "120212.356000", "120214.356000", "120216.355000", "120218.355000", "120220.356000", "120222.356000", "120224.356000", "120226.356000", "120228.356000", "120230.356000", "120232.357000", "120234.355000", "120236.356000", "120238.357000", "120240.356000", "120242.357000", "120244.356000", "120246.356000", "120248.356000", "120250.357000", "120252.355000", "120254.355000", "120256.356000", "120258.356000", "120300.356000", "120302.356000", "120304.356000", "120306.356000", "120308.355000", "120310.355000", "120312.355000", "120314.356000", "120316.356000", "120318.357000", "120320.357000", "120322.356000", "120324.357000", "120326.356000", "120328.355000", "120330.356000", "120332.357000", "120334.357000", "120336.356000", "120338.357000", "120340.357000", "120342.357000", "120344.356000", "120346.355000", "120348.356000", "120350.356000", "120352.357000", "120354.356000", "120356.357000", "120358.357000", "120400.357000", "120402.356000", "120404.356000", "120406.356000", "120408.357000", "120410.356000", "120412.357000", "120414.356000", "120416.357000", "120418.356000", "120420.355000", "120422.356000", "120424.356000", "120426.357000", "120428.357000", "120430.357000", "120432.357000", "120434.357000", "120436.355000", "120438.376000", "120440.357000", "120442.356000", "120444.357000", "120446.357000", "120448.357000", "120450.357000", "120452.356000", "120454.356000", "120456.356000", "120458.357000", "120500.357000", "120502.356000", "120504.356000", "120506.356000", "120508.356000", "120510.355000", "120512.355000", "120514.356000", "120516.357000", "120518.356000", "120520.356000", "120522.356000", "120524.357000", "120526.356000", "120528.356000", "120530.356000", "120532.356000", "120534.357000", "120536.357000", "120538.357000", "120540.357000", "120542.357000", "120544.357000", "120546.356000", "120548.355000", "120550.357000", "120552.356000", "120554.356000", "120556.356000", "120558.356000", "120600.357000", "120602.357000", "120604.356000", "120606.356000", "120608.357000", "120610.357000", "120612.356000", "120614.357000", "120616.357000", "120618.357000", "120620.355000", "120622.355000", "120624.356000", "120626.357000", "120628.357000", "120630.357000", "120631.984000"],
      "InstanceCreationTime": ["115802.861000", "115804.356000", "115806.356000", "115808.356000", "115810.356000", "115812.355000", "115814.355000", "115816.357000", "115818.356000", "115820.358000", "115822.357000", "115824.356000", "115826.357000", "115828.356000", "115830.355000", "115832.355000", "115834.357000", "115836.357000", "115838.356000", "115840.356000", "115842.357000", "115844.357000", "115846.356000", "115848.356000", "115850.356000", "115852.357000", "115854.356000", "115856.356000", "115858.357000", "115900.357000", "115902.356000", "115904.355000", "115906.356000", "115908.356000", "115910.357000", "115912.356000", "115914.356000", "115916.356000", "115918.356000", "115920.357000", "115922.355000", "115924.356000", "115926.356000", "115928.356000", "115930.357000", "115932.356000", "115934.356000", "115936.356000", "115938.355000", "115940.355000", "115942.355000", "115944.356000", "115946.356000", "115948.356000", "115950.356000", "115952.356000", "115954.357000", "115956.355000", "115958.355000", "120000.356000", "120002.356000", "120004.357000", "120006.357000", "120008.356000", "120010.356000", "120012.357000", "120014.356000", "120016.356000", "120018.356000", "120020.356000", "120022.356000", "120024.356000", "120026.356000", "120028.357000", "120030.357000", "120032.355000", "120034.355000", "120036.356000", "120038.357000", "120040.356000", "120042.356000", "120044.357000", "120046.357000", "120048.355000", "120050.355000", "120052.355000", "120054.357000", "120056.356000", "120058.356000", "120100.356000", "120102.356000", "120104.357000", "120106.355000", "120108.356000", "120110.356000", "120112.356000", "120114.356000", "120116.356000", "120118.356000", "120120.356000", "120122.357000", "120124.356000", "120126.355000", "120128.356000", "120130.357000", "120132.356000", "120134.356000", "120136.356000", "120138.356000", "120140.356000", "120142.355000", "120144.355000", "120146.357000", "120148.357000", "120150.356000", "120152.357000", "120154.356000", "120156.357000", "120158.355000", "120200.355000", "120202.356000", "120204.356000", "120206.357000", "120208.857000", "120211.356000", "120212.356000", "120214.356000", "120216.355000", "120218.355000", "120220.356000", "120222.356000", "120224.356000", "120226.356000", "120228.356000", "120230.356000", "120232.357000", "120234.355000", "120236.356000", "120238.357000", "120240.356000", "120242.357000", "120244.356000", "120246.356000", "120248.356000", "120250.357000", "120252.355000", "120254.355000", "120256.356000", "120258.356000", "120300.356000", "120302.356000", "120304.356000", "120306.356000", "120308.355000", "120310.355000", "120312.355000", "120314.356000", "120316.356000", "120318.357000", "120320.357000", "120322.356000", "120324.357000", "120326.356000", "120328.355000", "120330.356000", "120332.357000", "120334.357000", "120336.356000", "120338.357000", "120340.357000", "120342.357000", "120344.356000", "120346.355000", "120348.356000", "120350.356000", "120352.357000", "120354.356000", "120356.357000", "120358.357000", "120400.357000", "120402.356000", "120404.356000", "120406.356000", "120408.357000", "120410.356000", "120412.357000", "120414.356000", "120416.357000", "120418.356000", "120420.355000", "120422.356000", "120424.356000", "120426.357000", "120428.357000", "120430.357000", "120432.357000", "120434.357000", "120436.355000", "120438.376000", "120440.357000", "120442.356000", "120444.357000", "120446.357000", "120448.357000", "120450.357000", "120452.356000", "120454.356000", "120456.356000", "120458.357000", "120500.357000", "120502.356000", "120504.356000", "120506.356000", "120508.356000", "120510.355000", "120512.355000", "120514.356000", "120516.357000", "120518.356000", "120520.356000", "120522.356000", "120524.357000", "120526.356000", "120528.356000", "120530.356000", "120532.356000", "120534.357000", "120536.357000", "120538.357000", "120540.357000", "120542.357000", "120544.357000", "120546.356000", "120548.355000", "120550.357000", "120552.356000", "120554.356000", "120556.356000", "120558.356000", "120600.357000", "120602.357000", "120604.356000", "120606.356000", "120608.357000", "120610.357000", "120612.356000", "120614.357000", "120616.357000", "120618.357000", "120620.355000", "120622.355000", "120624.356000", "120626.357000", "120628.357000", "120630.357000", "120631.984000"],
      "InstanceNumber": [1, 2, 3, 4, 5, 6, 7, 8, 9, 10, 11, 12, 13, 14, 15, 16, 17, 18, 19, 20, 21, 22, 23, 24, 25, 26, 27, 28, 29, 30, 31, 32, 33, 34, 35, 36, 37, 38, 39, 40, 41, 42, 43, 44, 45, 46, 47, 48, 49, 50, 51, 52, 53, 54, 55, 56, 57, 58, 59, 60, 61, 62, 63, 64, 65, 66, 67, 68, 69, 70, 71, 72, 73, 74, 75, 76, 77, 78, 79, 80, 81, 82, 83, 84, 85, 86, 87, 88, 89, 90, 91, 92, 93, 94, 95, 96, 97, 98, 99, 100, 101, 102, 103, 104, 105, 106, 107, 108, 109, 110, 111, 112, 113, 114, 115, 116, 117, 118, 119, 120, 121, 122, 123, 124, 125, 126, 127, 128, 129, 130, 131, 132, 133, 134, 135, 136, 137, 138, 139, 140, 141, 142, 143, 144, 145, 146, 147, 148, 149, 150, 151, 152, 153, 154, 155, 156, 157, 158, 159, 160, 161, 162, 163, 164, 165, 166, 167, 168, 169, 170, 171, 172, 173, 174, 175, 176, 177, 178, 179, 180, 181, 182, 183, 184, 185, 186, 187, 188, 189, 190, 191, 192, 193, 194, 195, 196, 197, 198, 199, 200, 201, 202, 203, 204, 205, 206, 207, 208, 209, 210, 211, 212, 213, 214, 215, 216, 217, 218, 219, 220, 221, 222, 223, 224, 225, 226, 227, 228, 229, 230, 231, 232, 233, 234, 235, 236, 237, 238, 239, 240, 241, 242, 243, 244, 245, 246, 247, 248, 249, 250, 251, 252, 253, 254, 255, 256],
      "WindowCenter": [876.0, 875.0, 876.0, 877.0, 875.0, 876.0, 877.0, 877.0, 877.0, 876.0, 877.0, 877.0, 877.0, 877.0, 877.0, 877.0, 877.0, 876.0, 877.0, 877.0, 877.0, 877.0, 877.0, 877.0, 878.0, 877.0, 877.0, 877.0, 876.0, 876.0, 876.0, 876.0, 876.0, 876.0, 876.0, 876.0, 876.0, 875.0, 876.0, 876.0, 876.0, 876.0, 877.0, 877.0, 877.0, 877.0, 878.0, 877.0, 877.0, 876.0, 875.0, 874.0, 873.0, 874.0, 873.0, 872.0, 872.0, 874.0, 874.0, 872.0, 872.0, 870.0, 868.0, 867.0, 870.0, 872.0, 872.0, 872.0, 871.0, 870.0, 869.0, 871.0, 871.0, 871.0, 871.0, 871.0, 871.0, 874.0, 875.0, 875.0, 873.0, 870.0, 871.0, 872.0, 873.0, 871.0, 871.0, 871.0, 871.0, 872.0, 872.0, 871.0, 872.0, 873.0, 875.0, 873.0, 872.0, 870.0, 867.0, 867.0, 867.0, 868.0, 871.0, 875.0, 876.0, 874.0, 873.0, 871.0, 872.0, 873.0, 871.0, 870.0, 870.0, 872.0, 873.0, 872.0, 870.0, 869.0, 868.0, 868.0, 869.0, 869.0, 872.0, 873.0, 875.0, 873.0, 872.0, 872.0, 871.0, 870.0, 870.0, 870.0, 871.0, 870.0, 869.0, 868.0, 869.0, 871.0, 871.0, 872.0, 871.0, 869.0, 867.0, 867.0, 866.0, 868.0, 871.0, 873.0, 872.0, 870.0, 869.0, 868.0, 868.0, 867.0, 868.0, 869.0, 870.0, 870.0, 872.0, 875.0, 876.0, 873.0, 872.0, 870.0, 869.0, 869.0, 869.0, 868.0, 868.0, 870.0, 874.0, 876.0, 875.0, 875.0, 873.0, 873.0, 873.0, 871.0, 872.0, 871.0, 869.0, 868.0, 868.0, 869.0, 871.0, 872.0, 874.0, 876.0, 878.0, 876.0, 876.0, 874.0, 873.0, 872.0, 872.0, 874.0, 874.0, 874.0, 872.0, 871.0, 872.0, 874.0, 875.0, 875.0, 874.0, 874.0, 873.0, 872.0, 872.0, 874.0, 876.0, 876.0, 875.0, 874.0, 875.0, 878.0, 877.0, 875.0, 873.0, 871.0, 871.0, 873.0, 877.0, 877.0, 875.0, 873.0, 871.0, 869.0, 869.0, 870.0, 873.0, 875.0, 877.0, 878.0, 878.0, 877.0, 876.0, 875.0, 874.0, 874.0, 875.0, 874.0, 875.0, 874.0, 875.0, 875.0, 875.0, 875.0, 874.0, 874.0, 874.0, 874.0, 874.0, 873.0, 875.0, 875.0],
      "WindowWidth": [1931.0, 1927.0, 1930.0, 1931.0, 1928.0, 1930.0, 1933.0, 1932.0, 1932.0, 1931.0, 1932.0, 1933.0, 1932.0, 1931.0, 1933.0, 1934.0, 1934.0, 1932.0, 1932.0, 1932.0, 1932.0, 1933.0, 1934.0, 1933.0, 1934.0, 1934.0, 1933.0, 1932.0, 1931.0, 1930.0, 1930.0, 1930.0, 1930.0, 1930.0, 1931.0, 1930.0, 1929.0, 1927.0, 1930.0, 1930.0, 1930.0, 1930.0, 1933.0, 1933.0, 1931.0, 1931.0, 1935.0, 1933.0, 1932.0, 1929.0, 1924.0, 1922.0, 1920.0, 1923.0, 1922.0, 1918.0, 1918.0, 1922.0, 1923.0, 1919.0, 1917.0, 1912.0, 1908.0, 1906.0, 1912.0, 1918.0, 1918.0, 1917.0, 1915.0, 1912.0, 1911.0, 1916.0, 1915.0, 1916.0, 1916.0, 1915.0, 1915.0, 1924.0, 1926.0, 1924.0, 1921.0, 1912.0, 1915.0, 1919.0, 1919.0, 1916.0, 1914.0, 1915.0, 1915.0, 1917.0, 1916.0, 1916.0, 1918.0, 1922.0, 1927.0, 1921.0, 1918.0, 1912.0, 1906.0, 1904.0, 1905.0, 1907.0, 1915.0, 1926.0, 1930.0, 1924.0, 1920.0, 1915.0, 1919.0, 1919.0, 1915.0, 1912.0, 1914.0, 1920.0, 1920.0, 1919.0, 1912.0, 1910.0, 1907.0, 1906.0, 1909.0, 1911.0, 1917.0, 1923.0, 1926.0, 1922.0, 1918.0, 1918.0, 1915.0, 1912.0, 1911.0, 1913.0, 1916.0, 1910.0, 1909.0, 1907.0, 1911.0, 1917.0, 1917.0, 1918.0, 1914.0, 1909.0, 1905.0, 1904.0, 1903.0, 1908.0, 1916.0, 1922.0, 1917.0, 1913.0, 1910.0, 1907.0, 1905.0, 1904.0, 1907.0, 1909.0, 1912.0, 1914.0, 1919.0, 1925.0, 1927.0, 1922.0, 1917.0, 1912.0, 1909.0, 1910.0, 1909.0, 1907.0, 1909.0, 1913.0, 1923.0, 1928.0, 1928.0, 1926.0, 1920.0, 1919.0, 1920.0, 1916.0, 1918.0, 1916.0, 1910.0, 1906.0, 1907.0, 1910.0, 1915.0, 1919.0, 1925.0, 1931.0, 1934.0, 1927.0, 1928.0, 1923.0, 1922.0, 1918.0, 1919.0, 1923.0, 1923.0, 1922.0, 1918.0, 1916.0, 1917.0, 1922.0, 1926.0, 1926.0, 1924.0, 1924.0, 1920.0, 1916.0, 1917.0, 1924.0, 1927.0, 1927.0, 1924.0, 1923.0, 1926.0, 1933.0, 1931.0, 1924.0, 1919.0, 1914.0, 1915.0, 1921.0, 1930.0, 1929.0, 1926.0, 1918.0, 1913.0, 1907.0, 1909.0, 1913.0, 1920.0, 1927.0, 1932.0, 1934.0, 1935.0, 1932.0, 1928.0, 1925.0, 1925.0, 1924.0, 1926.0, 1923.0, 1925.0, 1924.0, 1925.0, 1926.0, 1924.0, 1926.0, 1923.0, 1922.0, 1922.0, 1922.0, 1922.0, 1921.0, 1924.0, 1925.0]
    },
    "slices": {}
  }
}