{
 "AcquisitionMatrixPE": 100,
 "AcquisitionNumber": 1,
 "AcquisitionTime": "13:04:8.810000",
 "BandwidthPerPixelPhaseEncode": 18.519,
 "BaseResolution": 100,
 "BodyPartExamined": "BRAIN",
 "ConsistencyInfo": "N4_VE11C_LATEST_20160120",
 "ConversionSoftware": "dcm2niix",
 "ConversionSoftwareVersion": "v1.0.20180622 GCC4.9.2",
 "DerivedVendorReportedEchoSpacing": 0.000539986,
 "DeviceSerialNumber": "166078",
 "DwellTime": 2.1e-06,
 "EchoTime": 0.034,
 "EchoTrainLength": 100,
 "EffectiveEchoSpacing": 0.000539986,
 "FlipAngle": 90,
 "ImageOrientationPatientDICOM": [
  0.999473,
  0.00824314,
  0.031406,
  4.92206e-08,
  0.967238,
  -0.253873
 ],
 "ImageType": [
  "ORIGINAL",
  "PRIMARY",
  "M",
  "ND",
  "MOSAIC"
 ],
 "InPlanePhaseEncodingDirectionDICOM": "COL",
 "InstitutionAddress": "Street_StreetNo_Bei_Jing_District_CN_ZIP",
 "InstitutionName": "BeiJing_Normal_University",
 "InstitutionalDepartmentName": "Department",
 "MRAcquisitionType": "2D",
 "MagneticFieldStrength": 3,
 "Manufacturer": "Siemens",
 "ManufacturersModelName": "Prisma",
 "Modality": "MR",
 "MultibandAccelerationFactor": 3,
 "PartialFourier": 1,
 "PatientPosition": "HFS",
 "PercentPhaseFOV": 100,
 "PhaseEncodingDirection": "j-",
 "PhaseEncodingSteps": 100,
 "PhaseResolution": 1,
 "PixelBandwidth": 2380,
 "ProcedureStepDescription": "BNU_P2018_64CH_Zhen.ZongLei",
 "ProtocolName": "bold_100x100_s3_2x2x2_static_256",
 "PulseSequenceDetails": "%SiemensSeq%_ep2d_bold",
 "ReceiveCoilActiveElements": "HC1-7;NC1",
 "ReceiveCoilName": "HeadNeck_64",
 "ReconMatrixPE": 100,
 "RepetitionTime": 2,
 "SAR": 0.0696149,
 "ScanOptions": "FS",
 "ScanningSequence": "EP",
 "SequenceName": "_epfid2d1_100",
 "SequenceVariant": "SK",
 "SeriesDescription": "bold_100x100_s3_2x2x2_static_256",
 "SeriesNumber": 16,
 "ShimSetting": [
  -5447,
  -11491,
  -1251,
  371,
  28,
  -218,
  -150,
  17
 ],
 "SliceThickness": 2,
 "SliceTiming": [
  1.485,
  0,
  0.99,
  0.0825,
  1.0725,
  0.165,
  1.155,
  0.2475,
  1.2375,
  0.33,
  1.32,
  0.4125,
  1.4025,
  0.5775,
  1.5675,
  0.66,
  1.65,
  0.7425,
  1.7325,
  0.825,
  1.815,
  0.9075,
  1.8975,
  0.495,
  1.485,
  0,
  0.99,
  0.0825,
  1.0725,
  0.165,
  1.155,
  0.2475,
  1.2375,
  0.33,
  1.32,
  0.4125,
  1.4025,
  0.5775,
  1.5675,
  0.66,
  1.65,
  0.7425,
  1.7325,
  0.825,
  1.815,
  0.9075,
  1.8975,
  0.495,
  1.485,
  0,
  0.99,
  0.0825,
  1.0725,
  0.165,
  1.155,
  0.2475,
  1.2375,
  0.33,
  1.32,
  0.4125,
  1.4025,
  0.5775,
  1.5675,
  0.66,
  1.65,
  0.7425,
  1.7325,
  0.825,
  1.815,
  0.9075,
  1.8975,
  0.495
 ],
 "SoftwareVersions": "syngo_MR_E11",
 "SpacingBetweenSlices": 2,
 "StationName": "AWP166078",
 "TaskName": "imagenet",
 "TotalReadoutTime": 0.0534586,
 "TxRefAmp": 220.196,
 "dcmmeta_affine": [
  [
   -1.9989454746246338,
   9.844122672575395e-08,
   0.0649394616484642,
   96.32490539550781
  ],
  [
   -0.01648627035319805,
   1.9344751834869385,
   -0.5074779987335205,
   -74.63701629638672
  ],
  [
   0.06281191110610962,
   0.5077457427978516,
   1.933455228805542,
   -100.90156555175781
  ],
  [
   0.0,
   0.0,
   0.0,
   1.0
  ]
 ],
 "dcmmeta_reorient_transform": [
  [
   0.0,
   -1.0,
   0.0,
   99.0
  ],
  [
   1.0,
   0.0,
   0.0,
   0.0
  ],
  [
   0.0,
   0.0,
   1.0,
   0.0
  ],
  [
   0.0,
   0.0,
   0.0,
   1.0
  ]
 ],
 "dcmmeta_shape": [
  100,
  100,
  72,
  256
 ],
 "dcmmeta_slice_dim": 2,
 "dcmmeta_version": 0.6,
 "global": {
  "const": {
   "AcquisitionMatrix": [
    100,
    0,
    0,
    100
   ],
   "AngioFlag": "N",
   "BitsAllocated": 16,
   "BitsStored": 12,
   "BodyPartExamined": "BRAIN",
   "Columns": 900,
   "EchoNumbers": 1,
   "EchoTime": 34.0,
   "EchoTrainLength": 100,
   "FlipAngle": 90.0,
   "HighBit": 11,
   "ImageOrientationPatient": [
    0.9994727193567,
    0.00824313522471,
    0.03140595458493,
    4.9220613e-08,
    0.96723759800227,
    -0.2538728599335
   ],
   "ImagePositionPatient": [
    -895.90312624488,
    -897.2606132429,
    127.33878323411
   ],
   "ImageType": [
    "ORIGINAL",
    "PRIMARY",
    "M",
    "ND",
    "MOSAIC"
   ],
   "ImagedNucleus": "1H",
   "ImagingFrequency": 123.257754,
   "InPlanePhaseEncodingDirection": "COL",
   "LargestImagePixelValue": 4095,
   "MRAcquisitionType": "2D",
   "MagneticFieldStrength": 3.0,
   "Manufacturer": "SIEMENS",
   "ManufacturerModelName": "Prisma",
   "Modality": "MR",
   "NumberOfAverages": 1.0,
   "NumberOfPhaseEncodingSteps": 100,
   "PercentPhaseFieldOfView": 100.0,
   "PercentSampling": 100.0,
   "PerformedProcedureStepStartTime": "110239.207000",
   "PhotometricInterpretation": "MONOCHROME2",
   "PixelBandwidth": 2380.0,
   "PixelRepresentation": 0,
   "PixelSpacing": [
    2.0,
    2.0
   ],
   "ProtocolName": "bold_100x100_s3_2x2x2_static_256",
   "RepetitionTime": 2000.0,
   "Rows": 900,
   "SAR": 0.06961487953929,
   "SamplesPerPixel": 1,
   "ScanOptions": "FS",
   "ScanningSequence": "EP",
   "SequenceName": "*epfid2d1_100",
   "SequenceVariant": "SK",
   "SeriesDescription": "bold_100x100_s3_2x2x2_static_256",
   "SeriesNumber": 16,
   "SeriesTime": "130411.791000",
   "SliceLocation": -75.478363608097,
   "SliceThickness": 2.0,
   "SmallestImagePixelValue": 0,
   "SoftwareVersions": "syngo MR E11",
   "SpacingBetweenSlices": 2.000000058032,
   "SpecificCharacterSet": "ISO_IR 100",
   "StudyID": "1",
   "StudyTime": "110239.153000",
   "TransmitCoilName": "Body",
   "VariableFlipAngleFlag": "N",
   "WindowCenterWidthExplanation": "Algo1",
   "dBdt": 0.0
  },
  "slices": {}
 },
 "time": {
  "samples": {
   "AcquisitionNumber": [
    1,
    2,
    3,
    4,
    5,
    6,
    7,
    8,
    9,
    10,
    11,
    12,
    13,
    14,
    15,
    16,
    17,
    18,
    19,
    20,
    21,
    22,
    23,
    24,
    25,
    26,
    27,
    28,
    29,
    30,
    31,
    32,
    33,
    34,
    35,
    36,
    37,
    38,
    39,
    40,
    41,
    42,
    43,
    44,
    45,
    46,
    47,
    48,
    49,
    50,
    51,
    52,
    53,
    54,
    55,
    56,
    57,
    58,
    59,
    60,
    61,
    62,
    63,
    64,
    65,
    66,
    67,
    68,
    69,
    70,
    71,
    72,
    73,
    74,
    75,
    76,
    77,
    78,
    79,
    80,
    81,
    82,
    83,
    84,
    85,
    86,
    87,
    88,
    89,
    90,
    91,
    92,
    93,
    94,
    95,
    96,
    97,
    98,
    99,
    100,
    101,
    102,
    103,
    104,
    105,
    106,
    107,
    108,
    109,
    110,
    111,
    112,
    113,
    114,
    115,
    116,
    117,
    118,
    119,
    120,
    121,
    122,
    123,
    124,
    125,
    126,
    127,
    128,
    129,
    130,
    131,
    132,
    133,
    134,
    135,
    136,
    137,
    138,
    139,
    140,
    141,
    142,
    143,
    144,
    145,
    146,
    147,
    148,
    149,
    150,
    151,
    152,
    153,
    154,
    155,
    156,
    157,
    158,
    159,
    160,
    161,
    162,
    163,
    164,
    165,
    166,
    167,
    168,
    169,
    170,
    171,
    172,
    173,
    174,
    175,
    176,
    177,
    178,
    179,
    180,
    181,
    182,
    183,
    184,
    185,
    186,
    187,
    188,
    189,
    190,
    191,
    192,
    193,
    194,
    195,
    196,
    197,
    198,
    199,
    200,
    201,
    202,
    203,
    204,
    205,
    206,
    207,
    208,
    209,
    210,
    211,
    212,
    213,
    214,
    215,
    216,
    217,
    218,
    219,
    220,
    221,
    222,
    223,
    224,
    225,
    226,
    227,
    228,
    229,
    230,
    231,
    232,
    233,
    234,
    235,
    236,
    237,
    238,
    239,
    240,
    241,
    242,
    243,
    244,
    245,
    246,
    247,
    248,
    249,
    250,
    251,
    252,
    253,
    254,
    255,
    256
   ],
   "AcquisitionTime": [
    "130408.810000",
    "130410.810000",
    "130412.810000",
    "130414.810000",
    "130416.810000",
    "130418.810000",
    "130420.810000",
    "130422.810000",
    "130424.810000",
    "130426.810000",
    "130428.810000",
    "130430.810000",
    "130432.810000",
    "130434.810000",
    "130436.810000",
    "130438.810000",
    "130440.810000",
    "130442.810000",
    "130444.810000",
    "130446.810000",
    "130448.810000",
    "130450.810000",
    "130452.810000",
    "130454.810000",
    "130456.810000",
    "130458.810000",
    "130500.810000",
    "130502.810000",
    "130504.810000",
    "130506.810000",
    "130508.810000",
    "130510.810000",
    "130512.810000",
    "130514.810000",
    "130516.810000",
    "130518.810000",
    "130520.810000",
    "130522.810000",
    "130524.810000",
    "130526.810000",
    "130528.810000",
    "130530.810000",
    "130532.810000",
    "130534.810000",
    "130536.810000",
    "130538.810000",
    "130540.810000",
    "130542.810000",
    "130544.810000",
    "130546.810000",
    "130548.810000",
    "130550.810000",
    "130552.810000",
    "130554.810000",
    "130556.810000",
    "130558.810000",
    "130600.810000",
    "130602.810000",
    "130604.810000",
    "130606.810000",
    "130608.810000",
    "130610.810000",
    "130612.810000",
    "130614.810000",
    "130616.810000",
    "130618.810000",
    "130620.810000",
    "130622.810000",
    "130624.810000",
    "130626.810000",
    "130628.810000",
    "130630.810000",
    "130632.810000",
    "130634.810000",
    "130636.810000",
    "130638.810000",
    "130640.810000",
    "130642.810000",
    "130644.810000",
    "130646.810000",
    "130648.810000",
    "130650.810000",
    "130652.810000",
    "130654.810000",
    "130656.810000",
    "130658.810000",
    "130700.810000",
    "130702.810000",
    "130704.810000",
    "130706.810000",
    "130708.810000",
    "130710.810000",
    "130712.810000",
    "130714.810000",
    "130716.810000",
    "130718.810000",
    "130720.810000",
    "130722.810000",
    "130724.810000",
    "130726.810000",
    "130728.810000",
    "130730.810000",
    "130732.810000",
    "130734.810000",
    "130736.810000",
    "130738.810000",
    "130740.810000",
    "130742.810000",
    "130744.810000",
    "130746.810000",
    "130748.810000",
    "130750.810000",
    "130752.810000",
    "130754.810000",
    "130756.810000",
    "130758.810000",
    "130800.810000",
    "130802.810000",
    "130804.810000",
    "130806.810000",
    "130808.810000",
    "130810.810000",
    "130812.810000",
    "130814.810000",
    "130816.810000",
    "130818.810000",
    "130820.810000",
    "130822.810000",
    "130824.810000",
    "130826.810000",
    "130828.810000",
    "130830.810000",
    "130832.810000",
    "130834.810000",
    "130836.810000",
    "130838.810000",
    "130840.810000",
    "130842.810000",
    "130844.810000",
    "130846.810000",
    "130848.810000",
    "130850.810000",
    "130852.810000",
    "130854.810000",
    "130856.810000",
    "130858.810000",
    "130900.810000",
    "130902.810000",
    "130904.810000",
    "130906.810000",
    "130908.810000",
    "130910.810000",
    "130912.810000",
    "130914.810000",
    "130916.810000",
    "130918.810000",
    "130920.810000",
    "130922.810000",
    "130924.810000",
    "130926.810000",
    "130928.810000",
    "130930.810000",
    "130932.810000",
    "130934.810000",
    "130936.810000",
    "130938.810000",
    "130940.810000",
    "130942.810000",
    "130944.810000",
    "130946.810000",
    "130948.810000",
    "130950.810000",
    "130952.810000",
    "130954.810000",
    "130956.810000",
    "130958.810000",
    "131000.810000",
    "131002.810000",
    "131004.810000",
    "131006.810000",
    "131008.810000",
    "131010.810000",
    "131012.810000",
    "131014.810000",
    "131016.810000",
    "131018.810000",
    "131020.810000",
    "131022.810000",
    "131024.810000",
    "131026.810000",
    "131028.810000",
    "131030.810000",
    "131032.810000",
    "131034.810000",
    "131036.810000",
    "131038.810000",
    "131040.810000",
    "131042.810000",
    "131044.810000",
    "131046.810000",
    "131048.810000",
    "131050.810000",
    "131052.810000",
    "131054.810000",
    "131056.810000",
    "131058.810000",
    "131100.810000",
    "131102.810000",
    "131104.810000",
    "131106.810000",
    "131108.810000",
    "131110.810000",
    "131112.810000",
    "131114.810000",
    "131116.810000",
    "131118.810000",
    "131120.810000",
    "131122.810000",
    "131124.810000",
    "131126.810000",
    "131128.810000",
    "131130.810000",
    "131132.810000",
    "131134.810000",
    "131136.810000",
    "131138.810000",
    "131140.810000",
    "131142.810000",
    "131144.810000",
    "131146.810000",
    "131148.810000",
    "131150.810000",
    "131152.810000",
    "131154.810000",
    "131156.810000",
    "131158.810000",
    "131200.810000",
    "131202.810000",
    "131204.810000",
    "131206.810000",
    "131208.810000",
    "131210.810000",
    "131212.810000",
    "131214.810000",
    "131216.810000",
    "131218.810000",
    "131220.810000",
    "131222.810000",
    "131224.810000",
    "131226.810000",
    "131228.810000",
    "131230.810000",
    "131232.810000",
    "131234.810000",
    "131236.810000",
    "131238.810000"
   ],
   "ContentTime": [
    "130411.794000",
    "130413.290000",
    "130415.289000",
    "130417.289000",
    "130419.288000",
    "130421.289000",
    "130423.289000",
    "130425.290000",
    "130427.290000",
    "130429.290000",
    "130431.290000",
    "130433.290000",
    "130435.288000",
    "130437.288000",
    "130439.288000",
    "130441.288000",
    "130443.290000",
    "130445.290000",
    "130447.289000",
    "130449.290000",
    "130451.289000",
    "130453.289000",
    "130455.289000",
    "130457.288000",
    "130459.290000",
    "130501.290000",
    "130503.290000",
    "130505.289000",
    "130507.289000",
    "130509.288000",
    "130511.288000",
    "130513.288000",
    "130515.289000",
    "130517.290000",
    "130519.289000",
    "130521.290000",
    "130523.289000",
    "130525.290000",
    "130527.289000",
    "130529.289000",
    "130531.288000",
    "130533.288000",
    "130535.289000",
    "130537.290000",
    "130539.289000",
    "130541.289000",
    "130543.289000",
    "130545.288000",
    "130547.288000",
    "130549.288000",
    "130551.289000",
    "130553.289000",
    "130555.289000",
    "130557.289000",
    "130559.290000",
    "130601.290000",
    "130603.289000",
    "130605.288000",
    "130607.288000",
    "130609.289000",
    "130611.289000",
    "130613.289000",
    "130615.289000",
    "130617.289000",
    "130619.289000",
    "130621.289000",
    "130623.288000",
    "130625.288000",
    "130627.290000",
    "130629.290000",
    "130631.290000",
    "130633.289000",
    "130635.290000",
    "130637.289000",
    "130639.289000",
    "130641.288000",
    "130643.288000",
    "130645.290000",
    "130647.289000",
    "130649.289000",
    "130651.289000",
    "130653.289000",
    "130655.288000",
    "130657.288000",
    "130659.288000",
    "130701.288000",
    "130703.289000",
    "130705.290000",
    "130707.290000",
    "130709.290000",
    "130711.290000",
    "130713.288000",
    "130715.289000",
    "130717.288000",
    "130719.289000",
    "130721.290000",
    "130723.290000",
    "130725.290000",
    "130727.290000",
    "130729.288000",
    "130731.289000",
    "130733.289000",
    "130735.289000",
    "130737.290000",
    "130739.289000",
    "130741.289000",
    "130743.289000",
    "130745.289000",
    "130747.289000",
    "130749.289000",
    "130751.289000",
    "130753.289000",
    "130755.289000",
    "130757.290000",
    "130759.289000",
    "130801.289000",
    "130803.289000",
    "130805.289000",
    "130807.289000",
    "130809.289000",
    "130811.289000",
    "130813.290000",
    "130815.290000",
    "130817.290000",
    "130819.290000",
    "130821.290000",
    "130823.289000",
    "130825.290000",
    "130827.288000",
    "130829.290000",
    "130831.290000",
    "130833.290000",
    "130835.289000",
    "130837.290000",
    "130839.289000",
    "130841.289000",
    "130843.289000",
    "130845.289000",
    "130847.290000",
    "130849.290000",
    "130851.289000",
    "130853.290000",
    "130855.290000",
    "130857.289000",
    "130859.288000",
    "130901.289000",
    "130903.289000",
    "130905.290000",
    "130907.289000",
    "130909.290000",
    "130911.289000",
    "130913.289000",
    "130915.289000",
    "130917.288000",
    "130919.288000",
    "130921.289000",
    "130923.289000",
    "130925.290000",
    "130927.289000",
    "130929.290000",
    "130931.290000",
    "130933.289000",
    "130935.289000",
    "130937.288000",
    "130939.289000",
    "130941.290000",
    "130943.289000",
    "130945.290000",
    "130947.290000",
    "130949.288000",
    "130951.289000",
    "130953.288000",
    "130955.289000",
    "130957.290000",
    "130959.290000",
    "131001.289000",
    "131003.289000",
    "131005.289000",
    "131007.289000",
    "131009.289000",
    "131011.289000",
    "131013.289000",
    "131015.289000",
    "131017.290000",
    "131019.290000",
    "131021.289000",
    "131023.289000",
    "131025.289000",
    "131027.289000",
    "131029.288000",
    "131031.289000",
    "131033.289000",
    "131035.290000",
    "131037.289000",
    "131039.289000",
    "131041.289000",
    "131043.289000",
    "131045.289000",
    "131047.302000",
    "131049.290000",
    "131051.290000",
    "131053.290000",
    "131055.289000",
    "131057.290000",
    "131059.288000",
    "131101.288000",
    "131103.288000",
    "131105.288000",
    "131107.290000",
    "131109.289000",
    "131111.289000",
    "131113.289000",
    "131115.290000",
    "131117.289000",
    "131119.289000",
    "131121.288000",
    "131123.288000",
    "131125.289000",
    "131127.290000",
    "131129.290000",
    "131131.290000",
    "131133.290000",
    "131135.289000",
    "131137.288000",
    "131139.289000",
    "131141.290000",
    "131143.290000",
    "131145.290000",
    "131147.289000",
    "131149.290000",
    "131151.288000",
    "131153.288000",
    "131155.289000",
    "131157.289000",
    "131159.290000",
    "131201.290000",
    "131203.290000",
    "131205.290000",
    "131207.290000",
    "131209.289000",
    "131211.288000",
    "131213.289000",
    "131215.289000",
    "131217.290000",
    "131219.290000",
    "131221.289000",
    "131223.290000",
    "131225.290000",
    "131227.289000",
    "131229.289000",
    "131231.289000",
    "131233.288000",
    "131235.290000",
    "131237.290000",
    "131239.290000",
    "131241.029000"
   ],
   "InstanceCreationTime": [
    "130411.794000",
    "130413.290000",
    "130415.289000",
    "130417.289000",
    "130419.288000",
    "130421.289000",
    "130423.289000",
    "130425.290000",
    "130427.290000",
    "130429.290000",
    "130431.290000",
    "130433.290000",
    "130435.288000",
    "130437.288000",
    "130439.288000",
    "130441.288000",
    "130443.290000",
    "130445.290000",
    "130447.289000",
    "130449.290000",
    "130451.289000",
    "130453.289000",
    "130455.289000",
    "130457.288000",
    "130459.290000",
    "130501.290000",
    "130503.290000",
    "130505.289000",
    "130507.289000",
    "130509.288000",
    "130511.288000",
    "130513.288000",
    "130515.289000",
    "130517.290000",
    "130519.289000",
    "130521.290000",
    "130523.289000",
    "130525.290000",
    "130527.289000",
    "130529.289000",
    "130531.288000",
    "130533.288000",
    "130535.289000",
    "130537.290000",
    "130539.289000",
    "130541.289000",
    "130543.289000",
    "130545.288000",
    "130547.288000",
    "130549.288000",
    "130551.289000",
    "130553.289000",
    "130555.289000",
    "130557.289000",
    "130559.290000",
    "130601.290000",
    "130603.289000",
    "130605.288000",
    "130607.288000",
    "130609.289000",
    "130611.289000",
    "130613.289000",
    "130615.289000",
    "130617.289000",
    "130619.289000",
    "130621.289000",
    "130623.288000",
    "130625.288000",
    "130627.290000",
    "130629.290000",
    "130631.290000",
    "130633.289000",
    "130635.290000",
    "130637.289000",
    "130639.289000",
    "130641.288000",
    "130643.288000",
    "130645.290000",
    "130647.289000",
    "130649.289000",
    "130651.289000",
    "130653.289000",
    "130655.288000",
    "130657.288000",
    "130659.288000",
    "130701.288000",
    "130703.289000",
    "130705.290000",
    "130707.290000",
    "130709.290000",
    "130711.290000",
    "130713.288000",
    "130715.289000",
    "130717.288000",
    "130719.289000",
    "130721.290000",
    "130723.290000",
    "130725.290000",
    "130727.290000",
    "130729.288000",
    "130731.289000",
    "130733.289000",
    "130735.289000",
    "130737.290000",
    "130739.289000",
    "130741.289000",
    "130743.289000",
    "130745.289000",
    "130747.289000",
    "130749.289000",
    "130751.289000",
    "130753.289000",
    "130755.289000",
    "130757.290000",
    "130759.289000",
    "130801.289000",
    "130803.289000",
    "130805.289000",
    "130807.289000",
    "130809.289000",
    "130811.289000",
    "130813.290000",
    "130815.290000",
    "130817.290000",
    "130819.290000",
    "130821.290000",
    "130823.289000",
    "130825.290000",
    "130827.288000",
    "130829.290000",
    "130831.290000",
    "130833.290000",
    "130835.289000",
    "130837.290000",
    "130839.289000",
    "130841.289000",
    "130843.289000",
    "130845.289000",
    "130847.290000",
    "130849.290000",
    "130851.289000",
    "130853.290000",
    "130855.290000",
    "130857.289000",
    "130859.288000",
    "130901.289000",
    "130903.289000",
    "130905.290000",
    "130907.289000",
    "130909.290000",
    "130911.289000",
    "130913.289000",
    "130915.289000",
    "130917.288000",
    "130919.288000",
    "130921.289000",
    "130923.289000",
    "130925.290000",
    "130927.289000",
    "130929.290000",
    "130931.290000",
    "130933.289000",
    "130935.289000",
    "130937.288000",
    "130939.289000",
    "130941.290000",
    "130943.289000",
    "130945.290000",
    "130947.290000",
    "130949.288000",
    "130951.289000",
    "130953.288000",
    "130955.289000",
    "130957.290000",
    "130959.290000",
    "131001.289000",
    "131003.289000",
    "131005.289000",
    "131007.289000",
    "131009.289000",
    "131011.289000",
    "131013.289000",
    "131015.289000",
    "131017.290000",
    "131019.290000",
    "131021.289000",
    "131023.289000",
    "131025.289000",
    "131027.289000",
    "131029.288000",
    "131031.289000",
    "131033.289000",
    "131035.290000",
    "131037.289000",
    "131039.289000",
    "131041.289000",
    "131043.289000",
    "131045.289000",
    "131047.302000",
    "131049.290000",
    "131051.290000",
    "131053.290000",
    "131055.289000",
    "131057.290000",
    "131059.288000",
    "131101.288000",
    "131103.288000",
    "131105.288000",
    "131107.290000",
    "131109.289000",
    "131111.289000",
    "131113.289000",
    "131115.290000",
    "131117.289000",
    "131119.289000",
    "131121.288000",
    "131123.288000",
    "131125.289000",
    "131127.290000",
    "131129.290000",
    "131131.290000",
    "131133.290000",
    "131135.289000",
    "131137.288000",
    "131139.289000",
    "131141.290000",
    "131143.290000",
    "131145.290000",
    "131147.289000",
    "131149.290000",
    "131151.288000",
    "131153.288000",
    "131155.289000",
    "131157.289000",
    "131159.290000",
    "131201.290000",
    "131203.290000",
    "131205.290000",
    "131207.290000",
    "131209.289000",
    "131211.288000",
    "131213.289000",
    "131215.289000",
    "131217.290000",
    "131219.290000",
    "131221.289000",
    "131223.290000",
    "131225.290000",
    "131227.289000",
    "131229.289000",
    "131231.289000",
    "131233.288000",
    "131235.290000",
    "131237.290000",
    "131239.290000",
    "131241.029000"
   ],
   "InstanceNumber": [
    1,
    2,
    3,
    4,
    5,
    6,
    7,
    8,
    9,
    10,
    11,
    12,
    13,
    14,
    15,
    16,
    17,
    18,
    19,
    20,
    21,
    22,
    23,
    24,
    25,
    26,
    27,
    28,
    29,
    30,
    31,
    32,
    33,
    34,
    35,
    36,
    37,
    38,
    39,
    40,
    41,
    42,
    43,
    44,
    45,
    46,
    47,
    48,
    49,
    50,
    51,
    52,
    53,
    54,
    55,
    56,
    57,
    58,
    59,
    60,
    61,
    62,
    63,
    64,
    65,
    66,
    67,
    68,
    69,
    70,
    71,
    72,
    73,
    74,
    75,
    76,
    77,
    78,
    79,
    80,
    81,
    82,
    83,
    84,
    85,
    86,
    87,
    88,
    89,
    90,
    91,
    92,
    93,
    94,
    95,
    96,
    97,
    98,
    99,
    100,
    101,
    102,
    103,
    104,
    105,
    106,
    107,
    108,
    109,
    110,
    111,
    112,
    113,
    114,
    115,
    116,
    117,
    118,
    119,
    120,
    121,
    122,
    123,
    124,
    125,
    126,
    127,
    128,
    129,
    130,
    131,
    132,
    133,
    134,
    135,
    136,
    137,
    138,
    139,
    140,
    141,
    142,
    143,
    144,
    145,
    146,
    147,
    148,
    149,
    150,
    151,
    152,
    153,
    154,
    155,
    156,
    157,
    158,
    159,
    160,
    161,
    162,
    163,
    164,
    165,
    166,
    167,
    168,
    169,
    170,
    171,
    172,
    173,
    174,
    175,
    176,
    177,
    178,
    179,
    180,
    181,
    182,
    183,
    184,
    185,
    186,
    187,
    188,
    189,
    190,
    191,
    192,
    193,
    194,
    195,
    196,
    197,
    198,
    199,
    200,
    201,
    202,
    203,
    204,
    205,
    206,
    207,
    208,
    209,
    210,
    211,
    212,
    213,
    214,
    215,
    216,
    217,
    218,
    219,
    220,
    221,
    222,
    223,
    224,
    225,
    226,
    227,
    228,
    229,
    230,
    231,
    232,
    233,
    234,
    235,
    236,
    237,
    238,
    239,
    240,
    241,
    242,
    243,
    244,
    245,
    246,
    247,
    248,
    249,
    250,
    251,
    252,
    253,
    254,
    255,
    256
   ],
   "WindowCenter": [
    883.0,
    880.0,
    879.0,
    878.0,
    877.0,
    878.0,
    878.0,
    879.0,
    878.0,
    877.0,
    877.0,
    876.0,
    876.0,
    877.0,
    878.0,
    877.0,
    876.0,
    875.0,
    875.0,
    875.0,
    875.0,
    874.0,
    874.0,
    874.0,
    874.0,
    876.0,
    877.0,
    878.0,
    877.0,
    876.0,
    877.0,
    877.0,
    877.0,
    876.0,
    876.0,
    875.0,
    875.0,
    875.0,
    875.0,
    874.0,
    874.0,
    876.0,
    876.0,
    877.0,
    876.0,
    875.0,
    875.0,
    875.0,
    875.0,
    876.0,
    875.0,
    876.0,
    875.0,
    873.0,
    872.0,
    872.0,
    872.0,
    872.0,
    873.0,
    873.0,
    874.0,
    875.0,
    875.0,
    875.0,
    876.0,
    876.0,
    877.0,
    877.0,
    877.0,
    875.0,
    875.0,
    876.0,
    876.0,
    877.0,
    877.0,
    877.0,
    877.0,
    877.0,
    877.0,
    875.0,
    877.0,
    876.0,
    876.0,
    876.0,
    875.0,
    872.0,
    871.0,
    871.0,
    873.0,
    874.0,
    875.0,
    875.0,
    875.0,
    874.0,
    875.0,
    875.0,
    875.0,
    875.0,
    876.0,
    878.0,
    879.0,
    877.0,
    877.0,
    876.0,
    875.0,
    876.0,
    877.0,
    877.0,
    877.0,
    876.0,
    876.0,
    875.0,
    875.0,
    875.0,
    876.0,
    876.0,
    877.0,
    876.0,
    875.0,
    875.0,
    874.0,
    875.0,
    876.0,
    875.0,
    874.0,
    875.0,
    875.0,
    874.0,
    874.0,
    871.0,
    869.0,
    868.0,
    870.0,
    870.0,
    872.0,
    873.0,
    874.0,
    875.0,
    876.0,
    876.0,
    876.0,
    876.0,
    876.0,
    876.0,
    876.0,
    877.0,
    877.0,
    876.0,
    876.0,
    876.0,
    876.0,
    875.0,
    876.0,
    875.0,
    877.0,
    876.0,
    876.0,
    876.0,
    876.0,
    876.0,
    875.0,
    875.0,
    875.0,
    876.0,
    879.0,
    878.0,
    876.0,
    876.0,
    875.0,
    876.0,
    877.0,
    878.0,
    878.0,
    877.0,
    876.0,
    876.0,
    876.0,
    876.0,
    876.0,
    877.0,
    877.0,
    877.0,
    877.0,
    876.0,
    876.0,
    877.0,
    878.0,
    877.0,
    876.0,
    876.0,
    876.0,
    877.0,
    876.0,
    873.0,
    874.0,
    873.0,
    873.0,
    872.0,
    872.0,
    870.0,
    868.0,
    868.0,
    868.0,
    869.0,
    871.0,
    872.0,
    874.0,
    874.0,
    875.0,
    875.0,
    875.0,
    875.0,
    876.0,
    876.0,
    877.0,
    875.0,
    875.0,
    876.0,
    876.0,
    876.0,
    877.0,
    877.0,
    876.0,
    876.0,
    875.0,
    873.0,
    874.0,
    874.0,
    874.0,
    874.0,
    873.0,
    873.0,
    874.0,
    874.0,
    875.0,
    876.0,
    876.0,
    876.0,
    876.0,
    877.0,
    876.0,
    877.0,
    879.0,
    878.0,
    878.0,
    877.0,
    876.0,
    874.0,
    873.0,
    874.0,
    874.0,
    875.0,
    875.0,
    875.0,
    875.0,
    875.0
   ],
   "WindowWidth": [
    1948.0,
    1939.0,
    1935.0,
    1933.0,
    1932.0,
    1933.0,
    1933.0,
    1935.0,
    1935.0,
    1932.0,
    1931.0,
    1929.0,
    1929.0,
    1930.0,
    1933.0,
    1933.0,
    1930.0,
    1926.0,
    1925.0,
    1925.0,
    1925.0,
    1922.0,
    1923.0,
    1921.0,
    1924.0,
    1927.0,
    1930.0,
    1932.0,
    1930.0,
    1929.0,
    1931.0,
    1930.0,
    1931.0,
    1928.0,
    1927.0,
    1924.0,
    1925.0,
    1924.0,
    1925.0,
    1923.0,
    1923.0,
    1928.0,
    1929.0,
    1930.0,
    1927.0,
    1925.0,
    1925.0,
    1924.0,
    1925.0,
    1926.0,
    1926.0,
    1926.0,
    1925.0,
    1918.0,
    1916.0,
    1915.0,
    1916.0,
    1916.0,
    1919.0,
    1918.0,
    1923.0,
    1923.0,
    1924.0,
    1923.0,
    1926.0,
    1929.0,
    1931.0,
    1931.0,
    1929.0,
    1926.0,
    1926.0,
    1928.0,
    1929.0,
    1930.0,
    1931.0,
    1930.0,
    1930.0,
    1930.0,
