{
  "AcquisitionMatrixPE": 100,
  "AcquisitionNumber": 1,
  "AcquisitionTime": "14:59:54.435000",
  "BandwidthPerPixelPhaseEncode": 18.519,
  "BaseResolution": 100,
  "BodyPartExamined": "BRAIN",
  "ConsistencyInfo": "N4_VE11C_LATEST_20160120",
  "ConversionSoftware": "dcm2niix",
  "ConversionSoftwareVersion": "v1.0.20180622 GCC4.9.2",
  "DerivedVendorReportedEchoSpacing": 0.000539986,
  "DeviceSerialNumber": "166078",
  "DwellTime": 2.1e-06,
  "EchoTime": 0.034,
  "EchoTrainLength": 100,
  "EffectiveEchoSpacing": 0.000539986,
  "FlipAngle": 90,
  "ImageOrientationPatientDICOM": [1, 0, 0, 0, 0.999781, -0.0209424],
  "ImageType": [
    "ORIGINAL",
    "PRIMARY",
    "M",
    "ND",
    "MOSAIC"
],
  "InPlanePhaseEncodingDirectionDICOM": "COL",
  "InstitutionAddress": "Street_StreetNo_Bei_Jing_District_CN_ZIP",
  "InstitutionName": "BeiJing_Normal_University",
  "InstitutionalDepartmentName": "Department",
  "MRAcquisitionType": "2D",
  "MagneticFieldStrength": 3,
  "Manufacturer": "Siemens",
  "ManufacturersModelName": "Prisma",
  "Modality": "MR",
  "MultibandAccelerationFactor": 3,
  "PartialFourier": 1,
  "PatientPosition": "HFS",
  "PercentPhaseFOV": 100,
  "PhaseEncodingDirection": "j-",
  "PhaseEncodingSteps": 100,
  "PhaseResolution": 1,
  "PixelBandwidth": 2380,
  "ProcedureStepDescription": "BNU_P2018_64CH_Zhen.ZongLei",
  "ProtocolName": "bold_100x100_s3_2x2x2_static_test_241",
  "PulseSequenceDetails": "%SiemensSeq%_ep2d_bold",
  "ReceiveCoilActiveElements": "HC1-7;NC1",
  "ReceiveCoilName": "HeadNeck_64",
  "ReconMatrixPE": 100,
  "RepetitionTime": 2,
  "SAR": 0.0770821,
  "ScanOptions": "FS",
  "ScanningSequence": "EP",
  "SequenceName": "_epfid2d1_100",
  "SequenceVariant": "SK",
  "SeriesDescription": "bold_100x100_s3_2x2x2_static_test_241",
  "SeriesNumber": 4,
  "ShimSetting": [-5450, -11528, -1197, 543, 14, -244, 22, 63],
  "SliceThickness": 2,
  "SliceTiming": [1.4825, 0, 0.9875, 0.0825, 1.07, 0.165, 1.1525, 0.2475, 1.235, 0.33, 1.3175, 0.4125, 1.4, 0.5775, 1.565, 0.66, 1.6475, 0.7425, 1.73, 0.825, 1.8125, 0.905, 1.895, 0.495, 1.4825, 0, 0.9875, 0.0825, 1.07, 0.165, 1.1525, 0.2475, 1.235, 0.33, 1.3175, 0.4125, 1.4, 0.5775, 1.565, 0.66, 1.6475, 0.7425, 1.73, 0.825, 1.8125, 0.905, 1.895, 0.495, 1.4825, 0, 0.9875, 0.0825, 1.07, 0.165, 1.1525, 0.2475, 1.235, 0.33, 1.3175, 0.4125, 1.4, 0.5775, 1.565, 0.66, 1.6475, 0.7425, 1.73, 0.825, 1.8125, 0.905, 1.895, 0.495],
  "SoftwareVersions": "syngo_MR_E11",
  "SpacingBetweenSlices": 2,
  "StationName": "AWP166078",
  "TaskName": "naturalvision2",
  "TotalReadoutTime": 0.0534586,
  "TxRefAmp": 209.645,
  "dcmmeta_affine": [
    [-2.0, 0.0, 0.0, 100.67469787597656],
    [0.0, 1.9995613098144531, -0.04188483953475952, -82.38557434082031],
    [0.0, 0.04188483953475952, 1.9995613098144531, -38.7428092956543],
    [0.0, 0.0, 0.0, 1.0]
],
  "dcmmeta_reorient_transform": [
    [0.0, -1.0, 0.0, 99.0],
    [1.0, 0.0, 0.0, 0.0],
    [0.0, 0.0, 1.0, 0.0],
    [0.0, 0.0, 0.0, 1.0]
],
  "dcmmeta_shape": [100, 100, 72, 241],
  "dcmmeta_slice_dim": 2,
  "dcmmeta_version": 0.6,
  "global": {
    "const": {
      "AcquisitionMatrix": [100, 0, 0, 100],
      "AngioFlag": "N",
      "BitsAllocated": 16,
      "BitsStored": 12,
      "BodyPartExamined": "BRAIN",
      "Columns": 900,
      "EchoNumbers": 1,
      "EchoTime": 34.0,
      "EchoTrainLength": 100,
      "FlipAngle": 90.0,
      "HighBit": 11,
      "ImageOrientationPatient": [1.0, 0.0, 0.0, 0.0, 0.9997806834792, -0.0209424196753],
      "ImagePositionPatient": [-900.67469877005, -915.39555069341, -17.842274867905],
      "ImageType": [
        "ORIGINAL",
        "PRIMARY",
        "M",
        "ND",
        "MOSAIC"
],
      "ImagedNucleus": "1H",
      "ImagingFrequency": 123.257719,
      "InPlanePhaseEncodingDirection": "COL",
      "MRAcquisitionType": "2D",
      "MagneticFieldStrength": 3.0,
      "Manufacturer": "SIEMENS",
      "ManufacturerModelName": "Prisma",
      "Modality": "MR",
      "NumberOfAverages": 1.0,
      "NumberOfPhaseEncodingSteps": 100,
      "PercentPhaseFieldOfView": 100.0,
      "PercentSampling": 100.0,
      "PerformedProcedureStepStartTime": "144707.790000",
      "PhotometricInterpretation": "MONOCHROME2",
      "PixelBandwidth": 2380.0,
      "PixelRepresentation": 0,
      "PixelSpacing": [2.0, 2.0],
      "ProtocolName": "bold_100x100_s3_2x2x2_static_test_241",
      "RepetitionTime": 2000.0,
      "Rows": 900,
      "SAR": 0.07708213713902,
      "SamplesPerPixel": 1,
      "ScanOptions": "FS",
      "ScanningSequence": "EP",
      "SequenceName": "*epfid2d1_100",
      "SequenceVariant": "SK",
      "SeriesDescription": "bold_100x100_s3_2x2x2_static_test_241",
      "SeriesNumber": 4,
      "SeriesTime": "145957.340000",
      "SliceLocation": -37.00895955379,
      "SliceThickness": 2.0,
      "SmallestImagePixelValue": 0,
      "SoftwareVersions": "syngo MR E11",
      "SpacingBetweenSlices": 1.9999999965712,
      "SpecificCharacterSet": "ISO_IR 100",
      "StudyID": "1",
      "StudyTime": "144707.690000",
      "TransmitCoilName": "Body",
      "VariableFlipAngleFlag": "N",
      "WindowCenterWidthExplanation": "Algo1",
      "dBdt": 0.0},
    "slices": {}
  },
  "time": {
    "samples": {
      "AcquisitionNumber": [1, 2, 3, 4, 5, 6, 7, 8, 9, 10, 11, 12, 13, 14, 15, 16, 17, 18, 19, 20, 21, 22, 23, 24, 25, 26, 27, 28, 29, 30, 31, 32, 33, 34, 35, 36, 37, 38, 39, 40, 41, 42, 43, 44, 45, 46, 47, 48, 49, 50, 51, 52, 53, 54, 55, 56, 57, 58, 59, 60, 61, 62, 63, 64, 65, 66, 67, 68, 69, 70, 71, 72, 73, 74, 75, 76, 77, 78, 79, 80, 81, 82, 83, 84, 85, 86, 87, 88, 89, 90, 91, 92, 93, 94, 95, 96, 97, 98, 99, 100, 101, 102, 103, 104, 105, 106, 107, 108, 109, 110, 111, 112, 113, 114, 115, 116, 117, 118, 119, 120, 121, 122, 123, 124, 125, 126, 127, 128, 129, 130, 131, 132, 133, 134, 135, 136, 137, 138, 139, 140, 141, 142, 143, 144, 145, 146, 147, 148, 149, 150, 151, 152, 153, 154, 155, 156, 157, 158, 159, 160, 161, 162, 163, 164, 165, 166, 167, 168, 169, 170, 171, 172, 173, 174, 175, 176, 177, 178, 179, 180, 181, 182, 183, 184, 185, 186, 187, 188, 189, 190, 191, 192, 193, 194, 195, 196, 197, 198, 199, 200, 201, 202, 203, 204, 205, 206, 207, 208, 209, 210, 211, 212, 213, 214, 215, 216, 217, 218, 219, 220, 221, 222, 223, 224, 225, 226, 227, 228, 229, 230, 231, 232, 233, 234, 235, 236, 237, 238, 239, 240, 241],
      "AcquisitionTime": ["145954.435000", "145956.435000", "145958.435000", "150000.435000", "150002.435000", "150004.435000", "150006.435000", "150008.435000", "150010.435000", "150012.435000", "150014.435000", "150016.435000", "150018.435000", "150020.435000", "150022.435000", "150024.435000", "150026.435000", "150028.435000", "150030.435000", "150032.435000", "150034.435000", "150036.435000", "150038.435000", "150040.435000", "150042.435000", "150044.435000", "150046.435000", "150048.435000", "150050.435000", "150052.435000", "150054.435000", "150056.435000", "150058.435000", "150100.435000", "150102.435000", "150104.435000", "150106.435000", "150108.435000", "150110.435000", "150112.435000", "150114.435000", "150116.435000", "150118.435000", "150120.435000", "150122.435000", "150124.435000", "150126.435000", "150128.435000", "150130.435000", "150132.435000", "150134.435000", "150136.435000", "150138.435000", "150140.435000", "150142.435000", "150144.435000", "150146.435000", "150148.435000", "150150.435000", "150152.435000", "150154.435000", "150156.435000", "150158.435000", "150200.435000", "150202.435000", "150204.435000", "150206.435000", "150208.435000", "150210.435000", "150212.435000", "150214.435000", "150216.435000", "150218.435000", "150220.435000", "150222.435000", "150224.435000", "150226.435000", "150228.435000", "150230.435000", "150232.435000", "150234.435000", "150236.435000", "150238.435000", "150240.435000", "150242.435000", "150244.435000", "150246.435000", "150248.435000", "150250.435000", "150252.435000", "150254.435000", "150256.435000", "150258.435000", "150300.435000", "150302.435000", "150304.435000", "150306.435000", "150308.435000", "150310.435000", "150312.435000", "150314.435000", "150316.435000", "150318.435000", "150320.435000", "150322.435000", "150324.435000", "150326.435000", "150328.435000", "150330.435000", "150332.435000", "150334.435000", "150336.435000", "150338.435000", "150340.435000", "150342.435000", "150344.435000", "150346.435000", "150348.435000", "150350.435000", "150352.435000", "150354.435000", "150356.435000", "150358.435000", "150400.435000", "150402.435000", "150404.435000", "150406.435000", "150408.435000", "150410.435000", "150412.435000", "150414.435000", "150416.435000", "150418.435000", "150420.435000", "150422.435000", "150424.435000", "150426.435000", "150428.435000", "150430.435000", "150432.435000", "150434.435000", "150436.435000", "150438.435000", "150440.435000", "150442.435000", "150444.435000", "150446.435000", "150448.435000", "150450.435000", "150452.435000", "150454.435000", "150456.435000", "150458.435000", "150500.435000", "150502.435000", "150504.435000", "150506.435000", "150508.435000", "150510.435000", "150512.435000", "150514.435000", "150516.435000", "150518.435000", "150520.435000", "150522.435000", "150524.435000", "150526.435000", "150528.435000", "150530.435000", "150532.435000", "150534.435000", "150536.435000", "150538.435000", "150540.435000", "150542.435000", "150544.435000", "150546.435000", "150548.435000", "150550.435000", "150552.435000", "150554.435000", "150556.435000", "150558.435000", "150600.435000", "150602.435000", "150604.435000", "150606.435000", "150608.435000", "150610.435000", "150612.435000", "150614.435000", "150616.435000", "150618.435000", "150620.435000", "150622.435000", "150624.435000", "150626.435000", "150628.435000", "150630.435000", "150632.435000", "150634.435000", "150636.435000", "150638.435000", "150640.435000", "150642.435000", "150644.435000", "150646.435000", "150648.435000", "150650.435000", "150652.435000", "150654.435000", "150656.435000", "150658.435000", "150700.435000", "150702.435000", "150704.435000", "150706.435000", "150708.435000", "150710.435000", "150712.435000", "150714.435000", "150716.435000", "150718.435000", "150720.435000", "150722.435000", "150724.435000", "150726.435000", "150728.435000", "150730.435000", "150732.435000", "150734.435000", "150736.435000", "150738.435000", "150740.435000", "150742.435000", "150744.435000", "150746.435000", "150748.435000", "150750.435000", "150752.435000", "150754.435000"],
      "ContentTime": ["145957.343000", "145958.839000", "150000.338000", "150002.338000", "150004.339000", "150006.338000", "150008.339000", "150010.338000", "150012.338000", "150014.338000", "150016.340000", "150018.338000", "150020.338000", "150022.338000", "150024.339000", "150026.339000", "150028.338000", "150030.338000", "150032.338000", "150034.838000", "150036.338000", "150038.338000", "150040.338000", "150042.338000", "150044.338000", "150046.339000", "150048.338000", "150050.339000", "150052.839000", "150054.339000", "150056.339000", "150058.338000", "150100.339000", "150102.338000", "150104.340000", "150106.339000", "150108.338000", "150110.338000", "150112.338000", "150114.338000", "150116.338000", "150118.839000", "150120.338000", "150122.338000", "150124.339000", "150126.839000", "150128.339000", "150130.839000", "150132.338000", "150134.839000", "150136.338000", "150138.338000", "150140.338000", "150142.338000", "150144.339000", "150146.839000", "150148.838000", "150150.338000", "150152.338000", "150154.338000", "150156.338000", "150158.338000", "150200.338000", "150202.338000", "150204.838000", "150206.338000", "150208.339000", "150210.339000", "150212.839000", "150214.339000", "150216.338000", "150218.339000", "150220.838000", "150222.339000", "150224.838000", "150226.338000", "150228.338000", "150230.839000", "150232.339000", "150234.339000", "150236.338000", "150238.338000", "150240.338000", "150242.339000", "150244.339000", "150246.338000", "150248.338000", "150250.338000", "150252.339000", "150254.338000", "150256.338000", "150258.338000", "150300.839000", "150302.339000", "150304.338000", "150306.338000", "150308.838000", "150310.339000", "150312.338000", "150314.339000", "150316.338000", "150318.338000", "150320.339000", "150322.339000", "150324.340000", "150326.838000", "150328.338000", "150330.339000", "150332.338000", "150334.338000", "150336.338000", "150338.339000", "150340.339000", "150342.338000", "150344.339000", "150346.338000", "150348.338000", "150350.339000", "150352.339000", "150354.339000", "150356.338000", "150358.339000", "150400.339000", "150402.339000", "150404.339000", "150406.339000", "150408.338000", "150410.339000", "150412.339000", "150414.339000", "150416.339000", "150418.338000", "150420.338000", "150422.838000", "150424.338000", "150426.839000", "150428.339000", "150430.839000", "150432.338000", "150434.340000", "150436.338000", "150438.838000", "150440.339000", "150442.338000", "150444.338000", "150446.338000", "150448.338000", "150450.338000", "150452.338000", "150454.338000", "150456.339000", "150458.339000", "150500.339000", "150502.338000", "150504.338000", "150506.338000", "150508.339000", "150510.339000", "150512.339000", "150514.338000", "150516.338000", "150518.338000", "150520.339000", "150522.338000", "150524.339000", "150526.840000", "150528.339000", "150530.838000", "150532.339000", "150534.339000", "150536.339000", "150538.338000", "150540.839000", "150542.339000", "150544.339000", "150546.338000", "150548.339000", "150550.339000", "150552.338000", "150554.339000", "150556.339000", "150558.338000", "150600.339000", "150602.338000", "150604.339000", "150606.338000", "150608.339000", "150610.339000", "150612.339000", "150614.339000", "150616.338000", "150618.339000", "150620.339000", "150622.338000", "150624.339000", "150626.338000", "150628.339000", "150630.339000", "150632.838000", "150634.338000", "150636.339000", "150638.339000", "150640.839000", "150642.839000", "150644.338000", "150646.339000", "150648.839000", "150650.339000", "150652.339000", "150654.339000", "150656.338000", "150658.338000", "150700.339000", "150702.339000", "150704.338000", "150706.339000", "150708.338000", "150710.339000", "150712.839000", "150714.339000", "150716.338000", "150718.339000", "150720.338000", "150722.338000", "150724.338000", "150726.339000", "150728.339000", "150730.338000", "150732.338000", "150734.839000", "150736.338000", "150738.339000", "150740.339000", "150742.339000", "150744.338000", "150746.338000", "150748.339000", "150750.338000", "150752.338000", "150754.339000", "150756.264000"],
      "InstanceCreationTime": ["145957.343000", "145958.839000", "150000.338000", "150002.338000", "150004.339000", "150006.338000", "150008.339000", "150010.338000", "150012.338000", "150014.338000", "150016.340000", "150018.338000", "150020.338000", "150022.338000", "150024.339000", "150026.339000", "150028.338000", "150030.338000", "150032.338000", "150034.838000", "150036.338000", "150038.338000", "150040.338000", "150042.338000", "150044.338000", "150046.339000", "150048.338000", "150050.339000", "150052.839000", "150054.339000", "150056.339000", "150058.338000", "150100.339000", "150102.338000", "150104.340000", "150106.339000", "150108.338000", "150110.338000", "150112.338000", "150114.338000", "150116.338000", "150118.839000", "150120.338000", "150122.338000", "150124.339000", "150126.839000", "150128.339000", "150130.839000", "150132.338000", "150134.839000", "150136.338000", "150138.338000", "150140.338000", "150142.338000", "150144.339000", "150146.839000", "150148.838000", "150150.338000", "150152.338000", "150154.338000", "150156.338000", "150158.338000", "150200.338000", "150202.338000", "150204.838000", "150206.338000", "150208.339000", "150210.339000", "150212.839000", "150214.339000", "150216.338000", "150218.339000", "150220.838000", "150222.339000", "150224.838000", "150226.338000", "150228.338000", "150230.839000", "150232.339000", "150234.339000", "150236.338000", "150238.338000", "150240.338000", "150242.339000", "150244.339000", "150246.338000", "150248.338000", "150250.338000", "150252.339000", "150254.338000", "150256.338000", "150258.338000", "150300.839000", "150302.339000", "150304.338000", "150306.338000", "150308.838000", "150310.339000", "150312.338000", "150314.339000", "150316.338000", "150318.338000", "150320.339000", "150322.339000", "150324.340000", "150326.838000", "150328.338000", "150330.339000", "150332.338000", "150334.338000", "150336.338000", "150338.339000", "150340.339000", "150342.338000", "150344.339000", "150346.338000", "150348.338000", "150350.339000", "150352.339000", "150354.339000", "150356.338000", "150358.339000", "150400.339000", "150402.339000", "150404.339000", "150406.339000", "150408.338000", "150410.339000", "150412.339000", "150414.339000", "150416.339000", "150418.338000", "150420.338000", "150422.838000", "150424.338000", "150426.839000", "150428.339000", "150430.839000", "150432.338000", "150434.340000", "150436.338000", "150438.838000", "150440.339000", "150442.338000", "150444.338000", "150446.338000", "150448.338000", "150450.338000", "150452.338000", "150454.338000", "150456.339000", "150458.339000", "150500.339000", "150502.338000", "150504.338000", "150506.338000", "150508.339000", "150510.339000", "150512.339000", "150514.338000", "150516.338000", "150518.338000", "150520.339000", "150522.338000", "150524.339000", "150526.840000", "150528.339000", "150530.838000", "150532.339000", "150534.339000", "150536.339000", "150538.338000", "150540.839000", "150542.339000", "150544.339000", "150546.338000", "150548.339000", "150550.339000", "150552.338000", "150554.339000", "150556.339000", "150558.338000", "150600.339000", "150602.338000", "150604.339000", "150606.338000", "150608.339000", "150610.339000", "150612.339000", "150614.339000", "150616.338000", "150618.339000", "150620.339000", "150622.338000", "150624.339000", "150626.338000", "150628.339000", "150630.339000", "150632.838000", "150634.338000", "150636.339000", "150638.339000", "150640.839000", "150642.839000", "150644.338000", "150646.339000", "150648.839000", "150650.339000", "150652.339000", "150654.339000", "150656.338000", "150658.338000", "150700.339000", "150702.339000", "150704.338000", "150706.339000", "150708.338000", "150710.339000", "150712.839000", "150714.339000", "150716.338000", "150718.339000", "150720.338000", "150722.338000", "150724.338000", "150726.339000", "150728.339000", "150730.338000", "150732.338000", "150734.839000", "150736.338000", "150738.339000", "150740.339000", "150742.339000", "150744.338000", "150746.338000", "150748.339000", "150750.338000", "150752.338000", "150754.339000", "150756.264000"],
      "InstanceNumber": [1, 2, 3, 4, 5, 6, 7, 8, 9, 10, 11, 12, 13, 14, 15, 16, 17, 18, 19, 20, 21, 22, 23, 24, 25, 26, 27, 28, 29, 30, 31, 32, 33, 34, 35, 36, 37, 38, 39, 40, 41, 42, 43, 44, 45, 46, 47, 48, 49, 50, 51, 52, 53, 54, 55, 56, 57, 58, 59, 60, 61, 62, 63, 64, 65, 66, 67, 68, 69, 70, 71, 72, 73, 74, 75, 76, 77, 78, 79, 80, 81, 82, 83, 84, 85, 86, 87, 88, 89, 90, 91, 92, 93, 94, 95, 96, 97, 98, 99, 100, 101, 102, 103, 104, 105, 106, 107, 108, 109, 110, 111, 112, 113, 114, 115, 116, 117, 118, 119, 120, 121, 122, 123, 124, 125, 126, 127, 128, 129, 130, 131, 132, 133, 134, 135, 136, 137, 138, 139, 140, 141, 142, 143, 144, 145, 146, 147, 148, 149, 150, 151, 152, 153, 154, 155, 156, 157, 158, 159, 160, 161, 162, 163, 164, 165, 166, 167, 168, 169, 170, 171, 172, 173, 174, 175, 176, 177, 178, 179, 180, 181, 182, 183, 184, 185, 186, 187, 188, 189, 190, 191, 192, 193, 194, 195, 196, 197, 198, 199, 200, 201, 202, 203, 204, 205, 206, 207, 208, 209, 210, 211, 212, 213, 214, 215, 216, 217, 218, 219, 220, 221, 222, 223, 224, 225, 226, 227, 228, 229, 230, 231, 232, 233, 234, 235, 236, 237, 238, 239, 240, 241],
      "LargestImagePixelValue": [2682, 2635, 2598, 2595, 2593, 2551, 2548, 2609, 2577, 2575, 2574, 2542, 2560, 2553, 2553, 2537, 2549, 2521, 2508, 2515, 2537, 2511, 2500, 2527, 2540, 2569, 2524, 2511, 2512, 2506, 2485, 2492, 2499, 2489, 2493, 2474, 2474, 2516, 2496, 2507, 2469, 2495, 2504, 2508, 2491, 2496, 2509, 2546, 2496, 2531, 2492, 2515, 2509, 2520, 2524, 2525, 2519, 2480, 2490, 2524, 2503, 2502, 2514, 2476, 2497, 2463, 2478, 2483, 2476, 2514, 2500, 2468, 2464, 2446, 2477, 2515, 2477, 2493, 2505, 2489, 2521, 2552, 2496, 2490, 2490, 2507, 2466, 2501, 2557, 2464, 2497, 2485, 2480, 2455, 2467, 2558, 2459, 2506, 2470, 2456, 2445, 2457, 2457, 2685, 2439, 2704, 2506, 2482, 2452, 2488, 2463, 2513, 2493, 2469, 2544, 2674, 2616, 2550, 2514, 2609, 2564, 2583, 2557, 2608, 2491, 2533, 2512, 2483, 2578, 2457, 2486, 2475, 2474, 2495, 2588, 2547, 2501, 2762, 2516, 2678, 2504, 2647, 2599, 2542, 2589, 2620, 2556, 2617, 2604, 2614, 2605, 2595, 2568, 2573, 2589, 2558, 2677, 2604, 2534, 2675, 2474, 2568, 2451, 2499, 2563, 2476, 2554, 2628, 2607, 2614, 2590, 2613, 2599, 2581, 2575, 2565, 2681, 2561, 2563, 2656, 2537, 2517, 2553, 2558, 2677, 2599, 2559, 2533, 2677, 2632, 2647, 2581, 2616, 2633, 2567, 2619, 2617, 2626, 2644, 2576, 2635, 2576, 2582, 2606, 2565, 2574, 2552, 2587, 2528, 2560, 2546, 2538, 2533, 2553, 2491, 2702, 2490, 2589, 2526, 2611, 2600, 2613, 2593, 2555, 2576, 2553, 2650, 2637, 2567, 2599, 2554, 2596, 2503, 2470, 2494, 2611, 2497, 2599, 2470, 2625, 2521],
      "WindowCenter": [751.0, 750.0, 749.0, 748.0, 747.0, 747.0, 748.0, 748.0, 748.0, 749.0, 749.0, 748.0, 748.0, 747.0, 747.0, 747.0, 747.0, 747.0, 747.0, 747.0, 747.0, 746.0, 746.0, 748.0, 747.0, 746.0, 745.0, 745.0, 745.0, 745.0, 745.0, 745.0, 745.0, 745.0, 744.0, 744.0, 744.0, 745.0, 744.0, 744.0, 744.0, 745.0, 745.0, 745.0, 745.0, 746.0, 745.0, 745.0, 744.0, 745.0, 745.0, 745.0, 745.0, 745.0, 746.0, 745.0, 745.0, 744.0, 744.0, 745.0, 745.0, 744.0, 744.0, 743.0, 744.0, 744.0, 744.0, 744.0, 745.0, 746.0, 745.0, 744.0, 744.0, 744.0, 744.0, 744.0, 744.0, 744.0, 745.0, 744.0, 745.0, 745.0, 745.0, 745.0, 744.0, 745.0, 744.0, 745.0, 746.0, 745.0, 744.0, 744.0, 744.0, 744.0, 745.0, 746.0, 744.0, 744.0, 745.0, 744.0, 745.0, 744.0, 744.0, 746.0, 744.0, 747.0, 745.0, 744.0, 744.0, 744.0, 744.0, 745.0, 745.0, 744.0, 745.0, 747.0, 747.0, 747.0, 746.0, 747.0, 747.0, 747.0, 747.0, 746.0, 745.0, 746.0, 746.0, 745.0, 746.0, 745.0, 745.0, 745.0, 745.0, 746.0, 747.0, 746.0, 747.0, 750.0, 746.0, 748.0, 746.0, 748.0, 747.0, 746.0, 747.0, 748.0, 747.0, 747.0, 747.0, 748.0, 748.0, 748.0, 747.0, 747.0, 746.0, 747.0, 748.0, 747.0, 746.0, 747.0, 745.0, 746.0, 745.0, 745.0, 745.0, 745.0, 746.0, 747.0, 747.0, 747.0, 747.0, 747.0, 747.0, 747.0, 747.0, 748.0, 748.0, 747.0, 746.0, 747.0, 746.0, 746.0, 746.0, 746.0, 748.0, 748.0, 747.0, 746.0, 747.0, 747.0, 747.0, 747.0, 747.0, 747.0, 746.0, 747.0, 747.0, 747.0, 748.0, 748.0, 748.0, 747.0, 747.0, 747.0, 747.0, 747.0, 746.0, 747.0, 747.0, 747.0, 747.0, 747.0, 747.0, 746.0, 745.0, 748.0, 746.0, 747.0, 746.0, 747.0, 747.0, 748.0, 748.0, 747.0, 748.0, 747.0, 748.0, 748.0, 747.0, 747.0, 747.0, 747.0, 747.0, 747.0, 747.0, 748.0, 747.0, 748.0, 746.0, 748.0, 747.0],
      "WindowWidth": [1617.0, 1614.0, 1611.0, 1608.0, 1607.0, 1607.0, 1608.0, 1609.0, 1610.0, 1610.0, 1612.0, 1609.0, 1609.0, 1606.0, 1606.0, 1607.0, 1607.0, 1606.0, 1606.0, 1606.0, 1605.0, 1602.0, 1604.0, 1608.0, 1607.0, 1603.0, 1600.0, 1600.0, 1601.0, 1600.0, 1600.0, 1600.0, 1600.0, 1599.0, 1599.0, 1599.0, 1598.0, 1599.0, 1599.0, 1599.0, 1599.0, 1600.0, 1600.0, 1599.0, 1601.0, 1603.0, 1601.0, 1601.0, 1598.0, 1600.0, 1599.0, 1600.0, 1600.0, 1601.0, 1603.0, 1601.0, 1599.0, 1598.0, 1599.0, 1600.0, 1599.0, 1597.0, 1597.0, 1596.0, 1598.0, 1597.0, 1597.0, 1598.0, 1600.0, 1602.0, 1601.0, 1598.0, 1598.0, 1598.0, 1598.0, 1598.0, 1598.0, 1599.0, 1599.0, 1598.0, 1599.0, 1601.0, 1599.0, 1599.0, 1599.0, 1601.0, 1599.0, 1600.0, 1602.0, 1600.0, 1598.0, 1597.0, 1597.0, 1599.0, 1600.0, 1602.0, 1598.0, 1599.0, 1599.0, 1599.0, 1599.0, 1599.0, 1598.0, 1603.0, 1597.0, 1606.0, 1601.0, 1598.0, 1597.0, 1598.0, 1598.0, 1601.0, 1600.0, 1599.0, 1601.0, 1605.0, 1605.0, 1605.0, 1603.0, 1605.0, 1606.0, 1607.0, 1605.0, 1604.0, 1601.0, 1603.0, 1602.0, 1600.0, 1604.0, 1601.0, 1601.0, 1601.0, 1601.0, 1602.0, 1605.0, 1604.0, 1605.0, 1612.0, 1604.0, 1609.0, 1604.0, 1608.0, 1607.0, 1604.0, 1606.0, 1607.0, 1605.0, 1606.0, 1607.0, 1607.0, 1607.0, 1608.0, 1606.0, 1605.0, 1604.0, 1604.0, 1608.0, 1605.0, 1602.0, 1606.0, 1600.0, 1603.0, 1599.0, 1599.0, 1601.0, 1600.0, 1603.0, 1606.0, 1606.0, 1605.0, 1605.0, 1606.0, 1605.0, 1605.0, 1606.0, 1608.0, 1609.0, 1605.0, 1602.0, 1606.0, 1603.0, 1602.0, 1602.0, 1603.0, 1608.0, 1608.0, 1606.0, 1603.0, 1606.0, 1605.0, 1607.0, 1606.0, 1607.0, 1606.0, 1603.0, 1606.0, 1605.0, 1605.0, 1607.0, 1607.0, 1608.0, 1606.0, 1606.0, 1605.0, 1605.0, 1605.0, 1604.0, 1605.0, 1605.0, 1606.0, 1605.0, 1605.0, 1605.0, 1604.0, 1601.0, 1607.0, 1603.0, 1605.0, 1603.0, 1606.0, 1605.0, 1608.0, 1607.0, 1606.0, 1607.0, 1607.0, 1609.0, 1608.0, 1606.0, 1607.0, 1606.0, 1605.0, 1605.0, 1606.0, 1605.0, 1607.0, 1605.0, 1608.0, 1604.0, 1607.0, 1606.0]
    },
    "slices": {}
  }
}