{
  "AcquisitionMatrixPE": 100,
  "AcquisitionNumber": 1,
  "AcquisitionTime": "15:37:27.857500",
  "BandwidthPerPixelPhaseEncode": 18.519,
  "BaseResolution": 100,
  "BodyPartExamined": "BRAIN",
  "ConsistencyInfo": "N4_VE11C_LATEST_20160120",
  "ConversionSoftware": "dcm2niix",
  "ConversionSoftwareVersion": "v1.0.20180622 GCC4.9.2",
  "DerivedVendorReportedEchoSpacing": 0.000539986,
  "DeviceSerialNumber": "166078",
  "DwellTime": 2.1e-06,
  "EchoTime": 0.034,
  "EchoTrainLength": 100,
  "EffectiveEchoSpacing": 0.000539986,
  "FlipAngle": 90,
  "ImageOrientationPatientDICOM": [1, 0, 0, 0, 0.999781, -0.0209424],
  "ImageType": [
    "ORIGINAL",
    "PRIMARY",
    "M",
    "ND",
    "MOSAIC"
],
  "InPlanePhaseEncodingDirectionDICOM": "COL",
  "InstitutionAddress": "Street_StreetNo_Bei_Jing_District_CN_ZIP",
  "InstitutionName": "BeiJing_Normal_University",
  "InstitutionalDepartmentName": "Department",
  "MRAcquisitionType": "2D",
  "MagneticFieldStrength": 3,
  "Manufacturer": "Siemens",
  "ManufacturersModelName": "Prisma",
  "Modality": "MR",
  "MultibandAccelerationFactor": 3,
  "PartialFourier": 1,
  "PatientPosition": "HFS",
  "PercentPhaseFOV": 100,
  "PhaseEncodingDirection": "j-",
  "PhaseEncodingSteps": 100,
  "PhaseResolution": 1,
  "PixelBandwidth": 2380,
  "ProcedureStepDescription": "BNU_P2018_64CH_Zhen.ZongLei",
  "ProtocolName": "bold_100x100_s3_2x2x2_static_test_241",
  "PulseSequenceDetails": "%SiemensSeq%_ep2d_bold",
  "ReceiveCoilActiveElements": "HC1-7;NC1",
  "ReceiveCoilName": "HeadNeck_64",
  "ReconMatrixPE": 100,
  "RepetitionTime": 2,
  "SAR": 0.0770821,
  "ScanOptions": "FS",
  "ScanningSequence": "EP",
  "SequenceName": "_epfid2d1_100",
  "SequenceVariant": "SK",
  "SeriesDescription": "bold_100x100_s3_2x2x2_static_test_241",
  "SeriesNumber": 10,
  "ShimSetting": [-5450, -11528, -1197, 543, 14, -244, 22, 63],
  "SliceThickness": 2,
  "SliceTiming": [1.485, 0, 0.99, 0.0825, 1.0725, 0.165, 1.155, 0.2475, 1.2375, 0.33, 1.32, 0.4125, 1.4025, 0.5775, 1.5675, 0.66, 1.65, 0.7425, 1.7325, 0.825, 1.815, 0.9075, 1.8975, 0.495, 1.485, 0, 0.99, 0.0825, 1.0725, 0.165, 1.155, 0.2475, 1.2375, 0.33, 1.32, 0.4125, 1.4025, 0.5775, 1.5675, 0.66, 1.65, 0.7425, 1.7325, 0.825, 1.815, 0.9075, 1.8975, 0.495, 1.485, 0, 0.99, 0.0825, 1.0725, 0.165, 1.155, 0.2475, 1.2375, 0.33, 1.32, 0.4125, 1.4025, 0.5775, 1.5675, 0.66, 1.65, 0.7425, 1.7325, 0.825, 1.815, 0.9075, 1.8975, 0.495],
  "SoftwareVersions": "syngo_MR_E11",
  "SpacingBetweenSlices": 2,
  "StationName": "AWP166078",
  "TaskName": "naturalvision2",
  "TotalReadoutTime": 0.0534586,
  "TxRefAmp": 209.645,
  "dcmmeta_affine": [
    [-2.0, 0.0, 0.0, 100.67469787597656],
    [0.0, 1.9995613098144531, -0.04188483953475952, -82.38557434082031],
    [0.0, 0.04188483953475952, 1.9995613098144531, -38.7428092956543],
    [0.0, 0.0, 0.0, 1.0]
],
  "dcmmeta_reorient_transform": [
    [0.0, -1.0, 0.0, 99.0],
    [1.0, 0.0, 0.0, 0.0],
    [0.0, 0.0, 1.0, 0.0],
    [0.0, 0.0, 0.0, 1.0]
],
  "dcmmeta_shape": [100, 100, 72, 241],
  "dcmmeta_slice_dim": 2,
  "dcmmeta_version": 0.6,
  "global": {
    "const": {
      "AcquisitionMatrix": [100, 0, 0, 100],
      "AngioFlag": "N",
      "BitsAllocated": 16,
      "BitsStored": 12,
      "BodyPartExamined": "BRAIN",
      "Columns": 900,
      "EchoNumbers": 1,
      "EchoTime": 34.0,
      "EchoTrainLength": 100,
      "FlipAngle": 90.0,
      "HighBit": 11,
      "ImageOrientationPatient": [1.0, 0.0, 0.0, 0.0, 0.9997806834792, -0.0209424196753],
      "ImagePositionPatient": [-900.67469877005, -915.39555069341, -17.842274867905],
      "ImageType": [
        "ORIGINAL",
        "PRIMARY",
        "M",
        "ND",
        "MOSAIC"
],
      "ImagedNucleus": "1H",
      "ImagingFrequency": 123.257719,
      "InPlanePhaseEncodingDirection": "COL",
      "MRAcquisitionType": "2D",
      "MagneticFieldStrength": 3.0,
      "Manufacturer": "SIEMENS",
      "ManufacturerModelName": "Prisma",
      "Modality": "MR",
      "NumberOfAverages": 1.0,
      "NumberOfPhaseEncodingSteps": 100,
      "PercentPhaseFieldOfView": 100.0,
      "PercentSampling": 100.0,
      "PerformedProcedureStepStartTime": "144707.790000",
      "PhotometricInterpretation": "MONOCHROME2",
      "PixelBandwidth": 2380.0,
      "PixelRepresentation": 0,
      "PixelSpacing": [2.0, 2.0],
      "ProtocolName": "bold_100x100_s3_2x2x2_static_test_241",
      "RepetitionTime": 2000.0,
      "Rows": 900,
      "SAR": 0.07708213713902,
      "SamplesPerPixel": 1,
      "ScanOptions": "FS",
      "ScanningSequence": "EP",
      "SequenceName": "*epfid2d1_100",
      "SequenceVariant": "SK",
      "SeriesDescription": "bold_100x100_s3_2x2x2_static_test_241",
      "SeriesNumber": 10,
      "SeriesTime": "153730.235000",
      "SliceLocation": -37.00895955379,
      "SliceThickness": 2.0,
      "SmallestImagePixelValue": 0,
      "SoftwareVersions": "syngo MR E11",
      "SpacingBetweenSlices": 1.9999999965712,
      "SpecificCharacterSet": "ISO_IR 100",
      "StudyID": "1",
      "StudyTime": "144707.690000",
      "TransmitCoilName": "Body",
      "VariableFlipAngleFlag": "N",
      "WindowCenterWidthExplanation": "Algo1",
      "dBdt": 0.0},
    "slices": {}
  },
  "time": {
    "samples": {
      "AcquisitionNumber": [1, 2, 3, 4, 5, 6, 7, 8, 9, 10, 11, 12, 13, 14, 15, 16, 17, 18, 19, 20, 21, 22, 23, 24, 25, 26, 27, 28, 29, 30, 31, 32, 33, 34, 35, 36, 37, 38, 39, 40, 41, 42, 43, 44, 45, 46, 47, 48, 49, 50, 51, 52, 53, 54, 55, 56, 57, 58, 59, 60, 61, 62, 63, 64, 65, 66, 67, 68, 69, 70, 71, 72, 73, 74, 75, 76, 77, 78, 79, 80, 81, 82, 83, 84, 85, 86, 87, 88, 89, 90, 91, 92, 93, 94, 95, 96, 97, 98, 99, 100, 101, 102, 103, 104, 105, 106, 107, 108, 109, 110, 111, 112, 113, 114, 115, 116, 117, 118, 119, 120, 121, 122, 123, 124, 125, 126, 127, 128, 129, 130, 131, 132, 133, 134, 135, 136, 137, 138, 139, 140, 141, 142, 143, 144, 145, 146, 147, 148, 149, 150, 151, 152, 153, 154, 155, 156, 157, 158, 159, 160, 161, 162, 163, 164, 165, 166, 167, 168, 169, 170, 171, 172, 173, 174, 175, 176, 177, 178, 179, 180, 181, 182, 183, 184, 185, 186, 187, 188, 189, 190, 191, 192, 193, 194, 195, 196, 197, 198, 199, 200, 201, 202, 203, 204, 205, 206, 207, 208, 209, 210, 211, 212, 213, 214, 215, 216, 217, 218, 219, 220, 221, 222, 223, 224, 225, 226, 227, 228, 229, 230, 231, 232, 233, 234, 235, 236, 237, 238, 239, 240, 241],
      "AcquisitionTime": ["153727.857500", "153729.857500", "153731.857500", "153733.857500", "153735.857500", "153737.857500", "153739.857500", "153741.857500", "153743.857500", "153745.857500", "153747.857500", "153749.857500", "153751.857500", "153753.857500", "153755.857500", "153757.857500", "153759.857500", "153801.857500", "153803.857500", "153805.857500", "153807.857500", "153809.857500", "153811.857500", "153813.857500", "153815.857500", "153817.857500", "153819.857500", "153821.857500", "153823.857500", "153825.857500", "153827.857500", "153829.857500", "153831.857500", "153833.857500", "153835.857500", "153837.857500", "153839.857500", "153841.857500", "153843.857500", "153845.857500", "153847.857500", "153849.857500", "153851.857500", "153853.857500", "153855.857500", "153857.857500", "153859.857500", "153901.857500", "153903.857500", "153905.857500", "153907.857500", "153909.857500", "153911.857500", "153913.857500", "153915.857500", "153917.857500", "153919.857500", "153921.857500", "153923.857500", "153925.857500", "153927.857500", "153929.857500", "153931.857500", "153933.857500", "153935.857500", "153937.857500", "153939.857500", "153941.857500", "153943.857500", "153945.857500", "153947.857500", "153949.857500", "153951.857500", "153953.857500", "153955.857500", "153957.857500", "153959.857500", "154001.857500", "154003.857500", "154005.857500", "154007.857500", "154009.857500", "154011.857500", "154013.857500", "154015.857500", "154017.857500", "154019.857500", "154021.857500", "154023.857500", "154025.857500", "154027.857500", "154029.857500", "154031.857500", "154033.857500", "154035.857500", "154037.857500", "154039.857500", "154041.857500", "154043.857500", "154045.857500", "154047.857500", "154049.857500", "154051.857500", "154053.857500", "154055.857500", "154057.857500", "154059.857500", "154101.857500", "154103.857500", "154105.857500", "154107.857500", "154109.857500", "154111.857500", "154113.857500", "154115.857500", "154117.857500", "154119.857500", "154121.857500", "154123.857500", "154125.857500", "154127.857500", "154129.857500", "154131.857500", "154133.857500", "154135.857500", "154137.857500", "154139.857500", "154141.857500", "154143.857500", "154145.857500", "154147.857500", "154149.857500", "154151.857500", "154153.857500", "154155.857500", "154157.857500", "154159.857500", "154201.857500", "154203.857500", "154205.857500", "154207.857500", "154209.857500", "154211.857500", "154213.857500", "154215.857500", "154217.857500", "154219.857500", "154221.857500", "154223.857500", "154225.857500", "154227.857500", "154229.857500", "154231.857500", "154233.857500", "154235.857500", "154237.857500", "154239.857500", "154241.857500", "154243.857500", "154245.857500", "154247.857500", "154249.857500", "154251.857500", "154253.857500", "154255.857500", "154257.857500", "154259.857500", "154301.857500", "154303.857500", "154305.857500", "154307.857500", "154309.857500", "154311.857500", "154313.857500", "154315.857500", "154317.857500", "154319.857500", "154321.857500", "154323.857500", "154325.857500", "154327.857500", "154329.857500", "154331.857500", "154333.857500", "154335.857500", "154337.857500", "154339.857500", "154341.857500", "154343.857500", "154345.857500", "154347.857500", "154349.857500", "154351.857500", "154353.857500", "154355.857500", "154357.857500", "154359.857500", "154401.857500", "154403.857500", "154405.857500", "154407.857500", "154409.857500", "154411.857500", "154413.857500", "154415.857500", "154417.857500", "154419.857500", "154421.857500", "154423.857500", "154425.857500", "154427.857500", "154429.857500", "154431.857500", "154433.857500", "154435.857500", "154437.857500", "154439.857500", "154441.857500", "154443.857500", "154445.857500", "154447.857500", "154449.857500", "154451.857500", "154453.857500", "154455.857500", "154457.857500", "154459.857500", "154501.857500", "154503.857500", "154505.857500", "154507.857500", "154509.857500", "154511.857500", "154513.857500", "154515.857500", "154517.857500", "154519.857500", "154521.857500", "154523.857500", "154525.857500", "154527.857500"],
      "ContentTime": ["153730.239000", "153731.734000", "153733.733000", "153735.733000", "153737.734000", "153739.734000", "153741.734000", "153743.734000", "153745.733000", "153747.735000", "153749.735000", "153751.734000", "153753.734000", "153755.734000", "153757.733000", "153759.733000", "153801.733000", "153803.734000", "153805.734000", "153807.733000", "153809.734000", "153811.733000", "153813.733000", "153815.734000", "153817.734000", "153819.734000", "153821.733000", "153823.734000", "153825.734000", "153827.733000", "153829.734000", "153831.733000", "153833.734000", "153835.734000", "153837.734000", "153839.734000", "153841.735000", "153843.734000", "153846.234000", "153847.734000", "153849.734000", "153851.734000", "153853.733000", "153855.733000", "153857.735000", "153859.735000", "153901.733000", "153903.733000", "153905.733000", "153907.734000", "153909.734000", "153911.734000", "153913.734000", "153915.735000", "153917.733000", "153919.734000", "153921.733000", "153923.734000", "153925.734000", "153927.734000", "153929.734000", "153931.733000", "153933.735000", "153935.734000", "153937.734000", "153939.734000", "153941.733000", "153943.734000", "153945.733000", "153947.734000", "153949.735000", "153951.734000", "153953.734000", "153955.734000", "153957.734000", "153959.733000", "154001.734000", "154003.734000", "154005.734000", "154007.735000", "154009.735000", "154011.734000", "154013.733000", "154015.733000", "154017.733000", "154019.734000", "154021.733000", "154023.733000", "154025.734000", "154027.734000", "154029.734000", "154031.733000", "154033.733000", "154035.733000", "154037.734000", "154039.733000", "154041.734000", "154043.735000", "154045.733000", "154047.734000", "154049.733000", "154051.733000", "154053.733000", "154055.734000", "154057.734000", "154059.738000", "154101.734000", "154103.734000", "154105.734000", "154107.733000", "154109.733000", "154111.733000", "154113.734000", "154115.734000", "154117.734000", "154119.734000", "154121.734000", "154123.733000", "154125.734000", "154127.734000", "154129.734000", "154131.747000", "154133.734000", "154135.735000", "154137.733000", "154139.733000", "154141.733000", "154143.733000", "154145.733000", "154147.733000", "154149.734000", "154151.734000", "154153.734000", "154155.733000", "154157.733000", "154159.733000", "154201.734000", "154203.733000", "154205.734000", "154207.734000", "154209.734000", "154211.735000", "154213.734000", "154215.734000", "154217.733000", "154219.733000", "154221.734000", "154223.734000", "154225.733000", "154227.735000", "154229.734000", "154231.733000", "154233.733000", "154235.733000", "154237.733000", "154239.733000", "154241.733000", "154243.734000", "154245.735000", "154247.733000", "154249.733000", "154251.734000", "154253.733000", "154255.734000", "154257.734000", "154259.734000", "154301.734000", "154303.734000", "154305.733000", "154307.734000", "154309.734000", "154311.733000", "154313.733000", "154315.734000", "154317.734000", "154319.735000", "154321.735000", "154323.734000", "154325.733000", "154327.734000", "154329.733000", "154331.734000", "154333.734000", "154335.734000", "154337.735000", "154339.734000", "154341.734000", "154343.734000", "154345.734000", "154347.733000", "154349.734000", "154351.733000", "154353.733000", "154355.734000", "154357.734000", "154359.734000", "154401.734000", "154403.734000", "154405.734000", "154407.733000", "154409.734000", "154411.733000", "154413.735000", "154415.734000", "154418.233000", "154419.734000", "154421.733000", "154423.733000", "154425.733000", "154427.734000", "154429.735000", "154431.735000", "154433.734000", "154435.734000", "154437.734000", "154439.734000", "154441.734000", "154443.733000", "154445.734000", "154447.734000", "154449.735000", "154451.734000", "154453.733000", "154455.733000", "154457.733000", "154459.734000", "154501.733000", "154503.733000", "154505.734000", "154507.734000", "154509.734000", "154511.734000", "154513.734000", "154515.733000", "154517.734000", "154519.733000", "154521.734000", "154523.735000", "154525.733000", "154527.733000", "154529.573000"],
      "InstanceCreationTime": ["153730.239000", "153731.734000", "153733.733000", "153735.733000", "153737.734000", "153739.734000", "153741.734000", "153743.734000", "153745.733000", "153747.735000", "153749.735000", "153751.734000", "153753.734000", "153755.734000", "153757.733000", "153759.733000", "153801.733000", "153803.734000", "153805.734000", "153807.733000", "153809.734000", "153811.733000", "153813.733000", "153815.734000", "153817.734000", "153819.734000", "153821.733000", "153823.734000", "153825.734000", "153827.733000", "153829.734000", "153831.733000", "153833.734000", "153835.734000", "153837.734000", "153839.734000", "153841.735000", "153843.734000", "153846.234000", "153847.734000", "153849.734000", "153851.734000", "153853.733000", "153855.733000", "153857.735000", "153859.735000", "153901.733000", "153903.733000", "153905.733000", "153907.734000", "153909.734000", "153911.734000", "153913.734000", "153915.735000", "153917.733000", "153919.734000", "153921.733000", "153923.734000", "153925.734000", "153927.734000", "153929.734000", "153931.733000", "153933.735000", "153935.734000", "153937.734000", "153939.734000", "153941.733000", "153943.734000", "153945.733000", "153947.734000", "153949.735000", "153951.734000", "153953.734000", "153955.734000", "153957.734000", "153959.733000", "154001.734000", "154003.734000", "154005.734000", "154007.735000", "154009.735000", "154011.734000", "154013.733000", "154015.733000", "154017.733000", "154019.734000", "154021.733000", "154023.733000", "154025.734000", "154027.734000", "154029.734000", "154031.733000", "154033.733000", "154035.733000", "154037.734000", "154039.733000", "154041.734000", "154043.735000", "154045.733000", "154047.734000", "154049.733000", "154051.733000", "154053.733000", "154055.734000", "154057.734000", "154059.738000", "154101.734000", "154103.734000", "154105.734000", "154107.733000", "154109.733000", "154111.733000", "154113.734000", "154115.734000", "154117.734000", "154119.734000", "154121.734000", "154123.733000", "154125.734000", "154127.734000", "154129.734000", "154131.747000", "154133.734000", "154135.735000", "154137.733000", "154139.733000", "154141.733000", "154143.733000", "154145.733000", "154147.733000", "154149.734000", "154151.734000", "154153.734000", "154155.733000", "154157.733000", "154159.733000", "154201.734000", "154203.733000", "154205.734000", "154207.734000", "154209.734000", "154211.735000", "154213.734000", "154215.734000", "154217.733000", "154219.733000", "154221.734000", "154223.734000", "154225.733000", "154227.735000", "154229.734000", "154231.733000", "154233.733000", "154235.733000", "154237.733000", "154239.733000", "154241.733000", "154243.734000", "154245.735000", "154247.733000", "154249.733000", "154251.734000", "154253.733000", "154255.734000", "154257.734000", "154259.734000", "154301.734000", "154303.734000", "154305.733000", "154307.734000", "154309.734000", "154311.733000", "154313.733000", "154315.734000", "154317.734000", "154319.735000", "154321.735000", "154323.734000", "154325.733000", "154327.734000", "154329.733000", "154331.734000", "154333.734000", "154335.734000", "154337.735000", "154339.734000", "154341.734000", "154343.734000", "154345.734000", "154347.733000", "154349.734000", "154351.733000", "154353.733000", "154355.734000", "154357.734000", "154359.734000", "154401.734000", "154403.734000", "154405.734000", "154407.733000", "154409.734000", "154411.733000", "154413.735000", "154415.734000", "154418.233000", "154419.734000", "154421.733000", "154423.733000", "154425.733000", "154427.734000", "154429.735000", "154431.735000", "154433.734000", "154435.734000", "154437.734000", "154439.734000", "154441.734000", "154443.733000", "154445.734000", "154447.734000", "154449.735000", "154451.734000", "154453.733000", "154455.733000", "154457.733000", "154459.734000", "154501.733000", "154503.733000", "154505.734000", "154507.734000", "154509.734000", "154511.734000", "154513.734000", "154515.733000", "154517.734000", "154519.733000", "154521.734000", "154523.735000", "154525.733000", "154527.733000", "154529.573000"],
      "InstanceNumber": [1, 2, 3, 4, 5, 6, 7, 8, 9, 10, 11, 12, 13, 14, 15, 16, 17, 18, 19, 20, 21, 22, 23, 24, 25, 26, 27, 28, 29, 30, 31, 32, 33, 34, 35, 36, 37, 38, 39, 40, 41, 42, 43, 44, 45, 46, 47, 48, 49, 50, 51, 52, 53, 54, 55, 56, 57, 58, 59, 60, 61, 62, 63, 64, 65, 66, 67, 68, 69, 70, 71, 72, 73, 74, 75, 76, 77, 78, 79, 80, 81, 82, 83, 84, 85, 86, 87, 88, 89, 90, 91, 92, 93, 94, 95, 96, 97, 98, 99, 100, 101, 102, 103, 104, 105, 106, 107, 108, 109, 110, 111, 112, 113, 114, 115, 116, 117, 118, 119, 120, 121, 122, 123, 124, 125, 126, 127, 128, 129, 130, 131, 132, 133, 134, 135, 136, 137, 138, 139, 140, 141, 142, 143, 144, 145, 146, 147, 148, 149, 150, 151, 152, 153, 154, 155, 156, 157, 158, 159, 160, 161, 162, 163, 164, 165, 166, 167, 168, 169, 170, 171, 172, 173, 174, 175, 176, 177, 178, 179, 180, 181, 182, 183, 184, 185, 186, 187, 188, 189, 190, 191, 192, 193, 194, 195, 196, 197, 198, 199, 200, 201, 202, 203, 204, 205, 206, 207, 208, 209, 210, 211, 212, 213, 214, 215, 216, 217, 218, 219, 220, 221, 222, 223, 224, 225, 226, 227, 228, 229, 230, 231, 232, 233, 234, 235, 236, 237, 238, 239, 240, 241],
      "LargestImagePixelValue": [2747, 2673, 2669, 2685, 2735, 2708, 2688, 2732, 2725, 2742, 2674, 2691, 2691, 2697, 2709, 2683, 2733, 2745, 2728, 2752, 2732, 2706, 2714, 2703, 2701, 2721, 2740, 2736, 2756, 2763, 2746, 2745, 2756, 2759, 2724, 2752, 2760, 2757, 2786, 2763, 2783, 2760, 2764, 2748, 2766, 2753, 2804, 2801, 2756, 2787, 2770, 2780, 2777, 2786, 2795, 2799, 2806, 2776, 2783, 2776, 2740, 2785, 2772, 2808, 2786, 2783, 2773, 2773, 2788, 2774, 2802, 2785, 2785, 2827, 2759, 2679, 2606, 2795, 2812, 2781, 2814, 2779, 2789, 2759, 2793, 2800, 2780, 2776, 2776, 2808, 2805, 2803, 2791, 2774, 2794, 2788, 2791, 2762, 2792, 2792, 2788, 2790, 2753, 2777, 2776, 2779, 2798, 2790, 2791, 2791, 2809, 2830, 2756, 2794, 2748, 2791, 2775, 2711, 2712, 2719, 2700, 2683, 2728, 2718, 2735, 2757, 2756, 2762, 2731, 2760, 2679, 2662, 2654, 2758, 2749, 2752, 2708, 2703, 2741, 2738, 2754, 2709, 2676, 2688, 2599, 2699, 2685, 2698, 2729, 2722, 2692, 2738, 2789, 2712, 2710, 2723, 2718, 2705, 2744, 2769, 2760, 2727, 2730, 2721, 2778, 2757, 2712, 2728, 2672, 2722, 2691, 2738, 2703, 2748, 2739, 2734, 2724, 2696, 2716, 2659, 2714, 2693, 2677, 2714, 2729, 2728, 2687, 2713, 2726, 2696, 2711, 2703, 2736, 2787, 2736, 2726, 2765, 2724, 2750, 2734, 2740, 2751, 2722, 2722, 2614, 2613, 2652, 2658, 2656, 2658, 2667, 2719, 2679, 2666, 2701, 2706, 2674, 2623, 2609, 2692, 2679, 2667, 2688, 2679, 2731, 2731, 2698, 2709, 2674, 2678, 2684, 2676, 2696, 2645, 2670, 2627, 2614, 2662, 2645, 2671, 2669],
      "WindowCenter": [756.0, 755.0, 754.0, 755.0, 755.0, 754.0, 753.0, 754.0, 754.0, 754.0, 753.0, 753.0, 754.0, 754.0, 754.0, 753.0, 753.0, 753.0, 753.0, 753.0, 752.0, 753.0, 754.0, 754.0, 753.0, 753.0, 753.0, 753.0, 753.0, 753.0, 752.0, 753.0, 754.0, 754.0, 753.0, 754.0, 754.0, 754.0, 754.0, 755.0, 754.0, 754.0, 755.0, 755.0, 754.0, 753.0, 754.0, 754.0, 753.0, 753.0, 753.0, 753.0, 753.0, 753.0, 754.0, 755.0, 754.0, 753.0, 753.0, 753.0, 753.0, 753.0, 754.0, 754.0, 754.0, 754.0, 753.0, 753.0, 754.0, 754.0, 755.0, 755.0, 755.0, 756.0, 756.0, 754.0, 751.0, 753.0, 753.0, 753.0, 754.0, 754.0, 754.0, 753.0, 753.0, 753.0, 753.0, 753.0, 753.0, 753.0, 753.0, 754.0, 753.0, 752.0, 753.0, 754.0, 754.0, 754.0, 754.0, 755.0, 754.0, 754.0, 754.0, 755.0, 755.0, 754.0, 754.0, 755.0, 754.0, 754.0, 754.0, 755.0, 755.0, 755.0, 754.0, 753.0, 753.0, 753.0, 753.0, 753.0, 753.0, 753.0, 754.0, 754.0, 754.0, 755.0, 755.0, 754.0, 753.0, 753.0, 752.0, 752.0, 752.0, 753.0, 753.0, 754.0, 754.0, 754.0, 754.0, 753.0, 753.0, 753.0, 753.0, 753.0, 752.0, 753.0, 753.0, 753.0, 754.0, 754.0, 755.0, 756.0, 754.0, 753.0, 753.0, 754.0, 753.0, 753.0, 753.0, 754.0, 754.0, 755.0, 755.0, 755.0, 756.0, 755.0, 754.0, 753.0, 751.0, 751.0, 751.0, 752.0, 753.0, 754.0, 755.0, 755.0, 754.0, 755.0, 755.0, 755.0, 756.0, 756.0, 756.0, 756.0, 756.0, 755.0, 755.0, 755.0, 756.0, 756.0, 756.0, 755.0, 756.0, 756.0, 754.0, 754.0, 755.0, 756.0, 756.0, 755.0, 754.0, 755.0, 755.0, 754.0, 753.0, 753.0, 754.0, 755.0, 755.0, 754.0, 754.0, 754.0, 754.0, 754.0, 754.0, 754.0, 753.0, 753.0, 752.0, 753.0, 753.0, 755.0, 754.0, 754.0, 754.0, 754.0, 753.0, 753.0, 753.0, 753.0, 754.0, 755.0, 755.0, 753.0, 755.0, 755.0, 755.0, 755.0, 754.0, 754.0, 755.0],
      "WindowWidth": [1628.0, 1624.0, 1623.0, 1624.0, 1624.0, 1622.0, 1620.0, 1623.0, 1623.0, 1622.0, 1619.0, 1621.0, 1622.0, 1622.0, 1621.0, 1618.0, 1619.0, 1619.0, 1620.0, 1620.0, 1618.0, 1619.0, 1622.0, 1622.0, 1620.0, 1619.0, 1619.0, 1619.0, 1619.0, 1619.0, 1618.0, 1619.0, 1622.0, 1623.0, 1621.0, 1622.0, 1622.0, 1622.0, 1624.0, 1624.0, 1624.0, 1623.0, 1625.0, 1624.0, 1622.0, 1621.0, 1622.0, 1622.0, 1621.0, 1620.0, 1620.0, 1621.0, 1620.0, 1619.0, 1622.0, 1624.0, 1623.0, 1621.0, 1620.0, 1620.0, 1620.0, 1621.0, 1622.0, 1624.0, 1623.0, 1622.0, 1621.0, 1621.0, 1621.0, 1623.0, 1625.0, 1625.0, 1625.0, 1628.0, 1627.0, 1623.0, 1616.0, 1620.0, 1620.0, 1620.0, 1623.0, 1622.0, 1622.0, 1621.0, 1620.0, 1619.0, 1620.0, 1620.0, 1619.0, 1619.0, 1620.0, 1621.0, 1620.0, 1618.0, 1619.0, 1622.0, 1623.0, 1622.0, 1622.0, 1624.0, 1624.0, 1624.0, 1624.0, 1627.0, 1625.0, 1623.0, 1623.0, 1624.0, 1623.0, 1623.0, 1622.0, 1624.0, 1626.0, 1627.0, 1622.0, 1621.0, 1621.0, 1620.0, 1621.0, 1620.0, 1620.0, 1622.0, 1624.0, 1623.0, 1623.0, 1626.0, 1626.0, 1624.0, 1621.0, 1620.0, 1617.0, 1617.0, 1618.0, 1622.0, 1621.0, 1624.0, 1624.0, 1623.0, 1623.0, 1621.0, 1622.0, 1621.0, 1619.0, 1620.0, 1617.0, 1620.0, 1622.0, 1622.0, 1623.0, 1624.0, 1627.0, 1628.0, 1624.0, 1620.0, 1621.0, 1622.0, 1620.0, 1619.0, 1620.0, 1621.0, 1623.0, 1624.0, 1624.0, 1625.0, 1627.0, 1625.0, 1623.0, 1618.0, 1613.0, 1613.0, 1613.0, 1616.0, 1618.0, 1622.0, 1625.0, 1624.0, 1623.0, 1624.0, 1626.0, 1626.0, 1627.0, 1627.0, 1628.0, 1629.0, 1628.0, 1626.0, 1625.0, 1627.0, 1628.0, 1627.0, 1627.0, 1626.0, 1627.0, 1627.0, 1623.0, 1624.0, 1625.0, 1627.0, 1627.0, 1624.0, 1623.0, 1625.0, 1625.0, 1623.0, 1619.0, 1621.0, 1623.0, 1626.0, 1626.0, 1624.0, 1622.0, 1623.0, 1623.0, 1624.0, 1624.0, 1623.0, 1622.0, 1620.0, 1619.0, 1620.0, 1622.0, 1624.0, 1624.0, 1622.0, 1622.0, 1622.0, 1620.0, 1619.0, 1620.0, 1621.0, 1623.0, 1625.0, 1625.0, 1621.0, 1624.0, 1625.0, 1627.0, 1625.0, 1623.0, 1624.0, 1625.0]
    },
    "slices": {}
  }
}