{
  "AcquisitionMatrixPE": 100,
  "AcquisitionNumber": 1,
  "AcquisitionTime": "15:08:39.702500",
  "BandwidthPerPixelPhaseEncode": 18.519,
  "BaseResolution": 100,
  "BodyPartExamined": "BRAIN",
  "ConsistencyInfo": "N4_VE11C_LATEST_20160120",
  "ConversionSoftware": "dcm2niix",
  "ConversionSoftwareVersion": "v1.0.20180622 GCC4.9.2",
  "DerivedVendorReportedEchoSpacing": 0.000539986,
  "DeviceSerialNumber": "166078",
  "DwellTime": 2.1e-06,
  "EchoTime": 0.034,
  "EchoTrainLength": 100,
  "EffectiveEchoSpacing": 0.000539986,
  "FlipAngle": 90,
  "ImageOrientationPatientDICOM": [1, 0, 0, 0, 0.999781, -0.0209424],
  "ImageType": [
    "ORIGINAL",
    "PRIMARY",
    "M",
    "ND",
    "MOSAIC"
],
  "InPlanePhaseEncodingDirectionDICOM": "COL",
  "InstitutionAddress": "Street_StreetNo_Bei_Jing_District_CN_ZIP",
  "InstitutionName": "BeiJing_Normal_University",
  "InstitutionalDepartmentName": "Department",
  "MRAcquisitionType": "2D",
  "MagneticFieldStrength": 3,
  "Manufacturer": "Siemens",
  "ManufacturersModelName": "Prisma",
  "Modality": "MR",
  "MultibandAccelerationFactor": 3,
  "PartialFourier": 1,
  "PatientPosition": "HFS",
  "PercentPhaseFOV": 100,
  "PhaseEncodingDirection": "j-",
  "PhaseEncodingSteps": 100,
  "PhaseResolution": 1,
  "PixelBandwidth": 2380,
  "ProcedureStepDescription": "BNU_P2018_64CH_Zhen.ZongLei",
  "ProtocolName": "bold_100x100_s3_2x2x2_static_test_241",
  "PulseSequenceDetails": "%SiemensSeq%_ep2d_bold",
  "ReceiveCoilActiveElements": "HC1-7;NC1",
  "ReceiveCoilName": "HeadNeck_64",
  "ReconMatrixPE": 100,
  "RepetitionTime": 2,
  "SAR": 0.0770821,
  "ScanOptions": "FS",
  "ScanningSequence": "EP",
  "SequenceName": "_epfid2d1_100",
  "SequenceVariant": "SK",
  "SeriesDescription": "bold_100x100_s3_2x2x2_static_test_241",
  "SeriesNumber": 5,
  "ShimSetting": [-5450, -11528, -1197, 543, 14, -244, 22, 63],
  "SliceThickness": 2,
  "SliceTiming": [1.485, 0, 0.99, 0.0825, 1.0725, 0.165, 1.155, 0.2475, 1.2375, 0.33, 1.32, 0.4125, 1.4025, 0.5775, 1.5675, 0.66, 1.65, 0.7425, 1.7325, 0.825, 1.815, 0.9075, 1.8975, 0.495, 1.485, 0, 0.99, 0.0825, 1.0725, 0.165, 1.155, 0.2475, 1.2375, 0.33, 1.32, 0.4125, 1.4025, 0.5775, 1.5675, 0.66, 1.65, 0.7425, 1.7325, 0.825, 1.815, 0.9075, 1.8975, 0.495, 1.485, 0, 0.99, 0.0825, 1.0725, 0.165, 1.155, 0.2475, 1.2375, 0.33, 1.32, 0.4125, 1.4025, 0.5775, 1.5675, 0.66, 1.65, 0.7425, 1.7325, 0.825, 1.815, 0.9075, 1.8975, 0.495],
  "SoftwareVersions": "syngo_MR_E11",
  "SpacingBetweenSlices": 2,
  "StationName": "AWP166078",
  "TaskName": "naturalvision2",
  "TotalReadoutTime": 0.0534586,
  "TxRefAmp": 209.645,
  "dcmmeta_affine": [
    [-2.0, 0.0, 0.0, 100.67469787597656],
    [0.0, 1.9995613098144531, -0.04188483953475952, -82.38557434082031],
    [0.0, 0.04188483953475952, 1.9995613098144531, -38.7428092956543],
    [0.0, 0.0, 0.0, 1.0]
],
  "dcmmeta_reorient_transform": [
    [0.0, -1.0, 0.0, 99.0],
    [1.0, 0.0, 0.0, 0.0],
    [0.0, 0.0, 1.0, 0.0],
    [0.0, 0.0, 0.0, 1.0]
],
  "dcmmeta_shape": [100, 100, 72, 241],
  "dcmmeta_slice_dim": 2,
  "dcmmeta_version": 0.6,
  "global": {
    "const": {
      "AcquisitionMatrix": [100, 0, 0, 100],
      "AngioFlag": "N",
      "BitsAllocated": 16,
      "BitsStored": 12,
      "BodyPartExamined": "BRAIN",
      "Columns": 900,
      "EchoNumbers": 1,
      "EchoTime": 34.0,
      "EchoTrainLength": 100,
      "FlipAngle": 90.0,
      "HighBit": 11,
      "ImageOrientationPatient": [1.0, 0.0, 0.0, 0.0, 0.9997806834792, -0.0209424196753],
      "ImagePositionPatient": [-900.67469877005, -915.39555069341, -17.842274867905],
      "ImageType": [
        "ORIGINAL",
        "PRIMARY",
        "M",
        "ND",
        "MOSAIC"
],
      "ImagedNucleus": "1H",
      "ImagingFrequency": 123.25772,
      "InPlanePhaseEncodingDirection": "COL",
      "MRAcquisitionType": "2D",
      "MagneticFieldStrength": 3.0,
      "Manufacturer": "SIEMENS",
      "ManufacturerModelName": "Prisma",
      "Modality": "MR",
      "NumberOfAverages": 1.0,
      "NumberOfPhaseEncodingSteps": 100,
      "PercentPhaseFieldOfView": 100.0,
      "PercentSampling": 100.0,
      "PerformedProcedureStepStartTime": "144707.790000",
      "PhotometricInterpretation": "MONOCHROME2",
      "PixelBandwidth": 2380.0,
      "PixelRepresentation": 0,
      "PixelSpacing": [2.0, 2.0],
      "ProtocolName": "bold_100x100_s3_2x2x2_static_test_241",
      "RepetitionTime": 2000.0,
      "Rows": 900,
      "SAR": 0.07708213713902,
      "SamplesPerPixel": 1,
      "ScanOptions": "FS",
      "ScanningSequence": "EP",
      "SequenceName": "*epfid2d1_100",
      "SequenceVariant": "SK",
      "SeriesDescription": "bold_100x100_s3_2x2x2_static_test_241",
      "SeriesNumber": 5,
      "SeriesTime": "150842.010000",
      "SliceLocation": -37.00895955379,
      "SliceThickness": 2.0,
      "SmallestImagePixelValue": 0,
      "SoftwareVersions": "syngo MR E11",
      "SpacingBetweenSlices": 1.9999999965712,
      "SpecificCharacterSet": "ISO_IR 100",
      "StudyID": "1",
      "StudyTime": "144707.690000",
      "TransmitCoilName": "Body",
      "VariableFlipAngleFlag": "N",
      "WindowCenterWidthExplanation": "Algo1",
      "dBdt": 0.0},
    "slices": {}
  },
  "time": {
    "samples": {
      "AcquisitionNumber": [1, 2, 3, 4, 5, 6, 7, 8, 9, 10, 11, 12, 13, 14, 15, 16, 17, 18, 19, 20, 21, 22, 23, 24, 25, 26, 27, 28, 29, 30, 31, 32, 33, 34, 35, 36, 37, 38, 39, 40, 41, 42, 43, 44, 45, 46, 47, 48, 49, 50, 51, 52, 53, 54, 55, 56, 57, 58, 59, 60, 61, 62, 63, 64, 65, 66, 67, 68, 69, 70, 71, 72, 73, 74, 75, 76, 77, 78, 79, 80, 81, 82, 83, 84, 85, 86, 87, 88, 89, 90, 91, 92, 93, 94, 95, 96, 97, 98, 99, 100, 101, 102, 103, 104, 105, 106, 107, 108, 109, 110, 111, 112, 113, 114, 115, 116, 117, 118, 119, 120, 121, 122, 123, 124, 125, 126, 127, 128, 129, 130, 131, 132, 133, 134, 135, 136, 137, 138, 139, 140, 141, 142, 143, 144, 145, 146, 147, 148, 149, 150, 151, 152, 153, 154, 155, 156, 157, 158, 159, 160, 161, 162, 163, 164, 165, 166, 167, 168, 169, 170, 171, 172, 173, 174, 175, 176, 177, 178, 179, 180, 181, 182, 183, 184, 185, 186, 187, 188, 189, 190, 191, 192, 193, 194, 195, 196, 197, 198, 199, 200, 201, 202, 203, 204, 205, 206, 207, 208, 209, 210, 211, 212, 213, 214, 215, 216, 217, 218, 219, 220, 221, 222, 223, 224, 225, 226, 227, 228, 229, 230, 231, 232, 233, 234, 235, 236, 237, 238, 239, 240, 241],
      "AcquisitionTime": ["150839.702500", "150841.702500", "150843.702500", "150845.702500", "150847.702500", "150849.702500", "150851.702500", "150853.702500", "150855.702500", "150857.702500", "150859.702500", "150901.702500", "150903.702500", "150905.702500", "150907.702500", "150909.702500", "150911.702500", "150913.702500", "150915.702500", "150917.702500", "150919.702500", "150921.702500", "150923.702500", "150925.702500", "150927.702500", "150929.702500", "150931.702500", "150933.702500", "150935.702500", "150937.702500", "150939.702500", "150941.702500", "150943.702500", "150945.702500", "150947.702500", "150949.702500", "150951.702500", "150953.702500", "150955.702500", "150957.702500", "150959.702500", "151001.702500", "151003.702500", "151005.702500", "151007.702500", "151009.702500", "151011.702500", "151013.702500", "151015.702500", "151017.702500", "151019.702500", "151021.702500", "151023.702500", "151025.702500", "151027.702500", "151029.702500", "151031.702500", "151033.702500", "151035.702500", "151037.702500", "151039.702500", "151041.702500", "151043.702500", "151045.702500", "151047.702500", "151049.702500", "151051.702500", "151053.702500", "151055.702500", "151057.702500", "151059.702500", "151101.702500", "151103.702500", "151105.702500", "151107.702500", "151109.702500", "151111.702500", "151113.702500", "151115.702500", "151117.702500", "151119.702500", "151121.702500", "151123.702500", "151125.702500", "151127.702500", "151129.702500", "151131.702500", "151133.702500", "151135.702500", "151137.702500", "151139.702500", "151141.702500", "151143.702500", "151145.702500", "151147.702500", "151149.702500", "151151.702500", "151153.702500", "151155.702500", "151157.702500", "151159.702500", "151201.702500", "151203.702500", "151205.702500", "151207.702500", "151209.702500", "151211.702500", "151213.702500", "151215.702500", "151217.702500", "151219.702500", "151221.702500", "151223.702500", "151225.702500", "151227.702500", "151229.702500", "151231.702500", "151233.702500", "151235.702500", "151237.702500", "151239.702500", "151241.702500", "151243.702500", "151245.702500", "151247.702500", "151249.702500", "151251.702500", "151253.702500", "151255.702500", "151257.702500", "151259.702500", "151301.702500", "151303.702500", "151305.702500", "151307.702500", "151309.702500", "151311.702500", "151313.702500", "151315.702500", "151317.702500", "151319.702500", "151321.702500", "151323.702500", "151325.702500", "151327.702500", "151329.702500", "151331.702500", "151333.702500", "151335.702500", "151337.702500", "151339.702500", "151341.702500", "151343.702500", "151345.702500", "151347.702500", "151349.702500", "151351.702500", "151353.702500", "151355.702500", "151357.702500", "151359.702500", "151401.702500", "151403.702500", "151405.702500", "151407.702500", "151409.702500", "151411.702500", "151413.702500", "151415.702500", "151417.702500", "151419.702500", "151421.702500", "151423.702500", "151425.702500", "151427.702500", "151429.702500", "151431.702500", "151433.702500", "151435.702500", "151437.702500", "151439.702500", "151441.702500", "151443.702500", "151445.702500", "151447.702500", "151449.702500", "151451.702500", "151453.702500", "151455.702500", "151457.702500", "151459.702500", "151501.702500", "151503.702500", "151505.702500", "151507.702500", "151509.702500", "151511.702500", "151513.702500", "151515.702500", "151517.702500", "151519.702500", "151521.702500", "151523.702500", "151525.702500", "151527.702500", "151529.702500", "151531.702500", "151533.702500", "151535.702500", "151537.702500", "151539.702500", "151541.702500", "151543.702500", "151545.702500", "151547.702500", "151549.702500", "151551.702500", "151553.702500", "151555.702500", "151557.702500", "151559.702500", "151601.702500", "151603.702500", "151605.702500", "151607.702500", "151609.702500", "151611.702500", "151613.702500", "151615.702500", "151617.702500", "151619.702500", "151621.702500", "151623.702500", "151625.702500", "151627.702500", "151629.702500", "151631.702500", "151633.702500", "151635.702500", "151637.702500", "151639.702500"],
      "ContentTime": ["150842.014000", "150843.509000", "150845.509000", "150847.510000", "150849.510000", "150851.509000", "150853.508000", "150855.508000", "150857.509000", "150859.510000", "150901.509000", "150903.509000", "150905.510000", "150907.509000", "150909.508000", "150911.508000", "150913.508000", "150915.510000", "150917.509000", "150919.509000", "150921.510000", "150923.509000", "150925.510000", "150927.508000", "150929.508000", "150931.509000", "150933.509000", "150935.510000", "150937.510000", "150939.510000", "150941.509000", "150943.508000", "150945.509000", "150947.509000", "150949.510000", "150951.509000", "150953.509000", "150955.510000", "150957.509000", "150959.510000", "151001.508000", "151003.508000", "151005.508000", "151007.510000", "151009.509000", "151011.510000", "151013.509000", "151015.510000", "151017.509000", "151019.508000", "151021.508000", "151023.508000", "151025.509000", "151027.510000", "151029.510000", "151031.509000", "151033.509000", "151035.510000", "151037.509000", "151039.509000", "151041.510000", "151043.510000", "151045.509000", "151047.510000", "151049.509000", "151051.510000", "151053.509000", "151055.508000", "151057.509000", "151059.509000", "151101.510000", "151103.510000", "151105.510000", "151107.510000", "151109.509000", "151111.509000", "151113.509000", "151115.509000", "151117.510000", "151119.509000", "151121.510000", "151123.509000", "151125.510000", "151127.510000", "151129.509000", "151131.508000", "151133.509000", "151135.510000", "151137.510000", "151139.510000", "151141.510000", "151143.510000", "151145.510000", "151147.508000", "151149.509000", "151151.509000", "151153.509000", "151155.509000", "151157.510000", "151159.510000", "151201.509000", "151203.509000", "151205.508000", "151207.509000", "151209.509000", "151211.510000", "151213.509000", "151215.510000", "151217.510000", "151219.510000", "151221.508000", "151223.508000", "151225.508000", "151227.509000", "151229.510000", "151231.510000", "151233.509000", "151235.509000", "151237.509000", "151239.508000", "151241.509000", "151243.509000", "151245.509000", "151247.510000", "151249.509000", "151251.510000", "151253.510000", "151255.509000", "151257.509000", "151259.508000", "151301.509000", "151303.510000", "151305.510000", "151307.510000", "151309.510000", "151311.510000", "151313.508000", "151315.509000", "151317.508000", "151319.509000", "151321.509000", "151323.509000", "151325.510000", "151327.525000", "151329.510000", "151331.509000", "151333.509000", "151335.509000", "151337.509000", "151339.510000", "151341.509000", "151343.509000", "151345.510000", "151347.509000", "151349.509000", "151351.508000", "151353.508000", "151355.510000", "151357.510000", "151359.510000", "151401.510000", "151403.510000", "151405.510000", "151407.508000", "151409.508000", "151411.510000", "151413.510000", "151415.510000", "151417.510000", "151419.510000", "151421.510000", "151423.509000", "151425.509000", "151427.508000", "151429.510000", "151431.510000", "151433.510000", "151435.510000", "151437.510000", "151439.510000", "151441.508000", "151443.508000", "151445.508000", "151447.509000", "151449.509000", "151451.509000", "151453.509000", "151455.509000", "151457.510000", "151459.509000", "151501.509000", "151503.509000", "151505.510000", "151507.510000", "151509.510000", "151511.510000", "151513.510000", "151515.510000", "151517.509000", "151519.508000", "151521.510000", "151523.510000", "151525.510000", "151527.510000", "151529.509000", "151531.510000", "151533.509000", "151535.509000", "151537.508000", "151539.510000", "151541.510000", "151543.510000", "151545.510000", "151547.509000", "151549.509000", "151551.509000", "151553.509000", "151555.508000", "151557.510000", "151559.510000", "151601.510000", "151603.510000", "151605.510000", "151607.510000", "151609.509000", "151611.509000", "151613.510000", "151615.510000", "151617.509000", "151619.510000", "151621.510000", "151623.510000", "151625.510000", "151627.509000", "151629.509000", "151631.510000", "151633.509000", "151635.510000", "151637.510000", "151639.510000", "151641.194000"],
      "InstanceCreationTime": ["150842.014000", "150843.509000", "150845.509000", "150847.510000", "150849.510000", "150851.509000", "150853.508000", "150855.508000", "150857.509000", "150859.510000", "150901.509000", "150903.509000", "150905.510000", "150907.509000", "150909.508000", "150911.508000", "150913.508000", "150915.510000", "150917.509000", "150919.509000", "150921.510000", "150923.509000", "150925.510000", "150927.508000", "150929.508000", "150931.509000", "150933.509000", "150935.510000", "150937.510000", "150939.510000", "150941.509000", "150943.508000", "150945.509000", "150947.509000", "150949.510000", "150951.509000", "150953.509000", "150955.510000", "150957.509000", "150959.510000", "151001.508000", "151003.508000", "151005.508000", "151007.510000", "151009.509000", "151011.510000", "151013.509000", "151015.510000", "151017.509000", "151019.508000", "151021.508000", "151023.508000", "151025.509000", "151027.510000", "151029.510000", "151031.509000", "151033.509000", "151035.510000", "151037.509000", "151039.509000", "151041.510000", "151043.510000", "151045.509000", "151047.510000", "151049.509000", "151051.510000", "151053.509000", "151055.508000", "151057.509000", "151059.509000", "151101.510000", "151103.510000", "151105.510000", "151107.510000", "151109.509000", "151111.509000", "151113.509000", "151115.509000", "151117.510000", "151119.509000", "151121.510000", "151123.509000", "151125.510000", "151127.510000", "151129.509000", "151131.508000", "151133.509000", "151135.510000", "151137.510000", "151139.510000", "151141.510000", "151143.510000", "151145.510000", "151147.508000", "151149.509000", "151151.509000", "151153.509000", "151155.509000", "151157.510000", "151159.510000", "151201.509000", "151203.509000", "151205.508000", "151207.509000", "151209.509000", "151211.510000", "151213.509000", "151215.510000", "151217.510000", "151219.510000", "151221.508000", "151223.508000", "151225.508000", "151227.509000", "151229.510000", "151231.510000", "151233.509000", "151235.509000", "151237.509000", "151239.508000", "151241.509000", "151243.509000", "151245.509000", "151247.510000", "151249.509000", "151251.510000", "151253.510000", "151255.509000", "151257.509000", "151259.508000", "151301.509000", "151303.510000", "151305.510000", "151307.510000", "151309.510000", "151311.510000", "151313.508000", "151315.509000", "151317.508000", "151319.509000", "151321.509000", "151323.509000", "151325.510000", "151327.525000", "151329.510000", "151331.509000", "151333.509000", "151335.509000", "151337.509000", "151339.510000", "151341.509000", "151343.509000", "151345.510000", "151347.509000", "151349.509000", "151351.508000", "151353.508000", "151355.510000", "151357.510000", "151359.510000", "151401.510000", "151403.510000", "151405.510000", "151407.508000", "151409.508000", "151411.510000", "151413.510000", "151415.510000", "151417.510000", "151419.510000", "151421.510000", "151423.509000", "151425.509000", "151427.508000", "151429.510000", "151431.510000", "151433.510000", "151435.510000", "151437.510000", "151439.510000", "151441.508000", "151443.508000", "151445.508000", "151447.509000", "151449.509000", "151451.509000", "151453.509000", "151455.509000", "151457.510000", "151459.509000", "151501.509000", "151503.509000", "151505.510000", "151507.510000", "151509.510000", "151511.510000", "151513.510000", "151515.510000", "151517.509000", "151519.508000", "151521.510000", "151523.510000", "151525.510000", "151527.510000", "151529.509000", "151531.510000", "151533.509000", "151535.509000", "151537.508000", "151539.510000", "151541.510000", "151543.510000", "151545.510000", "151547.509000", "151549.509000", "151551.509000", "151553.509000", "151555.508000", "151557.510000", "151559.510000", "151601.510000", "151603.510000", "151605.510000", "151607.510000", "151609.509000", "151611.509000", "151613.510000", "151615.510000", "151617.509000", "151619.510000", "151621.510000", "151623.510000", "151625.510000", "151627.509000", "151629.509000", "151631.510000", "151633.509000", "151635.510000", "151637.510000", "151639.510000", "151641.194000"],
      "InstanceNumber": [1, 2, 3, 4, 5, 6, 7, 8, 9, 10, 11, 12, 13, 14, 15, 16, 17, 18, 19, 20, 21, 22, 23, 24, 25, 26, 27, 28, 29, 30, 31, 32, 33, 34, 35, 36, 37, 38, 39, 40, 41, 42, 43, 44, 45, 46, 47, 48, 49, 50, 51, 52, 53, 54, 55, 56, 57, 58, 59, 60, 61, 62, 63, 64, 65, 66, 67, 68, 69, 70, 71, 72, 73, 74, 75, 76, 77, 78, 79, 80, 81, 82, 83, 84, 85, 86, 87, 88, 89, 90, 91, 92, 93, 94, 95, 96, 97, 98, 99, 100, 101, 102, 103, 104, 105, 106, 107, 108, 109, 110, 111, 112, 113, 114, 115, 116, 117, 118, 119, 120, 121, 122, 123, 124, 125, 126, 127, 128, 129, 130, 131, 132, 133, 134, 135, 136, 137, 138, 139, 140, 141, 142, 143, 144, 145, 146, 147, 148, 149, 150, 151, 152, 153, 154, 155, 156, 157, 158, 159, 160, 161, 162, 163, 164, 165, 166, 167, 168, 169, 170, 171, 172, 173, 174, 175, 176, 177, 178, 179, 180, 181, 182, 183, 184, 185, 186, 187, 188, 189, 190, 191, 192, 193, 194, 195, 196, 197, 198, 199, 200, 201, 202, 203, 204, 205, 206, 207, 208, 209, 210, 211, 212, 213, 214, 215, 216, 217, 218, 219, 220, 221, 222, 223, 224, 225, 226, 227, 228, 229, 230, 231, 232, 233, 234, 235, 236, 237, 238, 239, 240, 241],
      "LargestImagePixelValue": [2604, 2536, 2497, 2462, 2479, 2577, 2472, 2486, 2478, 2478, 2458, 2515, 2460, 2468, 2471, 2476, 2495, 2506, 2481, 2485, 2492, 2528, 2575, 2496, 2497, 2527, 2444, 2454, 2452, 2446, 2488, 2507, 2493, 2481, 2505, 2495, 2529, 2513, 2505, 2469, 2466, 2490, 2519, 2457, 2461, 2466, 2465, 2512, 2494, 2492, 2481, 2456, 2492, 2578, 2441, 2531, 2507, 2476, 2610, 2476, 2522, 2461, 2459, 2494, 2474, 2459, 2421, 2435, 2472, 2477, 2447, 2490, 2457, 2454, 2501, 2456, 2465, 2528, 2449, 2447, 2430, 2413, 2438, 2428, 2448, 2452, 2459, 2638, 2458, 2717, 2497, 2470, 2664, 2443, 2439, 2453, 2500, 2459, 2555, 2447, 2444, 2451, 2465, 2460, 2498, 2488, 2511, 2489, 2503, 2479, 2512, 2500, 2484, 2499, 2513, 2493, 2481, 2491, 2476, 2581, 2485, 2495, 2515, 2490, 2504, 2495, 2515, 2508, 2510, 2475, 2487, 2501, 2520, 2519, 2490, 2490, 2582, 2516, 2521, 2482, 2494, 2480, 2534, 2482, 2489, 2502, 2511, 2518, 2536, 2505, 2496, 2494, 2523, 2520, 2500, 2508, 2537, 2558, 2548, 2548, 2530, 2572, 2531, 2567, 2561, 2634, 2584, 2611, 2594, 2569, 2593, 2577, 2575, 2590, 2535, 2643, 2598, 2595, 2635, 2653, 2642, 2631, 2613, 2671, 2645, 2580, 2579, 2558, 2549, 2551, 2558, 2570, 2552, 2559, 2546, 2550, 2563, 2565, 2596, 2561, 2573, 2591, 2582, 2576, 2551, 2588, 2583, 2591, 2562, 2556, 2564, 2589, 2555, 2564, 2574, 2545, 2552, 2552, 2570, 2553, 2551, 2576, 2607, 2544, 2553, 2541, 2594, 2566, 2542, 2596, 2590, 2618, 2579, 2574, 2630, 2573, 2607, 2692, 2656, 2670, 2620],
      "WindowCenter": [751.0, 750.0, 750.0, 749.0, 749.0, 750.0, 748.0, 749.0, 750.0, 750.0, 749.0, 749.0, 748.0, 748.0, 748.0, 748.0, 749.0, 748.0, 748.0, 748.0, 748.0, 748.0, 748.0, 747.0, 747.0, 748.0, 748.0, 748.0, 747.0, 746.0, 747.0, 748.0, 748.0, 747.0, 746.0, 746.0, 747.0, 747.0, 747.0, 747.0, 747.0, 748.0, 748.0, 748.0, 747.0, 747.0, 747.0, 748.0, 748.0, 748.0, 747.0, 747.0, 748.0, 749.0, 747.0, 748.0, 747.0, 748.0, 750.0, 748.0, 748.0, 746.0, 747.0, 748.0, 747.0, 747.0, 746.0, 746.0, 746.0, 747.0, 747.0, 748.0, 747.0, 748.0, 750.0, 750.0, 750.0, 751.0, 750.0, 750.0, 749.0, 749.0, 750.0, 749.0, 749.0, 749.0, 750.0, 753.0, 751.0, 754.0, 752.0, 751.0, 753.0, 750.0, 749.0, 748.0, 747.0, 746.0, 748.0, 746.0, 745.0, 744.0, 744.0, 745.0, 746.0, 745.0, 746.0, 745.0, 746.0, 747.0, 747.0, 746.0, 746.0, 746.0, 746.0, 746.0, 746.0, 747.0, 747.0, 748.0, 746.0, 747.0, 747.0, 748.0, 748.0, 749.0, 749.0, 748.0, 748.0, 748.0, 748.0, 747.0, 747.0, 747.0, 746.0, 747.0, 748.0, 748.0, 748.0, 747.0, 748.0, 748.0, 749.0, 749.0, 749.0, 750.0, 750.0, 749.0, 749.0, 750.0, 751.0, 750.0, 749.0, 749.0, 748.0, 748.0, 749.0, 749.0, 749.0, 749.0, 749.0, 749.0, 749.0, 749.0, 750.0, 750.0, 749.0, 749.0, 751.0, 750.0, 751.0, 750.0, 750.0, 750.0, 749.0, 750.0, 749.0, 750.0, 750.0, 750.0, 750.0, 750.0, 750.0, 749.0, 749.0, 749.0, 750.0, 749.0, 749.0, 749.0, 749.0, 749.0, 749.0, 748.0, 749.0, 749.0, 749.0, 749.0, 749.0, 749.0, 750.0, 750.0, 750.0, 749.0, 749.0, 749.0, 749.0, 750.0, 749.0, 749.0, 749.0, 749.0, 749.0, 750.0, 750.0, 749.0, 749.0, 749.0, 748.0, 748.0, 749.0, 750.0, 750.0, 749.0, 750.0, 750.0, 751.0, 751.0, 750.0, 751.0, 752.0, 752.0, 750.0, 749.0, 749.0, 749.0, 750.0, 752.0, 752.0, 751.0, 751.0],
      "WindowWidth": [1617.0, 1613.0, 1613.0, 1611.0, 1612.0, 1614.0, 1609.0, 1611.0, 1613.0, 1613.0, 1611.0, 1611.0, 1609.0, 1609.0, 1609.0, 1609.0, 1610.0, 1609.0, 1607.0, 1607.0, 1609.0, 1609.0, 1609.0, 1606.0, 1605.0, 1609.0, 1608.0, 1608.0, 1605.0, 1603.0, 1606.0, 1608.0, 1609.0, 1605.0, 1604.0, 1604.0, 1605.0, 1607.0, 1606.0, 1605.0, 1605.0, 1607.0, 1609.0, 1608.0, 1607.0, 1606.0, 1605.0, 1608.0, 1609.0, 1608.0, 1607.0, 1606.0, 1609.0, 1611.0, 1605.0, 1607.0, 1606.0, 1607.0, 1612.0, 1608.0, 1608.0, 1603.0, 1605.0, 1607.0, 1606.0, 1605.0, 1603.0, 1602.0, 1603.0, 1605.0, 1605.0, 1607.0, 1606.0, 1607.0, 1613.0, 1614.0, 1614.0, 1616.0, 1613.0, 1612.0, 1612.0, 1611.0, 1613.0, 1610.0, 1610.0, 1611.0, 1614.0, 1621.0, 1617.0, 1624.0, 1618.0, 1618.0, 1622.0, 1613.0, 1610.0, 1607.0, 1606.0, 1602.0, 1607.0, 1602.0, 1600.0, 1598.0, 1597.0, 1600.0, 1603.0, 1601.0, 1602.0, 1600.0, 1604.0, 1605.0, 1604.0, 1602.0, 1603.0, 1604.0, 1603.0, 1602.0, 1602.0, 1606.0, 1605.0, 1607.0, 1602.0, 1606.0, 1607.0, 1607.0, 1609.0, 1610.0, 1611.0, 1609.0, 1608.0, 1608.0, 1607.0, 1606.0, 1605.0, 1604.0, 1603.0, 1604.0, 1609.0, 1608.0, 1608.0, 1606.0, 1608.0, 1609.0, 1612.0, 1610.0, 1611.0, 1613.0, 1614.0, 1612.0, 1612.0, 1614.0, 1616.0, 1614.0, 1612.0, 1611.0, 1609.0, 1609.0, 1611.0, 1612.0, 1611.0, 1610.0, 1610.0, 1612.0, 1610.0, 1612.0, 1614.0, 1615.0, 1613.0, 1613.0, 1616.0, 1614.0, 1615.0, 1614.0, 1613.0, 1613.0, 1611.0, 1613.0, 1613.0, 1614.0, 1615.0, 1614.0, 1615.0, 1615.0, 1613.0, 1613.0, 1612.0, 1613.0, 1613.0, 1613.0, 1610.0, 1610.0, 1611.0, 1611.0, 1610.0, 1610.0, 1610.0, 1610.0, 1612.0, 1611.0, 1612.0, 1612.0, 1614.0, 1615.0, 1613.0, 1613.0, 1612.0, 1612.0, 1613.0, 1613.0, 1611.0, 1611.0, 1610.0, 1612.0, 1612.0, 1614.0, 1613.0, 1612.0, 1612.0, 1610.0, 1609.0, 1609.0, 1611.0, 1613.0, 1614.0, 1612.0, 1614.0, 1615.0, 1617.0, 1617.0, 1614.0, 1617.0, 1620.0, 1619.0, 1614.0, 1611.0, 1611.0, 1612.0, 1614.0, 1619.0, 1617.0, 1617.0, 1615.0]
    },
    "slices": {}
  }
}