{
 "AcquisitionMatrixPE": 100,
 "AcquisitionNumber": 1,
 "AcquisitionTime": "09:20:23.492500",
 "BandwidthPerPixelPhaseEncode": 18.519,
 "BaseResolution": 100,
 "BodyPartExamined": "BRAIN",
 "ConsistencyInfo": "N4_VE11C_LATEST_20160120",
 "ConversionSoftware": "dcm2niix",
 "ConversionSoftwareVersion": "v1.0.20180622 GCC4.9.2",
 "DerivedVendorReportedEchoSpacing": 0.000539986,
 "DeviceSerialNumber": "166078",
 "DwellTime": 2.1e-06,
 "EchoTime": 0.034,
 "EchoTrainLength": 100,
 "EffectiveEchoSpacing": 0.000539986,
 "FlipAngle": 90,
 "ImageOrientationPatientDICOM": [
  0.999999,
  -0.000346191,
  -0.00130108,
  6.04834e-09,
  0.966377,
  -0.25713
 ],
 "ImageType": [
  "ORIGINAL",
  "PRIMARY",
  "M",
  "ND",
  "MOSAIC"
 ],
 "InPlanePhaseEncodingDirectionDICOM": "COL",
 "InstitutionAddress": "Street_StreetNo_Bei_Jing_District_CN_ZIP",
 "InstitutionName": "BeiJing_Normal_University",
 "InstitutionalDepartmentName": "Department",
 "MRAcquisitionType": "2D",
 "MagneticFieldStrength": 3,
 "Manufacturer": "Siemens",
 "ManufacturersModelName": "Prisma",
 "Modality": "MR",
 "MultibandAccelerationFactor": 3,
 "PartialFourier": 1,
 "PatientPosition": "HFS",
 "PercentPhaseFOV": 100,
 "PhaseEncodingDirection": "j-",
 "PhaseEncodingSteps": 100,
 "PhaseResolution": 1,
 "PixelBandwidth": 2380,
 "ProcedureStepDescription": "BNU_P2018_64CH_Zhen.ZongLei",
 "ProtocolName": "bold_100x100_s3_2x2x2_static_256",
 "PulseSequenceDetails": "%SiemensSeq%_ep2d_bold",
 "ReceiveCoilActiveElements": "HC1-7;NC1",
 "ReceiveCoilName": "HeadNeck_64",
 "ReconMatrixPE": 100,
 "RepetitionTime": 2,
 "SAR": 0.0822452,
 "ScanOptions": "FS",
 "ScanningSequence": "EP",
 "SequenceName": "_epfid2d1_100",
 "SequenceVariant": "SK",
 "SeriesDescription": "bold_100x100_s3_2x2x2_static_256",
 "SeriesNumber": 4,
 "ShimSetting": [
  -5471,
  -11489,
  -1302,
  484,
  -15,
  -192,
  -171,
  97
 ],
 "SliceThickness": 2,
 "SliceTiming": [
  1.485,
  0,
  0.99,
  0.0825,
  1.0725,
  0.165,
  1.155,
  0.2475,
  1.2375,
  0.33,
  1.32,
  0.4125,
  1.4025,
  0.5775,
  1.5675,
  0.66,
  1.65,
  0.7425,
  1.7325,
  0.825,
  1.815,
  0.9075,
  1.8975,
  0.495,
  1.485,
  0,
  0.99,
  0.0825,
  1.0725,
  0.165,
  1.155,
  0.2475,
  1.2375,
  0.33,
  1.32,
  0.4125,
  1.4025,
  0.5775,
  1.5675,
  0.66,
  1.65,
  0.7425,
  1.7325,
  0.825,
  1.815,
  0.9075,
  1.8975,
  0.495,
  1.485,
  0,
  0.99,
  0.0825,
  1.0725,
  0.165,
  1.155,
  0.2475,
  1.2375,
  0.33,
  1.32,
  0.4125,
  1.4025,
  0.5775,
  1.5675,
  0.66,
  1.65,
  0.7425,
  1.7325,
  0.825,
  1.815,
  0.9075,
  1.8975,
  0.495
 ],
 "SoftwareVersions": "syngo_MR_E11",
 "SpacingBetweenSlices": 2,
 "StationName": "AWP166078",
 "TaskName": "imagenet",
 "TotalReadoutTime": 0.0534586,
 "TxRefAmp": 233.801,
 "dcmmeta_affine": [
  [
   -1.9999982118606567,
   1.2096689872009847e-08,
   -0.00269269198179245,
   102.7587661743164
  ],
  [
   0.0006923822220414877,
   1.9327539205551147,
   -0.5142585635185242,
   -76.64244842529297
  ],
  [
   -0.002602152293547988,
   0.5142590403556824,
   1.932752251625061,
   -110.37429809570312
  ],
  [
   0.0,
   0.0,
   0.0,
   1.0
  ]
 ],
 "dcmmeta_reorient_transform": [
  [
   0.0,
   -1.0,
   0.0,
   99.0
  ],
  [
   1.0,
   0.0,
   0.0,
   0.0
  ],
  [
   0.0,
   0.0,
   1.0,
   0.0
  ],
  [
   0.0,
   0.0,
   0.0,
   1.0
  ]
 ],
 "dcmmeta_shape": [
  100,
  100,
  72,
  256
 ],
 "dcmmeta_slice_dim": 2,
 "dcmmeta_version": 0.6,
 "global": {
  "const": {
   "AcquisitionMatrix": [
    100,
    0,
    0,
    100
   ],
   "AngioFlag": "N",
   "BitsAllocated": 16,
   "BitsStored": 12,
   "BodyPartExamined": "BRAIN",
   "Columns": 900,
   "EchoNumbers": 1,
   "EchoTime": 34.0,
   "EchoTrainLength": 100,
   "FlipAngle": 90.0,
   "HighBit": 11,
   "ImageOrientationPatient": [
    0.99999909367593,
    -0.000346191114,
    -0.0013010761072,
    6.048345e-09,
    0.96637695221066,
    -0.257129512573
   ],
   "ImagePositionPatient": [
    -902.75804604839,
    -887.52479382795,
    147.28181997335
   ],
   "ImageType": [
    "ORIGINAL",
    "PRIMARY",
    "M",
    "ND",
    "MOSAIC"
   ],
   "ImagedNucleus": "1H",
   "ImagingFrequency": 123.25777,
   "InPlanePhaseEncodingDirection": "COL",
   "MRAcquisitionType": "2D",
   "MagneticFieldStrength": 3.0,
   "Manufacturer": "SIEMENS",
   "ManufacturerModelName": "Prisma",
   "Modality": "MR",
   "NumberOfAverages": 1.0,
   "NumberOfPhaseEncodingSteps": 100,
   "PercentPhaseFieldOfView": 100.0,
   "PercentSampling": 100.0,
   "PerformedProcedureStepStartTime": "090340.699000",
   "PhotometricInterpretation": "MONOCHROME2",
   "PixelBandwidth": 2380.0,
   "PixelRepresentation": 0,
   "PixelSpacing": [
    2.0,
    2.0
   ],
   "ProtocolName": "bold_100x100_s3_2x2x2_static_256",
   "RepetitionTime": 2000.0,
   "Rows": 900,
   "SAR": 0.08224520691132,
   "SamplesPerPixel": 1,
   "ScanOptions": "FS",
   "ScanningSequence": "EP",
   "SequenceName": "*epfid2d1_100",
   "SequenceVariant": "SK",
   "SeriesDescription": "bold_100x100_s3_2x2x2_static_256",
   "SeriesNumber": 4,
   "SeriesTime": "092025.845000",
   "SliceLocation": -87.094408097982,
   "SliceThickness": 2.0,
   "SmallestImagePixelValue": 0,
   "SoftwareVersions": "syngo MR E11",
   "SpacingBetweenSlices": 2.0000000449449,
   "SpecificCharacterSet": "ISO_IR 100",
   "StudyID": "1",
   "StudyTime": "090340.649000",
   "TransmitCoilName": "Body",
   "VariableFlipAngleFlag": "N",
   "WindowCenterWidthExplanation": "Algo1",
   "dBdt": 0.0
  },
  "slices": {}
 },
 "time": {
  "samples": {
   "AcquisitionNumber": [
    1,
    2,
    3,
    4,
    5,
    6,
    7,
    8,
    9,
    10,
    11,
    12,
    13,
    14,
    15,
    16,
    17,
    18,
    19,
    20,
    21,
    22,
    23,
    24,
    25,
    26,
    27,
    28,
    29,
    30,
    31,
    32,
    33,
    34,
    35,
    36,
    37,
    38,
    39,
    40,
    41,
    42,
    43,
    44,
    45,
    46,
    47,
    48,
    49,
    50,
    51,
    52,
    53,
    54,
    55,
    56,
    57,
    58,
    59,
    60,
    61,
    62,
    63,
    64,
    65,
    66,
    67,
    68,
    69,
    70,
    71,
    72,
    73,
    74,
    75,
    76,
    77,
    78,
    79,
    80,
    81,
    82,
    83,
    84,
    85,
    86,
    87,
    88,
    89,
    90,
    91,
    92,
    93,
    94,
    95,
    96,
    97,
    98,
    99,
    100,
    101,
    102,
    103,
    104,
    105,
    106,
    107,
    108,
    109,
    110,
    111,
    112,
    113,
    114,
    115,
    116,
    117,
    118,
    119,
    120,
    121,
    122,
    123,
    124,
    125,
    126,
    127,
    128,
    129,
    130,
    131,
    132,
    133,
    134,
    135,
    136,
    137,
    138,
    139,
    140,
    141,
    142,
    143,
    144,
    145,
    146,
    147,
    148,
    149,
    150,
    151,
    152,
    153,
    154,
    155,
    156,
    157,
    158,
    159,
    160,
    161,
    162,
    163,
    164,
    165,
    166,
    167,
    168,
    169,
    170,
    171,
    172,
    173,
    174,
    175,
    176,
    177,
    178,
    179,
    180,
    181,
    182,
    183,
    184,
    185,
    186,
    187,
    188,
    189,
    190,
    191,
    192,
    193,
    194,
    195,
    196,
    197,
    198,
    199,
    200,
    201,
    202,
    203,
    204,
    205,
    206,
    207,
    208,
    209,
    210,
    211,
    212,
    213,
    214,
    215,
    216,
    217,
    218,
    219,
    220,
    221,
    222,
    223,
    224,
    225,
    226,
    227,
    228,
    229,
    230,
    231,
    232,
    233,
    234,
    235,
    236,
    237,
    238,
    239,
    240,
    241,
    242,
    243,
    244,
    245,
    246,
    247,
    248,
    249,
    250,
    251,
    252,
    253,
    254,
    255,
    256
   ],
   "AcquisitionTime": [
    "092023.492500",
    "092025.492500",
    "092027.492500",
    "092029.492500",
    "092031.492500",
    "092033.492500",
    "092035.492500",
    "092037.492500",
    "092039.492500",
    "092041.492500",
    "092043.492500",
    "092045.492500",
    "092047.492500",
    "092049.492500",
    "092051.492500",
    "092053.492500",
    "092055.492500",
    "092057.492500",
    "092059.492500",
    "092101.492500",
    "092103.492500",
    "092105.492500",
    "092107.492500",
    "092109.492500",
    "092111.492500",
    "092113.492500",
    "092115.492500",
    "092117.492500",
    "092119.492500",
    "092121.492500",
    "092123.492500",
    "092125.492500",
    "092127.492500",
    "092129.492500",
    "092131.492500",
    "092133.492500",
    "092135.492500",
    "092137.492500",
    "092139.492500",
    "092141.492500",
    "092143.492500",
    "092145.492500",
    "092147.492500",
    "092149.492500",
    "092151.492500",
    "092153.492500",
    "092155.492500",
    "092157.492500",
    "092159.492500",
    "092201.492500",
    "092203.492500",
    "092205.492500",
    "092207.492500",
    "092209.492500",
    "092211.492500",
    "092213.492500",
    "092215.492500",
    "092217.492500",
    "092219.492500",
    "092221.492500",
    "092223.492500",
    "092225.492500",
    "092227.492500",
    "092229.492500",
    "092231.492500",
    "092233.492500",
    "092235.492500",
    "092237.492500",
    "092239.492500",
    "092241.492500",
    "092243.492500",
    "092245.492500",
    "092247.492500",
    "092249.492500",
    "092251.492500",
    "092253.492500",
    "092255.492500",
    "092257.492500",
    "092259.492500",
    "092301.492500",
    "092303.492500",
    "092305.492500",
    "092307.492500",
    "092309.492500",
    "092311.492500",
    "092313.492500",
    "092315.492500",
    "092317.492500",
    "092319.492500",
    "092321.492500",
    "092323.492500",
    "092325.492500",
    "092327.492500",
    "092329.492500",
    "092331.492500",
    "092333.492500",
    "092335.492500",
    "092337.492500",
    "092339.492500",
    "092341.492500",
    "092343.492500",
    "092345.492500",
    "092347.492500",
    "092349.492500",
    "092351.492500",
    "092353.492500",
    "092355.492500",
    "092357.492500",
    "092359.492500",
    "092401.492500",
    "092403.492500",
    "092405.492500",
    "092407.492500",
    "092409.492500",
    "092411.492500",
    "092413.492500",
    "092415.492500",
    "092417.492500",
    "092419.492500",
    "092421.492500",
    "092423.492500",
    "092425.492500",
    "092427.492500",
    "092429.492500",
    "092431.492500",
    "092433.492500",
    "092435.492500",
    "092437.492500",
    "092439.492500",
    "092441.492500",
    "092443.492500",
    "092445.492500",
    "092447.492500",
    "092449.492500",
    "092451.492500",
    "092453.492500",
    "092455.492500",
    "092457.492500",
    "092459.492500",
    "092501.492500",
    "092503.492500",
    "092505.492500",
    "092507.492500",
    "092509.492500",
    "092511.492500",
    "092513.492500",
    "092515.492500",
    "092517.492500",
    "092519.492500",
    "092521.492500",
    "092523.492500",
    "092525.492500",
    "092527.492500",
    "092529.492500",
    "092531.492500",
    "092533.492500",
    "092535.492500",
    "092537.492500",
    "092539.492500",
    "092541.492500",
    "092543.492500",
    "092545.492500",
    "092547.492500",
    "092549.492500",
    "092551.492500",
    "092553.492500",
    "092555.492500",
    "092557.492500",
    "092559.492500",
    "092601.492500",
    "092603.492500",
    "092605.492500",
    "092607.492500",
    "092609.492500",
    "092611.492500",
    "092613.492500",
    "092615.492500",
    "092617.492500",
    "092619.492500",
    "092621.492500",
    "092623.492500",
    "092625.492500",
    "092627.492500",
    "092629.492500",
    "092631.492500",
    "092633.492500",
    "092635.492500",
    "092637.492500",
    "092639.492500",
    "092641.492500",
    "092643.492500",
    "092645.492500",
    "092647.492500",
    "092649.492500",
    "092651.492500",
    "092653.492500",
    "092655.492500",
    "092657.492500",
    "092659.492500",
    "092701.492500",
    "092703.492500",
    "092705.492500",
    "092707.492500",
    "092709.492500",
    "092711.492500",
    "092713.492500",
    "092715.492500",
    "092717.492500",
    "092719.492500",
    "092721.492500",
    "092723.492500",
    "092725.492500",
    "092727.492500",
    "092729.492500",
    "092731.492500",
    "092733.492500",
    "092735.492500",
    "092737.492500",
    "092739.492500",
    "092741.492500",
    "092743.492500",
    "092745.492500",
    "092747.492500",
    "092749.492500",
    "092751.492500",
    "092753.492500",
    "092755.492500",
    "092757.492500",
    "092759.492500",
    "092801.492500",
    "092803.492500",
    "092805.492500",
    "092807.492500",
    "092809.492500",
    "092811.492500",
    "092813.492500",
    "092815.492500",
    "092817.492500",
    "092819.492500",
    "092821.492500",
    "092823.492500",
    "092825.492500",
    "092827.492500",
    "092829.492500",
    "092831.492500",
    "092833.492500",
    "092835.492500",
    "092837.492500",
    "092839.492500",
    "092841.492500",
    "092843.492500",
    "092845.492500",
    "092847.492500",
    "092849.492500",
    "092851.492500",
    "092853.492500"
   ],
   "ContentTime": [
    "092025.855000",
    "092027.844000",
    "092029.343000",
    "092031.843000",
    "092033.844000",
    "092035.343000",
    "092037.345000",
    "092039.344000",
    "092041.345000",
    "092043.344000",
    "092045.344000",
    "092047.344000",
    "092049.343000",
    "092051.343000",
    "092053.343000",
    "092055.344000",
    "092057.844000",
    "092059.845000",
    "092101.845000",
    "092103.343000",
    "092105.844000",
    "092107.843000",
    "092109.843000",
    "092111.343000",
    "092113.344000",
    "092115.344000",
    "092117.344000",
    "092119.344000",
    "092121.843000",
    "092123.343000",
    "092125.844000",
    "092127.343000",
    "092129.345000",
    "092131.344000",
    "092133.344000",
    "092135.345000",
    "092137.345000",
    "092139.843000",
    "092141.843000",
    "092143.843000",
    "092145.343000",
    "092147.345000",
    "092149.845000",
    "092151.344000",
    "092153.345000",
    "092155.345000",
    "092157.844000",
    "092159.344000",
    "092201.344000",
    "092203.344000",
    "092205.344000",
    "092207.345000",
    "092209.344000",
    "092211.345000",
    "092213.343000",
    "092215.843000",
    "092217.844000",
    "092219.343000",
    "092221.343000",
    "092223.844000",
    "092225.344000",
    "092227.345000",
    "092229.344000",
    "092231.343000",
    "092233.843000",
    "092235.843000",
    "092237.843000",
    "092239.844000",
    "092241.344000",
    "092243.845000",
    "092245.344000",
    "092247.845000",
    "092249.343000",
    "092251.343000",
    "092253.343000",
    "092255.344000",
    "092257.344000",
    "092259.345000",
    "092301.345000",
    "092303.344000",
    "092305.344000",
    "092307.343000",
    "092309.343000",
    "092311.844000",
    "092313.844000",
    "092315.345000",
    "092317.844000",
    "092319.845000",
    "092321.845000",
    "092323.344000",
    "092325.343000",
    "092327.344000",
    "092329.344000",
    "092331.345000",
    "092333.344000",
    "092335.345000",
    "092337.344000",
    "092339.345000",
    "092341.344000",
    "092343.343000",
    "092345.843000",
    "092347.344000",
    "092349.344000",
    "092351.844000",
    "092353.845000",
    "092355.344000",
    "092357.345000",
    "092359.843000",
    "092401.343000",
    "092403.343000",
    "092405.344000",
    "092407.344000",
    "092409.345000",
    "092411.344000",
    "092413.844000",
    "092415.344000",
    "092417.344000",
    "092419.344000",
    "092421.343000",
    "092423.845000",
    "092425.344000",
    "092427.845000",
    "092429.845000",
    "092431.845000",
    "092433.843000",
    "092435.344000",
    "092437.844000",
    "092439.344000",
    "092441.345000",
    "092443.345000",
    "092445.344000",
    "092447.844000",
    "092449.345000",
    "092451.844000",
    "092453.343000",
    "092455.344000",
    "092457.843000",
    "092459.344000",
    "092501.345000",
    "092503.844000",
    "092505.844000",
    "092507.845000",
    "092509.343000",
    "092511.344000",
    "092513.344000",
    "092515.343000",
    "092517.345000",
    "092519.344000",
    "092521.345000",
    "092523.845000",
    "092525.344000",
    "092527.344000",
    "092529.843000",
    "092531.844000",
    "092533.845000",
    "092535.344000",
    "092537.345000",
    "092539.345000",
    "092541.845000",
    "092543.844000",
    "092545.844000",
    "092547.844000",
    "092549.344000",
    "092551.345000",
    "092553.344000",
    "092555.344000",
    "092557.844000",
    "092559.345000",
    "092601.344000",
    "092603.343000",
    "092605.844000",
    "092607.844000",
    "092609.344000",
    "092611.344000",
    "092613.845000",
    "092615.344000",
    "092617.845000",
    "092619.844000",
    "092621.344000",
    "092623.344000",
    "092625.343000",
    "092627.845000",
    "092629.845000",
    "092631.344000",
    "092633.844000",
    "092635.344000",
    "092637.343000",
    "092639.344000",
    "092641.344000",
    "092643.343000",
    "092645.845000",
    "092647.845000",
    "092649.344000",
    "092651.345000",
    "092653.343000",
    "092655.843000",
    "092657.343000",
    "092659.344000",
    "092701.344000",
    "092703.345000",
    "092705.344000",
    "092707.344000",
    "092709.344000",
    "092711.343000",
    "092713.343000",
    "092715.344000",
    "092717.343000",
    "092719.844000",
    "092721.844000",
    "092723.857000",
    "092725.345000",
    "092727.344000",
    "092729.344000",
    "092731.344000",
    "092733.343000",
    "092735.844000",
    "092737.845000",
    "092739.345000",
    "092741.345000",
    "092743.845000",
    "092745.844000",
    "092747.344000",
    "092749.343000",
    "092751.343000",
    "092753.344000",
    "092755.344000",
    "092757.844000",
    "092759.344000",
    "092801.345000",
    "092803.343000",
    "092805.343000",
    "092807.344000",
    "092809.343000",
    "092811.345000",
    "092813.845000",
    "092815.345000",
    "092817.844000",
    "092819.844000",
    "092821.844000",
    "092823.844000",
    "092825.844000",
    "092827.844000",
    "092829.344000",
    "092831.344000",
    "092833.344000",
    "092835.845000",
    "092837.344000",
    "092839.843000",
    "092841.844000",
    "092843.343000",
    "092845.343000",
    "092847.844000",
    "092849.345000",
    "092851.844000",
    "092853.344000",
    "092855.372000"
   ],
   "InstanceCreationTime": [
    "092025.855000",
    "092027.844000",
    "092029.343000",
    "092031.843000",
    "092033.844000",
    "092035.343000",
    "092037.345000",
    "092039.344000",
    "092041.345000",
    "092043.344000",
    "092045.344000",
    "092047.344000",
    "092049.343000",
    "092051.343000",
    "092053.343000",
    "092055.344000",
    "092057.844000",
    "092059.845000",
    "092101.845000",
    "092103.343000",
    "092105.844000",
    "092107.843000",
    "092109.843000",
    "092111.343000",
    "092113.344000",
    "092115.344000",
    "092117.344000",
    "092119.344000",
    "092121.843000",
    "092123.343000",
    "092125.844000",
    "092127.343000",
    "092129.345000",
    "092131.344000",
    "092133.344000",
    "092135.345000",
    "092137.345000",
    "092139.843000",
    "092141.843000",
    "092143.843000",
    "092145.343000",
    "092147.345000",
    "092149.845000",
    "092151.344000",
    "092153.345000",
    "092155.345000",
    "092157.844000",
    "092159.344000",
    "092201.344000",
    "092203.344000",
    "092205.344000",
    "092207.345000",
    "092209.344000",
    "092211.345000",
    "092213.343000",
    "092215.843000",
    "092217.844000",
    "092219.343000",
    "092221.343000",
    "092223.844000",
    "092225.344000",
    "092227.345000",
    "092229.344000",
    "092231.343000",
    "092233.843000",
    "092235.843000",
    "092237.843000",
    "092239.844000",
    "092241.344000",
    "092243.845000",
    "092245.344000",
    "092247.845000",
    "092249.343000",
    "092251.343000",
    "092253.343000",
    "092255.344000",
    "092257.344000",
    "092259.345000",
    "092301.345000",
    "092303.344000",
    "092305.344000",
    "092307.343000",
    "092309.343000",
    "092311.844000",
    "092313.844000",
    "092315.345000",
    "092317.844000",
    "092319.845000",
    "092321.845000",
    "092323.344000",
    "092325.343000",
    "092327.344000",
    "092329.344000",
    "092331.345000",
    "092333.344000",
    "092335.345000",
    "092337.344000",
    "092339.345000",
    "092341.344000",
    "092343.343000",
    "092345.843000",
    "092347.344000",
    "092349.344000",
    "092351.844000",
    "092353.845000",
    "092355.344000",
    "092357.345000",
    "092359.843000",
    "092401.343000",
    "092403.343000",
    "092405.344000",
    "092407.344000",
    "092409.345000",
    "092411.344000",
    "092413.844000",
    "092415.344000",
    "092417.344000",
    "092419.344000",
    "092421.343000",
    "092423.845000",
    "092425.344000",
    "092427.845000",
    "092429.845000",
    "092431.845000",
    "092433.843000",
    "092435.344000",
    "092437.844000",
    "092439.344000",
    "092441.345000",
    "092443.345000",
    "092445.344000",
    "092447.844000",
    "092449.345000",
    "092451.844000",
    "092453.343000",
    "092455.344000",
    "092457.843000",
    "092459.344000",
    "092501.345000",
    "092503.844000",
    "092505.844000",
    "092507.845000",
    "092509.343000",
    "092511.344000",
    "092513.344000",
    "092515.343000",
    "092517.345000",
    "092519.344000",
    "092521.345000",
    "092523.845000",
    "092525.344000",
    "092527.344000",
    "092529.843000",
    "092531.844000",
    "092533.845000",
    "092535.344000",
    "092537.345000",
    "092539.345000",
    "092541.845000",
    "092543.844000",
    "092545.844000",
    "092547.844000",
    "092549.344000",
    "092551.345000",
    "092553.344000",
    "092555.344000",
    "092557.844000",
    "092559.345000",
    "092601.344000",
    "092603.343000",
    "092605.844000",
    "092607.844000",
    "092609.344000",
    "092611.344000",
    "092613.845000",
    "092615.344000",
    "092617.845000",
    "092619.844000",
    "092621.344000",
    "092623.344000",
    "092625.343000",
    "092627.845000",
    "092629.845000",
    "092631.344000",
    "092633.844000",
    "092635.344000",
    "092637.343000",
    "092639.344000",
    "092641.344000",
    "092643.343000",
    "092645.845000",
    "092647.845000",
    "092649.344000",
    "092651.345000",
    "092653.343000",
    "092655.843000",
    "092657.343000",
    "092659.344000",
    "092701.344000",
    "092703.345000",
    "092705.344000",
    "092707.344000",
    "092709.344000",
    "092711.343000",
    "092713.343000",
    "092715.344000",
    "092717.343000",
    "092719.844000",
    "092721.844000",
    "092723.857000",
    "092725.345000",
    "092727.344000",
    "092729.344000",
    "092731.344000",
    "092733.343000",
    "092735.844000",
    "092737.845000",
    "092739.345000",
    "092741.345000",
    "092743.845000",
    "092745.844000",
    "092747.344000",
    "092749.343000",
    "092751.343000",
    "092753.344000",
    "092755.344000",
    "092757.844000",
    "092759.344000",
    "092801.345000",
    "092803.343000",
    "092805.343000",
    "092807.344000",
    "092809.343000",
    "092811.345000",
    "092813.845000",
    "092815.345000",
    "092817.844000",
    "092819.844000",
    "092821.844000",
    "092823.844000",
    "092825.844000",
    "092827.844000",
    "092829.344000",
    "092831.344000",
    "092833.344000",
    "092835.845000",
    "092837.344000",
    "092839.843000",
    "092841.844000",
    "092843.343000",
    "092845.343000",
    "092847.844000",
    "092849.345000",
    "092851.844000",
    "092853.344000",
    "092855.372000"
   ],
   "InstanceNumber": [
    1,
    2,
    3,
    4,
    5,
    6,
    7,
    8,
    9,
    10,
    11,
    12,
    13,
    14,
    15,
    16,
    17,
    18,
    19,
    20,
    21,
    22,
    23,
    24,
    25,
    26,
    27,
    28,
    29,
    30,
    31,
    32,
    33,
    34,
    35,
    36,
    37,
    38,
    39,
    40,
    41,
    42,
    43,
    44,
    45,
    46,
    47,
    48,
    49,
    50,
    51,
    52,
    53,
    54,
    55,
    56,
    57,
    58,
    59,
    60,
    61,
    62,
    63,
    64,
    65,
    66,
    67,
    68,
    69,
    70,
    71,
    72,
    73,
    74,
    75,
    76,
    77,
    78,
    79,
    80,
    81,
    82,
    83,
    84,
    85,
    86,
    87,
    88,
    89,
    90,
    91,
    92,
    93,
    94,
    95,
    96,
    97,
    98,
    99,
    100,
    101,
    102,
    103,
    104,
    105,
    106,
    107,
    108,
    109,
    110,
    111,
    112,
    113,
    114,
    115,
    116,
    117,
    118,
    119,
    120,
    121,
    122,
    123,
    124,
    125,
    126,
    127,
    128,
    129,
    130,
    131,
    132,
    133,
    134,
    135,
    136,
    137,
    138,
    139,
    140,
    141,
    142,
    143,
    144,
    145,
    146,
    147,
    148,
    149,
    150,
    151,
    152,
    153,
    154,
    155,
    156,
    157,
    158,
    159,
    160,
    161,
    162,
    163,
    164,
    165,
    166,
    167,
    168,
    169,
    170,
    171,
    172,
    173,
    174,
    175,
    176,
    177,
    178,
    179,
    180,
    181,
    182,
    183,
    184,
    185,
    186,
    187,
    188,
    189,
    190,
    191,
    192,
    193,
    194,
    195,
    196,
    197,
    198,
    199,
    200,
    201,
    202,
    203,
    204,
    205,
    206,
    207,
    208,
    209,
    210,
    211,
    212,
    213,
    214,
    215,
    216,
    217,
    218,
    219,
    220,
    221,
    222,
    223,
    224,
    225,
    226,
    227,
    228,
    229,
    230,
    231,
    232,
    233,
    234,
    235,
    236,
    237,
    238,
    239,
    240,
    241,
    242,
    243,
    244,
    245,
    246,
    247,
    248,
    249,
    250,
    251,
    252,
    253,
    254,
    255,
    256
   ],
   "LargestImagePixelValue": [
    3194,
    3160,
    3179,
    3182,
    3152,
    3172,
    3158,
    3216,
    3142,
    3144,
    3189,
    3160,
    3158,
    3160,
    3154,
    3154,
    3188,
    3178,
    3174,
    3147,
    3177,
    3186,
    3181,
    3206,
    3161,
    3189,
    3168,
    3166,
    3191,
    3218,
    3189,
    3187,
    3158,
    3164,
    3171,
    3167,
    3177,
    3177,
    3190,
    3205,
    3217,
    3175,
    3168,
    3169,
    3169,
    3191,
    3216,
    3195,
    3199,
    3190,
    3185,
    3182,
    3199,
    3195,
    3186,
    3212,
    3170,
    3166,
    3178,
    3156,
    3210,
    3238,
    3218,
    3196,
    3190,
    3189,
    3206,
    3214,
    3173,
    3163,
    3176,
    3222,
    3188,
    3200,
    3188,
    3144,
    3185,
    3179,
    3143,
    3172,
    3172,
    3181,
    3187,
    3201,
    3154,
    3191,
    3189,
    3189,
    3168,
    3169,
    3180,
    3149,
    3169,
    3169,
    3180,
    3169,
    3176,
    3165,
    3192,
    3160,
    3144,
    3159,
    3179,
    3147,
    3180,
    3196,
    3176,
    3163,
    3200,
    3186,
    3154,
    3195,
    3163,
    3212,
    3178,
    3167,
    3170,
    3169,
    3206,
    3176,
    3168,
    3173,
    3173,
    3187,
    3168,
    3181,
    3183,
    3177,
    3190,
    3173,
    3158,
    3156,
    3164,
    3170,
    3146,
    3174,
    3152,
    3156,
    3148,
    3130,
    3188,
    3183,
    3218,
    3165,
    3172,
    3188,
    3179,
    3144,
    3155,
    3191,
    3158,
    3138,
    3176,
    3162,
    3144,
    3130,
    3164,
    3150,
    3164,
    3161,
    3191,
    3175,
    3207,
    3160,
    3178,
    3164,
    3171,
    3143,
    3173,
    3178,
    3177,
    3162,
    3150,
    3140,
    3161,
    3170,
    3147,
    3155,
    3206,
    3162,
    3173,
    3207,
    3211,
    3185,
    3171,
    3177,
    3186,
    3169,
    3165,
    3172,
    3188,
    3200,
    3195,
    3197,
    3206,
    3210,
    3207,
    3196,
    3174,
    3162,
    3191,
    3155,
    3188,
    3186,
    3199,
    3181,
    3192,
    3160,
    3171,
    3137,
    3171,
    3192,
    3161,
    3200,
    3209,
    3195,
    3191,
    3168,
    3182,
    3161,
    3191,
    3149,
    3189,
    3143,
    3142,
    3187,
    3187,
    3187,
    3230,
    3194,
    3198,
    3149,
    3199,
    3200,
    3213,
    3193,
    3165,
    3218,
    3180,
    3153,
    3192,
    3146,
    3195,
    3203,
    3188,
    3192,
    3197,
    3184,
    3171,
    3177,
    3180,
    3187,
    3158,
    3157,
    3187,
    3186
   ],
   "WindowCenter": [
    767.0,
    765.0,
    765.0,
    765.0,
    764.0,
    764.0,
    764.0,
    765.0,
    765.0,
    764.0,
    765.0,
    766.0,
    767.0,
    766.0,
    766.0,
    767.0,
    767.0,
    766.0,
    767.0,
    766.0,
    766.0,
    767.0,
    767.0,
    767.0,
    766.0,
    766.0,
    765.0,
    765.0,
    765.0,
    765.0,
    764.0,
    764.0,
    763.0,
    763.0,
    764.0,
    764.0,
    764.0,
    764.0,
    764.0,
    764.0,
    764.0,
    764.0,
    764.0,
    764.0,
    764.0,
    765.0,
    766.0,
    766.0,
    766.0,
    766.0,
    765.0,
    765.0,
    766.0,
    767.0,
    766.0,
    766.0,
    766.0,
    766.0,
    765.0,
    764.0,
    764.0,
    765.0,
    765.0,
    764.0,
    764.0,
    764.0,
    764.0,
    764.0,
    762.0,
    762.0,
    763.0,
    763.0,
    763.0,
    764.0,
    764.0,
    763.0,
    763.0,
    763.0,
    764.0,
    764.0,
    763.0,
    764.0,
    765.0,
    764.0,
    763.0,
    764.0,
    764.0,
    764.0,
    764.0,
    764.0,
    764.0,
    765.0,
    764.0,
    764.0,
    765.0,
    765.0,
    765.0,
    764.0,
    765.0,
    765.0,
    766.0,
    766.0,
    766.0,
    765.0,
    764.0,
    764.0,
    764.0,
    763.0,
    763.0,
