{
 "AcquisitionMatrixPE": 100,
 "AcquisitionNumber": 1,
 "AcquisitionTime": "09:25:40.057500",
 "BandwidthPerPixelPhaseEncode": 18.519,
 "BaseResolution": 100,
 "BodyPartExamined": "BRAIN",
 "ConsistencyInfo": "N4_VE11C_LATEST_20160120",
 "ConversionSoftware": "dcm2niix",
 "ConversionSoftwareVersion": "v1.0.20180622 GCC4.9.2",
 "DerivedVendorReportedEchoSpacing": 0.000539986,
 "DeviceSerialNumber": "166078",
 "DwellTime": 2.1e-06,
 "EchoTime": 0.034,
 "EchoTrainLength": 100,
 "EffectiveEchoSpacing": 0.000539986,
 "FlipAngle": 90,
 "ImageOrientationPatientDICOM": [
  1,
  3.40647e-07,
  9.38618e-06,
  3.5288e-09,
  0.999328,
  -0.036644
 ],
 "ImageType": [
  "ORIGINAL",
  "PRIMARY",
  "M",
  "ND",
  "MOSAIC"
 ],
 "InPlanePhaseEncodingDirectionDICOM": "COL",
 "InstitutionAddress": "Street_StreetNo_Bei_Jing_District_CN_ZIP",
 "InstitutionName": "BeiJing_Normal_University",
 "InstitutionalDepartmentName": "Department",
 "MRAcquisitionType": "2D",
 "MagneticFieldStrength": 3,
 "Manufacturer": "Siemens",
 "ManufacturersModelName": "Prisma",
 "Modality": "MR",
 "MultibandAccelerationFactor": 3,
 "PartialFourier": 1,
 "PatientPosition": "HFS",
 "PercentPhaseFOV": 100,
 "PhaseEncodingDirection": "j-",
 "PhaseEncodingSteps": 100,
 "PhaseResolution": 1,
 "PixelBandwidth": 2380,
 "ProcedureStepDescription": "BNU_P2018_64CH_Zhen.ZongLei",
 "ProtocolName": "bold_100x100_s3_2x2x2_static_test_241",
 "PulseSequenceDetails": "%SiemensSeq%_ep2d_bold",
 "ReceiveCoilActiveElements": "HC1-7;NC1",
 "ReceiveCoilName": "HeadNeck_64",
 "ReconMatrixPE": 100,
 "RepetitionTime": 2,
 "SAR": 0.0729976,
 "ScanOptions": "FS",
 "ScanningSequence": "EP",
 "SequenceName": "_epfid2d1_100",
 "SequenceVariant": "SK",
 "SeriesDescription": "bold_100x100_s3_2x2x2_static_test_241",
 "SeriesNumber": 5,
 "ShimSetting": [
  -5453,
  -11504,
  -1262,
  147,
  -85,
  -137,
  -127,
  72
 ],
 "SliceThickness": 2,
 "SliceTiming": [
  1.485,
  0,
  0.99,
  0.0825,
  1.0725,
  0.165,
  1.155,
  0.2475,
  1.2375,
  0.33,
  1.32,
  0.4125,
  1.4025,
  0.5775,
  1.5675,
  0.66,
  1.65,
  0.7425,
  1.7325,
  0.825,
  1.815,
  0.9075,
  1.8975,
  0.495,
  1.485,
  0,
  0.99,
  0.0825,
  1.0725,
  0.165,
  1.155,
  0.2475,
  1.2375,
  0.33,
  1.32,
  0.4125,
  1.4025,
  0.5775,
  1.5675,
  0.66,
  1.65,
  0.7425,
  1.7325,
  0.825,
  1.815,
  0.9075,
  1.8975,
  0.495,
  1.485,
  0,
  0.99,
  0.0825,
  1.0725,
  0.165,
  1.155,
  0.2475,
  1.2375,
  0.33,
  1.32,
  0.4125,
  1.4025,
  0.5775,
  1.5675,
  0.66,
  1.65,
  0.7425,
  1.7325,
  0.825,
  1.815,
  0.9075,
  1.8975,
  0.495
 ],
 "SoftwareVersions": "syngo_MR_E11",
 "SpacingBetweenSlices": 2,
 "StationName": "AWP166078",
 "TaskName": "coco",
 "TotalReadoutTime": 0.0534586,
 "TxRefAmp": 240.496,
 "dcmmeta_affine": [
  [
   -2.0,
   7.057590067915953e-09,
   1.878471448435448e-05,
   100.73217010498047
  ],
  [
   -6.812939545852714e-07,
   1.9986567497253418,
   -0.0732879713177681,
   -87.915771484375
  ],
  [
   1.877235627034679e-05,
   0.0732879713177681,
   1.9986567497253418,
   -74.75650787353516
  ],
  [
   0.0,
   0.0,
   0.0,
   1.0
  ]
 ],
 "dcmmeta_reorient_transform": [
  [
   0.0,
   -1.0,
   0.0,
   99.0
  ],
  [
   1.0,
   0.0,
   0.0,
   0.0
  ],
  [
   0.0,
   0.0,
   1.0,
   0.0
  ],
  [
   0.0,
   0.0,
   0.0,
   1.0
  ]
 ],
 "dcmmeta_shape": [
  100,
  100,
  72,
  241
 ],
 "dcmmeta_slice_dim": 2,
 "dcmmeta_version": 0.6,
 "global": {
  "const": {
   "AcquisitionMatrix": [
    100,
    0,
    0,
    100
   ],
   "AngioFlag": "N",
   "BitsAllocated": 16,
   "BitsStored": 12,
   "BodyPartExamined": "BRAIN",
   "Columns": 900,
   "EchoNumbers": 1,
   "EchoTime": 34.0,
   "EchoTrainLength": 100,
   "FlipAngle": 90.0,
   "HighBit": 11,
   "ImageOrientationPatient": [
    0.99999999995589,
    3.40646969e-07,
    9.386178527e-06,
    3.528795e-09,
    0.99932838366932,
    -0.0366439844021
   ],
   "ImagePositionPatient": [
    -900.73217282396,
    -909.41422823506,
    -38.193320827337
   ],
   "ImageType": [
    "ORIGINAL",
    "PRIMARY",
    "M",
    "ND",
    "MOSAIC"
   ],
   "ImagedNucleus": "1H",
   "ImagingFrequency": 123.257762,
   "InPlanePhaseEncodingDirection": "COL",
   "MRAcquisitionType": "2D",
   "MagneticFieldStrength": 3.0,
   "Manufacturer": "SIEMENS",
   "ManufacturerModelName": "Prisma",
   "Modality": "MR",
   "NumberOfAverages": 1.0,
   "NumberOfPhaseEncodingSteps": 100,
   "PercentPhaseFieldOfView": 100.0,
   "PercentSampling": 100.0,
   "PerformedProcedureStepStartTime": "085924.354000",
   "PhotometricInterpretation": "MONOCHROME2",
   "PixelBandwidth": 2380.0,
   "PixelRepresentation": 0,
   "PixelSpacing": [
    2.0,
    2.0
   ],
   "ProtocolName": "bold_100x100_s3_2x2x2_static_test_241",
   "RepetitionTime": 2000.0,
   "Rows": 900,
   "SAR": 0.07299762692833,
   "SamplesPerPixel": 1,
   "ScanOptions": "FS",
   "ScanningSequence": "EP",
   "SequenceName": "*epfid2d1_100",
   "SequenceVariant": "SK",
   "SeriesDescription": "bold_100x100_s3_2x2x2_static_test_241",
   "SeriesNumber": 5,
   "SeriesTime": "092542.711000",
   "SliceLocation": -71.4837703623,
   "SliceThickness": 2.0,
   "SmallestImagePixelValue": 0,
   "SoftwareVersions": "syngo MR E11",
   "SpacingBetweenSlices": 2.0000000297786,
   "SpecificCharacterSet": "ISO_IR 100",
   "StudyID": "1",
   "StudyTime": "085924.262000",
   "TransmitCoilName": "Body",
   "VariableFlipAngleFlag": "N",
   "WindowCenterWidthExplanation": "Algo1",
   "dBdt": 0.0
  },
  "slices": {}
 },
 "time": {
  "samples": {
   "AcquisitionNumber": [
    1,
    2,
    3,
    4,
    5,
    6,
    7,
    8,
    9,
    10,
    11,
    12,
    13,
    14,
    15,
    16,
    17,
    18,
    19,
    20,
    21,
    22,
    23,
    24,
    25,
    26,
    27,
    28,
    29,
    30,
    31,
    32,
    33,
    34,
    35,
    36,
    37,
    38,
    39,
    40,
    41,
    42,
    43,
    44,
    45,
    46,
    47,
    48,
    49,
    50,
    51,
    52,
    53,
    54,
    55,
    56,
    57,
    58,
    59,
    60,
    61,
    62,
    63,
    64,
    65,
    66,
    67,
    68,
    69,
    70,
    71,
    72,
    73,
    74,
    75,
    76,
    77,
    78,
    79,
    80,
    81,
    82,
    83,
    84,
    85,
    86,
    87,
    88,
    89,
    90,
    91,
    92,
    93,
    94,
    95,
    96,
    97,
    98,
    99,
    100,
    101,
    102,
    103,
    104,
    105,
    106,
    107,
    108,
    109,
    110,
    111,
    112,
    113,
    114,
    115,
    116,
    117,
    118,
    119,
    120,
    121,
    122,
    123,
    124,
    125,
    126,
    127,
    128,
    129,
    130,
    131,
    132,
    133,
    134,
    135,
    136,
    137,
    138,
    139,
    140,
    141,
    142,
    143,
    144,
    145,
    146,
    147,
    148,
    149,
    150,
    151,
    152,
    153,
    154,
    155,
    156,
    157,
    158,
    159,
    160,
    161,
    162,
    163,
    164,
    165,
    166,
    167,
    168,
    169,
    170,
    171,
    172,
    173,
    174,
    175,
    176,
    177,
    178,
    179,
    180,
    181,
    182,
    183,
    184,
    185,
    186,
    187,
    188,
    189,
    190,
    191,
    192,
    193,
    194,
    195,
    196,
    197,
    198,
    199,
    200,
    201,
    202,
    203,
    204,
    205,
    206,
    207,
    208,
    209,
    210,
    211,
    212,
    213,
    214,
    215,
    216,
    217,
    218,
    219,
    220,
    221,
    222,
    223,
    224,
    225,
    226,
    227,
    228,
    229,
    230,
    231,
    232,
    233,
    234,
    235,
    236,
    237,
    238,
    239,
    240,
    241
   ],
   "AcquisitionTime": [
    "092540.057500",
    "092542.057500",
    "092544.057500",
    "092546.057500",
    "092548.057500",
    "092550.057500",
    "092552.057500",
    "092554.057500",
    "092556.057500",
    "092558.057500",
    "092600.057500",
    "092602.057500",
    "092604.057500",
    "092606.057500",
    "092608.057500",
    "092610.057500",
    "092612.057500",
    "092614.057500",
    "092616.057500",
    "092618.057500",
    "092620.057500",
    "092622.057500",
    "092624.057500",
    "092626.057500",
    "092628.057500",
    "092630.057500",
    "092632.057500",
    "092634.057500",
    "092636.057500",
    "092638.057500",
    "092640.057500",
    "092642.057500",
    "092644.057500",
    "092646.057500",
    "092648.057500",
    "092650.057500",
    "092652.057500",
    "092654.057500",
    "092656.057500",
    "092658.057500",
    "092700.057500",
    "092702.057500",
    "092704.057500",
    "092706.057500",
    "092708.057500",
    "092710.057500",
    "092712.057500",
    "092714.057500",
    "092716.057500",
    "092718.057500",
    "092720.057500",
    "092722.057500",
    "092724.057500",
    "092726.057500",
    "092728.057500",
    "092730.057500",
    "092732.057500",
    "092734.057500",
    "092736.057500",
    "092738.057500",
    "092740.057500",
    "092742.057500",
    "092744.057500",
    "092746.057500",
    "092748.057500",
    "092750.057500",
    "092752.057500",
    "092754.057500",
    "092756.057500",
    "092758.057500",
    "092800.057500",
    "092802.057500",
    "092804.057500",
    "092806.057500",
    "092808.057500",
    "092810.057500",
    "092812.057500",
    "092814.057500",
    "092816.057500",
    "092818.057500",
    "092820.057500",
    "092822.057500",
    "092824.057500",
    "092826.057500",
    "092828.057500",
    "092830.057500",
    "092832.057500",
    "092834.057500",
    "092836.057500",
    "092838.057500",
    "092840.057500",
    "092842.057500",
    "092844.057500",
    "092846.057500",
    "092848.057500",
    "092850.057500",
    "092852.057500",
    "092854.057500",
    "092856.057500",
    "092858.057500",
    "092900.057500",
    "092902.057500",
    "092904.057500",
    "092906.057500",
    "092908.057500",
    "092910.057500",
    "092912.057500",
    "092914.057500",
    "092916.057500",
    "092918.057500",
    "092920.057500",
    "092922.057500",
    "092924.057500",
    "092926.057500",
    "092928.057500",
    "092930.057500",
    "092932.057500",
    "092934.057500",
    "092936.057500",
    "092938.057500",
    "092940.057500",
    "092942.057500",
    "092944.057500",
    "092946.057500",
    "092948.057500",
    "092950.057500",
    "092952.057500",
    "092954.057500",
    "092956.057500",
    "092958.057500",
    "093000.057500",
    "093002.057500",
    "093004.057500",
    "093006.057500",
    "093008.057500",
    "093010.057500",
    "093012.057500",
    "093014.057500",
    "093016.057500",
    "093018.057500",
    "093020.057500",
    "093022.057500",
    "093024.057500",
    "093026.057500",
    "093028.057500",
    "093030.057500",
    "093032.057500",
    "093034.057500",
    "093036.057500",
    "093038.057500",
    "093040.057500",
    "093042.057500",
    "093044.057500",
    "093046.057500",
    "093048.057500",
    "093050.057500",
    "093052.057500",
    "093054.057500",
    "093056.057500",
    "093058.057500",
    "093100.057500",
    "093102.057500",
    "093104.057500",
    "093106.057500",
    "093108.057500",
    "093110.057500",
    "093112.057500",
    "093114.057500",
    "093116.057500",
    "093118.057500",
    "093120.057500",
    "093122.057500",
    "093124.057500",
    "093126.057500",
    "093128.057500",
    "093130.057500",
    "093132.057500",
    "093134.057500",
    "093136.057500",
    "093138.057500",
    "093140.057500",
    "093142.057500",
    "093144.057500",
    "093146.057500",
    "093148.057500",
    "093150.057500",
    "093152.057500",
    "093154.057500",
    "093156.057500",
    "093158.057500",
    "093200.057500",
    "093202.057500",
    "093204.057500",
    "093206.057500",
    "093208.057500",
    "093210.057500",
    "093212.057500",
    "093214.057500",
    "093216.057500",
    "093218.057500",
    "093220.057500",
    "093222.057500",
    "093224.057500",
    "093226.057500",
    "093228.057500",
    "093230.057500",
    "093232.057500",
    "093234.057500",
    "093236.057500",
    "093238.057500",
    "093240.057500",
    "093242.057500",
    "093244.057500",
    "093246.057500",
    "093248.057500",
    "093250.057500",
    "093252.057500",
    "093254.057500",
    "093256.057500",
    "093258.057500",
    "093300.057500",
    "093302.057500",
    "093304.057500",
    "093306.057500",
    "093308.057500",
    "093310.057500",
    "093312.057500",
    "093314.057500",
    "093316.057500",
    "093318.057500",
    "093320.057500",
    "093322.057500",
    "093324.057500",
    "093326.057500",
    "093328.057500",
    "093330.057500",
    "093332.057500",
    "093334.057500",
    "093336.057500",
    "093338.057500",
    "093340.057500"
   ],
   "ContentTime": [
    "092542.714000",
    "092544.210000",
    "092546.209000",
    "092548.209000",
    "092550.210000",
    "092552.209000",
    "092554.209000",
    "092556.210000",
    "092558.209000",
    "092600.210000",
    "092602.209000",
    "092604.209000",
    "092606.209000",
    "092608.209000",
    "092610.210000",
    "092612.209000",
    "092614.209000",
    "092616.210000",
    "092618.209000",
    "092620.209000",
    "092622.209000",
    "092624.209000",
    "092626.209000",
    "092628.210000",
    "092630.209000",
    "092632.208000",
    "092634.210000",
    "092636.210000",
    "092638.209000",
    "092640.210000",
    "092642.209000",
    "092644.209000",
    "092646.210000",
    "092648.209000",
    "092650.208000",
    "092652.210000",
    "092654.210000",
    "092656.209000",
    "092658.209000",
    "092700.209000",
    "092702.210000",
    "092704.209000",
    "092706.210000",
    "092708.208000",
    "092710.210000",
    "092712.210000",
    "092714.209000",
    "092716.210000",
    "092718.209000",
    "092720.210000",
    "092722.210000",
    "092724.209000",
    "092726.210000",
    "092728.209000",
    "092730.210000",
    "092732.210000",
    "092734.209000",
    "092736.209000",
    "092738.209000",
    "092740.210000",
    "092742.209000",
    "092744.210000",
    "092746.210000",
    "092748.209000",
    "092750.209000",
    "092752.209000",
    "092754.210000",
    "092756.210000",
    "092758.210000",
    "092800.209000",
    "092802.209000",
    "092804.210000",
    "092806.209000",
    "092808.210000",
    "092810.210000",
    "092812.209000",
    "092814.209000",
    "092816.209000",
    "092818.210000",
    "092820.210000",
    "092822.210000",
    "092824.209000",
    "092826.210000",
    "092828.209000",
    "092830.210000",
    "092832.210000",
    "092834.208000",
    "092836.210000",
    "092838.210000",
    "092840.210000",
    "092842.210000",
    "092844.210000",
    "092846.209000",
    "092848.210000",
    "092850.209000",
    "092852.209000",
    "092854.210000",
    "092856.209000",
    "092858.210000",
    "092900.209000",
    "092902.209000",
    "092904.210000",
    "092906.210000",
    "092908.209000",
    "092910.208000",
    "092912.210000",
    "092914.209000",
    "092916.210000",
    "092918.210000",
    "092920.210000",
    "092922.210000",
    "092924.210000",
    "092926.210000",
    "092928.209000",
    "092930.210000",
    "092932.209000",
    "092934.210000",
    "092936.210000",
    "092938.210000",
    "092940.210000",
    "092942.210000",
    "092944.209000",
    "092946.210000",
    "092948.210000",
    "092950.210000",
    "092952.209000",
    "092954.210000",
    "092956.210000",
    "092958.209000",
    "093000.210000",
    "093002.208000",
    "093004.210000",
    "093006.210000",
    "093008.209000",
    "093010.210000",
    "093012.209000",
    "093014.210000",
    "093016.210000",
    "093018.209000",
    "093020.209000",
    "093022.210000",
    "093024.209000",
    "093026.209000",
    "093028.210000",
    "093030.210000",
    "093032.210000",
    "093034.210000",
    "093036.209000",
    "093038.210000",
    "093040.210000",
    "093042.210000",
    "093044.210000",
    "093046.210000",
    "093048.210000",
    "093050.209000",
    "093052.210000",
    "093054.208000",
    "093056.210000",
    "093058.210000",
    "093100.210000",
    "093102.210000",
    "093104.210000",
    "093106.209000",
    "093108.210000",
    "093110.210000",
    "093112.209000",
    "093114.210000",
    "093116.209000",
    "093118.210000",
    "093120.210000",
    "093122.210000",
    "093124.209000",
    "093126.210000",
    "093128.209000",
    "093130.208000",
    "093132.209000",
    "093134.210000",
    "093136.210000",
    "093138.210000",
    "093140.210000",
    "093142.209000",
    "093144.210000",
    "093146.210000",
    "093148.209000",
    "093150.210000",
    "093152.210000",
    "093154.210000",
    "093156.210000",
    "093158.209000",
    "093200.210000",
    "093202.209000",
    "093204.208000",
    "093206.210000",
    "093208.210000",
    "093210.210000",
    "093212.210000",
    "093214.209000",
    "093216.209000",
    "093218.210000",
    "093220.209000",
    "093222.208000",
    "093224.210000",
    "093226.210000",
    "093228.210000",
    "093230.210000",
    "093232.209000",
    "093234.210000",
    "093236.210000",
    "093238.210000",
    "093240.209000",
    "093242.209000",
    "093244.210000",
    "093246.210000",
    "093248.210000",
    "093250.210000",
    "093252.210000",
    "093254.210000",
    "093256.210000",
    "093258.210000",
    "093300.209000",
    "093302.210000",
    "093304.210000",
    "093306.210000",
    "093308.209000",
    "093310.209000",
    "093312.210000",
    "093314.209000",
    "093316.209000",
    "093318.210000",
    "093320.209000",
    "093322.210000",
    "093324.209000",
    "093326.210000",
    "093328.210000",
    "093330.210000",
    "093332.209000",
    "093334.210000",
    "093336.210000",
    "093338.210000",
    "093340.209000",
    "093341.812000"
   ],
   "InstanceCreationTime": [
    "092542.714000",
    "092544.210000",
    "092546.209000",
    "092548.209000",
    "092550.210000",
    "092552.209000",
    "092554.209000",
    "092556.210000",
    "092558.209000",
    "092600.210000",
    "092602.209000",
    "092604.209000",
    "092606.209000",
    "092608.209000",
    "092610.210000",
    "092612.209000",
    "092614.209000",
    "092616.210000",
    "092618.209000",
    "092620.209000",
    "092622.209000",
    "092624.209000",
    "092626.209000",
    "092628.210000",
    "092630.209000",
    "092632.208000",
    "092634.210000",
    "092636.210000",
    "092638.209000",
    "092640.210000",
    "092642.209000",
    "092644.209000",
    "092646.210000",
    "092648.209000",
    "092650.208000",
    "092652.210000",
    "092654.210000",
    "092656.209000",
    "092658.209000",
    "092700.209000",
    "092702.210000",
    "092704.209000",
    "092706.210000",
    "092708.208000",
    "092710.210000",
    "092712.210000",
    "092714.209000",
    "092716.210000",
    "092718.209000",
    "092720.210000",
    "092722.210000",
    "092724.209000",
    "092726.210000",
    "092728.209000",
    "092730.210000",
    "092732.210000",
    "092734.209000",
    "092736.209000",
    "092738.209000",
    "092740.210000",
    "092742.209000",
    "092744.210000",
    "092746.210000",
    "092748.209000",
    "092750.209000",
    "092752.209000",
    "092754.210000",
    "092756.210000",
    "092758.210000",
    "092800.209000",
    "092802.209000",
    "092804.210000",
    "092806.209000",
    "092808.210000",
    "092810.210000",
    "092812.209000",
    "092814.209000",
    "092816.209000",
    "092818.210000",
    "092820.210000",
    "092822.210000",
    "092824.209000",
    "092826.210000",
    "092828.209000",
    "092830.210000",
    "092832.210000",
    "092834.208000",
    "092836.210000",
    "092838.210000",
    "092840.210000",
    "092842.210000",
    "092844.210000",
    "092846.209000",
    "092848.210000",
    "092850.209000",
    "092852.209000",
    "092854.210000",
    "092856.209000",
    "092858.210000",
    "092900.209000",
    "092902.209000",
    "092904.210000",
    "092906.210000",
    "092908.209000",
    "092910.208000",
    "092912.210000",
    "092914.209000",
    "092916.210000",
    "092918.210000",
    "092920.210000",
    "092922.210000",
    "092924.210000",
    "092926.210000",
    "092928.209000",
    "092930.210000",
    "092932.209000",
    "092934.210000",
    "092936.210000",
    "092938.210000",
    "092940.210000",
    "092942.210000",
    "092944.209000",
    "092946.210000",
    "092948.210000",
    "092950.210000",
    "092952.209000",
    "092954.210000",
    "092956.210000",
    "092958.209000",
    "093000.210000",
    "093002.208000",
    "093004.210000",
    "093006.210000",
    "093008.209000",
    "093010.210000",
    "093012.209000",
    "093014.210000",
    "093016.210000",
    "093018.209000",
    "093020.209000",
    "093022.210000",
    "093024.209000",
    "093026.209000",
    "093028.210000",
    "093030.210000",
    "093032.210000",
    "093034.210000",
    "093036.209000",
    "093038.210000",
    "093040.210000",
    "093042.210000",
    "093044.210000",
    "093046.210000",
    "093048.210000",
    "093050.209000",
    "093052.210000",
    "093054.208000",
    "093056.210000",
    "093058.210000",
    "093100.210000",
    "093102.210000",
    "093104.210000",
    "093106.209000",
    "093108.210000",
    "093110.210000",
    "093112.209000",
    "093114.210000",
    "093116.209000",
    "093118.210000",
    "093120.210000",
    "093122.210000",
    "093124.209000",
    "093126.210000",
    "093128.209000",
    "093130.208000",
    "093132.209000",
    "093134.210000",
    "093136.210000",
    "093138.210000",
    "093140.210000",
    "093142.209000",
    "093144.210000",
    "093146.210000",
    "093148.209000",
    "093150.210000",
    "093152.210000",
    "093154.210000",
    "093156.210000",
    "093158.209000",
    "093200.210000",
    "093202.209000",
    "093204.208000",
    "093206.210000",
    "093208.210000",
    "093210.210000",
    "093212.210000",
    "093214.209000",
    "093216.209000",
    "093218.210000",
    "093220.209000",
    "093222.208000",
    "093224.210000",
    "093226.210000",
    "093228.210000",
    "093230.210000",
    "093232.209000",
    "093234.210000",
    "093236.210000",
    "093238.210000",
    "093240.209000",
    "093242.209000",
    "093244.210000",
    "093246.210000",
    "093248.210000",
    "093250.210000",
    "093252.210000",
    "093254.210000",
    "093256.210000",
    "093258.210000",
    "093300.209000",
    "093302.210000",
    "093304.210000",
    "093306.210000",
    "093308.209000",
    "093310.209000",
    "093312.210000",
    "093314.209000",
    "093316.209000",
    "093318.210000",
    "093320.209000",
    "093322.210000",
    "093324.209000",
    "093326.210000",
    "093328.210000",
    "093330.210000",
    "093332.209000",
    "093334.210000",
    "093336.210000",
    "093338.210000",
    "093340.209000",
    "093341.812000"
   ],
   "InstanceNumber": [
    1,
    2,
    3,
    4,
    5,
    6,
    7,
    8,
    9,
    10,
    11,
    12,
    13,
    14,
    15,
    16,
    17,
    18,
    19,
    20,
    21,
    22,
    23,
    24,
    25,
    26,
    27,
    28,
    29,
    30,
    31,
    32,
    33,
    34,
    35,
    36,
    37,
    38,
    39,
    40,
    41,
    42,
    43,
    44,
    45,
    46,
    47,
    48,
    49,
    50,
    51,
    52,
    53,
    54,
    55,
    56,
    57,
    58,
    59,
    60,
    61,
    62,
    63,
    64,
    65,
    66,
    67,
    68,
    69,
    70,
    71,
    72,
    73,
    74,
    75,
    76,
    77,
    78,
    79,
    80,
    81,
    82,
    83,
    84,
    85,
    86,
    87,
    88,
    89,
    90,
    91,
    92,
    93,
    94,
    95,
    96,
    97,
    98,
    99,
    100,
    101,
    102,
    103,
    104,
    105,
    106,
    107,
    108,
    109,
    110,
    111,
    112,
    113,
    114,
    115,
    116,
    117,
    118,
    119,
    120,
    121,
    122,
    123,
    124,
    125,
    126,
    127,
    128,
    129,
    130,
    131,
    132,
    133,
    134,
    135,
    136,
    137,
    138,
    139,
    140,
    141,
    142,
    143,
    144,
    145,
    146,
    147,
    148,
    149,
    150,
    151,
    152,
    153,
    154,
    155,
    156,
    157,
    158,
    159,
    160,
    161,
    162,
    163,
    164,
    165,
    166,
    167,
    168,
    169,
    170,
    171,
    172,
    173,
    174,
    175,
    176,
    177,
    178,
    179,
    180,
    181,
    182,
    183,
    184,
    185,
    186,
    187,
    188,
    189,
    190,
    191,
    192,
    193,
    194,
    195,
    196,
    197,
    198,
    199,
    200,
    201,
    202,
    203,
    204,
    205,
    206,
    207,
    208,
    209,
    210,
    211,
    212,
    213,
    214,
    215,
    216,
    217,
    218,
    219,
    220,
    221,
    222,
    223,
    224,
    225,
    226,
    227,
    228,
    229,
    230,
    231,
    232,
    233,
    234,
    235,
    236,
    237,
    238,
    239,
    240,
    241
   ],
   "LargestImagePixelValue": [
    3522,
    3397,
    3408,
    3389,
    3342,
    3395,
    3360,
    3380,
    3403,
    3402,
    3342,
    3384,
    3356,
    3387,
    3341,
    3348,
    3352,
    3374,
    3341,
    3383,
    3366,
    3332,
    3318,
    3330,
    3344,
    3351,
    3570,
    3466,
    3378,
    3351,
    3376,
    3328,
    3330,
    3397,
    3335,
    3374,
    3374,
    3361,
    3403,
    3374,
    3344,
    3372,
    3368,
    3339,
    3346,
    3335,
    3355,
    3352,
    3332,
    3382,
    3352,
    3416,
    3345,
    3408,
    3356,
    3380,
    3390,
    3401,
    3354,
    3356,
    3368,
    3362,
    3380,
    3373,
    3346,
    3361,
    3361,
    3394,
    3336,
    3361,
    3356,
    3384,
    3366,
    3385,
    3404,
    3383,
    3384,
    3409,
    3370,
    3394,
    3386,
    3383,
    3406,
    3361,
    3391,
    3358,
    3355,
    3377,
    3363,
    3405,
    3427,
    3351,
    3394,
    3368,
    3365,
    3360,
    3315,
    3334,
    3257,
    3361,
    3290,
    3330,
    3266,
    3345,
    3286,
    3289,
    3303,
    3261,
    3293,
    3322,
    3337,
    3300,
    3349,
    3301,
    3331,
    3289,
    3327,
    3369,
    3308,
    3347,
    3327,
    3342,
    3289,
    3370,
    3295,
    3336,
    3365,
    3311,
    3337,
    3360,
    3280,
    3340,
    3336,
    3292,
    3311,
    3320,
    3295,
    3296,
    3295,
    3344,
    3292,
    3338,
    3335,
    3327,
    3332,
    3321,
    3316,
    3324,
    3348,
    3355,
    3362,
    3319,
    3361,
    3414,
    3371,
    3364,
    3375,
    3360,
    3388,
    3394,
    3374,
    3395,
    3395,
    3416,
    3357,
    3409,
    3364,
    3374,
    3353,
    3397,
    3347,
    3395,
    3399,
    3353,
    3405,
    3360,
    3386,
    3357,
    3381,
    3353,
    3332,
    3393,
    3345,
    3328,
    3347,
    3373,
    3376,
    3367,
    3380,
    3369,
    3322,
    3359,
    3355,
    3333,
    3329,
    3342,
    3369,
    3341,
    3365,
    3337,
    3349,
    3404,
    3386,
    3388,
    3370,
    3374,
    3367,
    3409,
    3383,
    3344,
    3373,
    3360,
    3398,
    3361,
    3365,
    3358,
    3381,
    3394,
    3376,
    3414,
    3370,
    3405,
    3373,
    3382,
    3398,
    3394,
    3400,
    3424,
    3437,
    3361,
    3371,
    3337,
    3387,
    3354,
    3373,
    3422,
    3383,
    3444,
    3404,
    3414,
    3427
   ],
   "WindowCenter": [
    846.0,
    843.0,
    843.0,
    842.0,
    841.0,
    842.0,
    842.0,
    842.0,
    842.0,
    842.0,
    841.0,
    842.0,
    843.0,
    843.0,
    843.0,
    843.0,
    842.0,
    843.0,
    843.0,
    842.0,
    841.0,
    843.0,
    843.0,
    842.0,
    840.0,
    837.0,
    840.0,
    839.0,
    840.0,
    840.0,
    841.0,
    839.0,
    838.0,
    838.0,
    838.0,
    838.0,
    839.0,
    839.0,
    840.0,
    840.0,
    841.0,
    840.0,
    839.0,
    839.0,
    839.0,
    841.0,
    842.0,
    841.0,
    840.0,
    839.0,
    840.0,
    841.0,
    843.0,
    843.0,
    842.0,
    841.0,
    840.0,
    839.0,
    839.0,
    839.0,
    840.0,
    841.0,
    841.0,
    842.0,
    841.0,
    842.0,
    841.0,
    842.0,
    842.0,
    842.0,
    843.0,
    843.0,
    843.0,
    843.0,
    843.0,
    842.0,
    842.0,
    841.0,
    840.0,
    839.0,
    839.0,
    839.0,
    840.0,
    840.0,
    842.0,
    842.0,
    843.0,
    842.0,
    839.0,
    839.0,
    839.0,
    839.0,
    839.0,
    838.0,
    838.0,
    839.0,
    839.0,
    838.0,
    839.0,
    840.0,
    840.0,
    840.0,
    838.0,
    838.0,
    837.0,
    838.0,
    838.0,
    840.0,
    840.0,
    840.0,
    840.0,
    841.0,
    842.0,
    841.0,
    842.0,
    843.0,
    844.0,
    843.0,
    840.0,
    839.0,
    838.0,
    838.0,
    838.0,
    839.0,
    838.0,
    839.0,
    839.0,
    838.0,
    838.0,
    839.0,
    838.0,
    838.0,
    837.0,
    837.0,
    838.0,
    838.0,
    837.0,
    838.0,
    841.0,
    843.0,
    841.0,
    840.0,
    839.0,
    838.0,
    840.0,
    840.0,
    841.0,
    841.0,
    840.0,
    840.0,
    840.0,
    840.0,
    840.0,
    838.0,
    837.0,
    836.0,
    837.0,
    837.0,
    838.0,
    839.0,
    841.0,
    842.0,
    841.0,
    842.0,
    845.0,
    847.0,
    845.0,
    842.0,
    842.0,
    841.0,
    841.0,
    840.0,
    840.0,
    838.0,
    838.0,
    839.0,
    841.0,
    841.0,
    840.0,
    839.0,
    839.0,
    840.0,
    841.0,
    842.0,
    842.0,
    841.0,
    841.0,
    842.0,
    842.0,
    842.0,
    842.0,
    842.0,
    843.0,
    845.0,
    844.0,
    842.0,
    840.0,
    841.0,
    841.0,
    841.0,
    839.0,
    839.0,
    840.0,
    840.0,
    840.0,
    840.0,
    841.0,
    842.0,
    843.0,
    842.0,
    840.0,
    838.0,
    840.0,
    842.0,
    842.0,
    842.0,
    841.0,
    840.0,
    840.0,
    840.0,
    840.0,
    841.0,
    841.0,
    841.0,
    841.0,
    840.0,
    840.0,
    841.0,
    842.0,
    844.0,
    843.0,
    840.0,
    838.0,
    837.0,
