{
  "AcquisitionMatrixPE": 100,
  "AcquisitionNumber": 1,
  "AcquisitionTime": "10:34:35.415000",
  "BandwidthPerPixelPhaseEncode": 18.519,
  "BaseResolution": 100,
  "BodyPartExamined": "BRAIN",
  "ConsistencyInfo": "N4_VE11C_LATEST_20160120",
  "ConversionSoftware": "dcm2niix",
  "ConversionSoftwareVersion": "v1.0.20180622 GCC4.9.2",
  "DerivedVendorReportedEchoSpacing": 0.000539986,
  "DeviceSerialNumber": "166078",
  "DwellTime": 2.1e-06,
  "EchoTime": 0.034,
  "EchoTrainLength": 100,
  "EffectiveEchoSpacing": 0.000539986,
  "FlipAngle": 90,
  "ImageOrientationPatientDICOM": [1, 3.40647e-07, 9.38618e-06, 3.5288e-09, 0.999328, -0.036644],
  "ImageType": [
    "ORIGINAL",
    "PRIMARY",
    "M",
    "ND",
    "MOSAIC"
],
  "InPlanePhaseEncodingDirectionDICOM": "COL",
  "InstitutionAddress": "Street_StreetNo_Bei_Jing_District_CN_ZIP",
  "InstitutionName": "BeiJing_Normal_University",
  "InstitutionalDepartmentName": "Department",
  "MRAcquisitionType": "2D",
  "MagneticFieldStrength": 3,
  "Manufacturer": "Siemens",
  "ManufacturersModelName": "Prisma",
  "Modality": "MR",
  "MultibandAccelerationFactor": 3,
  "PartialFourier": 1,
  "PatientPosition": "HFS",
  "PercentPhaseFOV": 100,
  "PhaseEncodingDirection": "j-",
  "PhaseEncodingSteps": 100,
  "PhaseResolution": 1,
  "PixelBandwidth": 2380,
  "ProcedureStepDescription": "BNU_P2018_64CH_Zhen.ZongLei",
  "ProtocolName": "bold_100x100_s3_2x2x2_static_test_241",
  "PulseSequenceDetails": "%SiemensSeq%_ep2d_bold",
  "ReceiveCoilActiveElements": "HC1-7;NC1",
  "ReceiveCoilName": "HeadNeck_64",
  "ReconMatrixPE": 100,
  "RepetitionTime": 2,
  "SAR": 0.0729976,
  "ScanOptions": "FS",
  "ScanningSequence": "EP",
  "SequenceName": "_epfid2d1_100",
  "SequenceVariant": "SK",
  "SeriesDescription": "bold_100x100_s3_2x2x2_static_test_241",
  "SeriesNumber": 14,
  "ShimSetting": [-5453, -11504, -1262, 147, -85, -137, -127, 72],
  "SliceThickness": 2,
  "SliceTiming": [1.485, 0, 0.99, 0.0825, 1.0725, 0.165, 1.155, 0.2475, 1.2375, 0.33, 1.32, 0.4125, 1.4025, 0.5775, 1.5675, 0.66, 1.65, 0.7425, 1.7325, 0.825, 1.815, 0.9075, 1.8975, 0.495, 1.485, 0, 0.99, 0.0825, 1.0725, 0.165, 1.155, 0.2475, 1.2375, 0.33, 1.32, 0.4125, 1.4025, 0.5775, 1.5675, 0.66, 1.65, 0.7425, 1.7325, 0.825, 1.815, 0.9075, 1.8975, 0.495, 1.485, 0, 0.99, 0.0825, 1.0725, 0.165, 1.155, 0.2475, 1.2375, 0.33, 1.32, 0.4125, 1.4025, 0.5775, 1.5675, 0.66, 1.65, 0.7425, 1.7325, 0.825, 1.815, 0.9075, 1.8975, 0.495],
  "SoftwareVersions": "syngo_MR_E11",
  "SpacingBetweenSlices": 2,
  "StationName": "AWP166078",
  "TaskName": "naturalvision2",
  "TotalReadoutTime": 0.0534586,
  "TxRefAmp": 240.496,
  "dcmmeta_affine": [
    [-2.0, 7.057590067915953e-09, 1.878471448435448e-05, 100.73217010498047],
    [-6.812939545852714e-07, 1.9986567497253418, -0.0732879713177681, -87.915771484375],
    [1.877235627034679e-05, 0.0732879713177681, 1.9986567497253418, -74.75650787353516],
    [0.0, 0.0, 0.0, 1.0]
],
  "dcmmeta_reorient_transform": [
    [0.0, -1.0, 0.0, 99.0],
    [1.0, 0.0, 0.0, 0.0],
    [0.0, 0.0, 1.0, 0.0],
    [0.0, 0.0, 0.0, 1.0]
],
  "dcmmeta_shape": [100, 100, 72, 241],
  "dcmmeta_slice_dim": 2,
  "dcmmeta_version": 0.6,
  "global": {
    "const": {
      "AcquisitionMatrix": [100, 0, 0, 100],
      "AngioFlag": "N",
      "BitsAllocated": 16,
      "BitsStored": 12,
      "BodyPartExamined": "BRAIN",
      "Columns": 900,
      "EchoNumbers": 1,
      "EchoTime": 34.0,
      "EchoTrainLength": 100,
      "FlipAngle": 90.0,
      "HighBit": 11,
      "ImageOrientationPatient": [0.99999999995589, 3.40646969e-07, 9.386178527e-06, 3.528795e-09, 0.99932838366932, -0.0366439844021],
      "ImagePositionPatient": [-900.73217282396, -909.41422823506, -38.193320827337],
      "ImageType": [
        "ORIGINAL",
        "PRIMARY",
        "M",
        "ND",
        "MOSAIC"
],
      "ImagedNucleus": "1H",
      "ImagingFrequency": 123.257776,
      "InPlanePhaseEncodingDirection": "COL",
      "MRAcquisitionType": "2D",
      "MagneticFieldStrength": 3.0,
      "Manufacturer": "SIEMENS",
      "ManufacturerModelName": "Prisma",
      "Modality": "MR",
      "NumberOfAverages": 1.0,
      "NumberOfPhaseEncodingSteps": 100,
      "PercentPhaseFieldOfView": 100.0,
      "PercentSampling": 100.0,
      "PerformedProcedureStepStartTime": "085924.354000",
      "PhotometricInterpretation": "MONOCHROME2",
      "PixelBandwidth": 2380.0,
      "PixelRepresentation": 0,
      "PixelSpacing": [2.0, 2.0],
      "ProtocolName": "bold_100x100_s3_2x2x2_static_test_241",
      "RepetitionTime": 2000.0,
      "Rows": 900,
      "SAR": 0.07299762692833,
      "SamplesPerPixel": 1,
      "ScanOptions": "FS",
      "ScanningSequence": "EP",
      "SequenceName": "*epfid2d1_100",
      "SequenceVariant": "SK",
      "SeriesDescription": "bold_100x100_s3_2x2x2_static_test_241",
      "SeriesNumber": 14,
      "SeriesTime": "103438.133000",
      "SliceLocation": -71.4837703623,
      "SliceThickness": 2.0,
      "SmallestImagePixelValue": 0,
      "SoftwareVersions": "syngo MR E11",
      "SpacingBetweenSlices": 2.0000000297786,
      "SpecificCharacterSet": "ISO_IR 100",
      "StudyID": "1",
      "StudyTime": "085924.262000",
      "TransmitCoilName": "Body",
      "VariableFlipAngleFlag": "N",
      "WindowCenterWidthExplanation": "Algo1",
      "dBdt": 0.0},
    "slices": {}
  },
  "time": {
    "samples": {
      "AcquisitionNumber": [1, 2, 3, 4, 5, 6, 7, 8, 9, 10, 11, 12, 13, 14, 15, 16, 17, 18, 19, 20, 21, 22, 23, 24, 25, 26, 27, 28, 29, 30, 31, 32, 33, 34, 35, 36, 37, 38, 39, 40, 41, 42, 43, 44, 45, 46, 47, 48, 49, 50, 51, 52, 53, 54, 55, 56, 57, 58, 59, 60, 61, 62, 63, 64, 65, 66, 67, 68, 69, 70, 71, 72, 73, 74, 75, 76, 77, 78, 79, 80, 81, 82, 83, 84, 85, 86, 87, 88, 89, 90, 91, 92, 93, 94, 95, 96, 97, 98, 99, 100, 101, 102, 103, 104, 105, 106, 107, 108, 109, 110, 111, 112, 113, 114, 115, 116, 117, 118, 119, 120, 121, 122, 123, 124, 125, 126, 127, 128, 129, 130, 131, 132, 133, 134, 135, 136, 137, 138, 139, 140, 141, 142, 143, 144, 145, 146, 147, 148, 149, 150, 151, 152, 153, 154, 155, 156, 157, 158, 159, 160, 161, 162, 163, 164, 165, 166, 167, 168, 169, 170, 171, 172, 173, 174, 175, 176, 177, 178, 179, 180, 181, 182, 183, 184, 185, 186, 187, 188, 189, 190, 191, 192, 193, 194, 195, 196, 197, 198, 199, 200, 201, 202, 203, 204, 205, 206, 207, 208, 209, 210, 211, 212, 213, 214, 215, 216, 217, 218, 219, 220, 221, 222, 223, 224, 225, 226, 227, 228, 229, 230, 231, 232, 233, 234, 235, 236, 237, 238, 239, 240, 241],
      "AcquisitionTime": ["103435.415000", "103437.415000", "103439.415000", "103441.415000", "103443.415000", "103445.415000", "103447.415000", "103449.415000", "103451.415000", "103453.415000", "103455.415000", "103457.415000", "103459.415000", "103501.415000", "103503.415000", "103505.415000", "103507.415000", "103509.415000", "103511.415000", "103513.415000", "103515.415000", "103517.415000", "103519.415000", "103521.415000", "103523.415000", "103525.415000", "103527.415000", "103529.415000", "103531.415000", "103533.415000", "103535.415000", "103537.415000", "103539.415000", "103541.415000", "103543.415000", "103545.415000", "103547.415000", "103549.415000", "103551.415000", "103553.415000", "103555.415000", "103557.415000", "103559.415000", "103601.415000", "103603.415000", "103605.415000", "103607.415000", "103609.415000", "103611.415000", "103613.415000", "103615.415000", "103617.415000", "103619.415000", "103621.415000", "103623.415000", "103625.415000", "103627.415000", "103629.415000", "103631.415000", "103633.415000", "103635.415000", "103637.415000", "103639.415000", "103641.415000", "103643.415000", "103645.415000", "103647.415000", "103649.415000", "103651.415000", "103653.415000", "103655.415000", "103657.415000", "103659.415000", "103701.415000", "103703.415000", "103705.415000", "103707.415000", "103709.415000", "103711.415000", "103713.415000", "103715.415000", "103717.415000", "103719.415000", "103721.415000", "103723.415000", "103725.415000", "103727.415000", "103729.415000", "103731.415000", "103733.415000", "103735.415000", "103737.415000", "103739.415000", "103741.415000", "103743.415000", "103745.415000", "103747.415000", "103749.415000", "103751.415000", "103753.415000", "103755.415000", "103757.415000", "103759.415000", "103801.415000", "103803.415000", "103805.415000", "103807.415000", "103809.415000", "103811.415000", "103813.415000", "103815.415000", "103817.415000", "103819.415000", "103821.415000", "103823.415000", "103825.415000", "103827.415000", "103829.415000", "103831.415000", "103833.415000", "103835.415000", "103837.415000", "103839.415000", "103841.415000", "103843.415000", "103845.415000", "103847.415000", "103849.415000", "103851.415000", "103853.415000", "103855.415000", "103857.415000", "103859.415000", "103901.415000", "103903.415000", "103905.415000", "103907.415000", "103909.415000", "103911.415000", "103913.415000", "103915.415000", "103917.415000", "103919.415000", "103921.415000", "103923.415000", "103925.415000", "103927.415000", "103929.415000", "103931.415000", "103933.415000", "103935.415000", "103937.415000", "103939.415000", "103941.415000", "103943.415000", "103945.415000", "103947.415000", "103949.415000", "103951.415000", "103953.415000", "103955.415000", "103957.415000", "103959.415000", "104001.415000", "104003.415000", "104005.415000", "104007.415000", "104009.415000", "104011.415000", "104013.415000", "104015.415000", "104017.415000", "104019.415000", "104021.415000", "104023.415000", "104025.415000", "104027.415000", "104029.415000", "104031.415000", "104033.415000", "104035.415000", "104037.415000", "104039.415000", "104041.415000", "104043.415000", "104045.415000", "104047.415000", "104049.415000", "104051.415000", "104053.415000", "104055.415000", "104057.415000", "104059.415000", "104101.415000", "104103.415000", "104105.415000", "104107.415000", "104109.415000", "104111.415000", "104113.415000", "104115.415000", "104117.415000", "104119.415000", "104121.415000", "104123.415000", "104125.415000", "104127.415000", "104129.415000", "104131.415000", "104133.415000", "104135.415000", "104137.415000", "104139.415000", "104141.415000", "104143.415000", "104145.415000", "104147.415000", "104149.415000", "104151.415000", "104153.415000", "104155.415000", "104157.415000", "104159.415000", "104201.415000", "104203.415000", "104205.415000", "104207.415000", "104209.415000", "104211.415000", "104213.415000", "104215.415000", "104217.415000", "104219.415000", "104221.415000", "104223.415000", "104225.415000", "104227.415000", "104229.415000", "104231.415000", "104233.415000", "104235.415000"],
      "ContentTime": ["103438.136000", "103439.632000", "103441.631000", "103443.631000", "103445.631000", "103447.631000", "103449.632000", "103451.632000", "103453.632000", "103455.632000", "103457.632000", "103459.630000", "103501.631000", "103503.632000", "103505.632000", "103507.631000", "103509.632000", "103511.632000", "103513.631000", "103515.631000", "103517.631000", "103519.632000", "103521.632000", "103523.631000", "103525.631000", "103527.631000", "103529.631000", "103531.631000", "103533.631000", "103535.630000", "103537.631000", "103539.632000", "103541.632000", "103543.632000", "103545.651000", "103548.132000", "103549.631000", "103551.632000", "103553.631000", "103555.631000", "103557.632000", "103559.632000", "103601.631000", "103603.631000", "103605.631000", "103607.631000", "103609.631000", "103611.630000", "103614.132000", "103615.632000", "103617.631000", "103619.631000", "103621.632000", "103623.631000", "103625.631000", "103627.630000", "103629.632000", "103631.631000", "103633.631000", "103635.632000", "103637.632000", "103639.632000", "103641.632000", "103643.631000", "103645.631000", "103647.631000", "103649.632000", "103651.632000", "103653.631000", "103655.632000", "103657.631000", "103659.631000", "103701.632000", "103703.630000", "103705.632000", "103707.632000", "103709.631000", "103711.632000", "103713.631000", "103716.132000", "103718.132000", "103719.631000", "103721.630000", "103723.632000", "103725.631000", "103727.632000", "103729.631000", "103731.631000", "103733.631000", "103735.631000", "103737.631000", "103740.132000", "103741.632000", "103743.631000", "103745.631000", "103747.631000", "103749.632000", "103751.632000", "103753.632000", "103755.631000", "103757.631000", "103759.632000", "103801.631000", "103803.632000", "103805.632000", "103807.631000", "103809.632000", "103811.632000", "103813.631000", "103815.631000", "103817.631000", "103819.632000", "103821.632000", "103823.631000", "103825.632000", "103827.632000", "103829.631000", "103831.630000", "103834.132000", "103835.631000", "103837.631000", "103839.631000", "103842.131000", "103843.631000", "103845.632000", "103847.630000", "103849.631000", "103851.631000", "103854.131000", "103855.632000", "103857.631000", "103859.631000", "103901.631000", "103903.631000", "103905.630000", "103907.632000", "103909.632000", "103911.631000", "103913.631000", "103915.632000", "103917.632000", "103919.632000", "103921.631000", "103923.631000", "103925.631000", "103928.132000", "103929.631000", "103931.632000", "103933.631000", "103935.632000", "103937.631000", "103939.631000", "103942.131000", "103944.132000", "103945.631000", "103947.632000", "103949.632000", "103951.632000", "103953.631000", "103955.631000", "103957.630000", "103959.631000", "104002.131000", "104003.632000", "104005.631000", "104007.632000", "104009.632000", "104011.631000", "104013.632000", "104015.630000", "104017.632000", "104019.631000", "104021.632000", "104023.631000", "104025.632000", "104027.632000", "104030.131000", "104031.631000", "104033.631000", "104035.632000", "104038.131000", "104040.132000", "104041.631000", "104043.632000", "104045.632000", "104047.631000", "104049.630000", "104051.632000", "104053.632000", "104055.632000", "104057.632000", "104059.632000", "104101.632000", "104103.632000", "104105.631000", "104107.630000", "104109.631000", "104111.631000", "104113.631000", "104115.632000", "104117.632000", "104119.631000", "104121.632000", "104124.130000", "104125.630000", "104127.632000", "104129.632000", "104131.632000", "104133.632000", "104135.632000", "104138.132000", "104139.631000", "104141.630000", "104143.631000", "104145.631000", "104147.632000", "104149.632000", "104151.632000", "104153.632000", "104155.631000", "104157.632000", "104159.631000", "104201.631000", "104203.632000", "104205.631000", "104207.632000", "104209.631000", "104211.632000", "104213.632000", "104216.132000", "104217.631000", "104219.632000", "104221.631000", "104223.632000", "104225.631000", "104227.631000", "104229.631000", "104231.632000", "104233.632000", "104235.631000", "104237.533000"],
      "InstanceCreationTime": ["103438.136000", "103439.632000", "103441.631000", "103443.631000", "103445.631000", "103447.631000", "103449.632000", "103451.632000", "103453.632000", "103455.632000", "103457.632000", "103459.630000", "103501.631000", "103503.632000", "103505.632000", "103507.631000", "103509.632000", "103511.632000", "103513.631000", "103515.631000", "103517.631000", "103519.632000", "103521.632000", "103523.631000", "103525.631000", "103527.631000", "103529.631000", "103531.631000", "103533.631000", "103535.630000", "103537.631000", "103539.632000", "103541.632000", "103543.632000", "103545.651000", "103548.132000", "103549.631000", "103551.632000", "103553.631000", "103555.631000", "103557.632000", "103559.632000", "103601.631000", "103603.631000", "103605.631000", "103607.631000", "103609.631000", "103611.630000", "103614.132000", "103615.632000", "103617.631000", "103619.631000", "103621.632000", "103623.631000", "103625.631000", "103627.630000", "103629.632000", "103631.631000", "103633.631000", "103635.632000", "103637.632000", "103639.632000", "103641.632000", "103643.631000", "103645.631000", "103647.631000", "103649.632000", "103651.632000", "103653.631000", "103655.632000", "103657.631000", "103659.631000", "103701.632000", "103703.630000", "103705.632000", "103707.632000", "103709.631000", "103711.632000", "103713.631000", "103716.132000", "103718.132000", "103719.631000", "103721.630000", "103723.632000", "103725.631000", "103727.632000", "103729.631000", "103731.631000", "103733.631000", "103735.631000", "103737.631000", "103740.132000", "103741.632000", "103743.631000", "103745.631000", "103747.631000", "103749.632000", "103751.632000", "103753.632000", "103755.631000", "103757.631000", "103759.632000", "103801.631000", "103803.632000", "103805.632000", "103807.631000", "103809.632000", "103811.632000", "103813.631000", "103815.631000", "103817.631000", "103819.632000", "103821.632000", "103823.631000", "103825.632000", "103827.632000", "103829.631000", "103831.630000", "103834.132000", "103835.631000", "103837.631000", "103839.631000", "103842.131000", "103843.631000", "103845.632000", "103847.630000", "103849.631000", "103851.631000", "103854.131000", "103855.632000", "103857.631000", "103859.631000", "103901.631000", "103903.631000", "103905.630000", "103907.632000", "103909.632000", "103911.631000", "103913.631000", "103915.632000", "103917.632000", "103919.632000", "103921.631000", "103923.631000", "103925.631000", "103928.132000", "103929.631000", "103931.632000", "103933.631000", "103935.632000", "103937.631000", "103939.631000", "103942.131000", "103944.132000", "103945.631000", "103947.632000", "103949.632000", "103951.632000", "103953.631000", "103955.631000", "103957.630000", "103959.631000", "104002.131000", "104003.632000", "104005.631000", "104007.632000", "104009.632000", "104011.631000", "104013.632000", "104015.630000", "104017.632000", "104019.631000", "104021.632000", "104023.631000", "104025.632000", "104027.632000", "104030.131000", "104031.631000", "104033.631000", "104035.632000", "104038.131000", "104040.132000", "104041.631000", "104043.632000", "104045.632000", "104047.631000", "104049.630000", "104051.632000", "104053.632000", "104055.632000", "104057.632000", "104059.632000", "104101.632000", "104103.632000", "104105.631000", "104107.630000", "104109.631000", "104111.631000", "104113.631000", "104115.632000", "104117.632000", "104119.631000", "104121.632000", "104124.130000", "104125.630000", "104127.632000", "104129.632000", "104131.632000", "104133.632000", "104135.632000", "104138.132000", "104139.631000", "104141.630000", "104143.631000", "104145.631000", "104147.632000", "104149.632000", "104151.632000", "104153.632000", "104155.631000", "104157.632000", "104159.631000", "104201.631000", "104203.632000", "104205.631000", "104207.632000", "104209.631000", "104211.632000", "104213.632000", "104216.132000", "104217.631000", "104219.632000", "104221.631000", "104223.632000", "104225.631000", "104227.631000", "104229.631000", "104231.632000", "104233.632000", "104235.631000", "104237.533000"],
      "InstanceNumber": [1, 2, 3, 4, 5, 6, 7, 8, 9, 10, 11, 12, 13, 14, 15, 16, 17, 18, 19, 20, 21, 22, 23, 24, 25, 26, 27, 28, 29, 30, 31, 32, 33, 34, 35, 36, 37, 38, 39, 40, 41, 42, 43, 44, 45, 46, 47, 48, 49, 50, 51, 52, 53, 54, 55, 56, 57, 58, 59, 60, 61, 62, 63, 64, 65, 66, 67, 68, 69, 70, 71, 72, 73, 74, 75, 76, 77, 78, 79, 80, 81, 82, 83, 84, 85, 86, 87, 88, 89, 90, 91, 92, 93, 94, 95, 96, 97, 98, 99, 100, 101, 102, 103, 104, 105, 106, 107, 108, 109, 110, 111, 112, 113, 114, 115, 116, 117, 118, 119, 120, 121, 122, 123, 124, 125, 126, 127, 128, 129, 130, 131, 132, 133, 134, 135, 136, 137, 138, 139, 140, 141, 142, 143, 144, 145, 146, 147, 148, 149, 150, 151, 152, 153, 154, 155, 156, 157, 158, 159, 160, 161, 162, 163, 164, 165, 166, 167, 168, 169, 170, 171, 172, 173, 174, 175, 176, 177, 178, 179, 180, 181, 182, 183, 184, 185, 186, 187, 188, 189, 190, 191, 192, 193, 194, 195, 196, 197, 198, 199, 200, 201, 202, 203, 204, 205, 206, 207, 208, 209, 210, 211, 212, 213, 214, 215, 216, 217, 218, 219, 220, 221, 222, 223, 224, 225, 226, 227, 228, 229, 230, 231, 232, 233, 234, 235, 236, 237, 238, 239, 240, 241],
      "LargestImagePixelValue": [3292, 3227, 3211, 3184, 3229, 3199, 3215, 3220, 3213, 3208, 3225, 3201, 3221, 3210, 3231, 3225, 3221, 3212, 3200, 3204, 3178, 3184, 3196, 3210, 3204, 3208, 3204, 3209, 3234, 3225, 3213, 3175, 3230, 3259, 3246, 3236, 3237, 3200, 3249, 3248, 3290, 3237, 3224, 3199, 3253, 3251, 3224, 3225, 3244, 3219, 3220, 3238, 3214, 3242, 3257, 3236, 3252, 3280, 3264, 3232, 3224, 3224, 3235, 3216, 3217, 3173, 3191, 3224, 3213, 3230, 3245, 3265, 3265, 3279, 3271, 3243, 3248, 3260, 3244, 3273, 3280, 3264, 3239, 3238, 3237, 3208, 3212, 3251, 3232, 3239, 3274, 3234, 3223, 3227, 3277, 3218, 3244, 3254, 3256, 3267, 3246, 3256, 3205, 3288, 3254, 3256, 3220, 3242, 3247, 3255, 3252, 3236, 3268, 3242, 3291, 3270, 3321, 3286, 3278, 3257, 3253, 3251, 3233, 3227, 3202, 3244, 3177, 3228, 3212, 3218, 3202, 3206, 3213, 3236, 3245, 3241, 3257, 3278, 3270, 3296, 3258, 3245, 3245, 3240, 3235, 3246, 3280, 3264, 3252, 3263, 3268, 3229, 3180, 3248, 3191, 3230, 3211, 3234, 3233, 3238, 3251, 3256, 3290, 3262, 3283, 3277, 3261, 3274, 3274, 3264, 3251, 3251, 3297, 3325, 3267, 3287, 3267, 3273, 3251, 3245, 3249, 3247, 3241, 3221, 3248, 3250, 3251, 3247, 3257, 3235, 3259, 3299, 3264, 3274, 3252, 3249, 3254, 3261, 3210, 3243, 3209, 3204, 3226, 3200, 3223, 3217, 3276, 3220, 3252, 3233, 3229, 3220, 3210, 3217, 3212, 3194, 3188, 3152, 3196, 3180, 3173, 3184, 3169, 3234, 3208, 3210, 3225, 3231, 3246, 3241, 3255, 3245, 3233, 3226, 3225, 3221, 3256, 3220, 3168, 3180, 3143],
      "WindowCenter": [848.0, 845.0, 842.0, 841.0, 840.0, 840.0, 841.0, 840.0, 840.0, 840.0, 841.0, 842.0, 844.0, 843.0, 841.0, 839.0, 839.0, 840.0, 840.0, 840.0, 840.0, 840.0, 840.0, 840.0, 839.0, 839.0, 839.0, 840.0, 840.0, 841.0, 840.0, 840.0, 843.0, 842.0, 840.0, 839.0, 840.0, 840.0, 842.0, 843.0, 845.0, 844.0, 841.0, 840.0, 840.0, 839.0, 838.0, 839.0, 839.0, 839.0, 841.0, 842.0, 843.0, 843.0, 843.0, 842.0, 842.0, 843.0, 843.0, 842.0, 841.0, 840.0, 840.0, 839.0, 838.0, 838.0, 838.0, 840.0, 841.0, 840.0, 841.0, 842.0, 844.0, 844.0, 842.0, 840.0, 841.0, 844.0, 843.0, 842.0, 841.0, 840.0, 839.0, 838.0, 839.0, 838.0, 838.0, 839.0, 840.0, 840.0, 842.0, 842.0, 840.0, 841.0, 842.0, 844.0, 844.0, 842.0, 840.0, 839.0, 839.0, 839.0, 840.0, 842.0, 841.0, 839.0, 838.0, 838.0, 840.0, 841.0, 842.0, 843.0, 844.0, 844.0, 845.0, 844.0, 847.0, 849.0, 847.0, 844.0, 843.0, 841.0, 840.0, 839.0, 838.0, 838.0, 838.0, 839.0, 840.0, 841.0, 841.0, 840.0, 841.0, 842.0, 843.0, 843.0, 842.0, 843.0, 845.0, 845.0, 844.0, 844.0, 842.0, 841.0, 842.0, 844.0, 844.0, 843.0, 843.0, 844.0, 843.0, 842.0, 841.0, 840.0, 838.0, 838.0, 838.0, 839.0, 839.0, 841.0, 841.0, 842.0, 843.0, 842.0, 843.0, 844.0, 844.0, 844.0, 844.0, 844.0, 843.0, 843.0, 846.0, 847.0, 846.0, 844.0, 842.0, 841.0, 838.0, 838.0, 838.0, 838.0, 839.0, 839.0, 840.0, 840.0, 840.0, 839.0, 840.0, 841.0, 843.0, 843.0, 842.0, 842.0, 842.0, 842.0, 842.0, 841.0, 841.0, 842.0, 842.0, 842.0, 840.0, 839.0, 839.0, 840.0, 843.0, 843.0, 843.0, 842.0, 843.0, 842.0, 841.0, 841.0, 842.0, 841.0, 840.0, 838.0, 839.0, 839.0, 839.0, 840.0, 840.0, 842.0, 842.0, 842.0, 844.0, 844.0, 844.0, 844.0, 841.0, 840.0, 837.0, 835.0, 835.0, 836.0, 837.0, 838.0, 839.0, 843.0, 844.0],
      "WindowWidth": [1796.0, 1788.0, 1782.0, 1778.0, 1777.0, 1776.0, 1777.0, 1777.0, 1777.0, 1777.0, 1780.0, 1782.0, 1786.0, 1784.0, 1778.0, 1775.0, 1773.0, 1776.0, 1776.0, 1776.0, 1776.0, 1776.0, 1776.0, 1777.0, 1775.0, 1775.0, 1775.0, 1776.0, 1777.0, 1778.0, 1777.0, 1778.0, 1783.0, 1782.0, 1777.0, 1775.0, 1776.0, 1777.0, 1782.0, 1785.0, 1789.0, 1787.0, 1779.0, 1778.0, 1777.0, 1775.0, 1774.0, 1775.0, 1775.0, 1776.0, 1779.0, 1782.0, 1785.0, 1785.0, 1784.0, 1781.0, 1783.0, 1785.0, 1784.0, 1782.0, 1779.0, 1776.0, 1776.0, 1774.0, 1772.0, 1772.0, 1772.0, 1778.0, 1778.0, 1777.0, 1780.0, 1783.0, 1787.0, 1786.0, 1781.0, 1776.0, 1778.0, 1787.0, 1785.0, 1782.0, 1779.0, 1776.0, 1773.0, 1772.0, 1772.0, 1771.0, 1772.0, 1775.0, 1776.0, 1777.0, 1782.0, 1781.0, 1777.0, 1778.0, 1783.0, 1786.0, 1786.0, 1780.0, 1775.0, 1774.0, 1772.0, 1774.0, 1775.0, 1780.0, 1778.0, 1772.0, 1770.0, 1772.0, 1775.0, 1780.0, 1781.0, 1783.0, 1785.0, 1785.0, 1788.0, 1788.0, 1795.0, 1798.0, 1792.0, 1786.0, 1782.0, 1779.0, 1776.0, 1774.0, 1771.0, 1771.0, 1770.0, 1774.0, 1775.0, 1777.0, 1777.0, 1776.0, 1778.0, 1780.0, 1783.0, 1782.0, 1781.0, 1785.0, 1789.0, 1789.0, 1786.0, 1784.0, 1780.0, 1779.0, 1782.0, 1787.0, 1787.0, 1784.0, 1784.0, 1785.0, 1784.0, 1782.0, 1777.0, 1775.0, 1770.0, 1770.0, 1770.0, 1774.0, 1774.0, 1777.0, 1779.0, 1781.0, 1782.0, 1782.0, 1784.0, 1786.0, 1786.0, 1786.0, 1786.0, 1786.0, 1783.0, 1784.0, 1791.0, 1794.0, 1790.0, 1786.0, 1781.0, 1777.0, 1772.0, 1769.0, 1770.0, 1771.0, 1773.0, 1773.0, 1775.0, 1776.0, 1777.0, 1774.0, 1776.0, 1779.0, 1782.0, 1783.0, 1780.0, 1781.0, 1781.0, 1781.0, 1781.0, 1780.0, 1778.0, 1781.0, 1781.0, 1780.0, 1777.0, 1774.0, 1774.0, 1777.0, 1785.0, 1784.0, 1785.0, 1782.0, 1782.0, 1780.0, 1777.0, 1777.0, 1780.0, 1778.0, 1774.0, 1771.0, 1772.0, 1772.0, 1774.0, 1775.0, 1776.0, 1780.0, 1779.0, 1781.0, 1785.0, 1785.0, 1786.0, 1785.0, 1779.0, 1777.0, 1769.0, 1764.0, 1765.0, 1768.0, 1769.0, 1772.0, 1774.0, 1783.0, 1783.0]
    },
    "slices": {}
  }
}