{
 "AcquisitionMatrixPE": 100,
 "AcquisitionNumber": 1,
 "AcquisitionTime": "09:44:20.322500",
 "BandwidthPerPixelPhaseEncode": 18.519,
 "BaseResolution": 100,
 "BodyPartExamined": "BRAIN",
 "ConsistencyInfo": "N4_VE11C_LATEST_20160120",
 "ConversionSoftware": "dcm2niix",
 "ConversionSoftwareVersion": "v1.0.20180622 GCC4.9.2",
 "DerivedVendorReportedEchoSpacing": 0.000539986,
 "DeviceSerialNumber": "166078",
 "DwellTime": 2.1e-06,
 "EchoTime": 0.034,
 "EchoTrainLength": 100,
 "EffectiveEchoSpacing": 0.000539986,
 "FlipAngle": 90,
 "ImageOrientationPatientDICOM": [
  1,
  3.40647e-07,
  9.38618e-06,
  3.5288e-09,
  0.999328,
  -0.036644
 ],
 "ImageType": [
  "ORIGINAL",
  "PRIMARY",
  "M",
  "ND",
  "MOSAIC"
 ],
 "InPlanePhaseEncodingDirectionDICOM": "COL",
 "InstitutionAddress": "Street_StreetNo_Bei_Jing_District_CN_ZIP",
 "InstitutionName": "BeiJing_Normal_University",
 "InstitutionalDepartmentName": "Department",
 "MRAcquisitionType": "2D",
 "MagneticFieldStrength": 3,
 "Manufacturer": "Siemens",
 "ManufacturersModelName": "Prisma",
 "Modality": "MR",
 "MultibandAccelerationFactor": 3,
 "PartialFourier": 1,
 "PatientPosition": "HFS",
 "PercentPhaseFOV": 100,
 "PhaseEncodingDirection": "j-",
 "PhaseEncodingSteps": 100,
 "PhaseResolution": 1,
 "PixelBandwidth": 2380,
 "ProcedureStepDescription": "BNU_P2018_64CH_Zhen.ZongLei",
 "ProtocolName": "bold_100x100_s3_2x2x2_static_test_241",
 "PulseSequenceDetails": "%SiemensSeq%_ep2d_bold",
 "ReceiveCoilActiveElements": "HC1-7;NC1",
 "ReceiveCoilName": "HeadNeck_64",
 "ReconMatrixPE": 100,
 "RepetitionTime": 2,
 "SAR": 0.0729976,
 "ScanOptions": "FS",
 "ScanningSequence": "EP",
 "SequenceName": "_epfid2d1_100",
 "SequenceVariant": "SK",
 "SeriesDescription": "bold_100x100_s3_2x2x2_static_test_241",
 "SeriesNumber": 7,
 "ShimSetting": [
  -5453,
  -11504,
  -1262,
  147,
  -85,
  -137,
  -127,
  72
 ],
 "SliceThickness": 2,
 "SliceTiming": [
  1.485,
  0,
  0.99,
  0.0825,
  1.0725,
  0.165,
  1.155,
  0.2475,
  1.2375,
  0.33,
  1.32,
  0.4125,
  1.4025,
  0.5775,
  1.5675,
  0.66,
  1.65,
  0.7425,
  1.7325,
  0.825,
  1.815,
  0.9075,
  1.8975,
  0.495,
  1.485,
  0,
  0.99,
  0.0825,
  1.0725,
  0.165,
  1.155,
  0.2475,
  1.2375,
  0.33,
  1.32,
  0.4125,
  1.4025,
  0.5775,
  1.5675,
  0.66,
  1.65,
  0.7425,
  1.7325,
  0.825,
  1.815,
  0.9075,
  1.8975,
  0.495,
  1.485,
  0,
  0.99,
  0.0825,
  1.0725,
  0.165,
  1.155,
  0.2475,
  1.2375,
  0.33,
  1.32,
  0.4125,
  1.4025,
  0.5775,
  1.5675,
  0.66,
  1.65,
  0.7425,
  1.7325,
  0.825,
  1.815,
  0.9075,
  1.8975,
  0.495
 ],
 "SoftwareVersions": "syngo_MR_E11",
 "SpacingBetweenSlices": 2,
 "StationName": "AWP166078",
 "TaskName": "coco",
 "TotalReadoutTime": 0.0534586,
 "TxRefAmp": 240.496,
 "dcmmeta_affine": [
  [
   -2.0,
   7.057590067915953e-09,
   1.878471448435448e-05,
   100.73217010498047
  ],
  [
   -6.812939545852714e-07,
   1.9986567497253418,
   -0.0732879713177681,
   -87.915771484375
  ],
  [
   1.877235627034679e-05,
   0.0732879713177681,
   1.9986567497253418,
   -74.75650787353516
  ],
  [
   0.0,
   0.0,
   0.0,
   1.0
  ]
 ],
 "dcmmeta_reorient_transform": [
  [
   0.0,
   -1.0,
   0.0,
   99.0
  ],
  [
   1.0,
   0.0,
   0.0,
   0.0
  ],
  [
   0.0,
   0.0,
   1.0,
   0.0
  ],
  [
   0.0,
   0.0,
   0.0,
   1.0
  ]
 ],
 "dcmmeta_shape": [
  100,
  100,
  72,
  241
 ],
 "dcmmeta_slice_dim": 2,
 "dcmmeta_version": 0.6,
 "global": {
  "const": {
   "AcquisitionMatrix": [
    100,
    0,
    0,
    100
   ],
   "AngioFlag": "N",
   "BitsAllocated": 16,
   "BitsStored": 12,
   "BodyPartExamined": "BRAIN",
   "Columns": 900,
   "EchoNumbers": 1,
   "EchoTime": 34.0,
   "EchoTrainLength": 100,
   "FlipAngle": 90.0,
   "HighBit": 11,
   "ImageOrientationPatient": [
    0.99999999995589,
    3.40646969e-07,
    9.386178527e-06,
    3.528795e-09,
    0.99932838366932,
    -0.0366439844021
   ],
   "ImagePositionPatient": [
    -900.73217282396,
    -909.41422823506,
    -38.193320827337
   ],
   "ImageType": [
    "ORIGINAL",
    "PRIMARY",
    "M",
    "ND",
    "MOSAIC"
   ],
   "ImagedNucleus": "1H",
   "ImagingFrequency": 123.257769,
   "InPlanePhaseEncodingDirection": "COL",
   "MRAcquisitionType": "2D",
   "MagneticFieldStrength": 3.0,
   "Manufacturer": "SIEMENS",
   "ManufacturerModelName": "Prisma",
   "Modality": "MR",
   "NumberOfAverages": 1.0,
   "NumberOfPhaseEncodingSteps": 100,
   "PercentPhaseFieldOfView": 100.0,
   "PercentSampling": 100.0,
   "PerformedProcedureStepStartTime": "085924.354000",
   "PhotometricInterpretation": "MONOCHROME2",
   "PixelBandwidth": 2380.0,
   "PixelRepresentation": 0,
   "PixelSpacing": [
    2.0,
    2.0
   ],
   "ProtocolName": "bold_100x100_s3_2x2x2_static_test_241",
   "RepetitionTime": 2000.0,
   "Rows": 900,
   "SAR": 0.07299762692833,
   "SamplesPerPixel": 1,
   "ScanOptions": "FS",
   "ScanningSequence": "EP",
   "SequenceName": "*epfid2d1_100",
   "SequenceVariant": "SK",
   "SeriesDescription": "bold_100x100_s3_2x2x2_static_test_241",
   "SeriesNumber": 7,
   "SeriesTime": "094422.613000",
   "SliceLocation": -71.4837703623,
   "SliceThickness": 2.0,
   "SmallestImagePixelValue": 0,
   "SoftwareVersions": "syngo MR E11",
   "SpacingBetweenSlices": 2.0000000297786,
   "SpecificCharacterSet": "ISO_IR 100",
   "StudyID": "1",
   "StudyTime": "085924.262000",
   "TransmitCoilName": "Body",
   "VariableFlipAngleFlag": "N",
   "WindowCenterWidthExplanation": "Algo1",
   "dBdt": 0.0
  },
  "slices": {}
 },
 "time": {
  "samples": {
   "AcquisitionNumber": [
    1,
    2,
    3,
    4,
    5,
    6,
    7,
    8,
    9,
    10,
    11,
    12,
    13,
    14,
    15,
    16,
    17,
    18,
    19,
    20,
    21,
    22,
    23,
    24,
    25,
    26,
    27,
    28,
    29,
    30,
    31,
    32,
    33,
    34,
    35,
    36,
    37,
    38,
    39,
    40,
    41,
    42,
    43,
    44,
    45,
    46,
    47,
    48,
    49,
    50,
    51,
    52,
    53,
    54,
    55,
    56,
    57,
    58,
    59,
    60,
    61,
    62,
    63,
    64,
    65,
    66,
    67,
    68,
    69,
    70,
    71,
    72,
    73,
    74,
    75,
    76,
    77,
    78,
    79,
    80,
    81,
    82,
    83,
    84,
    85,
    86,
    87,
    88,
    89,
    90,
    91,
    92,
    93,
    94,
    95,
    96,
    97,
    98,
    99,
    100,
    101,
    102,
    103,
    104,
    105,
    106,
    107,
    108,
    109,
    110,
    111,
    112,
    113,
    114,
    115,
    116,
    117,
    118,
    119,
    120,
    121,
    122,
    123,
    124,
    125,
    126,
    127,
    128,
    129,
    130,
    131,
    132,
    133,
    134,
    135,
    136,
    137,
    138,
    139,
    140,
    141,
    142,
    143,
    144,
    145,
    146,
    147,
    148,
    149,
    150,
    151,
    152,
    153,
    154,
    155,
    156,
    157,
    158,
    159,
    160,
    161,
    162,
    163,
    164,
    165,
    166,
    167,
    168,
    169,
    170,
    171,
    172,
    173,
    174,
    175,
    176,
    177,
    178,
    179,
    180,
    181,
    182,
    183,
    184,
    185,
    186,
    187,
    188,
    189,
    190,
    191,
    192,
    193,
    194,
    195,
    196,
    197,
    198,
    199,
    200,
    201,
    202,
    203,
    204,
    205,
    206,
    207,
    208,
    209,
    210,
    211,
    212,
    213,
    214,
    215,
    216,
    217,
    218,
    219,
    220,
    221,
    222,
    223,
    224,
    225,
    226,
    227,
    228,
    229,
    230,
    231,
    232,
    233,
    234,
    235,
    236,
    237,
    238,
    239,
    240,
    241
   ],
   "AcquisitionTime": [
    "094420.322500",
    "094422.322500",
    "094424.322500",
    "094426.322500",
    "094428.322500",
    "094430.322500",
    "094432.322500",
    "094434.322500",
    "094436.322500",
    "094438.322500",
    "094440.322500",
    "094442.322500",
    "094444.322500",
    "094446.322500",
    "094448.322500",
    "094450.322500",
    "094452.322500",
    "094454.322500",
    "094456.322500",
    "094458.322500",
    "094500.322500",
    "094502.322500",
    "094504.322500",
    "094506.322500",
    "094508.322500",
    "094510.322500",
    "094512.322500",
    "094514.322500",
    "094516.322500",
    "094518.322500",
    "094520.322500",
    "094522.322500",
    "094524.322500",
    "094526.322500",
    "094528.322500",
    "094530.322500",
    "094532.322500",
    "094534.322500",
    "094536.322500",
    "094538.322500",
    "094540.322500",
    "094542.322500",
    "094544.322500",
    "094546.322500",
    "094548.322500",
    "094550.322500",
    "094552.322500",
    "094554.322500",
    "094556.322500",
    "094558.322500",
    "094600.322500",
    "094602.322500",
    "094604.322500",
    "094606.322500",
    "094608.322500",
    "094610.322500",
    "094612.322500",
    "094614.322500",
    "094616.322500",
    "094618.322500",
    "094620.322500",
    "094622.322500",
    "094624.322500",
    "094626.322500",
    "094628.322500",
    "094630.322500",
    "094632.322500",
    "094634.322500",
    "094636.322500",
    "094638.322500",
    "094640.322500",
    "094642.322500",
    "094644.322500",
    "094646.322500",
    "094648.322500",
    "094650.322500",
    "094652.322500",
    "094654.322500",
    "094656.322500",
    "094658.322500",
    "094700.322500",
    "094702.322500",
    "094704.322500",
    "094706.322500",
    "094708.322500",
    "094710.322500",
    "094712.322500",
    "094714.322500",
    "094716.322500",
    "094718.322500",
    "094720.322500",
    "094722.322500",
    "094724.322500",
    "094726.322500",
    "094728.322500",
    "094730.322500",
    "094732.322500",
    "094734.322500",
    "094736.322500",
    "094738.322500",
    "094740.322500",
    "094742.322500",
    "094744.322500",
    "094746.322500",
    "094748.322500",
    "094750.322500",
    "094752.322500",
    "094754.322500",
    "094756.322500",
    "094758.322500",
    "094800.322500",
    "094802.322500",
    "094804.322500",
    "094806.322500",
    "094808.322500",
    "094810.322500",
    "094812.322500",
    "094814.322500",
    "094816.322500",
    "094818.322500",
    "094820.322500",
    "094822.322500",
    "094824.322500",
    "094826.322500",
    "094828.322500",
    "094830.322500",
    "094832.322500",
    "094834.322500",
    "094836.322500",
    "094838.322500",
    "094840.322500",
    "094842.322500",
    "094844.322500",
    "094846.322500",
    "094848.322500",
    "094850.322500",
    "094852.322500",
    "094854.322500",
    "094856.322500",
    "094858.322500",
    "094900.322500",
    "094902.322500",
    "094904.322500",
    "094906.322500",
    "094908.322500",
    "094910.322500",
    "094912.322500",
    "094914.322500",
    "094916.322500",
    "094918.322500",
    "094920.322500",
    "094922.322500",
    "094924.322500",
    "094926.322500",
    "094928.322500",
    "094930.322500",
    "094932.322500",
    "094934.322500",
    "094936.322500",
    "094938.322500",
    "094940.322500",
    "094942.322500",
    "094944.322500",
    "094946.322500",
    "094948.322500",
    "094950.322500",
    "094952.322500",
    "094954.322500",
    "094956.322500",
    "094958.322500",
    "095000.322500",
    "095002.322500",
    "095004.322500",
    "095006.322500",
    "095008.322500",
    "095010.322500",
    "095012.322500",
    "095014.322500",
    "095016.322500",
    "095018.322500",
    "095020.322500",
    "095022.322500",
    "095024.322500",
    "095026.322500",
    "095028.322500",
    "095030.322500",
    "095032.322500",
    "095034.322500",
    "095036.322500",
    "095038.322500",
    "095040.322500",
    "095042.322500",
    "095044.322500",
    "095046.322500",
    "095048.322500",
    "095050.322500",
    "095052.322500",
    "095054.322500",
    "095056.322500",
    "095058.322500",
    "095100.322500",
    "095102.322500",
    "095104.322500",
    "095106.322500",
    "095108.322500",
    "095110.322500",
    "095112.322500",
    "095114.322500",
    "095116.322500",
    "095118.322500",
    "095120.322500",
    "095122.322500",
    "095124.322500",
    "095126.322500",
    "095128.322500",
    "095130.322500",
    "095132.322500",
    "095134.322500",
    "095136.322500",
    "095138.322500",
    "095140.322500",
    "095142.322500",
    "095144.322500",
    "095146.322500",
    "095148.322500",
    "095150.322500",
    "095152.322500",
    "095154.322500",
    "095156.322500",
    "095158.322500",
    "095200.322500",
    "095202.322500",
    "095204.322500",
    "095206.322500",
    "095208.322500",
    "095210.322500",
    "095212.322500",
    "095214.322500",
    "095216.322500",
    "095218.322500",
    "095220.322500"
   ],
   "ContentTime": [
    "094422.617000",
    "094424.095000",
    "094426.095000",
    "094428.094000",
    "094430.094000",
    "094432.094000",
    "094434.093000",
    "094436.093000",
    "094438.094000",
    "094440.095000",
    "094442.095000",
    "094444.094000",
    "094446.094000",
    "094448.094000",
    "094450.093000",
    "094452.093000",
    "094454.093000",
    "094456.095000",
    "094458.094000",
    "094500.095000",
    "094502.094000",
    "094504.094000",
    "094506.095000",
    "094508.094000",
    "094510.093000",
    "094512.093000",
    "094514.094000",
    "094516.094000",
    "094518.094000",
    "094520.094000",
    "094522.095000",
    "094524.095000",
    "094526.093000",
    "094528.094000",
    "094530.095000",
    "094532.094000",
    "094534.095000",
    "094536.094000",
    "094538.094000",
    "094540.094000",
    "094542.094000",
    "094544.093000",
    "094546.094000",
    "094548.094000",
    "094550.094000",
    "094552.094000",
    "094554.095000",
    "094556.094000",
    "094558.095000",
    "094600.093000",
    "094602.093000",
    "094604.094000",
    "094606.094000",
    "094608.094000",
    "094610.095000",
    "094612.095000",
    "094614.095000",
    "094616.095000",
    "094618.094000",
    "094620.094000",
    "094622.093000",
    "094624.094000",
    "094626.094000",
    "094628.094000",
    "094630.094000",
    "094632.094000",
    "094634.094000",
    "094636.094000",
    "094638.094000",
    "094640.094000",
    "094642.095000",
    "094644.094000",
    "094646.094000",
    "094648.094000",
    "094650.094000",
    "094652.094000",
    "094654.094000",
    "094656.094000",
    "094658.095000",
    "094700.095000",
    "094702.094000",
    "094704.095000",
    "094706.094000",
    "094708.095000",
    "094710.094000",
    "094712.093000",
    "094714.094000",
    "094716.095000",
    "094718.095000",
    "094720.095000",
    "094722.094000",
    "094724.095000",
    "094726.095000",
    "094728.093000",
    "094730.093000",
    "094732.095000",
    "094734.095000",
    "094736.095000",
    "094738.094000",
    "094740.094000",
    "094742.094000",
    "094744.095000",
    "094746.093000",
    "094748.093000",
    "094750.094000",
    "094752.095000",
    "094754.095000",
    "094756.095000",
    "094758.094000",
    "094800.094000",
    "094802.094000",
    "094804.094000",
    "094806.094000",
    "094808.094000",
    "094810.094000",
    "094812.094000",
    "094814.094000",
    "094816.094000",
    "094818.094000",
    "094820.093000",
    "094822.093000",
    "094824.094000",
    "094826.094000",
    "094828.095000",
    "094830.095000",
    "094832.095000",
    "094834.094000",
    "094836.094000",
    "094838.094000",
    "094840.093000",
    "094842.094000",
    "094844.094000",
    "094846.094000",
    "094848.094000",
    "094850.095000",
    "094852.094000",
    "094854.094000",
    "094856.093000",
    "094858.093000",
    "094900.095000",
    "094902.094000",
    "094904.095000",
    "094906.094000",
    "094908.094000",
    "094910.095000",
    "094912.095000",
    "094914.093000",
    "094916.094000",
    "094918.094000",
    "094920.095000",
    "094922.095000",
    "094924.095000",
    "094926.094000",
    "094928.094000",
    "094930.106000",
    "094932.094000",
    "094934.094000",
    "094936.094000",
    "094938.094000",
    "094940.094000",
    "094942.095000",
    "094944.094000",
    "094946.095000",
    "094948.093000",
    "094950.093000",
    "094952.095000",
    "094954.094000",
    "094956.094000",
    "094958.095000",
    "095000.094000",
    "095002.094000",
    "095004.094000",
    "095006.093000",
    "095008.094000",
    "095010.095000",
    "095012.094000",
    "095014.094000",
    "095016.094000",
    "095018.094000",
    "095020.094000",
    "095022.094000",
    "095024.094000",
    "095026.094000",
    "095028.095000",
    "095030.094000",
    "095032.094000",
    "095034.094000",
    "095036.094000",
    "095038.094000",
    "095040.093000",
    "095042.093000",
    "095044.093000",
    "095046.094000",
    "095048.094000",
    "095050.094000",
    "095052.094000",
    "095054.094000",
    "095056.094000",
    "095058.094000",
    "095100.093000",
    "095102.094000",
    "095104.095000",
    "095106.095000",
    "095108.094000",
    "095110.095000",
    "095112.095000",
    "095114.095000",
    "095116.094000",
    "095118.093000",
    "095120.094000",
    "095122.094000",
    "095124.095000",
    "095126.094000",
    "095128.095000",
    "095130.095000",
    "095132.095000",
    "095134.093000",
    "095136.094000",
    "095138.094000",
    "095140.094000",
    "095142.094000",
    "095144.094000",
    "095146.095000",
    "095148.094000",
    "095150.093000",
    "095152.094000",
    "095154.094000",
    "095156.095000",
    "095158.094000",
    "095200.095000",
    "095202.095000",
    "095204.095000",
    "095206.094000",
    "095208.094000",
    "095210.093000",
    "095212.094000",
    "095214.094000",
    "095216.095000",
    "095218.095000",
    "095220.094000",
    "095221.861000"
   ],
   "InstanceCreationTime": [
    "094422.617000",
    "094424.095000",
    "094426.095000",
    "094428.094000",
    "094430.094000",
    "094432.094000",
    "094434.093000",
    "094436.093000",
    "094438.094000",
    "094440.095000",
    "094442.095000",
    "094444.094000",
    "094446.094000",
    "094448.094000",
    "094450.093000",
    "094452.093000",
    "094454.093000",
    "094456.095000",
    "094458.094000",
    "094500.095000",
    "094502.094000",
    "094504.094000",
    "094506.095000",
    "094508.094000",
    "094510.093000",
    "094512.093000",
    "094514.094000",
    "094516.094000",
    "094518.094000",
    "094520.094000",
    "094522.095000",
    "094524.095000",
    "094526.093000",
    "094528.094000",
    "094530.095000",
    "094532.094000",
    "094534.095000",
    "094536.094000",
    "094538.094000",
    "094540.094000",
    "094542.094000",
    "094544.093000",
    "094546.094000",
    "094548.094000",
    "094550.094000",
    "094552.094000",
    "094554.095000",
    "094556.094000",
    "094558.095000",
    "094600.093000",
    "094602.093000",
    "094604.094000",
    "094606.094000",
    "094608.094000",
    "094610.095000",
    "094612.095000",
    "094614.095000",
    "094616.095000",
    "094618.094000",
    "094620.094000",
    "094622.093000",
    "094624.094000",
    "094626.094000",
    "094628.094000",
    "094630.094000",
    "094632.094000",
    "094634.094000",
    "094636.094000",
    "094638.094000",
    "094640.094000",
    "094642.095000",
    "094644.094000",
    "094646.094000",
    "094648.094000",
    "094650.094000",
    "094652.094000",
    "094654.094000",
    "094656.094000",
    "094658.095000",
    "094700.095000",
    "094702.094000",
    "094704.095000",
    "094706.094000",
    "094708.095000",
    "094710.094000",
    "094712.093000",
    "094714.094000",
    "094716.095000",
    "094718.095000",
    "094720.095000",
    "094722.094000",
    "094724.095000",
    "094726.095000",
    "094728.093000",
    "094730.093000",
    "094732.095000",
    "094734.095000",
    "094736.095000",
    "094738.094000",
    "094740.094000",
    "094742.094000",
    "094744.095000",
    "094746.093000",
    "094748.093000",
    "094750.094000",
    "094752.095000",
    "094754.095000",
    "094756.095000",
    "094758.094000",
    "094800.094000",
    "094802.094000",
    "094804.094000",
    "094806.094000",
    "094808.094000",
    "094810.094000",
    "094812.094000",
    "094814.094000",
    "094816.094000",
    "094818.094000",
    "094820.093000",
    "094822.093000",
    "094824.094000",
    "094826.094000",
    "094828.095000",
    "094830.095000",
    "094832.095000",
    "094834.094000",
    "094836.094000",
    "094838.094000",
    "094840.093000",
    "094842.094000",
    "094844.094000",
    "094846.094000",
    "094848.094000",
    "094850.095000",
    "094852.094000",
    "094854.094000",
    "094856.093000",
    "094858.093000",
    "094900.095000",
    "094902.094000",
    "094904.095000",
    "094906.094000",
    "094908.094000",
    "094910.095000",
    "094912.095000",
    "094914.093000",
    "094916.094000",
    "094918.094000",
    "094920.095000",
    "094922.095000",
    "094924.095000",
    "094926.094000",
    "094928.094000",
    "094930.106000",
    "094932.094000",
    "094934.094000",
    "094936.094000",
    "094938.094000",
    "094940.094000",
    "094942.095000",
    "094944.094000",
    "094946.095000",
    "094948.093000",
    "094950.093000",
    "094952.095000",
    "094954.094000",
    "094956.094000",
    "094958.095000",
    "095000.094000",
    "095002.094000",
    "095004.094000",
    "095006.093000",
    "095008.094000",
    "095010.095000",
    "095012.094000",
    "095014.094000",
    "095016.094000",
    "095018.094000",
    "095020.094000",
    "095022.094000",
    "095024.094000",
    "095026.094000",
    "095028.095000",
    "095030.094000",
    "095032.094000",
    "095034.094000",
    "095036.094000",
    "095038.094000",
    "095040.093000",
    "095042.093000",
    "095044.093000",
    "095046.094000",
    "095048.094000",
    "095050.094000",
    "095052.094000",
    "095054.094000",
    "095056.094000",
    "095058.094000",
    "095100.093000",
    "095102.094000",
    "095104.095000",
    "095106.095000",
    "095108.094000",
    "095110.095000",
    "095112.095000",
    "095114.095000",
    "095116.094000",
    "095118.093000",
    "095120.094000",
    "095122.094000",
    "095124.095000",
    "095126.094000",
    "095128.095000",
    "095130.095000",
    "095132.095000",
    "095134.093000",
    "095136.094000",
    "095138.094000",
    "095140.094000",
    "095142.094000",
    "095144.094000",
    "095146.095000",
    "095148.094000",
    "095150.093000",
    "095152.094000",
    "095154.094000",
    "095156.095000",
    "095158.094000",
    "095200.095000",
    "095202.095000",
    "095204.095000",
    "095206.094000",
    "095208.094000",
    "095210.093000",
    "095212.094000",
    "095214.094000",
    "095216.095000",
    "095218.095000",
    "095220.094000",
    "095221.861000"
   ],
   "InstanceNumber": [
    1,
    2,
    3,
    4,
    5,
    6,
    7,
    8,
    9,
    10,
    11,
    12,
    13,
    14,
    15,
    16,
    17,
    18,
    19,
    20,
    21,
    22,
    23,
    24,
    25,
    26,
    27,
    28,
    29,
    30,
    31,
    32,
    33,
    34,
    35,
    36,
    37,
    38,
    39,
    40,
    41,
    42,
    43,
    44,
    45,
    46,
    47,
    48,
    49,
    50,
    51,
    52,
    53,
    54,
    55,
    56,
    57,
    58,
    59,
    60,
    61,
    62,
    63,
    64,
    65,
    66,
    67,
    68,
    69,
    70,
    71,
    72,
    73,
    74,
    75,
    76,
    77,
    78,
    79,
    80,
    81,
    82,
    83,
    84,
    85,
    86,
    87,
    88,
    89,
    90,
    91,
    92,
    93,
    94,
    95,
    96,
    97,
    98,
    99,
    100,
    101,
    102,
    103,
    104,
    105,
    106,
    107,
    108,
    109,
    110,
    111,
    112,
    113,
    114,
    115,
    116,
    117,
    118,
    119,
    120,
    121,
    122,
    123,
    124,
    125,
    126,
    127,
    128,
    129,
    130,
    131,
    132,
    133,
    134,
    135,
    136,
    137,
    138,
    139,
    140,
    141,
    142,
    143,
    144,
    145,
    146,
    147,
    148,
    149,
    150,
    151,
    152,
    153,
    154,
    155,
    156,
    157,
    158,
    159,
    160,
    161,
    162,
    163,
    164,
    165,
    166,
    167,
    168,
    169,
    170,
    171,
    172,
    173,
    174,
    175,
    176,
    177,
    178,
    179,
    180,
    181,
    182,
    183,
    184,
    185,
    186,
    187,
    188,
    189,
    190,
    191,
    192,
    193,
    194,
    195,
    196,
    197,
    198,
    199,
    200,
    201,
    202,
    203,
    204,
    205,
    206,
    207,
    208,
    209,
    210,
    211,
    212,
    213,
    214,
    215,
    216,
    217,
    218,
    219,
    220,
    221,
    222,
    223,
    224,
    225,
    226,
    227,
    228,
    229,
    230,
    231,
    232,
    233,
    234,
    235,
    236,
    237,
    238,
    239,
    240,
    241
   ],
   "LargestImagePixelValue": [
    3340,
    3263,
    3239,
    3210,
    3212,
    3189,
    3209,
    3211,
    3202,
    3204,
    3225,
    3202,
    3264,
    3206,
    3262,
    3267,
    3238,
    3269,
    3233,
    3226,
    3194,
    3245,
    3219,
    3232,
    3232,
    3257,
    3245,
    3231,
    3234,
    3243,
    3255,
    3257,
    3269,
    3297,
    3248,
    3259,
    3297,
    3304,
    3290,
    3284,
    3293,
    3297,
    3301,
    3317,
    3300,
    3281,
    3233,
    3259,
    3261,
    3275,
    3263,
    3289,
    3320,
    3337,
    3268,
    3308,
    3311,
    3330,
    3340,
    3301,
    3338,
    3296,
    3267,
    3328,
    3313,
    3314,
    3364,
    3317,
    3374,
    3355,
    3345,
    3410,
    3322,
    3371,
    3350,
    3393,
    3395,
    3410,
    3392,
    3385,
    3386,
    3400,
    3426,
    3393,
    3417,
    3414,
    3443,
    3417,
    3411,
    3421,
    3371,
    3386,
    3431,
    3378,
    3402,
    3408,
    3390,
    3414,
    3405,
    3445,
    3386,
    3445,
    3417,
    3442,
    3467,
    3393,
    3422,
    3464,
    3437,
    3410,
    3394,
    3401,
    3400,
    3426,
    3411,
    3430,
    3403,
    3425,
    3458,
    3418,
    3432,
    3440,
    3445,
    3419,
    3444,
    3472,
    3423,
    3377,
    3443,
    3415,
    3474,
    3435,
    3443,
    3433,
    3429,
    3410,
    3406,
    3413,
    3403,
    3378,
    3384,
    3443,
    3470,
    3429,
    3498,
    3458,
    3448,
    3437,
    3435,
    3491,
    3420,
    3470,
    3448,
    3445,
    3449,
    3452,
    3453,
    3390,
    3470,
    3478,
    3451,
    3440,
    3468,
    3492,
    3462,
    3525,
    3504,
    3499,
    3493,
    3517,
    3483,
    3469,
    3433,
    3504,
    3468,
    3476,
    3412,
    3454,
    3460,
    3463,
    3449,
    3474,
    3421,
    3430,
    3441,
    3467,
    3496,
    3466,
    3468,
    3448,
    3462,
    3465,
    3462,
    3496,
    3512,
    3502,
    3605,
    3478,
    3510,
    3535,
    3513,
    3508,
    3498,
    3508,
    3509,
    3494,
    3479,
    3510,
    3482,
    3505,
    3508,
    3476,
    3470,
    3500,
    3501,
    3502,
    3487,
    3454,
    3468,
    3504,
    3517,
    3521,
    3507,
    3511,
    3470,
    3537,
    3504,
    3558,
    3525,
    3512,
    3516,
    3536,
    3508,
    3504,
    3517,
    3504,
    3504,
    3559,
    3499,
    3532,
    3485
   ],
   "WindowCenter": [
    842.0,
    839.0,
    839.0,
    838.0,
    838.0,
    838.0,
    840.0,
    841.0,
    840.0,
    840.0,
    842.0,
    842.0,
    840.0,
    839.0,
    839.0,
    838.0,
    837.0,
    836.0,
    835.0,
    834.0,
    834.0,
    835.0,
    835.0,
    836.0,
    837.0,
    837.0,
    837.0,
    838.0,
    838.0,
    838.0,
    838.0,
    838.0,
    841.0,
    840.0,
    839.0,
    838.0,
    839.0,
    839.0,
    839.0,
    839.0,
    839.0,
    839.0,
    838.0,
    839.0,
    840.0,
    841.0,
    839.0,
    839.0,
    840.0,
    842.0,
    841.0,
    840.0,
    840.0,
    840.0,
    839.0,
    838.0,
    838.0,
    838.0,
    838.0,
    837.0,
    838.0,
    838.0,
    838.0,
    838.0,
    839.0,
    841.0,
    841.0,
    839.0,
    838.0,
    837.0,
    836.0,
    837.0,
    837.0,
    838.0,
    838.0,
    837.0,
    836.0,
    836.0,
    837.0,
    838.0,
    838.0,
    838.0,
    838.0,
    839.0,
    840.0,
    839.0,
    840.0,
    841.0,
    843.0,
    843.0,
    842.0,
    841.0,
    844.0,
    846.0,
    845.0,
    842.0,
    840.0,
    839.0,
    837.0,
    837.0,
    837.0,
    838.0,
    839.0,
    840.0,
    841.0,
    840.0,
    839.0,
    838.0,
    839.0,
    842.0,
    841.0,
    839.0,
    838.0,
    837.0,
    837.0,
    836.0,
    837.0,
    839.0,
    842.0,
    841.0,
    840.0,
    838.0,
    839.0,
    841.0,
    841.0,
    839.0,
    837.0,
    836.0,
    837.0,
    841.0,
    842.0,
    841.0,
    839.0,
    838.0,
    837.0,
    838.0,
    840.0,
    840.0,
    841.0,
    840.0,
    839.0,
    840.0,
    842.0,
    842.0,
    841.0,
    839.0,
    837.0,
    837.0,
    837.0,
    839.0,
    840.0,
    840.0,
    839.0,
    838.0,
    838.0,
    839.0,
    838.0,
    837.0,
    839.0,
    842.0,
    843.0,
    843.0,
    842.0,
    841.0,
    839.0,
    838.0,
    838.0,
    838.0,
    838.0,
    839.0,
    839.0,
    840.0,
    841.0,
    841.0,
    840.0,
    841.0,
    840.0,
    842.0,
    843.0,
    842.0,
    840.0,
    839.0,
    839.0,
    840.0,
    840.0,
    841.0,
    841.0,
    840.0,
    839.0,
    840.0,
    842.0,
    842.0,
    841.0,
    842.0,
    845.0,
    845.0,
    846.0,
    843.0,
    843.0,
    842.0,
    840.0,
    838.0,
    836.0,
    836.0,
    837.0,
    837.0,
    839.0,
    839.0,
    838.0,
    836.0,
    835.0,
    836.0,
    837.0,
    839.0,
    841.0,
    841.0,
    842.0,
    842.0,
    843.0,
    844.0,
    844.0,
    844.0,
    843.0,
    841.0,
    839.0,
    840.0,
    839.0,
    841.0,
    840.0,
    839.0,
    838.0,
    838.0,
    838.0,
    839.0,
