{
  "AcquisitionMatrixPE": 100,
  "AcquisitionNumber": 1,
  "AcquisitionTime": "10:43:34.052500",
  "BandwidthPerPixelPhaseEncode": 18.519,
  "BaseResolution": 100,
  "BodyPartExamined": "BRAIN",
  "ConsistencyInfo": "N4_VE11C_LATEST_20160120",
  "ConversionSoftware": "dcm2niix",
  "ConversionSoftwareVersion": "v1.0.20180622 GCC4.9.2",
  "DerivedVendorReportedEchoSpacing": 0.000539986,
  "DeviceSerialNumber": "166078",
  "DwellTime": 2.1e-06,
  "EchoTime": 0.034,
  "EchoTrainLength": 100,
  "EffectiveEchoSpacing": 0.000539986,
  "FlipAngle": 90,
  "ImageOrientationPatientDICOM": [1, 3.40647e-07, 9.38618e-06, 3.5288e-09, 0.999328, -0.036644],
  "ImageType": [
    "ORIGINAL",
    "PRIMARY",
    "M",
    "ND",
    "MOSAIC"
],
  "InPlanePhaseEncodingDirectionDICOM": "COL",
  "InstitutionAddress": "Street_StreetNo_Bei_Jing_District_CN_ZIP",
  "InstitutionName": "BeiJing_Normal_University",
  "InstitutionalDepartmentName": "Department",
  "MRAcquisitionType": "2D",
  "MagneticFieldStrength": 3,
  "Manufacturer": "Siemens",
  "ManufacturersModelName": "Prisma",
  "Modality": "MR",
  "MultibandAccelerationFactor": 3,
  "PartialFourier": 1,
  "PatientPosition": "HFS",
  "PercentPhaseFOV": 100,
  "PhaseEncodingDirection": "j-",
  "PhaseEncodingSteps": 100,
  "PhaseResolution": 1,
  "PixelBandwidth": 2380,
  "ProcedureStepDescription": "BNU_P2018_64CH_Zhen.ZongLei",
  "ProtocolName": "bold_100x100_s3_2x2x2_static_test_241",
  "PulseSequenceDetails": "%SiemensSeq%_ep2d_bold",
  "ReceiveCoilActiveElements": "HC1-7;NC1",
  "ReceiveCoilName": "HeadNeck_64",
  "ReconMatrixPE": 100,
  "RepetitionTime": 2,
  "SAR": 0.0729976,
  "ScanOptions": "FS",
  "ScanningSequence": "EP",
  "SequenceName": "_epfid2d1_100",
  "SequenceVariant": "SK",
  "SeriesDescription": "bold_100x100_s3_2x2x2_static_test_241",
  "SeriesNumber": 15,
  "ShimSetting": [-5453, -11504, -1262, 147, -85, -137, -127, 72],
  "SliceThickness": 2,
  "SliceTiming": [1.485, 0, 0.99, 0.0825, 1.0725, 0.165, 1.155, 0.2475, 1.2375, 0.33, 1.32, 0.4125, 1.4025, 0.5775, 1.5675, 0.66, 1.65, 0.7425, 1.7325, 0.825, 1.815, 0.9075, 1.8975, 0.495, 1.485, 0, 0.99, 0.0825, 1.0725, 0.165, 1.155, 0.2475, 1.2375, 0.33, 1.32, 0.4125, 1.4025, 0.5775, 1.5675, 0.66, 1.65, 0.7425, 1.7325, 0.825, 1.815, 0.9075, 1.8975, 0.495, 1.485, 0, 0.99, 0.0825, 1.0725, 0.165, 1.155, 0.2475, 1.2375, 0.33, 1.32, 0.4125, 1.4025, 0.5775, 1.5675, 0.66, 1.65, 0.7425, 1.7325, 0.825, 1.815, 0.9075, 1.8975, 0.495],
  "SoftwareVersions": "syngo_MR_E11",
  "SpacingBetweenSlices": 2,
  "StationName": "AWP166078",
  "TaskName": "naturalvision2",
  "TotalReadoutTime": 0.0534586,
  "TxRefAmp": 240.496,
  "dcmmeta_affine": [
    [-2.0, 7.057590067915953e-09, 1.878471448435448e-05, 100.73217010498047],
    [-6.812939545852714e-07, 1.9986567497253418, -0.0732879713177681, -87.915771484375],
    [1.877235627034679e-05, 0.0732879713177681, 1.9986567497253418, -74.75650787353516],
    [0.0, 0.0, 0.0, 1.0]
],
  "dcmmeta_reorient_transform": [
    [0.0, -1.0, 0.0, 99.0],
    [1.0, 0.0, 0.0, 0.0],
    [0.0, 0.0, 1.0, 0.0],
    [0.0, 0.0, 0.0, 1.0]
],
  "dcmmeta_shape": [100, 100, 72, 241],
  "dcmmeta_slice_dim": 2,
  "dcmmeta_version": 0.6,
  "global": {
    "const": {
      "AcquisitionMatrix": [100, 0, 0, 100],
      "AngioFlag": "N",
      "BitsAllocated": 16,
      "BitsStored": 12,
      "BodyPartExamined": "BRAIN",
      "Columns": 900,
      "EchoNumbers": 1,
      "EchoTime": 34.0,
      "EchoTrainLength": 100,
      "FlipAngle": 90.0,
      "HighBit": 11,
      "ImageOrientationPatient": [0.99999999995589, 3.40646969e-07, 9.386178527e-06, 3.528795e-09, 0.99932838366932, -0.0366439844021],
      "ImagePositionPatient": [-900.73217282396, -909.41422823506, -38.193320827337],
      "ImageType": [
        "ORIGINAL",
        "PRIMARY",
        "M",
        "ND",
        "MOSAIC"
],
      "ImagedNucleus": "1H",
      "ImagingFrequency": 123.257773,
      "InPlanePhaseEncodingDirection": "COL",
      "MRAcquisitionType": "2D",
      "MagneticFieldStrength": 3.0,
      "Manufacturer": "SIEMENS",
      "ManufacturerModelName": "Prisma",
      "Modality": "MR",
      "NumberOfAverages": 1.0,
      "NumberOfPhaseEncodingSteps": 100,
      "PercentPhaseFieldOfView": 100.0,
      "PercentSampling": 100.0,
      "PerformedProcedureStepStartTime": "085924.354000",
      "PhotometricInterpretation": "MONOCHROME2",
      "PixelBandwidth": 2380.0,
      "PixelRepresentation": 0,
      "PixelSpacing": [2.0, 2.0],
      "ProtocolName": "bold_100x100_s3_2x2x2_static_test_241",
      "RepetitionTime": 2000.0,
      "Rows": 900,
      "SAR": 0.07299762692833,
      "SamplesPerPixel": 1,
      "ScanOptions": "FS",
      "ScanningSequence": "EP",
      "SequenceName": "*epfid2d1_100",
      "SequenceVariant": "SK",
      "SeriesDescription": "bold_100x100_s3_2x2x2_static_test_241",
      "SeriesNumber": 15,
      "SeriesTime": "104336.795000",
      "SliceLocation": -71.4837703623,
      "SliceThickness": 2.0,
      "SmallestImagePixelValue": 0,
      "SoftwareVersions": "syngo MR E11",
      "SpacingBetweenSlices": 2.0000000297786,
      "SpecificCharacterSet": "ISO_IR 100",
      "StudyID": "1",
      "StudyTime": "085924.262000",
      "TransmitCoilName": "Body",
      "VariableFlipAngleFlag": "N",
      "WindowCenterWidthExplanation": "Algo1",
      "dBdt": 0.0},
    "slices": {}
  },
  "time": {
    "samples": {
      "AcquisitionNumber": [1, 2, 3, 4, 5, 6, 7, 8, 9, 10, 11, 12, 13, 14, 15, 16, 17, 18, 19, 20, 21, 22, 23, 24, 25, 26, 27, 28, 29, 30, 31, 32, 33, 34, 35, 36, 37, 38, 39, 40, 41, 42, 43, 44, 45, 46, 47, 48, 49, 50, 51, 52, 53, 54, 55, 56, 57, 58, 59, 60, 61, 62, 63, 64, 65, 66, 67, 68, 69, 70, 71, 72, 73, 74, 75, 76, 77, 78, 79, 80, 81, 82, 83, 84, 85, 86, 87, 88, 89, 90, 91, 92, 93, 94, 95, 96, 97, 98, 99, 100, 101, 102, 103, 104, 105, 106, 107, 108, 109, 110, 111, 112, 113, 114, 115, 116, 117, 118, 119, 120, 121, 122, 123, 124, 125, 126, 127, 128, 129, 130, 131, 132, 133, 134, 135, 136, 137, 138, 139, 140, 141, 142, 143, 144, 145, 146, 147, 148, 149, 150, 151, 152, 153, 154, 155, 156, 157, 158, 159, 160, 161, 162, 163, 164, 165, 166, 167, 168, 169, 170, 171, 172, 173, 174, 175, 176, 177, 178, 179, 180, 181, 182, 183, 184, 185, 186, 187, 188, 189, 190, 191, 192, 193, 194, 195, 196, 197, 198, 199, 200, 201, 202, 203, 204, 205, 206, 207, 208, 209, 210, 211, 212, 213, 214, 215, 216, 217, 218, 219, 220, 221, 222, 223, 224, 225, 226, 227, 228, 229, 230, 231, 232, 233, 234, 235, 236, 237, 238, 239, 240, 241],
      "AcquisitionTime": ["104334.052500", "104336.052500", "104338.052500", "104340.052500", "104342.052500", "104344.052500", "104346.052500", "104348.052500", "104350.052500", "104352.052500", "104354.052500", "104356.052500", "104358.052500", "104400.052500", "104402.052500", "104404.052500", "104406.052500", "104408.052500", "104410.052500", "104412.052500", "104414.052500", "104416.052500", "104418.052500", "104420.052500", "104422.052500", "104424.052500", "104426.052500", "104428.052500", "104430.052500", "104432.052500", "104434.052500", "104436.052500", "104438.052500", "104440.052500", "104442.052500", "104444.052500", "104446.052500", "104448.052500", "104450.052500", "104452.052500", "104454.052500", "104456.052500", "104458.052500", "104500.052500", "104502.052500", "104504.052500", "104506.052500", "104508.052500", "104510.052500", "104512.052500", "104514.052500", "104516.052500", "104518.052500", "104520.052500", "104522.052500", "104524.052500", "104526.052500", "104528.052500", "104530.052500", "104532.052500", "104534.052500", "104536.052500", "104538.052500", "104540.052500", "104542.052500", "104544.052500", "104546.052500", "104548.052500", "104550.052500", "104552.052500", "104554.052500", "104556.052500", "104558.052500", "104600.052500", "104602.052500", "104604.052500", "104606.052500", "104608.052500", "104610.052500", "104612.052500", "104614.052500", "104616.052500", "104618.052500", "104620.052500", "104622.052500", "104624.052500", "104626.052500", "104628.052500", "104630.052500", "104632.052500", "104634.052500", "104636.052500", "104638.052500", "104640.052500", "104642.052500", "104644.052500", "104646.052500", "104648.052500", "104650.052500", "104652.052500", "104654.052500", "104656.052500", "104658.052500", "104700.052500", "104702.052500", "104704.052500", "104706.052500", "104708.052500", "104710.052500", "104712.052500", "104714.052500", "104716.052500", "104718.052500", "104720.052500", "104722.052500", "104724.052500", "104726.052500", "104728.052500", "104730.052500", "104732.052500", "104734.052500", "104736.052500", "104738.052500", "104740.052500", "104742.052500", "104744.052500", "104746.052500", "104748.052500", "104750.052500", "104752.052500", "104754.052500", "104756.052500", "104758.052500", "104800.052500", "104802.052500", "104804.052500", "104806.052500", "104808.052500", "104810.052500", "104812.052500", "104814.052500", "104816.052500", "104818.052500", "104820.052500", "104822.052500", "104824.052500", "104826.052500", "104828.052500", "104830.052500", "104832.052500", "104834.052500", "104836.052500", "104838.052500", "104840.052500", "104842.052500", "104844.052500", "104846.052500", "104848.052500", "104850.052500", "104852.052500", "104854.052500", "104856.052500", "104858.052500", "104900.052500", "104902.052500", "104904.052500", "104906.052500", "104908.052500", "104910.052500", "104912.052500", "104914.052500", "104916.052500", "104918.052500", "104920.052500", "104922.052500", "104924.052500", "104926.052500", "104928.052500", "104930.052500", "104932.052500", "104934.052500", "104936.052500", "104938.052500", "104940.052500", "104942.052500", "104944.052500", "104946.052500", "104948.052500", "104950.052500", "104952.052500", "104954.052500", "104956.052500", "104958.052500", "105000.052500", "105002.052500", "105004.052500", "105006.052500", "105008.052500", "105010.052500", "105012.052500", "105014.052500", "105016.052500", "105018.052500", "105020.052500", "105022.052500", "105024.052500", "105026.052500", "105028.052500", "105030.052500", "105032.052500", "105034.052500", "105036.052500", "105038.052500", "105040.052500", "105042.052500", "105044.052500", "105046.052500", "105048.052500", "105050.052500", "105052.052500", "105054.052500", "105056.052500", "105058.052500", "105100.052500", "105102.052500", "105104.052500", "105106.052500", "105108.052500", "105110.052500", "105112.052500", "105114.052500", "105116.052500", "105118.052500", "105120.052500", "105122.052500", "105124.052500", "105126.052500", "105128.052500", "105130.052500", "105132.052500", "105134.052500"],
      "ContentTime": ["104336.799000", "104338.295000", "104340.295000", "104342.295000", "104344.295000", "104346.295000", "104348.295000", "104350.295000", "104352.295000", "104354.295000", "104356.295000", "104358.294000", "104400.295000", "104402.295000", "104404.295000", "104406.294000", "104408.294000", "104410.294000", "104412.295000", "104414.294000", "104416.295000", "104418.294000", "104420.295000", "104422.296000", "104424.294000", "104426.295000", "104428.294000", "104430.294000", "104432.295000", "104434.295000", "104436.295000", "104438.295000", "104440.295000", "104442.295000", "104444.295000", "104446.295000", "104448.295000", "104450.295000", "104452.295000", "104454.295000", "104456.295000", "104458.295000", "104500.295000", "104502.295000", "104504.295000", "104506.294000", "104508.295000", "104510.294000", "104512.294000", "104514.296000", "104516.294000", "104518.294000", "104520.295000", "104522.294000", "104524.295000", "104526.294000", "104528.295000", "104530.294000", "104532.296000", "104534.294000", "104536.295000", "104538.295000", "104540.295000", "104542.295000", "104544.294000", "104546.295000", "104548.295000", "104550.295000", "104552.295000", "104554.295000", "104556.295000", "104558.295000", "104600.295000", "104602.294000", "104604.295000", "104606.296000", "104608.295000", "104610.294000", "104612.295000", "104614.294000", "104616.295000", "104618.295000", "104620.295000", "104622.294000", "104624.296000", "104626.294000", "104628.294000", "104630.294000", "104632.295000", "104634.295000", "104636.295000", "104638.295000", "104640.295000", "104642.295000", "104644.294000", "104646.295000", "104648.295000", "104650.294000", "104652.295000", "104654.295000", "104656.295000", "104658.294000", "104700.296000", "104702.294000", "104704.295000", "104706.294000", "104708.294000", "104710.294000", "104712.295000", "104714.295000", "104716.295000", "104718.295000", "104720.294000", "104722.294000", "104724.294000", "104726.294000", "104728.294000", "104730.294000", "104732.295000", "104734.296000", "104736.295000", "104738.295000", "104740.294000", "104742.295000", "104744.295000", "104746.295000", "104748.294000", "104750.295000", "104752.296000", "104754.295000", "104756.294000", "104758.295000", "104800.303000", "104802.295000", "104804.294000", "104806.295000", "104808.294000", "104810.295000", "104812.295000", "104814.294000", "104816.295000", "104818.295000", "104820.295000", "104822.295000", "104824.295000", "104826.296000", "104828.295000", "104830.294000", "104832.295000", "104834.294000", "104836.294000", "104838.295000", "104840.295000", "104842.295000", "104844.295000", "104846.295000", "104848.294000", "104850.294000", "104852.294000", "104854.295000", "104856.294000", "104858.295000", "104900.294000", "104902.295000", "104904.295000", "104906.295000", "104908.295000", "104910.294000", "104912.295000", "104914.295000", "104916.294000", "104918.294000", "104920.296000", "104922.295000", "104924.295000", "104926.295000", "104928.295000", "104930.295000", "104932.295000", "104934.295000", "104936.296000", "104938.295000", "104940.294000", "104942.295000", "104944.294000", "104946.294000", "104948.295000", "104950.295000", "104952.295000", "104954.295000", "104956.294000", "104958.294000", "105000.294000", "105002.295000", "105004.295000", "105006.295000", "105008.295000", "105010.294000", "105012.296000", "105014.294000", "105016.294000", "105018.295000", "105020.295000", "105022.295000", "105024.295000", "105026.295000", "105028.295000", "105030.296000", "105032.295000", "105034.295000", "105036.295000", "105038.295000", "105040.295000", "105042.295000", "105044.295000", "105046.296000", "105048.296000", "105050.295000", "105052.294000", "105054.295000", "105056.295000", "105058.295000", "105100.295000", "105102.295000", "105104.296000", "105106.295000", "105108.295000", "105110.294000", "105112.295000", "105114.294000", "105116.295000", "105118.295000", "105120.295000", "105122.296000", "105124.294000", "105126.295000", "105128.295000", "105130.295000", "105132.295000", "105134.295000", "105135.859000"],
      "InstanceCreationTime": ["104336.799000", "104338.295000", "104340.295000", "104342.295000", "104344.295000", "104346.295000", "104348.295000", "104350.295000", "104352.295000", "104354.295000", "104356.295000", "104358.294000", "104400.295000", "104402.295000", "104404.295000", "104406.294000", "104408.294000", "104410.294000", "104412.295000", "104414.294000", "104416.295000", "104418.294000", "104420.295000", "104422.296000", "104424.294000", "104426.295000", "104428.294000", "104430.294000", "104432.295000", "104434.295000", "104436.295000", "104438.295000", "104440.295000", "104442.295000", "104444.295000", "104446.295000", "104448.295000", "104450.295000", "104452.295000", "104454.295000", "104456.295000", "104458.295000", "104500.295000", "104502.295000", "104504.295000", "104506.294000", "104508.295000", "104510.294000", "104512.294000", "104514.296000", "104516.294000", "104518.294000", "104520.295000", "104522.294000", "104524.295000", "104526.294000", "104528.295000", "104530.294000", "104532.296000", "104534.294000", "104536.295000", "104538.295000", "104540.295000", "104542.295000", "104544.294000", "104546.295000", "104548.295000", "104550.295000", "104552.295000", "104554.295000", "104556.295000", "104558.295000", "104600.295000", "104602.294000", "104604.295000", "104606.296000", "104608.295000", "104610.294000", "104612.295000", "104614.294000", "104616.295000", "104618.295000", "104620.295000", "104622.294000", "104624.296000", "104626.294000", "104628.294000", "104630.294000", "104632.295000", "104634.295000", "104636.295000", "104638.295000", "104640.295000", "104642.295000", "104644.294000", "104646.295000", "104648.295000", "104650.294000", "104652.295000", "104654.295000", "104656.295000", "104658.294000", "104700.296000", "104702.294000", "104704.295000", "104706.294000", "104708.294000", "104710.294000", "104712.295000", "104714.295000", "104716.295000", "104718.295000", "104720.294000", "104722.294000", "104724.294000", "104726.294000", "104728.294000", "104730.294000", "104732.295000", "104734.296000", "104736.295000", "104738.295000", "104740.294000", "104742.295000", "104744.295000", "104746.295000", "104748.294000", "104750.295000", "104752.296000", "104754.295000", "104756.294000", "104758.295000", "104800.303000", "104802.295000", "104804.294000", "104806.295000", "104808.294000", "104810.295000", "104812.295000", "104814.294000", "104816.295000", "104818.295000", "104820.295000", "104822.295000", "104824.295000", "104826.296000", "104828.295000", "104830.294000", "104832.295000", "104834.294000", "104836.294000", "104838.295000", "104840.295000", "104842.295000", "104844.295000", "104846.295000", "104848.294000", "104850.294000", "104852.294000", "104854.295000", "104856.294000", "104858.295000", "104900.294000", "104902.295000", "104904.295000", "104906.295000", "104908.295000", "104910.294000", "104912.295000", "104914.295000", "104916.294000", "104918.294000", "104920.296000", "104922.295000", "104924.295000", "104926.295000", "104928.295000", "104930.295000", "104932.295000", "104934.295000", "104936.296000", "104938.295000", "104940.294000", "104942.295000", "104944.294000", "104946.294000", "104948.295000", "104950.295000", "104952.295000", "104954.295000", "104956.294000", "104958.294000", "105000.294000", "105002.295000", "105004.295000", "105006.295000", "105008.295000", "105010.294000", "105012.296000", "105014.294000", "105016.294000", "105018.295000", "105020.295000", "105022.295000", "105024.295000", "105026.295000", "105028.295000", "105030.296000", "105032.295000", "105034.295000", "105036.295000", "105038.295000", "105040.295000", "105042.295000", "105044.295000", "105046.296000", "105048.296000", "105050.295000", "105052.294000", "105054.295000", "105056.295000", "105058.295000", "105100.295000", "105102.295000", "105104.296000", "105106.295000", "105108.295000", "105110.294000", "105112.295000", "105114.294000", "105116.295000", "105118.295000", "105120.295000", "105122.296000", "105124.294000", "105126.295000", "105128.295000", "105130.295000", "105132.295000", "105134.295000", "105135.859000"],
      "InstanceNumber": [1, 2, 3, 4, 5, 6, 7, 8, 9, 10, 11, 12, 13, 14, 15, 16, 17, 18, 19, 20, 21, 22, 23, 24, 25, 26, 27, 28, 29, 30, 31, 32, 33, 34, 35, 36, 37, 38, 39, 40, 41, 42, 43, 44, 45, 46, 47, 48, 49, 50, 51, 52, 53, 54, 55, 56, 57, 58, 59, 60, 61, 62, 63, 64, 65, 66, 67, 68, 69, 70, 71, 72, 73, 74, 75, 76, 77, 78, 79, 80, 81, 82, 83, 84, 85, 86, 87, 88, 89, 90, 91, 92, 93, 94, 95, 96, 97, 98, 99, 100, 101, 102, 103, 104, 105, 106, 107, 108, 109, 110, 111, 112, 113, 114, 115, 116, 117, 118, 119, 120, 121, 122, 123, 124, 125, 126, 127, 128, 129, 130, 131, 132, 133, 134, 135, 136, 137, 138, 139, 140, 141, 142, 143, 144, 145, 146, 147, 148, 149, 150, 151, 152, 153, 154, 155, 156, 157, 158, 159, 160, 161, 162, 163, 164, 165, 166, 167, 168, 169, 170, 171, 172, 173, 174, 175, 176, 177, 178, 179, 180, 181, 182, 183, 184, 185, 186, 187, 188, 189, 190, 191, 192, 193, 194, 195, 196, 197, 198, 199, 200, 201, 202, 203, 204, 205, 206, 207, 208, 209, 210, 211, 212, 213, 214, 215, 216, 217, 218, 219, 220, 221, 222, 223, 224, 225, 226, 227, 228, 229, 230, 231, 232, 233, 234, 235, 236, 237, 238, 239, 240, 241],
      "LargestImagePixelValue": [3710, 3576, 3614, 3586, 3622, 3538, 3579, 3536, 3600, 3545, 3628, 3574, 3581, 3577, 3574, 3674, 3687, 3699, 3714, 3696, 3792, 3697, 3770, 3708, 3687, 3729, 3752, 3710, 3793, 3733, 3613, 3615, 3593, 3633, 3714, 3670, 3697, 3661, 3724, 3688, 3717, 3690, 3730, 3667, 3763, 3775, 3765, 3763, 3730, 3790, 3738, 3709, 3725, 3732, 3682, 3713, 3664, 3651, 3739, 3725, 3747, 3735, 3737, 3760, 3721, 3712, 3755, 3681, 3725, 3704, 3699, 3747, 3776, 3783, 3811, 3815, 3823, 3830, 3783, 3812, 3745, 3800, 3773, 3780, 3760, 3757, 3761, 3738, 3810, 3774, 3735, 3734, 3773, 3779, 3780, 3766, 3749, 3746, 3749, 3740, 3736, 3720, 3742, 3671, 3692, 3687, 3707, 3694, 3695, 3759, 3776, 3662, 3772, 3730, 3736, 3686, 3690, 3710, 3788, 3746, 3797, 3782, 3765, 3746, 3760, 3759, 3773, 3729, 3780, 3762, 3760, 3781, 3794, 3796, 3778, 3731, 3753, 3724, 3796, 3740, 3737, 3723, 3747, 3701, 3688, 3701, 3689, 3727, 3686, 3639, 3672, 3659, 3699, 3704, 3675, 3680, 3629, 3663, 3642, 3685, 3701, 3733, 3670, 3723, 3677, 3753, 3774, 3747, 3727, 3738, 3721, 3707, 3749, 3671, 3700, 3672, 3699, 3731, 3722, 3793, 3733, 3753, 3762, 3774, 3780, 3788, 3730, 3756, 3721, 3738, 3741, 3616, 3672, 3683, 3637, 3680, 3688, 3752, 3663, 3757, 3754, 3761, 3775, 3768, 3752, 3716, 3767, 3746, 3791, 3727, 3706, 3673, 3724, 3725, 3732, 3753, 3744, 3740, 3746, 3691, 3734, 3725, 3747, 3764, 3749, 3709, 3650, 3639, 3743, 3776, 3810, 3804, 3841, 3819, 3780, 3802, 3783, 3790, 3710, 3732, 3748],
      "WindowCenter": [864.0, 860.0, 860.0, 859.0, 860.0, 861.0, 860.0, 860.0, 861.0, 861.0, 860.0, 859.0, 859.0, 860.0, 860.0, 860.0, 859.0, 857.0, 857.0, 858.0, 858.0, 858.0, 859.0, 858.0, 858.0, 858.0, 858.0, 857.0, 858.0, 859.0, 861.0, 861.0, 859.0, 857.0, 856.0, 857.0, 858.0, 858.0, 857.0, 857.0, 859.0, 859.0, 860.0, 858.0, 858.0, 857.0, 858.0, 858.0, 857.0, 857.0, 857.0, 858.0, 859.0, 859.0, 859.0, 861.0, 860.0, 860.0, 860.0, 859.0, 859.0, 860.0, 861.0, 860.0, 858.0, 858.0, 857.0, 858.0, 858.0, 857.0, 858.0, 857.0, 856.0, 855.0, 854.0, 855.0, 854.0, 854.0, 854.0, 857.0, 857.0, 858.0, 859.0, 860.0, 860.0, 859.0, 858.0, 858.0, 858.0, 857.0, 858.0, 858.0, 857.0, 858.0, 858.0, 858.0, 858.0, 857.0, 856.0, 856.0, 856.0, 856.0, 858.0, 858.0, 857.0, 857.0, 860.0, 860.0, 859.0, 858.0, 858.0, 856.0, 858.0, 857.0, 857.0, 857.0, 856.0, 856.0, 857.0, 857.0, 857.0, 857.0, 857.0, 856.0, 857.0, 857.0, 857.0, 857.0, 857.0, 857.0, 856.0, 856.0, 857.0, 858.0, 859.0, 860.0, 860.0, 859.0, 858.0, 857.0, 856.0, 856.0, 858.0, 859.0, 859.0, 859.0, 860.0, 859.0, 857.0, 855.0, 854.0, 852.0, 852.0, 853.0, 854.0, 856.0, 857.0, 857.0, 858.0, 859.0, 859.0, 859.0, 858.0, 858.0, 858.0, 859.0, 860.0, 861.0, 860.0, 861.0, 861.0, 861.0, 860.0, 861.0, 861.0, 861.0, 862.0, 861.0, 861.0, 861.0, 860.0, 861.0, 861.0, 861.0, 861.0, 862.0, 861.0, 859.0, 859.0, 861.0, 862.0, 862.0, 861.0, 860.0, 859.0, 858.0, 859.0, 860.0, 860.0, 859.0, 859.0, 858.0, 856.0, 856.0, 857.0, 856.0, 858.0, 858.0, 859.0, 859.0, 859.0, 858.0, 858.0, 859.0, 859.0, 859.0, 860.0, 858.0, 858.0, 859.0, 859.0, 859.0, 857.0, 858.0, 860.0, 859.0, 858.0, 856.0, 856.0, 854.0, 850.0, 847.0, 847.0, 849.0, 851.0, 853.0, 855.0, 857.0, 858.0, 857.0, 860.0],
      "WindowWidth": [1837.0, 1828.0, 1826.0, 1824.0, 1828.0, 1828.0, 1827.0, 1826.0, 1828.0, 1828.0, 1827.0, 1824.0, 1824.0, 1827.0, 1826.0, 1828.0, 1825.0, 1821.0, 1818.0, 1821.0, 1822.0, 1822.0, 1825.0, 1822.0, 1821.0, 1821.0, 1822.0, 1819.0, 1821.0, 1825.0, 1829.0, 1829.0, 1823.0, 1818.0, 1818.0, 1819.0, 1823.0, 1821.0, 1821.0, 1818.0, 1824.0, 1825.0, 1826.0, 1823.0, 1822.0, 1821.0, 1823.0, 1823.0, 1820.0, 1819.0, 1821.0, 1823.0, 1824.0, 1824.0, 1826.0, 1829.0, 1828.0, 1826.0, 1827.0, 1826.0, 1826.0, 1828.0, 1829.0, 1827.0, 1822.0, 1821.0, 1821.0, 1822.0, 1822.0, 1821.0, 1823.0, 1821.0, 1817.0, 1815.0, 1814.0, 1814.0, 1813.0, 1813.0, 1814.0, 1820.0, 1819.0, 1821.0, 1824.0, 1826.0, 1827.0, 1824.0, 1822.0, 1822.0, 1821.0, 1820.0, 1821.0, 1822.0, 1819.0, 1822.0, 1821.0, 1822.0, 1821.0, 1818.0, 1817.0, 1817.0, 1817.0, 1817.0, 1821.0, 1821.0, 1820.0, 1820.0, 1828.0, 1827.0, 1824.0, 1823.0, 1822.0, 1818.0, 1821.0, 1820.0, 1820.0, 1818.0, 1817.0, 1815.0, 1820.0, 1819.0, 1818.0, 1818.0, 1819.0, 1815.0, 1820.0, 1819.0, 1820.0, 1819.0, 1818.0, 1818.0, 1817.0, 1817.0, 1820.0, 1821.0, 1824.0, 1827.0, 1827.0, 1824.0, 1823.0, 1819.0, 1817.0, 1817.0, 1822.0, 1824.0, 1824.0, 1826.0, 1826.0, 1824.0, 1819.0, 1814.0, 1811.0, 1806.0, 1807.0, 1809.0, 1812.0, 1817.0, 1818.0, 1819.0, 1822.0, 1823.0, 1823.0, 1823.0, 1821.0, 1822.0, 1822.0, 1824.0, 1827.0, 1828.0, 1826.0, 1828.0, 1828.0, 1828.0, 1826.0, 1828.0, 1827.0, 1827.0, 1830.0, 1830.0, 1828.0, 1829.0, 1827.0, 1829.0, 1829.0, 1828.0, 1829.0, 1831.0, 1830.0, 1825.0, 1824.0, 1829.0, 1833.0, 1830.0, 1829.0, 1826.0, 1824.0, 1821.0, 1823.0, 1827.0, 1826.0, 1824.0, 1823.0, 1820.0, 1816.0, 1816.0, 1819.0, 1817.0, 1820.0, 1820.0, 1823.0, 1822.0, 1823.0, 1820.0, 1821.0, 1822.0, 1824.0, 1824.0, 1825.0, 1822.0, 1821.0, 1822.0, 1824.0, 1822.0, 1819.0, 1821.0, 1825.0, 1825.0, 1820.0, 1817.0, 1817.0, 1811.0, 1801.0, 1794.0, 1795.0, 1800.0, 1804.0, 1810.0, 1814.0, 1818.0, 1820.0, 1820.0, 1826.0]
    },
    "slices": {}
  }
}