{
  "AcquisitionMatrixPE": 100,
  "AcquisitionNumber": 1,
  "AcquisitionTime": "09:56:41.270000",
  "BandwidthPerPixelPhaseEncode": 18.519,
  "BaseResolution": 100,
  "BodyPartExamined": "BRAIN",
  "ConsistencyInfo": "N4_VE11C_LATEST_20160120",
  "ConversionSoftware": "dcm2niix",
  "ConversionSoftwareVersion": "v1.0.20180622 GCC4.9.2",
  "DerivedVendorReportedEchoSpacing": 0.000539986,
  "DeviceSerialNumber": "166078",
  "DwellTime": 2.1e-06,
  "EchoTime": 0.034,
  "EchoTrainLength": 100,
  "EffectiveEchoSpacing": 0.000539986,
  "FlipAngle": 90,
  "ImageOrientationPatientDICOM": [1, 3.40647e-07, 9.38618e-06, 3.5288e-09, 0.999328, -0.036644],
  "ImageType": [
    "ORIGINAL",
    "PRIMARY",
    "M",
    "ND",
    "MOSAIC"
],
  "InPlanePhaseEncodingDirectionDICOM": "COL",
  "InstitutionAddress": "Street_StreetNo_Bei_Jing_District_CN_ZIP",
  "InstitutionName": "BeiJing_Normal_University",
  "InstitutionalDepartmentName": "Department",
  "MRAcquisitionType": "2D",
  "MagneticFieldStrength": 3,
  "Manufacturer": "Siemens",
  "ManufacturersModelName": "Prisma",
  "Modality": "MR",
  "MultibandAccelerationFactor": 3,
  "PartialFourier": 1,
  "PatientPosition": "HFS",
  "PercentPhaseFOV": 100,
  "PhaseEncodingDirection": "j-",
  "PhaseEncodingSteps": 100,
  "PhaseResolution": 1,
  "PixelBandwidth": 2380,
  "ProcedureStepDescription": "BNU_P2018_64CH_Zhen.ZongLei",
  "ProtocolName": "bold_100x100_s3_2x2x2_static_test_241",
  "PulseSequenceDetails": "%SiemensSeq%_ep2d_bold",
  "ReceiveCoilActiveElements": "HC1-7;NC1",
  "ReceiveCoilName": "HeadNeck_64",
  "ReconMatrixPE": 100,
  "RepetitionTime": 2,
  "SAR": 0.0729976,
  "ScanOptions": "FS",
  "ScanningSequence": "EP",
  "SequenceName": "_epfid2d1_100",
  "SequenceVariant": "SK",
  "SeriesDescription": "bold_100x100_s3_2x2x2_static_test_241",
  "SeriesNumber": 10,
  "ShimSetting": [-5453, -11504, -1262, 147, -85, -137, -127, 72],
  "SliceThickness": 2,
  "SliceTiming": [1.485, 0, 0.99, 0.0825, 1.0725, 0.165, 1.155, 0.2475, 1.2375, 0.33, 1.32, 0.4125, 1.4025, 0.5775, 1.5675, 0.66, 1.65, 0.7425, 1.7325, 0.825, 1.815, 0.9075, 1.8975, 0.495, 1.485, 0, 0.99, 0.0825, 1.0725, 0.165, 1.155, 0.2475, 1.2375, 0.33, 1.32, 0.4125, 1.4025, 0.5775, 1.5675, 0.66, 1.65, 0.7425, 1.7325, 0.825, 1.815, 0.9075, 1.8975, 0.495, 1.485, 0, 0.99, 0.0825, 1.0725, 0.165, 1.155, 0.2475, 1.2375, 0.33, 1.32, 0.4125, 1.4025, 0.5775, 1.5675, 0.66, 1.65, 0.7425, 1.7325, 0.825, 1.815, 0.9075, 1.8975, 0.495],
  "SoftwareVersions": "syngo_MR_E11",
  "SpacingBetweenSlices": 2,
  "StationName": "AWP166078",
  "TaskName": "naturalvision2",
  "TotalReadoutTime": 0.0534586,
  "TxRefAmp": 240.496,
  "dcmmeta_affine": [
    [-2.0, 7.057590067915953e-09, 1.878471448435448e-05, 100.73217010498047],
    [-6.812939545852714e-07, 1.9986567497253418, -0.0732879713177681, -87.915771484375],
    [1.877235627034679e-05, 0.0732879713177681, 1.9986567497253418, -74.75650787353516],
    [0.0, 0.0, 0.0, 1.0]
],
  "dcmmeta_reorient_transform": [
    [0.0, -1.0, 0.0, 99.0],
    [1.0, 0.0, 0.0, 0.0],
    [0.0, 0.0, 1.0, 0.0],
    [0.0, 0.0, 0.0, 1.0]
],
  "dcmmeta_shape": [100, 100, 72, 241],
  "dcmmeta_slice_dim": 2,
  "dcmmeta_version": 0.6,
  "global": {
    "const": {
      "AcquisitionMatrix": [100, 0, 0, 100],
      "AngioFlag": "N",
      "BitsAllocated": 16,
      "BitsStored": 12,
      "BodyPartExamined": "BRAIN",
      "Columns": 900,
      "EchoNumbers": 1,
      "EchoTime": 34.0,
      "EchoTrainLength": 100,
      "FlipAngle": 90.0,
      "HighBit": 11,
      "ImageOrientationPatient": [0.99999999995589, 3.40646969e-07, 9.386178527e-06, 3.528795e-09, 0.99932838366932, -0.0366439844021],
      "ImagePositionPatient": [-900.73217282396, -909.41422823506, -38.193320827337],
      "ImageType": [
        "ORIGINAL",
        "PRIMARY",
        "M",
        "ND",
        "MOSAIC"
],
      "ImagedNucleus": "1H",
      "ImagingFrequency": 123.257765,
      "InPlanePhaseEncodingDirection": "COL",
      "MRAcquisitionType": "2D",
      "MagneticFieldStrength": 3.0,
      "Manufacturer": "SIEMENS",
      "ManufacturerModelName": "Prisma",
      "Modality": "MR",
      "NumberOfAverages": 1.0,
      "NumberOfPhaseEncodingSteps": 100,
      "PercentPhaseFieldOfView": 100.0,
      "PercentSampling": 100.0,
      "PerformedProcedureStepStartTime": "085924.354000",
      "PhotometricInterpretation": "MONOCHROME2",
      "PixelBandwidth": 2380.0,
      "PixelRepresentation": 0,
      "PixelSpacing": [2.0, 2.0],
      "ProtocolName": "bold_100x100_s3_2x2x2_static_test_241",
      "RepetitionTime": 2000.0,
      "Rows": 900,
      "SAR": 0.07299762692833,
      "SamplesPerPixel": 1,
      "ScanOptions": "FS",
      "ScanningSequence": "EP",
      "SequenceName": "*epfid2d1_100",
      "SequenceVariant": "SK",
      "SeriesDescription": "bold_100x100_s3_2x2x2_static_test_241",
      "SeriesNumber": 10,
      "SeriesTime": "095643.892000",
      "SliceLocation": -71.4837703623,
      "SliceThickness": 2.0,
      "SmallestImagePixelValue": 0,
      "SoftwareVersions": "syngo MR E11",
      "SpacingBetweenSlices": 2.0000000297786,
      "SpecificCharacterSet": "ISO_IR 100",
      "StudyID": "1",
      "StudyTime": "085924.262000",
      "TransmitCoilName": "Body",
      "VariableFlipAngleFlag": "N",
      "WindowCenterWidthExplanation": "Algo1",
      "dBdt": 0.0},
    "slices": {}
  },
  "time": {
    "samples": {
      "AcquisitionNumber": [1, 2, 3, 4, 5, 6, 7, 8, 9, 10, 11, 12, 13, 14, 15, 16, 17, 18, 19, 20, 21, 22, 23, 24, 25, 26, 27, 28, 29, 30, 31, 32, 33, 34, 35, 36, 37, 38, 39, 40, 41, 42, 43, 44, 45, 46, 47, 48, 49, 50, 51, 52, 53, 54, 55, 56, 57, 58, 59, 60, 61, 62, 63, 64, 65, 66, 67, 68, 69, 70, 71, 72, 73, 74, 75, 76, 77, 78, 79, 80, 81, 82, 83, 84, 85, 86, 87, 88, 89, 90, 91, 92, 93, 94, 95, 96, 97, 98, 99, 100, 101, 102, 103, 104, 105, 106, 107, 108, 109, 110, 111, 112, 113, 114, 115, 116, 117, 118, 119, 120, 121, 122, 123, 124, 125, 126, 127, 128, 129, 130, 131, 132, 133, 134, 135, 136, 137, 138, 139, 140, 141, 142, 143, 144, 145, 146, 147, 148, 149, 150, 151, 152, 153, 154, 155, 156, 157, 158, 159, 160, 161, 162, 163, 164, 165, 166, 167, 168, 169, 170, 171, 172, 173, 174, 175, 176, 177, 178, 179, 180, 181, 182, 183, 184, 185, 186, 187, 188, 189, 190, 191, 192, 193, 194, 195, 196, 197, 198, 199, 200, 201, 202, 203, 204, 205, 206, 207, 208, 209, 210, 211, 212, 213, 214, 215, 216, 217, 218, 219, 220, 221, 222, 223, 224, 225, 226, 227, 228, 229, 230, 231, 232, 233, 234, 235, 236, 237, 238, 239, 240, 241],
      "AcquisitionTime": ["095641.270000", "095643.270000", "095645.270000", "095647.270000", "095649.270000", "095651.270000", "095653.270000", "095655.270000", "095657.270000", "095659.270000", "095701.270000", "095703.270000", "095705.270000", "095707.270000", "095709.270000", "095711.270000", "095713.270000", "095715.270000", "095717.270000", "095719.270000", "095721.270000", "095723.270000", "095725.270000", "095727.270000", "095729.270000", "095731.270000", "095733.270000", "095735.270000", "095737.270000", "095739.270000", "095741.270000", "095743.270000", "095745.270000", "095747.270000", "095749.270000", "095751.270000", "095753.270000", "095755.270000", "095757.270000", "095759.270000", "095801.270000", "095803.270000", "095805.270000", "095807.270000", "095809.270000", "095811.270000", "095813.270000", "095815.270000", "095817.270000", "095819.270000", "095821.270000", "095823.270000", "095825.270000", "095827.270000", "095829.270000", "095831.270000", "095833.270000", "095835.270000", "095837.270000", "095839.270000", "095841.270000", "095843.270000", "095845.270000", "095847.270000", "095849.270000", "095851.270000", "095853.270000", "095855.270000", "095857.270000", "095859.270000", "095901.270000", "095903.270000", "095905.270000", "095907.270000", "095909.270000", "095911.270000", "095913.270000", "095915.270000", "095917.270000", "095919.270000", "095921.270000", "095923.270000", "095925.270000", "095927.270000", "095929.270000", "095931.270000", "095933.270000", "095935.270000", "095937.270000", "095939.270000", "095941.270000", "095943.270000", "095945.270000", "095947.270000", "095949.270000", "095951.270000", "095953.270000", "095955.270000", "095957.270000", "095959.270000", "100001.270000", "100003.270000", "100005.270000", "100007.270000", "100009.270000", "100011.270000", "100013.270000", "100015.270000", "100017.270000", "100019.270000", "100021.270000", "100023.270000", "100025.270000", "100027.270000", "100029.270000", "100031.270000", "100033.270000", "100035.270000", "100037.270000", "100039.270000", "100041.270000", "100043.270000", "100045.270000", "100047.270000", "100049.270000", "100051.270000", "100053.270000", "100055.270000", "100057.270000", "100059.270000", "100101.270000", "100103.270000", "100105.270000", "100107.270000", "100109.270000", "100111.270000", "100113.270000", "100115.270000", "100117.270000", "100119.270000", "100121.270000", "100123.270000", "100125.270000", "100127.270000", "100129.270000", "100131.270000", "100133.270000", "100135.270000", "100137.270000", "100139.270000", "100141.270000", "100143.270000", "100145.270000", "100147.270000", "100149.270000", "100151.270000", "100153.270000", "100155.270000", "100157.270000", "100159.270000", "100201.270000", "100203.270000", "100205.270000", "100207.270000", "100209.270000", "100211.270000", "100213.270000", "100215.270000", "100217.270000", "100219.270000", "100221.270000", "100223.270000", "100225.270000", "100227.270000", "100229.270000", "100231.270000", "100233.270000", "100235.270000", "100237.270000", "100239.270000", "100241.270000", "100243.270000", "100245.270000", "100247.270000", "100249.270000", "100251.270000", "100253.270000", "100255.270000", "100257.270000", "100259.270000", "100301.270000", "100303.270000", "100305.270000", "100307.270000", "100309.270000", "100311.270000", "100313.270000", "100315.270000", "100317.270000", "100319.270000", "100321.270000", "100323.270000", "100325.270000", "100327.270000", "100329.270000", "100331.270000", "100333.270000", "100335.270000", "100337.270000", "100339.270000", "100341.270000", "100343.270000", "100345.270000", "100347.270000", "100349.270000", "100351.270000", "100353.270000", "100355.270000", "100357.270000", "100359.270000", "100401.270000", "100403.270000", "100405.270000", "100407.270000", "100409.270000", "100411.270000", "100413.270000", "100415.270000", "100417.270000", "100419.270000", "100421.270000", "100423.270000", "100425.270000", "100427.270000", "100429.270000", "100431.270000", "100433.270000", "100435.270000", "100437.270000", "100439.270000", "100441.270000"],
      "ContentTime": ["095643.896000", "095645.391000", "095647.392000", "095649.391000", "095651.392000", "095653.393000", "095655.391000", "095657.391000", "095659.391000", "095701.391000", "095703.391000", "095705.392000", "095707.392000", "095709.392000", "095711.392000", "095713.391000", "095715.392000", "095717.391000", "095719.391000", "095721.392000", "095723.391000", "095725.392000", "095727.392000", "095729.391000", "095731.391000", "095733.391000", "095735.392000", "095737.391000", "095739.392000", "095741.392000", "095743.391000", "095745.392000", "095747.392000", "095749.392000", "095751.393000", "095753.392000", "095755.391000", "095757.391000", "095759.392000", "095801.392000", "095803.393000", "095805.391000", "095807.392000", "095809.392000", "095811.392000", "095813.391000", "095815.391000", "095817.391000", "095819.393000", "095821.393000", "095823.391000", "095825.391000", "095827.391000", "095829.391000", "095831.391000", "095833.391000", "095835.392000", "095837.392000", "095839.392000", "095841.391000", "095843.391000", "095845.391000", "095847.391000", "095849.391000", "095851.392000", "095853.392000", "095855.392000", "095857.392000", "095859.391000", "095901.392000", "095903.392000", "095905.391000", "095907.392000", "095909.391000", "095911.391000", "095913.393000", "095915.392000", "095917.391000", "095919.391000", "095921.392000", "095923.391000", "095925.391000", "095927.392000", "095929.392000", "095931.392000", "095933.391000", "095935.391000", "095937.391000", "095939.391000", "095941.392000", "095943.391000", "095945.391000", "095947.392000", "095949.392000", "095951.391000", "095953.392000", "095955.391000", "095957.392000", "095959.392000", "100001.392000", "100003.391000", "100005.393000", "100007.392000", "100009.392000", "100011.391000", "100013.391000", "100015.392000", "100017.391000", "100019.392000", "100021.393000", "100023.393000", "100025.391000", "100027.391000", "100029.391000", "100031.391000", "100033.392000", "100035.391000", "100037.391000", "100039.393000", "100041.392000", "100043.391000", "100045.391000", "100047.391000", "100049.392000", "100051.391000", "100053.392000", "100055.391000", "100057.393000", "100059.391000", "100101.392000", "100103.391000", "100105.392000", "100107.391000", "100109.391000", "100111.391000", "100113.391000", "100115.393000", "100117.392000", "100119.392000", "100121.391000", "100123.391000", "100125.391000", "100127.391000", "100129.391000", "100131.392000", "100133.392000", "100135.392000", "100137.392000", "100139.392000", "100141.391000", "100143.391000", "100145.391000", "100147.391000", "100149.393000", "100151.392000", "100153.391000", "100155.391000", "100157.392000", "100159.391000", "100201.392000", "100203.391000", "100205.392000", "100207.393000", "100209.391000", "100211.391000", "100213.391000", "100215.391000", "100217.391000", "100219.391000", "100221.391000", "100223.392000", "100225.393000", "100227.391000", "100229.391000", "100231.392000", "100233.391000", "100235.392000", "100237.392000", "100239.392000", "100241.392000", "100243.392000", "100245.391000", "100247.391000", "100249.392000", "100251.391000", "100253.392000", "100255.392000", "100257.392000", "100259.393000", "100301.393000", "100303.391000", "100305.391000", "100307.391000", "100309.392000", "100311.391000", "100313.392000", "100315.392000", "100317.393000", "100319.392000", "100321.391000", "100323.392000", "100325.391000", "100327.392000", "100329.392000", "100331.391000", "100333.392000", "100335.392000", "100337.391000", "100339.391000", "100341.392000", "100343.392000", "100345.392000", "100347.392000", "100349.391000", "100351.393000", "100353.393000", "100355.391000", "100357.392000", "100359.392000", "100401.392000", "100403.392000", "100405.392000", "100407.391000", "100409.393000", "100411.393000", "100413.392000", "100415.392000", "100417.392000", "100419.392000", "100421.392000", "100423.392000", "100425.392000", "100427.393000", "100429.392000", "100431.392000", "100433.391000", "100435.392000", "100437.392000", "100439.392000", "100441.392000", "100443.145000"],
      "InstanceCreationTime": ["095643.896000", "095645.391000", "095647.392000", "095649.391000", "095651.392000", "095653.393000", "095655.391000", "095657.391000", "095659.391000", "095701.391000", "095703.391000", "095705.392000", "095707.392000", "095709.392000", "095711.392000", "095713.391000", "095715.392000", "095717.391000", "095719.391000", "095721.392000", "095723.391000", "095725.392000", "095727.392000", "095729.391000", "095731.391000", "095733.391000", "095735.392000", "095737.391000", "095739.392000", "095741.392000", "095743.391000", "095745.392000", "095747.392000", "095749.392000", "095751.393000", "095753.392000", "095755.391000", "095757.391000", "095759.392000", "095801.392000", "095803.393000", "095805.391000", "095807.392000", "095809.392000", "095811.392000", "095813.391000", "095815.391000", "095817.391000", "095819.393000", "095821.393000", "095823.391000", "095825.391000", "095827.391000", "095829.391000", "095831.391000", "095833.391000", "095835.392000", "095837.392000", "095839.392000", "095841.391000", "095843.391000", "095845.391000", "095847.391000", "095849.391000", "095851.392000", "095853.392000", "095855.392000", "095857.392000", "095859.391000", "095901.392000", "095903.392000", "095905.391000", "095907.392000", "095909.391000", "095911.391000", "095913.393000", "095915.392000", "095917.391000", "095919.391000", "095921.392000", "095923.391000", "095925.391000", "095927.392000", "095929.392000", "095931.392000", "095933.391000", "095935.391000", "095937.391000", "095939.391000", "095941.392000", "095943.391000", "095945.391000", "095947.392000", "095949.392000", "095951.391000", "095953.392000", "095955.391000", "095957.392000", "095959.392000", "100001.392000", "100003.391000", "100005.393000", "100007.392000", "100009.392000", "100011.391000", "100013.391000", "100015.392000", "100017.391000", "100019.392000", "100021.393000", "100023.393000", "100025.391000", "100027.391000", "100029.391000", "100031.391000", "100033.392000", "100035.391000", "100037.391000", "100039.393000", "100041.392000", "100043.391000", "100045.391000", "100047.391000", "100049.392000", "100051.391000", "100053.392000", "100055.391000", "100057.393000", "100059.391000", "100101.392000", "100103.391000", "100105.392000", "100107.391000", "100109.391000", "100111.391000", "100113.391000", "100115.393000", "100117.392000", "100119.392000", "100121.391000", "100123.391000", "100125.391000", "100127.391000", "100129.391000", "100131.392000", "100133.392000", "100135.392000", "100137.392000", "100139.392000", "100141.391000", "100143.391000", "100145.391000", "100147.391000", "100149.393000", "100151.392000", "100153.391000", "100155.391000", "100157.392000", "100159.391000", "100201.392000", "100203.391000", "100205.392000", "100207.393000", "100209.391000", "100211.391000", "100213.391000", "100215.391000", "100217.391000", "100219.391000", "100221.391000", "100223.392000", "100225.393000", "100227.391000", "100229.391000", "100231.392000", "100233.391000", "100235.392000", "100237.392000", "100239.392000", "100241.392000", "100243.392000", "100245.391000", "100247.391000", "100249.392000", "100251.391000", "100253.392000", "100255.392000", "100257.392000", "100259.393000", "100301.393000", "100303.391000", "100305.391000", "100307.391000", "100309.392000", "100311.391000", "100313.392000", "100315.392000", "100317.393000", "100319.392000", "100321.391000", "100323.392000", "100325.391000", "100327.392000", "100329.392000", "100331.391000", "100333.392000", "100335.392000", "100337.391000", "100339.391000", "100341.392000", "100343.392000", "100345.392000", "100347.392000", "100349.391000", "100351.393000", "100353.393000", "100355.391000", "100357.392000", "100359.392000", "100401.392000", "100403.392000", "100405.392000", "100407.391000", "100409.393000", "100411.393000", "100413.392000", "100415.392000", "100417.392000", "100419.392000", "100421.392000", "100423.392000", "100425.392000", "100427.393000", "100429.392000", "100431.392000", "100433.391000", "100435.392000", "100437.392000", "100439.392000", "100441.392000", "100443.145000"],
      "InstanceNumber": [1, 2, 3, 4, 5, 6, 7, 8, 9, 10, 11, 12, 13, 14, 15, 16, 17, 18, 19, 20, 21, 22, 23, 24, 25, 26, 27, 28, 29, 30, 31, 32, 33, 34, 35, 36, 37, 38, 39, 40, 41, 42, 43, 44, 45, 46, 47, 48, 49, 50, 51, 52, 53, 54, 55, 56, 57, 58, 59, 60, 61, 62, 63, 64, 65, 66, 67, 68, 69, 70, 71, 72, 73, 74, 75, 76, 77, 78, 79, 80, 81, 82, 83, 84, 85, 86, 87, 88, 89, 90, 91, 92, 93, 94, 95, 96, 97, 98, 99, 100, 101, 102, 103, 104, 105, 106, 107, 108, 109, 110, 111, 112, 113, 114, 115, 116, 117, 118, 119, 120, 121, 122, 123, 124, 125, 126, 127, 128, 129, 130, 131, 132, 133, 134, 135, 136, 137, 138, 139, 140, 141, 142, 143, 144, 145, 146, 147, 148, 149, 150, 151, 152, 153, 154, 155, 156, 157, 158, 159, 160, 161, 162, 163, 164, 165, 166, 167, 168, 169, 170, 171, 172, 173, 174, 175, 176, 177, 178, 179, 180, 181, 182, 183, 184, 185, 186, 187, 188, 189, 190, 191, 192, 193, 194, 195, 196, 197, 198, 199, 200, 201, 202, 203, 204, 205, 206, 207, 208, 209, 210, 211, 212, 213, 214, 215, 216, 217, 218, 219, 220, 221, 222, 223, 224, 225, 226, 227, 228, 229, 230, 231, 232, 233, 234, 235, 236, 237, 238, 239, 240, 241],
      "LargestImagePixelValue": [3479, 3430, 3395, 3341, 3389, 3346, 3368, 3347, 3332, 3341, 3377, 3317, 3307, 3319, 3315, 3337, 3319, 3299, 3298, 3362, 3336, 3354, 3305, 3322, 3345, 3276, 3345, 3340, 3320, 3365, 3308, 3307, 3324, 3328, 3301, 3277, 3339, 3325, 3361, 3314, 3324, 3323, 3278, 3322, 3340, 3363, 3337, 3313, 3150, 3392, 3270, 3233, 3283, 3237, 3305, 3268, 3288, 3290, 3279, 3292, 3282, 3180, 3225, 3263, 3229, 3294, 3279, 3212, 3197, 3246, 3190, 3234, 3194, 3218, 3203, 3200, 3210, 3225, 3271, 3210, 3202, 3223, 3186, 3261, 3198, 3267, 3239, 3218, 3277, 3179, 3242, 3211, 3251, 3204, 3193, 3218, 3197, 3233, 3196, 3259, 3223, 3243, 3226, 3218, 3234, 3230, 3191, 3250, 3257, 3204, 3238, 3223, 3259, 3211, 3249, 3263, 3265, 3294, 3231, 3272, 3195, 3282, 3259, 3253, 3268, 3287, 3218, 3252, 3247, 3198, 3237, 3241, 3229, 3236, 3243, 3255, 3185, 3253, 3189, 3224, 3196, 3242, 3215, 3220, 3242, 3192, 3203, 3242, 3206, 3234, 3236, 3177, 3174, 3198, 3187, 3188, 3199, 3244, 3208, 3194, 3198, 3196, 3207, 3234, 3195, 3199, 3209, 3205, 3210, 3212, 3236, 3237, 3218, 3221, 3252, 3257, 3247, 3183, 3238, 3221, 3231, 3248, 3258, 3221, 3261, 3254, 3217, 3250, 3241, 3238, 3244, 3207, 3235, 3229, 3271, 3243, 3208, 3239, 3272, 3266, 3257, 3233, 3265, 3253, 3282, 3271, 3260, 3274, 3221, 3298, 3318, 3341, 3345, 3294, 3337, 3333, 3340, 3321, 3355, 3326, 3330, 3300, 3310, 3274, 3293, 3301, 3285, 3303, 3297, 3284, 3316, 3296, 3290, 3262, 3300, 3301, 3290, 3342, 3303, 3301, 3283],
      "WindowCenter": [844.0, 842.0, 842.0, 841.0, 840.0, 840.0, 841.0, 841.0, 841.0, 840.0, 841.0, 841.0, 841.0, 841.0, 842.0, 842.0, 841.0, 842.0, 842.0, 840.0, 838.0, 837.0, 837.0, 836.0, 836.0, 837.0, 836.0, 836.0, 837.0, 839.0, 839.0, 838.0, 837.0, 837.0, 838.0, 838.0, 839.0, 839.0, 840.0, 840.0, 841.0, 840.0, 837.0, 836.0, 835.0, 835.0, 838.0, 839.0, 835.0, 839.0, 841.0, 842.0, 842.0, 839.0, 837.0, 835.0, 834.0, 835.0, 834.0, 835.0, 836.0, 836.0, 836.0, 837.0, 836.0, 837.0, 838.0, 837.0, 837.0, 837.0, 837.0, 837.0, 836.0, 836.0, 837.0, 837.0, 838.0, 837.0, 838.0, 838.0, 838.0, 838.0, 837.0, 836.0, 836.0, 838.0, 839.0, 838.0, 838.0, 837.0, 838.0, 837.0, 838.0, 838.0, 836.0, 836.0, 836.0, 836.0, 835.0, 836.0, 836.0, 838.0, 838.0, 838.0, 837.0, 838.0, 839.0, 838.0, 838.0, 839.0, 839.0, 838.0, 837.0, 835.0, 834.0, 835.0, 837.0, 839.0, 838.0, 839.0, 838.0, 837.0, 835.0, 832.0, 832.0, 833.0, 834.0, 834.0, 834.0, 834.0, 837.0, 838.0, 838.0, 839.0, 839.0, 839.0, 838.0, 838.0, 837.0, 837.0, 838.0, 838.0, 838.0, 839.0, 839.0, 838.0, 837.0, 837.0, 837.0, 837.0, 837.0, 837.0, 838.0, 838.0, 839.0, 839.0, 839.0, 839.0, 839.0, 841.0, 840.0, 839.0, 836.0, 837.0, 837.0, 838.0, 837.0, 836.0, 835.0, 834.0, 835.0, 836.0, 836.0, 837.0, 837.0, 838.0, 838.0, 837.0, 836.0, 835.0, 836.0, 837.0, 837.0, 838.0, 838.0, 837.0, 837.0, 838.0, 838.0, 839.0, 838.0, 838.0, 838.0, 839.0, 838.0, 837.0, 836.0, 835.0, 836.0, 836.0, 838.0, 839.0, 840.0, 841.0, 840.0, 839.0, 839.0, 839.0, 841.0, 840.0, 839.0, 837.0, 837.0, 836.0, 836.0, 835.0, 836.0, 837.0, 838.0, 839.0, 841.0, 841.0, 840.0, 839.0, 840.0, 840.0, 839.0, 839.0, 840.0, 840.0, 842.0, 843.0, 844.0, 843.0, 840.0, 840.0, 839.0, 838.0, 837.0, 837.0, 837.0],
      "WindowWidth": [1789.0, 1785.0, 1784.0, 1780.0, 1779.0, 1778.0, 1780.0, 1782.0, 1781.0, 1779.0, 1782.0, 1781.0, 1781.0, 1781.0, 1783.0, 1783.0, 1782.0, 1783.0, 1783.0, 1778.0, 1773.0, 1771.0, 1770.0, 1768.0, 1769.0, 1771.0, 1770.0, 1770.0, 1772.0, 1777.0, 1776.0, 1772.0, 1770.0, 1770.0, 1773.0, 1775.0, 1776.0, 1777.0, 1779.0, 1780.0, 1781.0, 1778.0, 1773.0, 1770.0, 1768.0, 1768.0, 1774.0, 1777.0, 1767.0, 1778.0, 1783.0, 1785.0, 1785.0, 1777.0, 1771.0, 1767.0, 1765.0, 1765.0, 1763.0, 1767.0, 1769.0, 1768.0, 1770.0, 1771.0, 1769.0, 1772.0, 1773.0, 1770.0, 1771.0, 1773.0, 1773.0, 1773.0, 1770.0, 1770.0, 1771.0, 1771.0, 1773.0, 1771.0, 1773.0, 1774.0, 1775.0, 1773.0, 1771.0, 1770.0, 1769.0, 1773.0, 1775.0, 1774.0, 1774.0, 1772.0, 1773.0, 1772.0, 1774.0, 1773.0, 1770.0, 1768.0, 1768.0, 1768.0, 1766.0, 1768.0, 1769.0, 1774.0, 1775.0, 1773.0, 1772.0, 1775.0, 1776.0, 1775.0, 1775.0, 1776.0, 1777.0, 1774.0, 1771.0, 1767.0, 1765.0, 1767.0, 1772.0, 1777.0, 1775.0, 1775.0, 1774.0, 1771.0, 1765.0, 1760.0, 1758.0, 1762.0, 1763.0, 1764.0, 1764.0, 1764.0, 1770.0, 1774.0, 1774.0, 1775.0, 1777.0, 1776.0, 1773.0, 1773.0, 1770.0, 1771.0, 1773.0, 1772.0, 1773.0, 1776.0, 1777.0, 1773.0, 1771.0, 1772.0, 1772.0, 1770.0, 1771.0, 1772.0, 1775.0, 1774.0, 1775.0, 1775.0, 1775.0, 1776.0, 1777.0, 1780.0, 1779.0, 1775.0, 1769.0, 1771.0, 1772.0, 1774.0, 1771.0, 1768.0, 1765.0, 1763.0, 1765.0, 1769.0, 1768.0, 1770.0, 1770.0, 1773.0, 1773.0, 1770.0, 1768.0, 1766.0, 1769.0, 1770.0, 1772.0, 1772.0, 1773.0, 1771.0, 1770.0, 1772.0, 1774.0, 1775.0, 1774.0, 1773.0, 1774.0, 1776.0, 1774.0, 1770.0, 1768.0, 1767.0, 1768.0, 1770.0, 1773.0, 1774.0, 1778.0, 1781.0, 1780.0, 1777.0, 1776.0, 1777.0, 1780.0, 1778.0, 1775.0, 1771.0, 1770.0, 1767.0, 1767.0, 1766.0, 1768.0, 1770.0, 1774.0, 1774.0, 1780.0, 1779.0, 1778.0, 1775.0, 1776.0, 1777.0, 1775.0, 1775.0, 1777.0, 1778.0, 1781.0, 1785.0, 1787.0, 1784.0, 1778.0, 1777.0, 1774.0, 1773.0, 1769.0, 1769.0, 1769.0]
    },
    "slices": {}
  }
}