{
 "AcquisitionMatrixPE": 100,
 "AcquisitionNumber": 1,
 "AcquisitionTime": "13:14:12.542500",
 "BandwidthPerPixelPhaseEncode": 18.519,
 "BaseResolution": 100,
 "BodyPartExamined": "BRAIN",
 "ConsistencyInfo": "N4_VE11C_LATEST_20160120",
 "ConversionSoftware": "dcm2niix",
 "ConversionSoftwareVersion": "v1.0.20180622 GCC4.9.2",
 "DerivedVendorReportedEchoSpacing": 0.000539986,
 "DeviceSerialNumber": "166078",
 "DwellTime": 2.1e-06,
 "EchoTime": 0.034,
 "EchoTrainLength": 100,
 "EffectiveEchoSpacing": 0.000539986,
 "FlipAngle": 90,
 "ImageOrientationPatientDICOM": [
  0.997314,
  0.0730936,
  -0.00459866,
  -0.0732382,
  0.995346,
  -0.0626219
 ],
 "ImageType": [
  "ORIGINAL",
  "PRIMARY",
  "M",
  "ND",
  "MOSAIC"
 ],
 "InPlanePhaseEncodingDirectionDICOM": "COL",
 "InstitutionAddress": "Street_StreetNo_Bei_Jing_District_CN_ZIP",
 "InstitutionName": "BeiJing_Normal_University",
 "InstitutionalDepartmentName": "Department",
 "MRAcquisitionType": "2D",
 "MagneticFieldStrength": 3,
 "Manufacturer": "Siemens",
 "ManufacturersModelName": "Prisma",
 "Modality": "MR",
 "MultibandAccelerationFactor": 3,
 "PartialFourier": 1,
 "PatientPosition": "HFS",
 "PercentPhaseFOV": 100,
 "PhaseEncodingDirection": "j-",
 "PhaseEncodingSteps": 100,
 "PhaseResolution": 1,
 "PixelBandwidth": 2380,
 "ProcedureStepDescription": "BNU_P2018_64CH_Zhen.ZongLei",
 "ProtocolName": "bold_100x100_s3_2x2x2_static_256",
 "PulseSequenceDetails": "%SiemensSeq%_ep2d_bold",
 "ReceiveCoilActiveElements": "HC1-7;NC1",
 "ReceiveCoilName": "HeadNeck_64",
 "ReconMatrixPE": 100,
 "RepetitionTime": 2,
 "SAR": 0.0699765,
 "ScanOptions": "FS",
 "ScanningSequence": "EP",
 "SequenceName": "_epfid2d1_100",
 "SequenceVariant": "SK",
 "SeriesDescription": "bold_100x100_s3_2x2x2_static_256",
 "SeriesNumber": 4,
 "ShimSetting": [
  -5482,
  -11536,
  -1236,
  366,
  -90,
  -476,
  -69,
  85
 ],
 "SliceThickness": 2,
 "SliceTiming": [
  1.485,
  0,
  0.99,
  0.0825,
  1.0725,
  0.165,
  1.155,
  0.2475,
  1.2375,
  0.33,
  1.32,
  0.4125,
  1.4025,
  0.5775,
  1.5675,
  0.66,
  1.65,
  0.7425,
  1.7325,
  0.825,
  1.815,
  0.9075,
  1.8975,
  0.495,
  1.485,
  0,
  0.99,
  0.0825,
  1.0725,
  0.165,
  1.155,
  0.2475,
  1.2375,
  0.33,
  1.32,
  0.4125,
  1.4025,
  0.5775,
  1.5675,
  0.66,
  1.65,
  0.7425,
  1.7325,
  0.825,
  1.815,
  0.9075,
  1.8975,
  0.495,
  1.485,
  0,
  0.99,
  0.0825,
  1.0725,
  0.165,
  1.155,
  0.2475,
  1.2375,
  0.33,
  1.32,
  0.4125,
  1.4025,
  0.5775,
  1.5675,
  0.66,
  1.65,
  0.7425,
  1.7325,
  0.825,
  1.815,
  0.9075,
  1.8975,
  0.495
 ],
 "SoftwareVersions": "syngo_MR_E11",
 "SpacingBetweenSlices": 2,
 "StationName": "AWP166078",
 "TaskName": "imagenet",
 "TotalReadoutTime": 0.0534586,
 "TxRefAmp": 215.227,
 "dcmmeta_affine": [
  [
   -1.99462890625,
   -0.14647632837295532,
   -2.100293938767095e-09,
   105.5528564453125
  ],
  [
   -0.14618729054927826,
   1.9906929731369019,
   -0.1255810409784317,
   -79.49573516845703
  ],
  [
   -0.009197327308356762,
   0.12524378299713135,
   1.9960534572601318,
   -79.80620574951172
  ],
  [
   0.0,
   0.0,
   0.0,
   1.0
  ]
 ],
 "dcmmeta_reorient_transform": [
  [
   0.0,
   -1.0,
   0.0,
   99.0
  ],
  [
   1.0,
   0.0,
   0.0,
   0.0
  ],
  [
   0.0,
   0.0,
   1.0,
   0.0
  ],
  [
   0.0,
   0.0,
   0.0,
   1.0
  ]
 ],
 "dcmmeta_shape": [
  100,
  100,
  72,
  256
 ],
 "dcmmeta_slice_dim": 2,
 "dcmmeta_version": 0.6,
 "global": {
  "const": {
   "AcquisitionMatrix": [
    100,
    0,
    0,
    100
   ],
   "AngioFlag": "N",
   "BitsAllocated": 16,
   "BitsStored": 12,
   "BodyPartExamined": "BRAIN",
   "Columns": 900,
   "EchoNumbers": 1,
   "EchoTime": 34.0,
   "EchoTrainLength": 100,
   "FlipAngle": 90.0,
   "HighBit": 11,
   "ImageOrientationPatient": [
    0.99731447961034,
    0.07309364578567,
    -0.0045986634275,
    -0.0732381646381,
    0.9953465073257,
    -0.0626218938949
   ],
   "ImagePositionPatient": [
    -830.31275123929,
    -972.33499888421,
    -13.630625912343
   ],
   "ImageType": [
    "ORIGINAL",
    "PRIMARY",
    "M",
    "ND",
    "MOSAIC"
   ],
   "ImagedNucleus": "1H",
   "ImagingFrequency": 123.257704,
   "InPlanePhaseEncodingDirection": "COL",
   "MRAcquisitionType": "2D",
   "MagneticFieldStrength": 3.0,
   "Manufacturer": "SIEMENS",
   "ManufacturerModelName": "Prisma",
   "Modality": "MR",
   "NumberOfAverages": 1.0,
   "NumberOfPhaseEncodingSteps": 100,
   "PercentPhaseFieldOfView": 100.0,
   "PercentSampling": 100.0,
   "PerformedProcedureStepStartTime": "130145.255000",
   "PhotometricInterpretation": "MONOCHROME2",
   "PixelBandwidth": 2380.0,
   "PixelRepresentation": 0,
   "PixelSpacing": [
    2.0,
    2.0
   ],
   "ProtocolName": "bold_100x100_s3_2x2x2_static_256",
   "RepetitionTime": 2000.0,
   "Rows": 900,
   "SAR": 0.06997647658602,
   "SamplesPerPixel": 1,
   "ScanOptions": "FS",
   "ScanningSequence": "EP",
   "SequenceName": "*epfid2d1_100",
   "SequenceVariant": "SK",
   "SeriesDescription": "bold_100x100_s3_2x2x2_static_256",
   "SeriesNumber": 4,
   "SeriesTime": "131415.351000",
   "SliceLocation": -74.657149265642,
   "SliceThickness": 2.0,
   "SmallestImagePixelValue": 0,
   "SoftwareVersions": "syngo MR E11",
   "SpacingBetweenSlices": 1.9999999970797,
   "SpecificCharacterSet": "ISO_IR 100",
   "StudyID": "1",
   "StudyTime": "130145.187000",
   "TransmitCoilName": "Body",
   "VariableFlipAngleFlag": "N",
   "WindowCenterWidthExplanation": "Algo1",
   "dBdt": 0.0
  },
  "slices": {}
 },
 "time": {
  "samples": {
   "AcquisitionNumber": [
    1,
    2,
    3,
    4,
    5,
    6,
    7,
    8,
    9,
    10,
    11,
    12,
    13,
    14,
    15,
    16,
    17,
    18,
    19,
    20,
    21,
    22,
    23,
    24,
    25,
    26,
    27,
    28,
    29,
    30,
    31,
    32,
    33,
    34,
    35,
    36,
    37,
    38,
    39,
    40,
    41,
    42,
    43,
    44,
    45,
    46,
    47,
    48,
    49,
    50,
    51,
    52,
    53,
    54,
    55,
    56,
    57,
    58,
    59,
    60,
    61,
    62,
    63,
    64,
    65,
    66,
    67,
    68,
    69,
    70,
    71,
    72,
    73,
    74,
    75,
    76,
    77,
    78,
    79,
    80,
    81,
    82,
    83,
    84,
    85,
    86,
    87,
    88,
    89,
    90,
    91,
    92,
    93,
    94,
    95,
    96,
    97,
    98,
    99,
    100,
    101,
    102,
    103,
    104,
    105,
    106,
    107,
    108,
    109,
    110,
    111,
    112,
    113,
    114,
    115,
    116,
    117,
    118,
    119,
    120,
    121,
    122,
    123,
    124,
    125,
    126,
    127,
    128,
    129,
    130,
    131,
    132,
    133,
    134,
    135,
    136,
    137,
    138,
    139,
    140,
    141,
    142,
    143,
    144,
    145,
    146,
    147,
    148,
    149,
    150,
    151,
    152,
    153,
    154,
    155,
    156,
    157,
    158,
    159,
    160,
    161,
    162,
    163,
    164,
    165,
    166,
    167,
    168,
    169,
    170,
    171,
    172,
    173,
    174,
    175,
    176,
    177,
    178,
    179,
    180,
    181,
    182,
    183,
    184,
    185,
    186,
    187,
    188,
    189,
    190,
    191,
    192,
    193,
    194,
    195,
    196,
    197,
    198,
    199,
    200,
    201,
    202,
    203,
    204,
    205,
    206,
    207,
    208,
    209,
    210,
    211,
    212,
    213,
    214,
    215,
    216,
    217,
    218,
    219,
    220,
    221,
    222,
    223,
    224,
    225,
    226,
    227,
    228,
    229,
    230,
    231,
    232,
    233,
    234,
    235,
    236,
    237,
    238,
    239,
    240,
    241,
    242,
    243,
    244,
    245,
    246,
    247,
    248,
    249,
    250,
    251,
    252,
    253,
    254,
    255,
    256
   ],
   "AcquisitionTime": [
    "131412.542500",
    "131414.542500",
    "131416.542500",
    "131418.542500",
    "131420.542500",
    "131422.542500",
    "131424.542500",
    "131426.542500",
    "131428.542500",
    "131430.542500",
    "131432.542500",
    "131434.542500",
    "131436.542500",
    "131438.542500",
    "131440.542500",
    "131442.542500",
    "131444.542500",
    "131446.542500",
    "131448.542500",
    "131450.542500",
    "131452.542500",
    "131454.542500",
    "131456.542500",
    "131458.542500",
    "131500.542500",
    "131502.542500",
    "131504.542500",
    "131506.542500",
    "131508.542500",
    "131510.542500",
    "131512.542500",
    "131514.542500",
    "131516.542500",
    "131518.542500",
    "131520.542500",
    "131522.542500",
    "131524.542500",
    "131526.542500",
    "131528.542500",
    "131530.542500",
    "131532.542500",
    "131534.542500",
    "131536.542500",
    "131538.542500",
    "131540.542500",
    "131542.542500",
    "131544.542500",
    "131546.542500",
    "131548.542500",
    "131550.542500",
    "131552.542500",
    "131554.542500",
    "131556.542500",
    "131558.542500",
    "131600.542500",
    "131602.542500",
    "131604.542500",
    "131606.542500",
    "131608.542500",
    "131610.542500",
    "131612.542500",
    "131614.542500",
    "131616.542500",
    "131618.542500",
    "131620.542500",
    "131622.542500",
    "131624.542500",
    "131626.542500",
    "131628.542500",
    "131630.542500",
    "131632.542500",
    "131634.542500",
    "131636.542500",
    "131638.542500",
    "131640.542500",
    "131642.542500",
    "131644.542500",
    "131646.542500",
    "131648.542500",
    "131650.542500",
    "131652.542500",
    "131654.542500",
    "131656.542500",
    "131658.542500",
    "131700.542500",
    "131702.542500",
    "131704.542500",
    "131706.542500",
    "131708.542500",
    "131710.542500",
    "131712.542500",
    "131714.542500",
    "131716.542500",
    "131718.542500",
    "131720.542500",
    "131722.542500",
    "131724.542500",
    "131726.542500",
    "131728.542500",
    "131730.542500",
    "131732.542500",
    "131734.542500",
    "131736.542500",
    "131738.542500",
    "131740.542500",
    "131742.542500",
    "131744.542500",
    "131746.542500",
    "131748.542500",
    "131750.542500",
    "131752.542500",
    "131754.542500",
    "131756.542500",
    "131758.542500",
    "131800.542500",
    "131802.542500",
    "131804.542500",
    "131806.542500",
    "131808.542500",
    "131810.542500",
    "131812.542500",
    "131814.542500",
    "131816.542500",
    "131818.542500",
    "131820.542500",
    "131822.542500",
    "131824.542500",
    "131826.542500",
    "131828.542500",
    "131830.542500",
    "131832.542500",
    "131834.542500",
    "131836.542500",
    "131838.542500",
    "131840.542500",
    "131842.542500",
    "131844.542500",
    "131846.542500",
    "131848.542500",
    "131850.542500",
    "131852.542500",
    "131854.542500",
    "131856.542500",
    "131858.542500",
    "131900.542500",
    "131902.542500",
    "131904.542500",
    "131906.542500",
    "131908.542500",
    "131910.542500",
    "131912.542500",
    "131914.542500",
    "131916.542500",
    "131918.542500",
    "131920.542500",
    "131922.542500",
    "131924.542500",
    "131926.542500",
    "131928.542500",
    "131930.542500",
    "131932.542500",
    "131934.542500",
    "131936.542500",
    "131938.542500",
    "131940.542500",
    "131942.542500",
    "131944.542500",
    "131946.542500",
    "131948.542500",
    "131950.542500",
    "131952.542500",
    "131954.542500",
    "131956.542500",
    "131958.542500",
    "132000.542500",
    "132002.542500",
    "132004.542500",
    "132006.542500",
    "132008.542500",
    "132010.542500",
    "132012.542500",
    "132014.542500",
    "132016.542500",
    "132018.542500",
    "132020.542500",
    "132022.542500",
    "132024.542500",
    "132026.542500",
    "132028.542500",
    "132030.542500",
    "132032.542500",
    "132034.542500",
    "132036.542500",
    "132038.542500",
    "132040.542500",
    "132042.542500",
    "132044.542500",
    "132046.542500",
    "132048.542500",
    "132050.542500",
    "132052.542500",
    "132054.542500",
    "132056.542500",
    "132058.542500",
    "132100.542500",
    "132102.542500",
    "132104.542500",
    "132106.542500",
    "132108.542500",
    "132110.542500",
    "132112.542500",
    "132114.542500",
    "132116.542500",
    "132118.542500",
    "132120.542500",
    "132122.542500",
    "132124.542500",
    "132126.542500",
    "132128.542500",
    "132130.542500",
    "132132.542500",
    "132134.542500",
    "132136.542500",
    "132138.542500",
    "132140.542500",
    "132142.542500",
    "132144.542500",
    "132146.542500",
    "132148.542500",
    "132150.542500",
    "132152.542500",
    "132154.542500",
    "132156.542500",
    "132158.542500",
    "132200.542500",
    "132202.542500",
    "132204.542500",
    "132206.542500",
    "132208.542500",
    "132210.542500",
    "132212.542500",
    "132214.542500",
    "132216.542500",
    "132218.542500",
    "132220.542500",
    "132222.542500",
    "132224.542500",
    "132226.542500",
    "132228.542500",
    "132230.542500",
    "132232.542500",
    "132234.542500",
    "132236.542500",
    "132238.542500",
    "132240.542500",
    "132242.542500"
   ],
   "ContentTime": [
    "131415.354000",
    "131416.850000",
    "131418.850000",
    "131420.850000",
    "131422.850000",
    "131424.350000",
    "131426.850000",
    "131428.850000",
    "131430.849000",
    "131432.850000",
    "131434.350000",
    "131436.350000",
    "131438.349000",
    "131440.850000",
    "131442.849000",
    "131444.349000",
    "131446.349000",
    "131448.349000",
    "131450.849000",
    "131452.349000",
    "131454.849000",
    "131456.849000",
    "131458.850000",
    "131500.849000",
    "131502.850000",
    "131504.850000",
    "131506.850000",
    "131508.349000",
    "131510.849000",
    "131512.349000",
    "131514.850000",
    "131516.851000",
    "131518.849000",
    "131520.849000",
    "131522.350000",
    "131524.850000",
    "131526.849000",
    "131528.349000",
    "131530.849000",
    "131532.850000",
    "131534.849000",
    "131536.850000",
    "131538.850000",
    "131540.849000",
    "131542.850000",
    "131544.350000",
    "131546.850000",
    "131548.850000",
    "131550.850000",
    "131552.849000",
    "131554.850000",
    "131556.850000",
    "131558.349000",
    "131600.850000",
    "131602.849000",
    "131604.350000",
    "131606.850000",
    "131608.350000",
    "131610.350000",
    "131612.349000",
    "131614.850000",
    "131616.849000",
    "131618.350000",
    "131620.850000",
    "131622.849000",
    "131624.849000",
    "131626.850000",
    "131628.350000",
    "131630.850000",
    "131632.850000",
    "131634.850000",
    "131636.850000",
    "131638.850000",
    "131640.349000",
    "131642.850000",
    "131644.850000",
    "131646.850000",
    "131648.350000",
    "131650.849000",
    "131652.849000",
    "131654.850000",
    "131656.850000",
    "131658.850000",
    "131700.849000",
    "131702.849000",
    "131704.850000",
    "131706.850000",
    "131708.850000",
    "131710.850000",
    "131712.850000",
    "131714.350000",
    "131716.849000",
    "131718.850000",
    "131720.850000",
    "131722.350000",
    "131724.849000",
    "131726.849000",
    "131728.850000",
    "131730.850000",
    "131732.850000",
    "131734.850000",
    "131736.850000",
    "131738.849000",
    "131740.850000",
    "131742.350000",
    "131744.849000",
    "131746.849000",
    "131748.849000",
    "131750.850000",
    "131752.850000",
    "131754.850000",
    "131756.850000",
    "131758.849000",
    "131800.350000",
    "131802.849000",
    "131804.850000",
    "131806.849000",
    "131808.349000",
    "131810.850000",
    "131812.850000",
    "131814.349000",
    "131816.849000",
    "131818.850000",
    "131820.849000",
    "131822.850000",
    "131824.350000",
    "131826.850000",
    "131828.850000",
    "131830.849000",
    "131832.349000",
    "131834.849000",
    "131836.849000",
    "131838.850000",
    "131840.850000",
    "131842.350000",
    "131844.849000",
    "131846.851000",
    "131848.849000",
    "131850.850000",
    "131852.849000",
    "131854.850000",
    "131856.849000",
    "131858.350000",
    "131900.850000",
    "131902.849000",
    "131904.850000",
    "131906.349000",
    "131908.350000",
    "131910.849000",
    "131912.850000",
    "131914.349000",
    "131916.349000",
    "131918.849000",
    "131920.850000",
    "131922.350000",
    "131924.850000",
    "131926.850000",
    "131928.849000",
    "131930.850000",
    "131932.850000",
    "131934.850000",
    "131936.350000",
    "131938.349000",
    "131940.850000",
    "131942.850000",
    "131944.350000",
    "131946.849000",
    "131948.850000",
    "131950.850000",
    "131952.849000",
    "131954.850000",
    "131956.349000",
    "131958.850000",
    "132000.850000",
    "132002.850000",
    "132004.349000",
    "132006.365000",
    "132008.850000",
    "132010.850000",
    "132012.850000",
    "132014.850000",
    "132016.849000",
    "132018.850000",
    "132020.849000",
    "132022.349000",
    "132024.849000",
    "132026.849000",
    "132028.850000",
    "132030.850000",
    "132032.850000",
    "132034.850000",
    "132036.850000",
    "132038.850000",
    "132040.850000",
    "132042.849000",
    "132044.850000",
    "132046.350000",
    "132048.850000",
    "132050.349000",
    "132052.850000",
    "132054.850000",
    "132056.850000",
    "132058.850000",
    "132100.349000",
    "132102.850000",
    "132104.850000",
    "132106.851000",
    "132108.850000",
    "132110.850000",
    "132112.850000",
    "132114.350000",
    "132116.850000",
    "132118.850000",
    "132120.850000",
    "132122.850000",
    "132124.850000",
    "132126.850000",
    "132128.850000",
    "132130.349000",
    "132132.850000",
    "132134.850000",
    "132136.850000",
    "132138.850000",
    "132140.850000",
    "132142.850000",
    "132144.350000",
    "132146.850000",
    "132148.350000",
    "132150.850000",
    "132152.849000",
    "132154.850000",
    "132156.850000",
    "132158.850000",
    "132200.850000",
    "132202.350000",
    "132204.850000",
    "132206.849000",
    "132208.850000",
    "132210.849000",
    "132212.850000",
    "132214.850000",
    "132216.850000",
    "132218.850000",
    "132220.849000",
    "132222.850000",
    "132224.849000",
    "132226.350000",
    "132228.849000",
    "132230.850000",
    "132232.350000",
    "132234.850000",
    "132236.850000",
    "132238.350000",
    "132240.850000",
    "132242.350000",
    "132244.403000"
   ],
   "InstanceCreationTime": [
    "131415.354000",
    "131416.850000",
    "131418.850000",
    "131420.850000",
    "131422.850000",
    "131424.350000",
    "131426.850000",
    "131428.850000",
    "131430.849000",
    "131432.850000",
    "131434.350000",
    "131436.350000",
    "131438.349000",
    "131440.850000",
    "131442.849000",
    "131444.349000",
    "131446.349000",
    "131448.349000",
    "131450.849000",
    "131452.349000",
    "131454.849000",
    "131456.849000",
    "131458.850000",
    "131500.849000",
    "131502.850000",
    "131504.850000",
    "131506.850000",
    "131508.349000",
    "131510.849000",
    "131512.349000",
    "131514.850000",
    "131516.851000",
    "131518.849000",
    "131520.849000",
    "131522.350000",
    "131524.850000",
    "131526.849000",
    "131528.349000",
    "131530.849000",
    "131532.850000",
    "131534.849000",
    "131536.850000",
    "131538.850000",
    "131540.849000",
    "131542.850000",
    "131544.350000",
    "131546.850000",
    "131548.850000",
    "131550.850000",
    "131552.849000",
    "131554.850000",
    "131556.850000",
    "131558.349000",
    "131600.850000",
    "131602.849000",
    "131604.350000",
    "131606.850000",
    "131608.350000",
    "131610.350000",
    "131612.349000",
    "131614.850000",
    "131616.849000",
    "131618.350000",
    "131620.850000",
    "131622.849000",
    "131624.849000",
    "131626.850000",
    "131628.350000",
    "131630.850000",
    "131632.850000",
    "131634.850000",
    "131636.850000",
    "131638.850000",
    "131640.349000",
    "131642.850000",
    "131644.850000",
    "131646.850000",
    "131648.350000",
    "131650.849000",
    "131652.849000",
    "131654.850000",
    "131656.850000",
    "131658.850000",
    "131700.849000",
    "131702.849000",
    "131704.850000",
    "131706.850000",
    "131708.850000",
    "131710.850000",
    "131712.850000",
    "131714.350000",
    "131716.849000",
    "131718.850000",
    "131720.850000",
    "131722.350000",
    "131724.849000",
    "131726.849000",
    "131728.850000",
    "131730.850000",
    "131732.850000",
    "131734.850000",
    "131736.850000",
    "131738.849000",
    "131740.850000",
    "131742.350000",
    "131744.849000",
    "131746.849000",
    "131748.849000",
    "131750.850000",
    "131752.850000",
    "131754.850000",
    "131756.850000",
    "131758.849000",
    "131800.350000",
    "131802.849000",
    "131804.850000",
    "131806.849000",
    "131808.349000",
    "131810.850000",
    "131812.850000",
    "131814.349000",
    "131816.849000",
    "131818.850000",
    "131820.849000",
    "131822.850000",
    "131824.350000",
    "131826.850000",
    "131828.850000",
    "131830.849000",
    "131832.349000",
    "131834.849000",
    "131836.849000",
    "131838.850000",
    "131840.850000",
    "131842.350000",
    "131844.849000",
    "131846.851000",
    "131848.849000",
    "131850.850000",
    "131852.849000",
    "131854.850000",
    "131856.849000",
    "131858.350000",
    "131900.850000",
    "131902.849000",
    "131904.850000",
    "131906.349000",
    "131908.350000",
    "131910.849000",
    "131912.850000",
    "131914.349000",
    "131916.349000",
    "131918.849000",
    "131920.850000",
    "131922.350000",
    "131924.850000",
    "131926.850000",
    "131928.849000",
    "131930.850000",
    "131932.850000",
    "131934.850000",
    "131936.350000",
    "131938.349000",
    "131940.850000",
    "131942.850000",
    "131944.350000",
    "131946.849000",
    "131948.850000",
    "131950.850000",
    "131952.849000",
    "131954.850000",
    "131956.349000",
    "131958.850000",
    "132000.850000",
    "132002.850000",
    "132004.349000",
    "132006.365000",
    "132008.850000",
    "132010.850000",
    "132012.850000",
    "132014.850000",
    "132016.849000",
    "132018.850000",
    "132020.849000",
    "132022.349000",
    "132024.849000",
    "132026.849000",
    "132028.850000",
    "132030.850000",
    "132032.850000",
    "132034.850000",
    "132036.850000",
    "132038.850000",
    "132040.850000",
    "132042.849000",
    "132044.850000",
    "132046.350000",
    "132048.850000",
    "132050.349000",
    "132052.850000",
    "132054.850000",
    "132056.850000",
    "132058.850000",
    "132100.349000",
    "132102.850000",
    "132104.850000",
    "132106.851000",
    "132108.850000",
    "132110.850000",
    "132112.850000",
    "132114.350000",
    "132116.850000",
    "132118.850000",
    "132120.850000",
    "132122.850000",
    "132124.850000",
    "132126.850000",
    "132128.850000",
    "132130.349000",
    "132132.850000",
    "132134.850000",
    "132136.850000",
    "132138.850000",
    "132140.850000",
    "132142.850000",
    "132144.350000",
    "132146.850000",
    "132148.350000",
    "132150.850000",
    "132152.849000",
    "132154.850000",
    "132156.850000",
    "132158.850000",
    "132200.850000",
    "132202.350000",
    "132204.850000",
    "132206.849000",
    "132208.850000",
    "132210.849000",
    "132212.850000",
    "132214.850000",
    "132216.850000",
    "132218.850000",
    "132220.849000",
    "132222.850000",
    "132224.849000",
    "132226.350000",
    "132228.849000",
    "132230.850000",
    "132232.350000",
    "132234.850000",
    "132236.850000",
    "132238.350000",
    "132240.850000",
    "132242.350000",
    "132244.403000"
   ],
   "InstanceNumber": [
    1,
    2,
    3,
    4,
    5,
    6,
    7,
    8,
    9,
    10,
    11,
    12,
    13,
    14,
    15,
    16,
    17,
    18,
    19,
    20,
    21,
    22,
    23,
    24,
    25,
    26,
    27,
    28,
    29,
    30,
    31,
    32,
    33,
    34,
    35,
    36,
    37,
    38,
    39,
    40,
    41,
    42,
    43,
    44,
    45,
    46,
    47,
    48,
    49,
    50,
    51,
    52,
    53,
    54,
    55,
    56,
    57,
    58,
    59,
    60,
    61,
    62,
    63,
    64,
    65,
    66,
    67,
    68,
    69,
    70,
    71,
    72,
    73,
    74,
    75,
    76,
    77,
    78,
    79,
    80,
    81,
    82,
    83,
    84,
    85,
    86,
    87,
    88,
    89,
    90,
    91,
    92,
    93,
    94,
    95,
    96,
    97,
    98,
    99,
    100,
    101,
    102,
    103,
    104,
    105,
    106,
    107,
    108,
    109,
    110,
    111,
    112,
    113,
    114,
    115,
    116,
    117,
    118,
    119,
    120,
    121,
    122,
    123,
    124,
    125,
    126,
    127,
    128,
    129,
    130,
    131,
    132,
    133,
    134,
    135,
    136,
    137,
    138,
    139,
    140,
    141,
    142,
    143,
    144,
    145,
    146,
    147,
    148,
    149,
    150,
    151,
    152,
    153,
    154,
    155,
    156,
    157,
    158,
    159,
    160,
    161,
    162,
    163,
    164,
    165,
    166,
    167,
    168,
    169,
    170,
    171,
    172,
    173,
    174,
    175,
    176,
    177,
    178,
    179,
    180,
    181,
    182,
    183,
    184,
    185,
    186,
    187,
    188,
    189,
    190,
    191,
    192,
    193,
    194,
    195,
    196,
    197,
    198,
    199,
    200,
    201,
    202,
    203,
    204,
    205,
    206,
    207,
    208,
    209,
    210,
    211,
    212,
    213,
    214,
    215,
    216,
    217,
    218,
    219,
    220,
    221,
    222,
    223,
    224,
    225,
    226,
    227,
    228,
    229,
    230,
    231,
    232,
    233,
    234,
    235,
    236,
    237,
    238,
    239,
    240,
    241,
    242,
    243,
    244,
    245,
    246,
    247,
    248,
    249,
    250,
    251,
    252,
    253,
    254,
    255,
    256
   ],
   "LargestImagePixelValue": [
    3405,
    3210,
    3478,
    3183,
    3209,
    3331,
    3156,
    3180,
    3264,
    3136,
    3163,
    3339,
    3166,
    3530,
    3117,
    3181,
    3519,
    3186,
    3353,
    3305,
    3169,
    3176,
    3232,
    3186,
    3401,
    3274,
    3113,
    3187,
    3271,
    3152,
    3178,
    3292,
    3116,
    3173,
    3152,
    3160,
    3212,
    3167,
    3352,
    3140,
    3378,
    3153,
    3346,
    3130,
    3277,
    3311,
    3171,
    3267,
    3281,
    3180,
    3466,
    3179,
    3438,
    3285,
    3167,
    3379,
    3147,
    3380,
    3256,
    3152,
    3183,
    3335,
    3141,
    3289,
    3524,
    3172,
    3178,
    3289,
    3273,
    3205,
    3331,
    3323,
    3137,
    3240,
    3239,
    3187,
    3296,
    3357,
    3199,
    3196,
    3362,
    3160,
    3305,
    3172,
    3190,
    3187,
    3379,
    3168,
    3183,
    3259,
    3241,
    3198,
    3406,
    3337,
    3200,
    3215,
    3343,
    3183,
    3164,
    3372,
    3133,
    3168,
    3364,
    3194,
    3192,
    3353,
    3198,
    3178,
    3335,
    3188,
    3391,
    3270,
    3173,
    3446,
    3189,
    3228,
    3182,
    3370,
    3212,
    3179,
    3420,
    3211,
    3167,
    3165,
    3563,
    3205,
    3152,
    3167,
    3271,
    3212,
    3179,
    3212,
    3235,
    3203,
    3152,
    3257,
    3280,
    3107,
    3235,
    3229,
    3160,
    3312,
    3239,
    3116,
    3148,
    3383,
    3124,
    3125,
    3333,
    3105,
    3249,
    3206,
    3156,
    3163,
    3147,
    3158,
    3231,
    3172,
    3221,
    3240,
    3233,
    3198,
    3196,
    3213,
    3180,
    3150,
    3166,
    3185,
    3299,
    3111,
    3332,
    3295,
    3175,
    3297,
    3150,
    3292,
    3312,
    3135,
    3148,
    3157,
    3200,
    3457,
    3135,
    3168,
    3289,
    3155,
    3174,
    3185,
    3143,
    3183,
    3204,
    3139,
    3171,
    3164,
    3128,
    3144,
    3531,
    3082,
    3112,
    3318,
    3182,
    3224,
    3354,
    3430,
    3283,
    3175,
    3399,
    3132,
    3128,
    3408,
    3127,
    3141,
    3287,
    3319,
    3278,
    3350,
    3392,
    3229,
    3404,
    3348,
    3493,
    3309,
    3463,
    3540,
    3704,
    3573,
    3397,
    3255,
    3305,
    3523,
    3318,
    3332,
    3638,
    3531,
    3229,
    3500,
    3539,
    3573,
    3500,
    3225,
    3502,
    3624,
    3223,
    3442,
    3451,
    3073,
    3215,
    3475,
    3693,
    3203,
    3482,
    3716,
    3593,
    3686,
    3656,
    3343
   ],
   "WindowCenter": [
    764.0,
    762.0,
    764.0,
    762.0,
    762.0,
    762.0,
    760.0,
    760.0,
    762.0,
    761.0,
    761.0,
    763.0,
    763.0,
    766.0,
    763.0,
    762.0,
    763.0,
    761.0,
    763.0,
    763.0,
    761.0,
    760.0,
    762.0,
    763.0,
    765.0,
    762.0,
    759.0,
    760.0,
    761.0,
    761.0,
    762.0,
    763.0,
    762.0,
    762.0,
    762.0,
    762.0,
    762.0,
    761.0,
    762.0,
    760.0,
    763.0,
    761.0,
    763.0,
    761.0,
    761.0,
    762.0,
    762.0,
    762.0,
    762.0,
    761.0,
    763.0,
    763.0,
    764.0,
    763.0,
    762.0,
    763.0,
    761.0,
    763.0,
    762.0,
    761.0,
    761.0,
    762.0,
    761.0,
    763.0,
    765.0,
    762.0,
    761.0,
    761.0,
    762.0,
    762.0,
    763.0,
    762.0,
    761.0,
    762.0,
    764.0,
    763.0,
    762.0,
    762.0,
    762.0,
    762.0,
    763.0,
    762.0,
    763.0,
    761.0,
    761.0,
    760.0,
    761.0,
    761.0,
    762.0,
    763.0,
    763.0,
    763.0,
    763.0,
    762.0,
    762.0,
    763.0,
    763.0,
    761.0,
    761.0,
    763.0,
    761.0,
    761.0,
    763.0,
    763.0,
    762.0,
    762.0,
    761.0,
    761.0,
    761.0,
