{
 "AcquisitionMatrixPE": 100,
 "AcquisitionNumber": 1,
 "AcquisitionTime": "13:58:10.130000",
 "BandwidthPerPixelPhaseEncode": 18.519,
 "BaseResolution": 100,
 "BodyPartExamined": "BRAIN",
 "ConsistencyInfo": "N4_VE11C_LATEST_20160120",
 "ConversionSoftware": "dcm2niix",
 "ConversionSoftwareVersion": "v1.0.20180622 GCC4.9.2",
 "DerivedVendorReportedEchoSpacing": 0.000539986,
 "DeviceSerialNumber": "166078",
 "DwellTime": 2.1e-06,
 "EchoTime": 0.034,
 "EchoTrainLength": 100,
 "EffectiveEchoSpacing": 0.000539986,
 "FlipAngle": 90,
 "ImageOrientationPatientDICOM": [
  0.995766,
  0.0765874,
  0.0508459,
  -0.0731245,
  0.995084,
  -0.0667914
 ],
 "ImageType": [
  "ORIGINAL",
  "PRIMARY",
  "M",
  "ND",
  "MOSAIC"
 ],
 "InPlanePhaseEncodingDirectionDICOM": "COL",
 "InstitutionAddress": "Street_StreetNo_Bei_Jing_District_CN_ZIP",
 "InstitutionName": "BeiJing_Normal_University",
 "InstitutionalDepartmentName": "Department",
 "MRAcquisitionType": "2D",
 "MagneticFieldStrength": 3,
 "Manufacturer": "Siemens",
 "ManufacturersModelName": "Prisma",
 "Modality": "MR",
 "MultibandAccelerationFactor": 3,
 "PartialFourier": 1,
 "PatientPosition": "HFS",
 "PercentPhaseFOV": 100,
 "PhaseEncodingDirection": "j-",
 "PhaseEncodingSteps": 100,
 "PhaseResolution": 1,
 "PixelBandwidth": 2380,
 "ProcedureStepDescription": "BNU_P2018_64CH_Zhen.ZongLei",
 "ProtocolName": "bold_100x100_s3_2x2x2_static_256",
 "PulseSequenceDetails": "%SiemensSeq%_ep2d_bold",
 "ReceiveCoilActiveElements": "HC1-7;NC1",
 "ReceiveCoilName": "HeadNeck_64",
 "ReconMatrixPE": 100,
 "RepetitionTime": 2,
 "SAR": 0.0713994,
 "ScanOptions": "FS",
 "ScanningSequence": "EP",
 "SequenceName": "_epfid2d1_100",
 "SequenceVariant": "SK",
 "SeriesDescription": "bold_100x100_s3_2x2x2_static_256",
 "SeriesNumber": 11,
 "ShimSetting": [
  -5432,
  -11539,
  -1231,
  343,
  -89,
  -397,
  -65,
  3
 ],
 "SliceThickness": 2,
 "SliceTiming": [
  1.485,
  0,
  0.99,
  0.0825,
  1.0725,
  0.165,
  1.155,
  0.2475,
  1.2375,
  0.33,
  1.32,
  0.4125,
  1.4025,
  0.5775,
  1.5675,
  0.66,
  1.65,
  0.7425,
  1.7325,
  0.825,
  1.815,
  0.9075,
  1.8975,
  0.495,
  1.485,
  0,
  0.99,
  0.0825,
  1.0725,
  0.165,
  1.155,
  0.2475,
  1.2375,
  0.33,
  1.32,
  0.4125,
  1.4025,
  0.5775,
  1.5675,
  0.66,
  1.65,
  0.7425,
  1.7325,
  0.825,
  1.815,
  0.9075,
  1.8975,
  0.495,
  1.485,
  0,
  0.99,
  0.0825,
  1.0725,
  0.165,
  1.155,
  0.2475,
  1.2375,
  0.33,
  1.32,
  0.4125,
  1.4025,
  0.5775,
  1.5675,
  0.66,
  1.65,
  0.7425,
  1.7325,
  0.825,
  1.815,
  0.9075,
  1.8975,
  0.495
 ],
 "SoftwareVersions": "syngo_MR_E11",
 "SpacingBetweenSlices": 2,
 "StationName": "AWP166078",
 "TaskName": "imagenet",
 "TotalReadoutTime": 0.0534586,
 "TxRefAmp": 214.632,
 "dcmmeta_affine": [
  [
   -1.9915311336517334,
   -0.14624890685081482,
   0.11142270267009735,
   101.42375183105469
  ],
  [
   -0.15317481756210327,
   1.990167498588562,
   -0.1255810409784317,
   -84.0794448852539
  ],
  [
   0.10169187933206558,
   0.13358284533023834,
   1.99294114112854,
   -72.5851821899414
  ],
  [
   0.0,
   0.0,
   0.0,
   1.0
  ]
 ],
 "dcmmeta_reorient_transform": [
  [
   0.0,
   -1.0,
   0.0,
   99.0
  ],
  [
   1.0,
   0.0,
   0.0,
   0.0
  ],
  [
   0.0,
   0.0,
   1.0,
   0.0
  ],
  [
   0.0,
   0.0,
   0.0,
   1.0
  ]
 ],
 "dcmmeta_shape": [
  100,
  100,
  72,
  256
 ],
 "dcmmeta_slice_dim": 2,
 "dcmmeta_version": 0.6,
 "global": {
  "const": {
   "AcquisitionMatrix": [
    100,
    0,
    0,
    100
   ],
   "AngioFlag": "N",
   "BitsAllocated": 16,
   "BitsStored": 12,
   "BodyPartExamined": "BRAIN",
   "Columns": 900,
   "EchoNumbers": 1,
   "EchoTime": 34.0,
   "EchoTrainLength": 100,
   "FlipAngle": 90.0,
   "HighBit": 11,
   "ImageOrientationPatient": [
    0.99576556457761,
    0.07658740535927,
    0.05084594125165,
    -0.0731244524102,
    0.9950837754182,
    -0.0667914242937
   ],
   "ImagePositionPatient": [
    -825.05800166024,
    -970.28408579771,
    -46.604089981412
   ],
   "ImageType": [
    "ORIGINAL",
    "PRIMARY",
    "M",
    "ND",
    "MOSAIC"
   ],
   "ImagedNucleus": "1H",
   "ImagingFrequency": 123.257709,
   "InPlanePhaseEncodingDirection": "COL",
   "MRAcquisitionType": "2D",
   "MagneticFieldStrength": 3.0,
   "Manufacturer": "SIEMENS",
   "ManufacturerModelName": "Prisma",
   "Modality": "MR",
   "NumberOfAverages": 1.0,
   "NumberOfPhaseEncodingSteps": 100,
   "PercentPhaseFieldOfView": 100.0,
   "PercentSampling": 100.0,
   "PerformedProcedureStepStartTime": "130145.255000",
   "PhotometricInterpretation": "MONOCHROME2",
   "PixelBandwidth": 2380.0,
   "PixelRepresentation": 0,
   "PixelSpacing": [
    2.0,
    2.0
   ],
   "ProtocolName": "bold_100x100_s3_2x2x2_static_256",
   "RepetitionTime": 2000.0,
   "Rows": 900,
   "SAR": 0.07139939247102,
   "SamplesPerPixel": 1,
   "ScanOptions": "FS",
   "ScanningSequence": "EP",
   "SequenceName": "*epfid2d1_100",
   "SequenceVariant": "SK",
   "SeriesDescription": "bold_100x100_s3_2x2x2_static_256",
   "SeriesNumber": 11,
   "SeriesTime": "135812.621000",
   "SliceLocation": -61.399147492397,
   "SliceThickness": 2.0,
   "SmallestImagePixelValue": 0,
   "SoftwareVersions": "syngo MR E11",
   "SpacingBetweenSlices": 1.9999999520454,
   "SpecificCharacterSet": "ISO_IR 100",
   "StudyID": "1",
   "StudyTime": "130145.187000",
   "TransmitCoilName": "Body",
   "VariableFlipAngleFlag": "N",
   "WindowCenter": 768.0,
   "WindowWidth": 1668.0,
   "dBdt": 0.0
  },
  "slices": {}
 },
 "time": {
  "samples": {
   "AcquisitionNumber": [
    1,
    2,
    3,
    4,
    5,
    6,
    7,
    8,
    9,
    10,
    11,
    12,
    13,
    14,
    15,
    16,
    17,
    18,
    19,
    20,
    21,
    22,
    23,
    24,
    25,
    26,
    27,
    28,
    29,
    30,
    31,
    32,
    33,
    34,
    35,
    36,
    37,
    38,
    39,
    40,
    41,
    42,
    43,
    44,
    45,
    46,
    47,
    48,
    49,
    50,
    51,
    52,
    53,
    54,
    55,
    56,
    57,
    58,
    59,
    60,
    61,
    62,
    63,
    64,
    65,
    66,
    67,
    68,
    69,
    70,
    71,
    72,
    73,
    74,
    75,
    76,
    77,
    78,
    79,
    80,
    81,
    82,
    83,
    84,
    85,
    86,
    87,
    88,
    89,
    90,
    91,
    92,
    93,
    94,
    95,
    96,
    97,
    98,
    99,
    100,
    101,
    102,
    103,
    104,
    105,
    106,
    107,
    108,
    109,
    110,
    111,
    112,
    113,
    114,
    115,
    116,
    117,
    118,
    119,
    120,
    121,
    122,
    123,
    124,
    125,
    126,
    127,
    128,
    129,
    130,
    131,
    132,
    133,
    134,
    135,
    136,
    137,
    138,
    139,
    140,
    141,
    142,
    143,
    144,
    145,
    146,
    147,
    148,
    149,
    150,
    151,
    152,
    153,
    154,
    155,
    156,
    157,
    158,
    159,
    160,
    161,
    162,
    163,
    164,
    165,
    166,
    167,
    168,
    169,
    170,
    171,
    172,
    173,
    174,
    175,
    176,
    177,
    178,
    179,
    180,
    181,
    182,
    183,
    184,
    185,
    186,
    187,
    188,
    189,
    190,
    191,
    192,
    193,
    194,
    195,
    196,
    197,
    198,
    199,
    200,
    201,
    202,
    203,
    204,
    205,
    206,
    207,
    208,
    209,
    210,
    211,
    212,
    213,
    214,
    215,
    216,
    217,
    218,
    219,
    220,
    221,
    222,
    223,
    224,
    225,
    226,
    227,
    228,
    229,
    230,
    231,
    232,
    233,
    234,
    235,
    236,
    237,
    238,
    239,
    240,
    241,
    242,
    243,
    244,
    245,
    246,
    247,
    248,
    249,
    250,
    251,
    252,
    253,
    254,
    255,
    256
   ],
   "AcquisitionTime": [
    "135810.130000",
    "135812.130000",
    "135814.130000",
    "135816.130000",
    "135818.130000",
    "135820.130000",
    "135822.130000",
    "135824.130000",
    "135826.130000",
    "135828.130000",
    "135830.130000",
    "135832.130000",
    "135834.130000",
    "135836.130000",
    "135838.130000",
    "135840.130000",
    "135842.130000",
    "135844.130000",
    "135846.130000",
    "135848.130000",
    "135850.130000",
    "135852.130000",
    "135854.130000",
    "135856.130000",
    "135858.130000",
    "135900.130000",
    "135902.130000",
    "135904.130000",
    "135906.130000",
    "135908.130000",
    "135910.130000",
    "135912.130000",
    "135914.130000",
    "135916.130000",
    "135918.130000",
    "135920.130000",
    "135922.130000",
    "135924.130000",
    "135926.130000",
    "135928.130000",
    "135930.130000",
    "135932.130000",
    "135934.130000",
    "135936.130000",
    "135938.130000",
    "135940.130000",
    "135942.130000",
    "135944.130000",
    "135946.130000",
    "135948.130000",
    "135950.130000",
    "135952.130000",
    "135954.130000",
    "135956.130000",
    "135958.130000",
    "140000.130000",
    "140002.130000",
    "140004.130000",
    "140006.130000",
    "140008.130000",
    "140010.130000",
    "140012.130000",
    "140014.130000",
    "140016.130000",
    "140018.130000",
    "140020.130000",
    "140022.130000",
    "140024.130000",
    "140026.130000",
    "140028.130000",
    "140030.130000",
    "140032.130000",
    "140034.130000",
    "140036.130000",
    "140038.130000",
    "140040.130000",
    "140042.130000",
    "140044.130000",
    "140046.130000",
    "140048.130000",
    "140050.130000",
    "140052.130000",
    "140054.130000",
    "140056.130000",
    "140058.130000",
    "140100.130000",
    "140102.130000",
    "140104.130000",
    "140106.130000",
    "140108.130000",
    "140110.130000",
    "140112.130000",
    "140114.130000",
    "140116.130000",
    "140118.130000",
    "140120.130000",
    "140122.130000",
    "140124.130000",
    "140126.130000",
    "140128.130000",
    "140130.130000",
    "140132.130000",
    "140134.130000",
    "140136.130000",
    "140138.130000",
    "140140.130000",
    "140142.130000",
    "140144.130000",
    "140146.130000",
    "140148.130000",
    "140150.130000",
    "140152.130000",
    "140154.130000",
    "140156.130000",
    "140158.130000",
    "140200.130000",
    "140202.130000",
    "140204.130000",
    "140206.130000",
    "140208.130000",
    "140210.130000",
    "140212.130000",
    "140214.130000",
    "140216.130000",
    "140218.130000",
    "140220.130000",
    "140222.130000",
    "140224.130000",
    "140226.130000",
    "140228.130000",
    "140230.130000",
    "140232.130000",
    "140234.130000",
    "140236.130000",
    "140238.130000",
    "140240.130000",
    "140242.130000",
    "140244.130000",
    "140246.130000",
    "140248.130000",
    "140250.130000",
    "140252.130000",
    "140254.130000",
    "140256.130000",
    "140258.130000",
    "140300.130000",
    "140302.130000",
    "140304.130000",
    "140306.130000",
    "140308.130000",
    "140310.130000",
    "140312.130000",
    "140314.130000",
    "140316.130000",
    "140318.130000",
    "140320.130000",
    "140322.130000",
    "140324.130000",
    "140326.130000",
    "140328.130000",
    "140330.130000",
    "140332.130000",
    "140334.130000",
    "140336.130000",
    "140338.130000",
    "140340.130000",
    "140342.130000",
    "140344.130000",
    "140346.130000",
    "140348.130000",
    "140350.130000",
    "140352.130000",
    "140354.130000",
    "140356.130000",
    "140358.130000",
    "140400.130000",
    "140402.130000",
    "140404.130000",
    "140406.130000",
    "140408.130000",
    "140410.130000",
    "140412.130000",
    "140414.130000",
    "140416.130000",
    "140418.130000",
    "140420.130000",
    "140422.130000",
    "140424.130000",
    "140426.130000",
    "140428.130000",
    "140430.130000",
    "140432.130000",
    "140434.130000",
    "140436.130000",
    "140438.130000",
    "140440.130000",
    "140442.130000",
    "140444.130000",
    "140446.130000",
    "140448.130000",
    "140450.130000",
    "140452.130000",
    "140454.130000",
    "140456.130000",
    "140458.130000",
    "140500.130000",
    "140502.130000",
    "140504.130000",
    "140506.130000",
    "140508.130000",
    "140510.130000",
    "140512.130000",
    "140514.130000",
    "140516.130000",
    "140518.130000",
    "140520.130000",
    "140522.130000",
    "140524.130000",
    "140526.130000",
    "140528.130000",
    "140530.130000",
    "140532.130000",
    "140534.130000",
    "140536.130000",
    "140538.130000",
    "140540.130000",
    "140542.130000",
    "140544.130000",
    "140546.130000",
    "140548.130000",
    "140550.130000",
    "140552.130000",
    "140554.130000",
    "140556.130000",
    "140558.130000",
    "140600.130000",
    "140602.130000",
    "140604.130000",
    "140606.130000",
    "140608.130000",
    "140610.130000",
    "140612.130000",
    "140614.130000",
    "140616.130000",
    "140618.130000",
    "140620.130000",
    "140622.130000",
    "140624.130000",
    "140626.130000",
    "140628.130000",
    "140630.130000",
    "140632.130000",
    "140634.130000",
    "140636.130000",
    "140638.130000",
    "140640.130000"
   ],
   "ContentTime": [
    "135812.625000",
    "135814.121000",
    "135816.120000",
    "135818.119000",
    "135820.120000",
    "135822.120000",
    "135824.120000",
    "135826.120000",
    "135828.120000",
    "135830.120000",
    "135832.121000",
    "135834.120000",
    "135836.120000",
    "135838.120000",
    "135840.120000",
    "135842.120000",
    "135844.120000",
    "135846.120000",
    "135848.120000",
    "135850.121000",
    "135852.120000",
    "135854.119000",
    "135856.120000",
    "135858.120000",
    "135900.121000",
    "135902.120000",
    "135904.120000",
    "135906.120000",
    "135908.121000",
    "135910.120000",
    "135912.120000",
    "135914.119000",
    "135916.120000",
    "135918.121000",
    "135920.120000",
    "135922.120000",
    "135924.121000",
    "135926.120000",
    "135928.119000",
    "135930.120000",
    "135932.120000",
    "135934.119000",
    "135936.121000",
    "135938.120000",
    "135940.121000",
    "135942.121000",
    "135944.120000",
    "135946.120000",
    "135948.120000",
    "135950.120000",
    "135952.121000",
    "135954.121000",
    "135956.121000",
    "135958.120000",
    "140000.121000",
    "140002.120000",
    "140004.120000",
    "140006.119000",
    "140008.119000",
    "140010.120000",
    "140012.120000",
    "140014.121000",
    "140016.120000",
    "140018.121000",
    "140020.120000",
    "140022.120000",
    "140024.120000",
    "140026.119000",
    "140028.121000",
    "140030.121000",
    "140032.120000",
    "140034.121000",
    "140036.120000",
    "140038.120000",
    "140040.119000",
    "140042.120000",
    "140044.120000",
    "140046.120000",
    "140048.121000",
    "140050.121000",
    "140052.120000",
    "140054.120000",
    "140056.120000",
    "140058.119000",
    "140100.120000",
    "140102.121000",
    "140104.121000",
    "140106.121000",
    "140108.121000",
    "140110.121000",
    "140112.119000",
    "140114.120000",
    "140116.120000",
    "140118.120000",
    "140120.121000",
    "140122.121000",
    "140124.121000",
    "140126.121000",
    "140128.121000",
    "140130.120000",
    "140132.120000",
    "140134.119000",
    "140136.119000",
    "140138.120000",
    "140140.121000",
    "140142.121000",
    "140144.121000",
    "140146.121000",
    "140148.119000",
    "140150.119000",
    "140152.119000",
    "140154.120000",
    "140156.121000",
    "140158.120000",
    "140200.121000",
    "140202.120000",
    "140204.121000",
    "140206.120000",
    "140208.120000",
    "140210.120000",
    "140212.120000",
    "140214.120000",
    "140216.120000",
    "140218.121000",
    "140220.121000",
    "140222.120000",
    "140224.120000",
    "140226.120000",
    "140228.120000",
    "140230.120000",
    "140232.120000",
    "140234.121000",
    "140236.121000",
    "140238.121000",
    "140240.119000",
    "140242.119000",
    "140244.120000",
    "140246.120000",
    "140248.121000",
    "140250.121000",
    "140252.121000",
    "140254.121000",
    "140256.121000",
    "140258.120000",
    "140300.119000",
    "140302.120000",
    "140304.120000",
    "140306.121000",
    "140308.121000",
    "140310.121000",
    "140312.121000",
    "140314.120000",
    "140316.120000",
    "140318.119000",
    "140320.119000",
    "140322.120000",
    "140324.121000",
    "140326.121000",
    "140328.121000",
    "140330.121000",
    "140332.119000",
    "140334.120000",
    "140336.119000",
    "140338.120000",
    "140340.121000",
    "140342.120000",
    "140344.120000",
    "140346.121000",
    "140348.121000",
    "140350.119000",
    "140352.120000",
    "140354.120000",
    "140356.119000",
    "140358.120000",
    "140400.121000",
    "140402.121000",
    "140404.121000",
    "140406.121000",
    "140408.120000",
    "140410.119000",
    "140412.119000",
    "140414.121000",
    "140416.121000",
    "140418.121000",
    "140420.140000",
    "140422.121000",
    "140424.121000",
    "140426.120000",
    "140428.120000",
    "140430.120000",
    "140432.121000",
    "140434.121000",
    "140436.121000",
    "140438.121000",
    "140440.120000",
    "140442.119000",
    "140444.119000",
    "140446.120000",
    "140448.120000",
    "140450.121000",
    "140452.121000",
    "140454.121000",
    "140456.121000",
    "140458.121000",
    "140500.119000",
    "140502.120000",
    "140504.120000",
    "140506.120000",
    "140508.121000",
    "140510.121000",
    "140512.121000",
    "140514.121000",
    "140516.121000",
    "140518.120000",
    "140520.119000",
    "140522.120000",
    "140524.120000",
    "140526.121000",
    "140528.121000",
    "140530.121000",
    "140532.121000",
    "140534.121000",
    "140536.119000",
    "140538.120000",
    "140540.120000",
    "140542.121000",
    "140544.120000",
    "140546.120000",
    "140548.121000",
    "140550.121000",
    "140552.120000",
    "140554.120000",
    "140556.119000",
    "140558.120000",
    "140600.121000",
    "140602.121000",
    "140604.121000",
    "140606.121000",
    "140608.121000",
    "140610.119000",
    "140612.120000",
    "140614.120000",
    "140616.133000",
    "140618.121000",
    "140620.121000",
    "140622.121000",
    "140624.121000",
    "140626.121000",
    "140628.120000",
    "140630.120000",
    "140632.119000",
    "140634.121000",
    "140636.121000",
    "140638.121000",
    "140640.121000",
    "140641.687000"
   ],
   "InstanceCreationTime": [
    "135812.625000",
    "135814.121000",
    "135816.120000",
    "135818.119000",
    "135820.120000",
    "135822.120000",
    "135824.120000",
    "135826.120000",
    "135828.120000",
    "135830.120000",
    "135832.121000",
    "135834.120000",
    "135836.120000",
    "135838.120000",
    "135840.120000",
    "135842.120000",
    "135844.120000",
    "135846.120000",
    "135848.120000",
    "135850.121000",
    "135852.120000",
    "135854.119000",
    "135856.120000",
    "135858.120000",
    "135900.121000",
    "135902.120000",
    "135904.120000",
    "135906.120000",
    "135908.121000",
    "135910.120000",
    "135912.120000",
    "135914.119000",
    "135916.120000",
    "135918.121000",
    "135920.120000",
    "135922.120000",
    "135924.121000",
    "135926.120000",
    "135928.119000",
    "135930.120000",
    "135932.120000",
    "135934.119000",
    "135936.121000",
    "135938.120000",
    "135940.121000",
    "135942.121000",
    "135944.120000",
    "135946.120000",
    "135948.120000",
    "135950.120000",
    "135952.121000",
    "135954.121000",
    "135956.121000",
    "135958.120000",
    "140000.121000",
    "140002.120000",
    "140004.120000",
    "140006.119000",
    "140008.119000",
    "140010.120000",
    "140012.120000",
    "140014.121000",
    "140016.120000",
    "140018.121000",
    "140020.120000",
    "140022.120000",
    "140024.120000",
    "140026.119000",
    "140028.121000",
    "140030.121000",
    "140032.120000",
    "140034.121000",
    "140036.120000",
    "140038.120000",
    "140040.119000",
    "140042.120000",
    "140044.120000",
    "140046.120000",
    "140048.121000",
    "140050.121000",
    "140052.120000",
    "140054.120000",
    "140056.120000",
    "140058.119000",
    "140100.120000",
    "140102.121000",
    "140104.121000",
    "140106.121000",
    "140108.121000",
    "140110.121000",
    "140112.119000",
    "140114.120000",
    "140116.120000",
    "140118.120000",
    "140120.121000",
    "140122.121000",
    "140124.121000",
    "140126.121000",
    "140128.121000",
    "140130.120000",
    "140132.120000",
    "140134.119000",
    "140136.119000",
    "140138.120000",
    "140140.121000",
    "140142.121000",
    "140144.121000",
    "140146.121000",
    "140148.119000",
    "140150.119000",
    "140152.119000",
    "140154.120000",
    "140156.121000",
    "140158.120000",
    "140200.121000",
    "140202.120000",
    "140204.121000",
    "140206.120000",
    "140208.120000",
    "140210.120000",
    "140212.120000",
    "140214.120000",
    "140216.120000",
    "140218.121000",
    "140220.121000",
    "140222.120000",
    "140224.120000",
    "140226.120000",
    "140228.120000",
    "140230.120000",
    "140232.120000",
    "140234.121000",
    "140236.121000",
    "140238.121000",
    "140240.119000",
    "140242.119000",
    "140244.120000",
    "140246.120000",
    "140248.121000",
    "140250.121000",
    "140252.121000",
    "140254.121000",
    "140256.121000",
    "140258.120000",
    "140300.119000",
    "140302.120000",
    "140304.120000",
    "140306.121000",
    "140308.121000",
    "140310.121000",
    "140312.121000",
    "140314.120000",
    "140316.120000",
    "140318.119000",
    "140320.119000",
    "140322.120000",
    "140324.121000",
    "140326.121000",
    "140328.121000",
    "140330.121000",
    "140332.119000",
    "140334.120000",
    "140336.119000",
    "140338.120000",
    "140340.121000",
    "140342.120000",
    "140344.120000",
    "140346.121000",
    "140348.121000",
    "140350.119000",
    "140352.120000",
    "140354.120000",
    "140356.119000",
    "140358.120000",
    "140400.121000",
    "140402.121000",
    "140404.121000",
    "140406.121000",
    "140408.120000",
    "140410.119000",
    "140412.119000",
    "140414.121000",
    "140416.121000",
    "140418.121000",
    "140420.140000",
    "140422.121000",
    "140424.121000",
    "140426.120000",
    "140428.120000",
    "140430.120000",
    "140432.121000",
    "140434.121000",
    "140436.121000",
    "140438.121000",
    "140440.120000",
    "140442.119000",
    "140444.119000",
    "140446.120000",
    "140448.120000",
    "140450.121000",
    "140452.121000",
    "140454.121000",
    "140456.121000",
    "140458.121000",
    "140500.119000",
    "140502.120000",
    "140504.120000",
    "140506.120000",
    "140508.121000",
    "140510.121000",
    "140512.121000",
    "140514.121000",
    "140516.121000",
    "140518.120000",
    "140520.119000",
    "140522.120000",
    "140524.120000",
    "140526.121000",
    "140528.121000",
    "140530.121000",
    "140532.121000",
    "140534.121000",
    "140536.119000",
    "140538.120000",
    "140540.120000",
    "140542.121000",
    "140544.120000",
    "140546.120000",
    "140548.121000",
    "140550.121000",
    "140552.120000",
    "140554.120000",
    "140556.119000",
    "140558.120000",
    "140600.121000",
    "140602.121000",
    "140604.121000",
    "140606.121000",
    "140608.121000",
    "140610.119000",
    "140612.120000",
    "140614.120000",
    "140616.133000",
    "140618.121000",
    "140620.121000",
    "140622.121000",
    "140624.121000",
    "140626.121000",
    "140628.120000",
    "140630.120000",
    "140632.119000",
    "140634.121000",
    "140636.121000",
    "140638.121000",
    "140640.121000",
    "140641.687000"
   ],
   "InstanceNumber": [
    1,
    2,
    3,
    4,
    5,
    6,
    7,
    8,
    9,
    10,
    11,
    12,
    13,
    14,
    15,
    16,
    17,
    18,
    19,
    20,
    21,
    22,
    23,
    24,
    25,
    26,
    27,
    28,
    29,
    30,
    31,
    32,
    33,
    34,
    35,
    36,
    37,
    38,
    39,
    40,
    41,
    42,
    43,
    44,
    45,
    46,
    47,
    48,
    49,
    50,
    51,
    52,
    53,
    54,
    55,
    56,
    57,
    58,
    59,
    60,
    61,
    62,
    63,
    64,
    65,
    66,
    67,
    68,
    69,
    70,
    71,
    72,
    73,
    74,
    75,
    76,
    77,
    78,
    79,
    80,
    81,
    82,
    83,
    84,
    85,
    86,
    87,
    88,
    89,
    90,
    91,
    92,
    93,
    94,
    95,
    96,
    97,
    98,
    99,
    100,
    101,
    102,
    103,
    104,
    105,
    106,
    107,
    108,
    109,
    110,
    111,
    112,
    113,
    114,
    115,
    116,
    117,
    118,
    119,
    120,
    121,
    122,
    123,
    124,
    125,
    126,
    127,
    128,
    129,
    130,
    131,
    132,
    133,
    134,
    135,
    136,
    137,
    138,
    139,
    140,
    141,
    142,
    143,
    144,
    145,
    146,
    147,
    148,
    149,
    150,
    151,
    152,
    153,
    154,
    155,
    156,
    157,
    158,
    159,
    160,
    161,
    162,
    163,
    164,
    165,
    166,
    167,
    168,
    169,
    170,
    171,
    172,
    173,
    174,
    175,
    176,
    177,
    178,
    179,
    180,
    181,
    182,
    183,
    184,
    185,
    186,
    187,
    188,
    189,
    190,
    191,
    192,
    193,
    194,
    195,
    196,
    197,
    198,
    199,
    200,
    201,
    202,
    203,
    204,
    205,
    206,
    207,
    208,
    209,
    210,
    211,
    212,
    213,
    214,
    215,
    216,
    217,
    218,
    219,
    220,
    221,
    222,
    223,
    224,
    225,
    226,
    227,
    228,
    229,
    230,
    231,
    232,
    233,
    234,
    235,
    236,
    237,
    238,
    239,
    240,
    241,
    242,
    243,
    244,
    245,
    246,
    247,
    248,
    249,
    250,
    251,
    252,
    253,
    254,
    255,
    256
   ],
   "LargestImagePixelValue": [
    3325,
    3310,
    3231,
    3204,
    3215,
    3227,
    3218,
    3224,
    3186,
    3202,
    3200,
    3217,
    3170,
    3189,
    3192,
    3201,
    3210,
    3177,
    3214,
    3246,
    3251,
    3260,
    3183,
    3221,
    3232,
    3257,
    3282,
    3173,
    3190,
    3159,
    3193,
    3213,
    3272,
    3208,
    3219,
    3217,
    3262,
    3300,
    3239,
    3218,
    3214,
    3252,
    3293,
    3200,
    3242,
    3253,
    3312,
    3219,
    3211,
    3239,
    3269,
    3277,
    3187,
    3212,
    3260,
    3270,
    3272,
    3232,
    3228,
    3238,
    3296,
    3210,
    3226,
    3227,
    3288,
    3238,
    3309,
    3342,
    3316,
    3257,
    3310,
    3297,
    3245,
    3250,
    3190,
    3244,
    3276,
    3233,
    3251,
    3266,
    3299,
    3198,
    3271,
    3314,
    3206,
    3292,
    3313,
    3339,
    3306,
    3234,
    3257,
    3321,
    3300,
    3220,
    3273,
    3246,
    3292,
    3213,
    3244,
    3266,
    3319,
    3342,
    3256,
    3246,
    3244,
    3287,
    3296,
    3313,
    3256,
    3292,
    3271,
    3299,
    3188,
    3231,
    3292,
    3293,
    3208,
    3229,
    3278,
    3288,
    3266,
    3272,
    3224,
    3252,
    3300,
    3268,
    3284,
    3291,
    3189,
    3211,
    3249,
    3284,
    3306,
    3304,
    3224,
    3230,
    3226,
    3233,
    3243,
    3203,
    3205,
    3244,
    3257,
    3216,
    3199,
    3207,
    3220,
    3272,
    3276,
    3269,
    3291,
    3238,
    3286,
    3317,
    3184,
    3272,
    3279,
    3290,
    3211,
    3255,
    3247,
    3280,
    3277,
    3171,
    3208,
    3225,
    3275,
    3234,
    3251,
    3257,
    3277,
    3222,
    3223,
    3254,
    3238,
    3270,
    3282,
    3246,
    3250,
    3270,
    3310,
    3250,
    3235,
    3262,
    3286,
    3256,
    3297,
    3259,
    3272,
    3201,
    3267,
    3299,
    3254,
    3272,
    3265,
    3246,
    3213,
    3234,
    3279,
    3222,
    3201,
    3209,
    3308,
    3262,
    3267,
    3244,
    3193,
    3240,
    3315,
    3307,
    3290,
    3232,
    3155,
    3141,
    3168,
    3208,
    3201,
    3140,
    3183,
    3184,
    3208,
    3252,
    3202,
    3198,
    3226,
    3233,
    3273,
    3295,
    3182,
    3223,
    3210,
    3235,
    3174,
    3203,
    3193,
    3234,
    3265,
    3207,
    3201,
    3220,
    3259,
    3195,
    3143,
    3246,
    3247,
    3264,
    3201,
    3189,
    3212,
    3242,
    3280,
    3273,
    3213,
    3213,
    3234,
    3279
   ],
   "WindowCenterWidthExplanation": [
    "Algo1",
    "WINDOW1",
    "WINDOW1",
    "WINDOW1",
    "WINDOW1",
    "WINDOW1",
    "WINDOW1",
    "WINDOW1",
    "WINDOW1",
    "WINDOW1",
    "WINDOW1",
    "WINDOW1",
    "WINDOW1",
    "WINDOW1",
    "WINDOW1",
    "WINDOW1",
    "WINDOW1",
    "WINDOW1",
    "WINDOW1",
    "WINDOW1",
    "WINDOW1",
    "WINDOW1",
    "WINDOW1",
    "WINDOW1",
    "WINDOW1",
    "WINDOW1",
    "WINDOW1",
    "WINDOW1",
    "WINDOW1",
    "WINDOW1",
    "WINDOW1",
    "WINDOW1",
    "WINDOW1",
    "WINDOW1",
    "WINDOW1",
    "WINDOW1",
    "WINDOW1",
    "WINDOW1",
    "WINDOW1",
    "WINDOW1",
    "WINDOW1",
    "WINDOW1",
    "WINDOW1",
    "WINDOW1",
    "WINDOW1",
    "WINDOW1",
    "WINDOW1",
    "WINDOW1",
    "WINDOW1",
    "WINDOW1",
    "WINDOW1",
    "WINDOW1",
    "WINDOW1",
    "WINDOW1",
    "WINDOW1",
    "WINDOW1",
    "WINDOW1",
    "WINDOW1",
    "WINDOW1",
    "WINDOW1",
    "WINDOW1",
    "WINDOW1",
    "WINDOW1",
    "WINDOW1",
    "WINDOW1",
    "WINDOW1",
    "WINDOW1",
    "WINDOW1",
    "WINDOW1",
    "WINDOW1",
    "WINDOW1",
    "WINDOW1",
    "WINDOW1",
    "WINDOW1",
    "WINDOW1",
    "WINDOW1",
    "WINDOW1",
    "WINDOW1",
    "WINDOW1",
