{
 "AcquisitionMatrixPE": 100,
 "AcquisitionNumber": 1,
 "AcquisitionTime": "14:21:50.627500",
 "BandwidthPerPixelPhaseEncode": 18.519,
 "BaseResolution": 100,
 "BodyPartExamined": "BRAIN",
 "ConsistencyInfo": "N4_VE11C_LATEST_20160120",
 "ConversionSoftware": "dcm2niix",
 "ConversionSoftwareVersion": "v1.0.20180622 GCC4.9.2",
 "DerivedVendorReportedEchoSpacing": 0.000539986,
 "DeviceSerialNumber": "166078",
 "DwellTime": 2.1e-06,
 "EchoTime": 0.034,
 "EchoTrainLength": 100,
 "EffectiveEchoSpacing": 0.000539986,
 "FlipAngle": 90,
 "ImageOrientationPatientDICOM": [
  0.995766,
  0.0765874,
  0.0508459,
  -0.0731245,
  0.995084,
  -0.0667914
 ],
 "ImageType": [
  "ORIGINAL",
  "PRIMARY",
  "M",
  "ND",
  "MOSAIC"
 ],
 "InPlanePhaseEncodingDirectionDICOM": "COL",
 "InstitutionAddress": "Street_StreetNo_Bei_Jing_District_CN_ZIP",
 "InstitutionName": "BeiJing_Normal_University",
 "InstitutionalDepartmentName": "Department",
 "MRAcquisitionType": "2D",
 "MagneticFieldStrength": 3,
 "Manufacturer": "Siemens",
 "ManufacturersModelName": "Prisma",
 "Modality": "MR",
 "MultibandAccelerationFactor": 3,
 "PartialFourier": 1,
 "PatientPosition": "HFS",
 "PercentPhaseFOV": 100,
 "PhaseEncodingDirection": "j-",
 "PhaseEncodingSteps": 100,
 "PhaseResolution": 1,
 "PixelBandwidth": 2380,
 "ProcedureStepDescription": "BNU_P2018_64CH_Zhen.ZongLei",
 "ProtocolName": "bold_100x100_s3_2x2x2_static_256",
 "PulseSequenceDetails": "%SiemensSeq%_ep2d_bold",
 "ReceiveCoilActiveElements": "HC1-7;NC1",
 "ReceiveCoilName": "HeadNeck_64",
 "ReconMatrixPE": 100,
 "RepetitionTime": 2,
 "SAR": 0.0713994,
 "ScanOptions": "FS",
 "ScanningSequence": "EP",
 "SequenceName": "_epfid2d1_100",
 "SequenceVariant": "SK",
 "SeriesDescription": "bold_100x100_s3_2x2x2_static_256",
 "SeriesNumber": 15,
 "ShimSetting": [
  -5432,
  -11539,
  -1231,
  343,
  -89,
  -397,
  -65,
  3
 ],
 "SliceThickness": 2,
 "SliceTiming": [
  1.485,
  0,
  0.99,
  0.0825,
  1.0725,
  0.165,
  1.155,
  0.2475,
  1.2375,
  0.33,
  1.32,
  0.4125,
  1.4025,
  0.5775,
  1.5675,
  0.66,
  1.65,
  0.7425,
  1.7325,
  0.825,
  1.815,
  0.9075,
  1.8975,
  0.495,
  1.485,
  0,
  0.99,
  0.0825,
  1.0725,
  0.165,
  1.155,
  0.2475,
  1.2375,
  0.33,
  1.32,
  0.4125,
  1.4025,
  0.5775,
  1.5675,
  0.66,
  1.65,
  0.7425,
  1.7325,
  0.825,
  1.815,
  0.9075,
  1.8975,
  0.495,
  1.485,
  0,
  0.99,
  0.0825,
  1.0725,
  0.165,
  1.155,
  0.2475,
  1.2375,
  0.33,
  1.32,
  0.4125,
  1.4025,
  0.5775,
  1.5675,
  0.66,
  1.65,
  0.7425,
  1.7325,
  0.825,
  1.815,
  0.9075,
  1.8975,
  0.495
 ],
 "SoftwareVersions": "syngo_MR_E11",
 "SpacingBetweenSlices": 2,
 "StationName": "AWP166078",
 "TaskName": "imagenet",
 "TotalReadoutTime": 0.0534586,
 "TxRefAmp": 214.632,
 "dcmmeta_affine": [
  [
   -1.9915311336517334,
   -0.14624890685081482,
   0.11142270267009735,
   101.42375183105469
  ],
  [
   -0.15317481756210327,
   1.990167498588562,
   -0.1255810409784317,
   -84.0794448852539
  ],
  [
   0.10169187933206558,
   0.13358284533023834,
   1.99294114112854,
   -72.5851821899414
  ],
  [
   0.0,
   0.0,
   0.0,
   1.0
  ]
 ],
 "dcmmeta_reorient_transform": [
  [
   0.0,
   -1.0,
   0.0,
   99.0
  ],
  [
   1.0,
   0.0,
   0.0,
   0.0
  ],
  [
   0.0,
   0.0,
   1.0,
   0.0
  ],
  [
   0.0,
   0.0,
   0.0,
   1.0
  ]
 ],
 "dcmmeta_shape": [
  100,
  100,
  72,
  256
 ],
 "dcmmeta_slice_dim": 2,
 "dcmmeta_version": 0.6,
 "global": {
  "const": {
   "AcquisitionMatrix": [
    100,
    0,
    0,
    100
   ],
   "AngioFlag": "N",
   "BitsAllocated": 16,
   "BitsStored": 12,
   "BodyPartExamined": "BRAIN",
   "Columns": 900,
   "EchoNumbers": 1,
   "EchoTime": 34.0,
   "EchoTrainLength": 100,
   "FlipAngle": 90.0,
   "HighBit": 11,
   "ImageOrientationPatient": [
    0.99576556457761,
    0.07658740535927,
    0.05084594125165,
    -0.0731244524102,
    0.9950837754182,
    -0.0667914242937
   ],
   "ImagePositionPatient": [
    -825.05800166024,
    -970.28408579771,
    -46.604089981412
   ],
   "ImageType": [
    "ORIGINAL",
    "PRIMARY",
    "M",
    "ND",
    "MOSAIC"
   ],
   "ImagedNucleus": "1H",
   "ImagingFrequency": 123.257723,
   "InPlanePhaseEncodingDirection": "COL",
   "MRAcquisitionType": "2D",
   "MagneticFieldStrength": 3.0,
   "Manufacturer": "SIEMENS",
   "ManufacturerModelName": "Prisma",
   "Modality": "MR",
   "NumberOfAverages": 1.0,
   "NumberOfPhaseEncodingSteps": 100,
   "PercentPhaseFieldOfView": 100.0,
   "PercentSampling": 100.0,
   "PerformedProcedureStepStartTime": "130145.255000",
   "PhotometricInterpretation": "MONOCHROME2",
   "PixelBandwidth": 2380.0,
   "PixelRepresentation": 0,
   "PixelSpacing": [
    2.0,
    2.0
   ],
   "ProtocolName": "bold_100x100_s3_2x2x2_static_256",
   "RepetitionTime": 2000.0,
   "Rows": 900,
   "SAR": 0.07139939247102,
   "SamplesPerPixel": 1,
   "ScanOptions": "FS",
   "ScanningSequence": "EP",
   "SequenceName": "*epfid2d1_100",
   "SequenceVariant": "SK",
   "SeriesDescription": "bold_100x100_s3_2x2x2_static_256",
   "SeriesNumber": 15,
   "SeriesTime": "142152.959000",
   "SliceLocation": -61.399147492397,
   "SliceThickness": 2.0,
   "SmallestImagePixelValue": 0,
   "SoftwareVersions": "syngo MR E11",
   "SpacingBetweenSlices": 1.9999999520454,
   "SpecificCharacterSet": "ISO_IR 100",
   "StudyID": "1",
   "StudyTime": "130145.187000",
   "TransmitCoilName": "Body",
   "VariableFlipAngleFlag": "N",
   "WindowCenterWidthExplanation": "Algo1",
   "dBdt": 0.0
  },
  "slices": {}
 },
 "time": {
  "samples": {
   "AcquisitionNumber": [
    1,
    2,
    3,
    4,
    5,
    6,
    7,
    8,
    9,
    10,
    11,
    12,
    13,
    14,
    15,
    16,
    17,
    18,
    19,
    20,
    21,
    22,
    23,
    24,
    25,
    26,
    27,
    28,
    29,
    30,
    31,
    32,
    33,
    34,
    35,
    36,
    37,
    38,
    39,
    40,
    41,
    42,
    43,
    44,
    45,
    46,
    47,
    48,
    49,
    50,
    51,
    52,
    53,
    54,
    55,
    56,
    57,
    58,
    59,
    60,
    61,
    62,
    63,
    64,
    65,
    66,
    67,
    68,
    69,
    70,
    71,
    72,
    73,
    74,
    75,
    76,
    77,
    78,
    79,
    80,
    81,
    82,
    83,
    84,
    85,
    86,
    87,
    88,
    89,
    90,
    91,
    92,
    93,
    94,
    95,
    96,
    97,
    98,
    99,
    100,
    101,
    102,
    103,
    104,
    105,
    106,
    107,
    108,
    109,
    110,
    111,
    112,
    113,
    114,
    115,
    116,
    117,
    118,
    119,
    120,
    121,
    122,
    123,
    124,
    125,
    126,
    127,
    128,
    129,
    130,
    131,
    132,
    133,
    134,
    135,
    136,
    137,
    138,
    139,
    140,
    141,
    142,
    143,
    144,
    145,
    146,
    147,
    148,
    149,
    150,
    151,
    152,
    153,
    154,
    155,
    156,
    157,
    158,
    159,
    160,
    161,
    162,
    163,
    164,
    165,
    166,
    167,
    168,
    169,
    170,
    171,
    172,
    173,
    174,
    175,
    176,
    177,
    178,
    179,
    180,
    181,
    182,
    183,
    184,
    185,
    186,
    187,
    188,
    189,
    190,
    191,
    192,
    193,
    194,
    195,
    196,
    197,
    198,
    199,
    200,
    201,
    202,
    203,
    204,
    205,
    206,
    207,
    208,
    209,
    210,
    211,
    212,
    213,
    214,
    215,
    216,
    217,
    218,
    219,
    220,
    221,
    222,
    223,
    224,
    225,
    226,
    227,
    228,
    229,
    230,
    231,
    232,
    233,
    234,
    235,
    236,
    237,
    238,
    239,
    240,
    241,
    242,
    243,
    244,
    245,
    246,
    247,
    248,
    249,
    250,
    251,
    252,
    253,
    254,
    255,
    256
   ],
   "AcquisitionTime": [
    "142150.627500",
    "142152.627500",
    "142154.627500",
    "142156.627500",
    "142158.627500",
    "142200.627500",
    "142202.627500",
    "142204.627500",
    "142206.627500",
    "142208.627500",
    "142210.627500",
    "142212.627500",
    "142214.627500",
    "142216.627500",
    "142218.627500",
    "142220.627500",
    "142222.627500",
    "142224.627500",
    "142226.627500",
    "142228.627500",
    "142230.627500",
    "142232.627500",
    "142234.627500",
    "142236.627500",
    "142238.627500",
    "142240.627500",
    "142242.627500",
    "142244.627500",
    "142246.627500",
    "142248.627500",
    "142250.627500",
    "142252.627500",
    "142254.627500",
    "142256.627500",
    "142258.627500",
    "142300.627500",
    "142302.627500",
    "142304.627500",
    "142306.627500",
    "142308.627500",
    "142310.627500",
    "142312.627500",
    "142314.627500",
    "142316.627500",
    "142318.627500",
    "142320.627500",
    "142322.627500",
    "142324.627500",
    "142326.627500",
    "142328.627500",
    "142330.627500",
    "142332.627500",
    "142334.627500",
    "142336.627500",
    "142338.627500",
    "142340.627500",
    "142342.627500",
    "142344.627500",
    "142346.627500",
    "142348.627500",
    "142350.627500",
    "142352.627500",
    "142354.627500",
    "142356.627500",
    "142358.627500",
    "142400.627500",
    "142402.627500",
    "142404.627500",
    "142406.627500",
    "142408.627500",
    "142410.627500",
    "142412.627500",
    "142414.627500",
    "142416.627500",
    "142418.627500",
    "142420.627500",
    "142422.627500",
    "142424.627500",
    "142426.627500",
    "142428.627500",
    "142430.627500",
    "142432.627500",
    "142434.627500",
    "142436.627500",
    "142438.627500",
    "142440.627500",
    "142442.627500",
    "142444.627500",
    "142446.627500",
    "142448.627500",
    "142450.627500",
    "142452.627500",
    "142454.627500",
    "142456.627500",
    "142458.627500",
    "142500.627500",
    "142502.627500",
    "142504.627500",
    "142506.627500",
    "142508.627500",
    "142510.627500",
    "142512.627500",
    "142514.627500",
    "142516.627500",
    "142518.627500",
    "142520.627500",
    "142522.627500",
    "142524.627500",
    "142526.627500",
    "142528.627500",
    "142530.627500",
    "142532.627500",
    "142534.627500",
    "142536.627500",
    "142538.627500",
    "142540.627500",
    "142542.627500",
    "142544.627500",
    "142546.627500",
    "142548.627500",
    "142550.627500",
    "142552.627500",
    "142554.627500",
    "142556.627500",
    "142558.627500",
    "142600.627500",
    "142602.627500",
    "142604.627500",
    "142606.627500",
    "142608.627500",
    "142610.627500",
    "142612.627500",
    "142614.627500",
    "142616.627500",
    "142618.627500",
    "142620.627500",
    "142622.627500",
    "142624.627500",
    "142626.627500",
    "142628.627500",
    "142630.627500",
    "142632.627500",
    "142634.627500",
    "142636.627500",
    "142638.627500",
    "142640.627500",
    "142642.627500",
    "142644.627500",
    "142646.627500",
    "142648.627500",
    "142650.627500",
    "142652.627500",
    "142654.627500",
    "142656.627500",
    "142658.627500",
    "142700.627500",
    "142702.627500",
    "142704.627500",
    "142706.627500",
    "142708.627500",
    "142710.627500",
    "142712.627500",
    "142714.627500",
    "142716.627500",
    "142718.627500",
    "142720.627500",
    "142722.627500",
    "142724.627500",
    "142726.627500",
    "142728.627500",
    "142730.627500",
    "142732.627500",
    "142734.627500",
    "142736.627500",
    "142738.627500",
    "142740.627500",
    "142742.627500",
    "142744.627500",
    "142746.627500",
    "142748.627500",
    "142750.627500",
    "142752.627500",
    "142754.627500",
    "142756.627500",
    "142758.627500",
    "142800.627500",
    "142802.627500",
    "142804.627500",
    "142806.627500",
    "142808.627500",
    "142810.627500",
    "142812.627500",
    "142814.627500",
    "142816.627500",
    "142818.627500",
    "142820.627500",
    "142822.627500",
    "142824.627500",
    "142826.627500",
    "142828.627500",
    "142830.627500",
    "142832.627500",
    "142834.627500",
    "142836.627500",
    "142838.627500",
    "142840.627500",
    "142842.627500",
    "142844.627500",
    "142846.627500",
    "142848.627500",
    "142850.627500",
    "142852.627500",
    "142854.627500",
    "142856.627500",
    "142858.627500",
    "142900.627500",
    "142902.627500",
    "142904.627500",
    "142906.627500",
    "142908.627500",
    "142910.627500",
    "142912.627500",
    "142914.627500",
    "142916.627500",
    "142918.627500",
    "142920.627500",
    "142922.627500",
    "142924.627500",
    "142926.627500",
    "142928.627500",
    "142930.627500",
    "142932.627500",
    "142934.627500",
    "142936.627500",
    "142938.627500",
    "142940.627500",
    "142942.627500",
    "142944.627500",
    "142946.627500",
    "142948.627500",
    "142950.627500",
    "142952.627500",
    "142954.627500",
    "142956.627500",
    "142958.627500",
    "143000.627500",
    "143002.627500",
    "143004.627500",
    "143006.627500",
    "143008.627500",
    "143010.627500",
    "143012.627500",
    "143014.627500",
    "143016.627500",
    "143018.627500",
    "143020.627500"
   ],
   "ContentTime": [
    "142152.962000",
    "142154.458000",
    "142156.457000",
    "142158.456000",
    "142200.457000",
    "142202.458000",
    "142204.458000",
    "142206.458000",
    "142208.458000",
    "142210.458000",
    "142212.458000",
    "142214.458000",
    "142216.456000",
    "142218.457000",
    "142220.457000",
    "142222.458000",
    "142224.457000",
    "142226.458000",
    "142228.458000",
    "142230.457000",
    "142232.457000",
    "142234.457000",
    "142236.458000",
    "142238.458000",
    "142240.458000",
    "142242.458000",
    "142244.458000",
    "142246.457000",
    "142248.458000",
    "142250.456000",
    "142252.456000",
    "142254.458000",
    "142256.457000",
    "142258.457000",
    "142300.457000",
    "142302.458000",
    "142304.458000",
    "142306.458000",
    "142308.457000",
    "142310.457000",
    "142312.458000",
    "142314.457000",
    "142316.458000",
    "142318.458000",
    "142320.477000",
    "142322.457000",
    "142324.458000",
    "142326.457000",
    "142328.457000",
    "142330.458000",
    "142332.457000",
    "142334.457000",
    "142336.458000",
    "142338.458000",
    "142340.457000",
    "142342.458000",
    "142344.457000",
    "142346.458000",
    "142348.457000",
    "142350.457000",
    "142352.457000",
    "142354.457000",
    "142356.457000",
    "142358.458000",
    "142400.456000",
    "142402.456000",
    "142404.458000",
    "142406.457000",
    "142408.457000",
    "142410.457000",
    "142412.458000",
    "142414.457000",
    "142416.458000",
    "142418.457000",
    "142420.457000",
    "142422.457000",
    "142424.458000",
    "142426.457000",
    "142428.458000",
    "142430.458000",
    "142432.457000",
    "142434.457000",
    "142436.456000",
    "142438.458000",
    "142440.458000",
    "142442.457000",
    "142444.457000",
    "142446.458000",
    "142448.457000",
    "142450.458000",
    "142452.457000",
    "142454.457000",
    "142456.458000",
    "142458.457000",
    "142500.457000",
    "142502.458000",
    "142504.458000",
    "142506.458000",
    "142508.458000",
    "142510.457000",
    "142512.457000",
    "142514.458000",
    "142516.457000",
    "142518.458000",
    "142520.457000",
    "142522.458000",
    "142524.458000",
    "142526.458000",
    "142528.456000",
    "142530.457000",
    "142532.458000",
    "142534.457000",
    "142536.457000",
    "142538.458000",
    "142540.457000",
    "142542.457000",
    "142544.457000",
    "142546.456000",
    "142548.458000",
    "142550.457000",
    "142552.457000",
    "142554.478000",
    "142556.457000",
    "142558.457000",
    "142600.458000",
    "142602.458000",
    "142604.456000",
    "142606.458000",
    "142608.458000",
    "142610.457000",
    "142612.458000",
    "142614.458000",
    "142616.458000",
    "142618.458000",
    "142620.457000",
    "142622.456000",
    "142624.458000",
    "142626.457000",
    "142628.458000",
    "142630.457000",
    "142632.458000",
    "142634.457000",
    "142636.457000",
    "142638.457000",
    "142640.458000",
    "142642.458000",
    "142644.457000",
    "142646.458000",
    "142648.457000",
    "142650.458000",
    "142652.458000",
    "142654.457000",
    "142656.456000",
    "142658.457000",
    "142700.457000",
    "142702.458000",
    "142704.458000",
    "142706.457000",
    "142708.457000",
    "142710.458000",
    "142712.458000",
    "142714.456000",
    "142716.457000",
    "142718.458000",
    "142720.458000",
    "142722.457000",
    "142724.457000",
    "142726.457000",
    "142728.458000",
    "142730.456000",
    "142732.456000",
    "142734.458000",
    "142736.457000",
    "142738.458000",
    "142740.457000",
    "142742.457000",
    "142744.458000",
    "142746.457000",
    "142748.456000",
    "142750.458000",
    "142752.458000",
    "142754.457000",
    "142756.457000",
    "142758.458000",
    "142800.457000",
    "142802.458000",
    "142804.457000",
    "142806.472000",
    "142808.457000",
    "142810.458000",
    "142812.458000",
    "142814.458000",
    "142816.458000",
    "142818.457000",
    "142820.458000",
    "142822.457000",
    "142824.457000",
    "142826.457000",
    "142828.458000",
    "142830.458000",
    "142832.458000",
    "142834.458000",
    "142836.457000",
    "142838.457000",
    "142840.456000",
    "142842.456000",
    "142844.458000",
    "142846.458000",
    "142848.458000",
    "142850.458000",
    "142852.457000",
    "142854.458000",
    "142856.458000",
    "142858.456000",
    "142900.458000",
    "142902.458000",
    "142904.458000",
    "142906.458000",
    "142908.458000",
    "142910.458000",
    "142912.458000",
    "142914.457000",
    "142916.457000",
    "142918.458000",
    "142920.457000",
    "142922.457000",
    "142924.458000",
    "142926.458000",
    "142928.457000",
    "142930.458000",
    "142932.457000",
    "142934.457000",
    "142936.458000",
    "142938.458000",
    "142940.458000",
    "142942.457000",
    "142944.457000",
    "142946.457000",
    "142948.458000",
    "142950.457000",
    "142952.456000",
    "142954.457000",
    "142956.457000",
    "142958.457000",
    "143000.457000",
    "143002.458000",
    "143004.458000",
    "143006.458000",
    "143008.457000",
    "143010.458000",
    "143012.458000",
    "143014.458000",
    "143016.458000",
    "143018.458000",
    "143020.458000",
    "143022.041000"
   ],
   "InstanceCreationTime": [
    "142152.962000",
    "142154.458000",
    "142156.457000",
    "142158.456000",
    "142200.457000",
    "142202.458000",
    "142204.458000",
    "142206.458000",
    "142208.458000",
    "142210.458000",
    "142212.458000",
    "142214.458000",
    "142216.456000",
    "142218.457000",
    "142220.457000",
    "142222.458000",
    "142224.457000",
    "142226.458000",
    "142228.458000",
    "142230.457000",
    "142232.457000",
    "142234.457000",
    "142236.458000",
    "142238.458000",
    "142240.458000",
    "142242.458000",
    "142244.458000",
    "142246.457000",
    "142248.458000",
    "142250.456000",
    "142252.456000",
    "142254.458000",
    "142256.457000",
    "142258.457000",
    "142300.457000",
    "142302.458000",
    "142304.458000",
    "142306.458000",
    "142308.457000",
    "142310.457000",
    "142312.458000",
    "142314.457000",
    "142316.458000",
    "142318.458000",
    "142320.477000",
    "142322.457000",
    "142324.458000",
    "142326.457000",
    "142328.457000",
    "142330.458000",
    "142332.457000",
    "142334.457000",
    "142336.458000",
    "142338.458000",
    "142340.457000",
    "142342.458000",
    "142344.457000",
    "142346.458000",
    "142348.457000",
    "142350.457000",
    "142352.457000",
    "142354.457000",
    "142356.457000",
    "142358.458000",
    "142400.456000",
    "142402.456000",
    "142404.458000",
    "142406.457000",
    "142408.457000",
    "142410.457000",
    "142412.458000",
    "142414.457000",
    "142416.458000",
    "142418.457000",
    "142420.457000",
    "142422.457000",
    "142424.458000",
    "142426.457000",
    "142428.458000",
    "142430.458000",
    "142432.457000",
    "142434.457000",
    "142436.456000",
    "142438.458000",
    "142440.458000",
    "142442.457000",
    "142444.457000",
    "142446.458000",
    "142448.457000",
    "142450.458000",
    "142452.457000",
    "142454.457000",
    "142456.458000",
    "142458.457000",
    "142500.457000",
    "142502.458000",
    "142504.458000",
    "142506.458000",
    "142508.458000",
    "142510.457000",
    "142512.457000",
    "142514.458000",
    "142516.457000",
    "142518.458000",
    "142520.457000",
    "142522.458000",
    "142524.458000",
    "142526.458000",
    "142528.456000",
    "142530.457000",
    "142532.458000",
    "142534.457000",
    "142536.457000",
    "142538.458000",
    "142540.457000",
    "142542.457000",
    "142544.457000",
    "142546.456000",
    "142548.458000",
    "142550.457000",
    "142552.457000",
    "142554.478000",
    "142556.457000",
    "142558.457000",
    "142600.458000",
    "142602.458000",
    "142604.456000",
    "142606.458000",
    "142608.458000",
    "142610.457000",
    "142612.458000",
    "142614.458000",
    "142616.458000",
    "142618.458000",
    "142620.457000",
    "142622.456000",
    "142624.458000",
    "142626.457000",
    "142628.458000",
    "142630.457000",
    "142632.458000",
    "142634.457000",
    "142636.457000",
    "142638.457000",
    "142640.458000",
    "142642.458000",
    "142644.457000",
    "142646.458000",
    "142648.457000",
    "142650.458000",
    "142652.458000",
    "142654.457000",
    "142656.456000",
    "142658.457000",
    "142700.457000",
    "142702.458000",
    "142704.458000",
    "142706.457000",
    "142708.457000",
    "142710.458000",
    "142712.458000",
    "142714.456000",
    "142716.457000",
    "142718.458000",
    "142720.458000",
    "142722.457000",
    "142724.457000",
    "142726.457000",
    "142728.458000",
    "142730.456000",
    "142732.456000",
    "142734.458000",
    "142736.457000",
    "142738.458000",
    "142740.457000",
    "142742.457000",
    "142744.458000",
    "142746.457000",
    "142748.456000",
    "142750.458000",
    "142752.458000",
    "142754.457000",
    "142756.457000",
    "142758.458000",
    "142800.457000",
    "142802.458000",
    "142804.457000",
    "142806.472000",
    "142808.457000",
    "142810.458000",
    "142812.458000",
    "142814.458000",
    "142816.458000",
    "142818.457000",
    "142820.458000",
    "142822.457000",
    "142824.457000",
    "142826.457000",
    "142828.458000",
    "142830.458000",
    "142832.458000",
    "142834.458000",
    "142836.457000",
    "142838.457000",
    "142840.456000",
    "142842.456000",
    "142844.458000",
    "142846.458000",
    "142848.458000",
    "142850.458000",
    "142852.457000",
    "142854.458000",
    "142856.458000",
    "142858.456000",
    "142900.458000",
    "142902.458000",
    "142904.458000",
    "142906.458000",
    "142908.458000",
    "142910.458000",
    "142912.458000",
    "142914.457000",
    "142916.457000",
    "142918.458000",
    "142920.457000",
    "142922.457000",
    "142924.458000",
    "142926.458000",
    "142928.457000",
    "142930.458000",
    "142932.457000",
    "142934.457000",
    "142936.458000",
    "142938.458000",
    "142940.458000",
    "142942.457000",
    "142944.457000",
    "142946.457000",
    "142948.458000",
    "142950.457000",
    "142952.456000",
    "142954.457000",
    "142956.457000",
    "142958.457000",
    "143000.457000",
    "143002.458000",
    "143004.458000",
    "143006.458000",
    "143008.457000",
    "143010.458000",
    "143012.458000",
    "143014.458000",
    "143016.458000",
    "143018.458000",
    "143020.458000",
    "143022.041000"
   ],
   "InstanceNumber": [
    1,
    2,
    3,
    4,
    5,
    6,
    7,
    8,
    9,
    10,
    11,
    12,
    13,
    14,
    15,
    16,
    17,
    18,
    19,
    20,
    21,
    22,
    23,
    24,
    25,
    26,
    27,
    28,
    29,
    30,
    31,
    32,
    33,
    34,
    35,
    36,
    37,
    38,
    39,
    40,
    41,
    42,
    43,
    44,
    45,
    46,
    47,
    48,
    49,
    50,
    51,
    52,
    53,
    54,
    55,
    56,
    57,
    58,
    59,
    60,
    61,
    62,
    63,
    64,
    65,
    66,
    67,
    68,
    69,
    70,
    71,
    72,
    73,
    74,
    75,
    76,
    77,
    78,
    79,
    80,
    81,
    82,
    83,
    84,
    85,
    86,
    87,
    88,
    89,
    90,
    91,
    92,
    93,
    94,
    95,
    96,
    97,
    98,
    99,
    100,
    101,
    102,
    103,
    104,
    105,
    106,
    107,
    108,
    109,
    110,
    111,
    112,
    113,
    114,
    115,
    116,
    117,
    118,
    119,
    120,
    121,
    122,
    123,
    124,
    125,
    126,
    127,
    128,
    129,
    130,
    131,
    132,
    133,
    134,
    135,
    136,
    137,
    138,
    139,
    140,
    141,
    142,
    143,
    144,
    145,
    146,
    147,
    148,
    149,
    150,
    151,
    152,
    153,
    154,
    155,
    156,
    157,
    158,
    159,
    160,
    161,
    162,
    163,
    164,
    165,
    166,
    167,
    168,
    169,
    170,
    171,
    172,
    173,
    174,
    175,
    176,
    177,
    178,
    179,
    180,
    181,
    182,
    183,
    184,
    185,
    186,
    187,
    188,
    189,
    190,
    191,
    192,
    193,
    194,
    195,
    196,
    197,
    198,
    199,
    200,
    201,
    202,
    203,
    204,
    205,
    206,
    207,
    208,
    209,
    210,
    211,
    212,
    213,
    214,
    215,
    216,
    217,
    218,
    219,
    220,
    221,
    222,
    223,
    224,
    225,
    226,
    227,
    228,
    229,
    230,
    231,
    232,
    233,
    234,
    235,
    236,
    237,
    238,
    239,
    240,
    241,
    242,
    243,
    244,
    245,
    246,
    247,
    248,
    249,
    250,
    251,
    252,
    253,
    254,
    255,
    256
   ],
   "LargestImagePixelValue": [
    3222,
    3182,
    3194,
    3185,
    3200,
    3202,
    3250,
    3232,
    3221,
    3239,
    3250,
    3250,
    3221,
    3200,
    3169,
    3174,
    3195,
    3191,
    3172,
    3173,
    3175,
    3158,
    3190,
    3193,
    3180,
    3167,
    3170,
    3200,
    3170,
    3204,
    3137,
    3172,
    3174,
    3197,
    3207,
    3220,
    3220,
    3205,
    3182,
    3201,
    3194,
    3159,
    3128,
    3122,
    3155,
    3140,
    3140,
    3173,
    3152,
    3168,
    3102,
    3116,
    3099,
    3116,
    3122,
    3143,
    3135,
    3164,
    3214,
    3166,
    3159,
    3165,
    3133,
    3123,
    3127,
    3110,
    3162,
    3158,
    3140,
    3141,
    3120,
    3142,
    3057,
    3088,
    3098,
    3107,
    3074,
    3096,
    3117,
    3124,
    3134,
    3081,
    3139,
    3110,
    3127,
    3139,
    3127,
    3143,
    3099,
    3132,
    3139,
    3103,
    3140,
    3086,
    3056,
    3062,
    3046,
    3098,
    3094,
    3095,
    3065,
    3159,
    3121,
    3099,
    3063,
    3067,
    3077,
    3047,
    3043,
    3036,
    3077,
    3047,
    3082,
    3062,
    3074,
    3042,
    3087,
    3078,
    3096,
    3018,
    3080,
    3071,
    3090,
    3024,
    3040,
    3089,
    3075,
    3066,
    3047,
    3018,
    3020,
    3038,
    3056,
    3031,
    3034,
    3094,
    3075,
    3047,
    3062,
    3073,
    3072,
    3068,
    3089,
    3040,
    3044,
    3035,
    3072,
    3043,
    3045,
    3050,
    3024,
    3052,
    3056,
    3066,
    3044,
    3039,
    3061,
    3051,
    3020,
    3069,
    3051,
    3036,
    3093,
    3059,
    3054,
    3065,
    3094,
    3067,
    3060,
    3050,
    3098,
    3029,
    3053,
    3089,
    3090,
    3045,
    3004,
    3077,
    3053,
    3047,
    3047,
    3078,
    3310,
    3037,
    3086,
    3082,
    3096,
    3031,
    3092,
    3090,
    3044,
    3029,
    3094,
    3108,
    3098,
    3090,
    3094,
    3074,
    3092,
    3093,
    3072,
    3120,
    3096,
    3131,
    3091,
    3105,
    3094,
    3100,
    3060,
    3082,
    3100,
    3106,
    3073,
    3080,
    3090,
    3079,
    3033,
    3080,
    3077,
    3107,
    3083,
    3083,
    3072,
    3044,
    3107,
    3085,
    3013,
    3059,
    3089,
    3052,
    3038,
    3007,
    3016,
    3062,
    3047,
    3063,
    3075,
    3061,
    3056,
    3068,
    3087,
    3062,
    3046,
    3047,
    3082,
    3084,
    3094,
    3062,
    3099,
    3100,
    3094,
    3082,
    3051,
    3071,
    3069,
    3064
   ],
   "WindowCenter": [
    759.0,
    757.0,
    758.0,
    760.0,
    760.0,
    759.0,
    758.0,
    757.0,
    757.0,
    758.0,
    759.0,
    759.0,
    759.0,
    759.0,
    758.0,
    759.0,
    760.0,
    758.0,
    756.0,
    754.0,
    753.0,
    753.0,
    754.0,
    756.0,
    756.0,
    756.0,
    756.0,
    756.0,
    757.0,
    758.0,
    758.0,
    758.0,
    758.0,
    759.0,
    760.0,
    761.0,
    760.0,
    758.0,
    757.0,
    757.0,
    757.0,
    756.0,
    755.0,
    757.0,
    759.0,
    759.0,
    758.0,
    758.0,
    756.0,
    757.0,
    757.0,
    756.0,
    757.0,
    759.0,
    760.0,
    758.0,
    757.0,
    757.0,
    758.0,
    757.0,
    758.0,
    758.0,
    757.0,
    755.0,
    755.0,
    756.0,
    757.0,
    757.0,
    756.0,
    757.0,
    758.0,
    759.0,
    758.0,
    757.0,
    757.0,
    758.0,
    758.0,
    757.0,
    758.0,
    758.0,
    757.0,
    757.0,
    757.0,
    758.0,
    758.0,
    757.0,
    756.0,
    756.0,
    756.0,
    757.0,
    758.0,
    758.0,
    758.0,
    758.0,
    756.0,
    757.0,
    758.0,
    758.0,
    757.0,
    756.0,
    756.0,
    757.0,
    756.0,
    757.0,
    754.0,
    757.0,
    759.0,
    759.0,
    756.0,
    755.0,
