{
 "AcquisitionMatrixPE": 100,
 "AcquisitionNumber": 1,
 "AcquisitionTime": "14:11:22.265000",
 "BandwidthPerPixelPhaseEncode": 18.519,
 "BaseResolution": 100,
 "BodyPartExamined": "BRAIN",
 "ConsistencyInfo": "N4_VE11C_LATEST_20160120",
 "ConversionSoftware": "dcm2niix",
 "ConversionSoftwareVersion": "v1.0.20180622 GCC4.9.2",
 "DerivedVendorReportedEchoSpacing": 0.000539986,
 "DeviceSerialNumber": "166078",
 "DwellTime": 2.1e-06,
 "EchoTime": 0.034,
 "EchoTrainLength": 100,
 "EffectiveEchoSpacing": 0.000539986,
 "FlipAngle": 90,
 "ImageOrientationPatientDICOM": [
  0.995766,
  0.0765874,
  0.0508459,
  -0.0731245,
  0.995084,
  -0.0667914
 ],
 "ImageType": [
  "ORIGINAL",
  "PRIMARY",
  "M",
  "ND",
  "MOSAIC"
 ],
 "InPlanePhaseEncodingDirectionDICOM": "COL",
 "InstitutionAddress": "Street_StreetNo_Bei_Jing_District_CN_ZIP",
 "InstitutionName": "BeiJing_Normal_University",
 "InstitutionalDepartmentName": "Department",
 "MRAcquisitionType": "2D",
 "MagneticFieldStrength": 3,
 "Manufacturer": "Siemens",
 "ManufacturersModelName": "Prisma",
 "Modality": "MR",
 "MultibandAccelerationFactor": 3,
 "PartialFourier": 1,
 "PatientPosition": "HFS",
 "PercentPhaseFOV": 100,
 "PhaseEncodingDirection": "j-",
 "PhaseEncodingSteps": 100,
 "PhaseResolution": 1,
 "PixelBandwidth": 2380,
 "ProcedureStepDescription": "BNU_P2018_64CH_Zhen.ZongLei",
 "ProtocolName": "bold_100x100_s3_2x2x2_static_256",
 "PulseSequenceDetails": "%SiemensSeq%_ep2d_bold",
 "ReceiveCoilActiveElements": "HC1-7;NC1",
 "ReceiveCoilName": "HeadNeck_64",
 "ReconMatrixPE": 100,
 "RepetitionTime": 2,
 "SAR": 0.0713994,
 "ScanOptions": "FS",
 "ScanningSequence": "EP",
 "SequenceName": "_epfid2d1_100",
 "SequenceVariant": "SK",
 "SeriesDescription": "bold_100x100_s3_2x2x2_static_256",
 "SeriesNumber": 14,
 "ShimSetting": [
  -5432,
  -11539,
  -1231,
  343,
  -89,
  -397,
  -65,
  3
 ],
 "SliceThickness": 2,
 "SliceTiming": [
  1.485,
  0,
  0.99,
  0.0825,
  1.0725,
  0.165,
  1.155,
  0.2475,
  1.2375,
  0.33,
  1.32,
  0.4125,
  1.4025,
  0.5775,
  1.5675,
  0.66,
  1.65,
  0.7425,
  1.7325,
  0.825,
  1.815,
  0.9075,
  1.8975,
  0.495,
  1.485,
  0,
  0.99,
  0.0825,
  1.0725,
  0.165,
  1.155,
  0.2475,
  1.2375,
  0.33,
  1.32,
  0.4125,
  1.4025,
  0.5775,
  1.5675,
  0.66,
  1.65,
  0.7425,
  1.7325,
  0.825,
  1.815,
  0.9075,
  1.8975,
  0.495,
  1.485,
  0,
  0.99,
  0.0825,
  1.0725,
  0.165,
  1.155,
  0.2475,
  1.2375,
  0.33,
  1.32,
  0.4125,
  1.4025,
  0.5775,
  1.5675,
  0.66,
  1.65,
  0.7425,
  1.7325,
  0.825,
  1.815,
  0.9075,
  1.8975,
  0.495
 ],
 "SoftwareVersions": "syngo_MR_E11",
 "SpacingBetweenSlices": 2,
 "StationName": "AWP166078",
 "TaskName": "imagenet",
 "TotalReadoutTime": 0.0534586,
 "TxRefAmp": 214.632,
 "dcmmeta_affine": [
  [
   -1.9915311336517334,
   -0.14624890685081482,
   0.11142270267009735,
   101.42375183105469
  ],
  [
   -0.15317481756210327,
   1.990167498588562,
   -0.1255810409784317,
   -84.0794448852539
  ],
  [
   0.10169187933206558,
   0.13358284533023834,
   1.99294114112854,
   -72.5851821899414
  ],
  [
   0.0,
   0.0,
   0.0,
   1.0
  ]
 ],
 "dcmmeta_reorient_transform": [
  [
   0.0,
   -1.0,
   0.0,
   99.0
  ],
  [
   1.0,
   0.0,
   0.0,
   0.0
  ],
  [
   0.0,
   0.0,
   1.0,
   0.0
  ],
  [
   0.0,
   0.0,
   0.0,
   1.0
  ]
 ],
 "dcmmeta_shape": [
  100,
  100,
  72,
  256
 ],
 "dcmmeta_slice_dim": 2,
 "dcmmeta_version": 0.6,
 "global": {
  "const": {
   "AcquisitionMatrix": [
    100,
    0,
    0,
    100
   ],
   "AngioFlag": "N",
   "BitsAllocated": 16,
   "BitsStored": 12,
   "BodyPartExamined": "BRAIN",
   "Columns": 900,
   "EchoNumbers": 1,
   "EchoTime": 34.0,
   "EchoTrainLength": 100,
   "FlipAngle": 90.0,
   "HighBit": 11,
   "ImageOrientationPatient": [
    0.99576556457761,
    0.07658740535927,
    0.05084594125165,
    -0.0731244524102,
    0.9950837754182,
    -0.0667914242937
   ],
   "ImagePositionPatient": [
    -825.05800166024,
    -970.28408579771,
    -46.604089981412
   ],
   "ImageType": [
    "ORIGINAL",
    "PRIMARY",
    "M",
    "ND",
    "MOSAIC"
   ],
   "ImagedNucleus": "1H",
   "ImagingFrequency": 123.257713,
   "InPlanePhaseEncodingDirection": "COL",
   "MRAcquisitionType": "2D",
   "MagneticFieldStrength": 3.0,
   "Manufacturer": "SIEMENS",
   "ManufacturerModelName": "Prisma",
   "Modality": "MR",
   "NumberOfAverages": 1.0,
   "NumberOfPhaseEncodingSteps": 100,
   "PercentPhaseFieldOfView": 100.0,
   "PercentSampling": 100.0,
   "PerformedProcedureStepStartTime": "130145.255000",
   "PhotometricInterpretation": "MONOCHROME2",
   "PixelBandwidth": 2380.0,
   "PixelRepresentation": 0,
   "PixelSpacing": [
    2.0,
    2.0
   ],
   "ProtocolName": "bold_100x100_s3_2x2x2_static_256",
   "RepetitionTime": 2000.0,
   "Rows": 900,
   "SAR": 0.07139939247102,
   "SamplesPerPixel": 1,
   "ScanOptions": "FS",
   "ScanningSequence": "EP",
   "SequenceName": "*epfid2d1_100",
   "SequenceVariant": "SK",
   "SeriesDescription": "bold_100x100_s3_2x2x2_static_256",
   "SeriesNumber": 14,
   "SeriesTime": "141124.941000",
   "SliceLocation": -61.399147492397,
   "SliceThickness": 2.0,
   "SmallestImagePixelValue": 0,
   "SoftwareVersions": "syngo MR E11",
   "SpacingBetweenSlices": 1.9999999520454,
   "SpecificCharacterSet": "ISO_IR 100",
   "StudyID": "1",
   "StudyTime": "130145.187000",
   "TransmitCoilName": "Body",
   "VariableFlipAngleFlag": "N",
   "WindowCenter": 758.0,
   "WindowCenterWidthExplanation": "WINDOW1",
   "WindowWidth": 1600.0,
   "dBdt": 0.0
  },
  "slices": {}
 },
 "time": {
  "samples": {
   "AcquisitionNumber": [
    1,
    2,
    3,
    4,
    5,
    6,
    7,
    8,
    9,
    10,
    11,
    12,
    13,
    14,
    15,
    16,
    17,
    18,
    19,
    20,
    21,
    22,
    23,
    24,
    25,
    26,
    27,
    28,
    29,
    30,
    31,
    32,
    33,
    34,
    35,
    36,
    37,
    38,
    39,
    40,
    41,
    42,
    43,
    44,
    45,
    46,
    47,
    48,
    49,
    50,
    51,
    52,
    53,
    54,
    55,
    56,
    57,
    58,
    59,
    60,
    61,
    62,
    63,
    64,
    65,
    66,
    67,
    68,
    69,
    70,
    71,
    72,
    73,
    74,
    75,
    76,
    77,
    78,
    79,
    80,
    81,
    82,
    83,
    84,
    85,
    86,
    87,
    88,
    89,
    90,
    91,
    92,
    93,
    94,
    95,
    96,
    97,
    98,
    99,
    100,
    101,
    102,
    103,
    104,
    105,
    106,
    107,
    108,
    109,
    110,
    111,
    112,
    113,
    114,
    115,
    116,
    117,
    118,
    119,
    120,
    121,
    122,
    123,
    124,
    125,
    126,
    127,
    128,
    129,
    130,
    131,
    132,
    133,
    134,
    135,
    136,
    137,
    138,
    139,
    140,
    141,
    142,
    143,
    144,
    145,
    146,
    147,
    148,
    149,
    150,
    151,
    152,
    153,
    154,
    155,
    156,
    157,
    158,
    159,
    160,
    161,
    162,
    163,
    164,
    165,
    166,
    167,
    168,
    169,
    170,
    171,
    172,
    173,
    174,
    175,
    176,
    177,
    178,
    179,
    180,
    181,
    182,
    183,
    184,
    185,
    186,
    187,
    188,
    189,
    190,
    191,
    192,
    193,
    194,
    195,
    196,
    197,
    198,
    199,
    200,
    201,
    202,
    203,
    204,
    205,
    206,
    207,
    208,
    209,
    210,
    211,
    212,
    213,
    214,
    215,
    216,
    217,
    218,
    219,
    220,
    221,
    222,
    223,
    224,
    225,
    226,
    227,
    228,
    229,
    230,
    231,
    232,
    233,
    234,
    235,
    236,
    237,
    238,
    239,
    240,
    241,
    242,
    243,
    244,
    245,
    246,
    247,
    248,
    249,
    250,
    251,
    252,
    253,
    254,
    255,
    256
   ],
   "AcquisitionTime": [
    "141122.265000",
    "141124.265000",
    "141126.265000",
    "141128.265000",
    "141130.265000",
    "141132.265000",
    "141134.265000",
    "141136.265000",
    "141138.265000",
    "141140.265000",
    "141142.265000",
    "141144.265000",
    "141146.265000",
    "141148.265000",
    "141150.265000",
    "141152.265000",
    "141154.265000",
    "141156.265000",
    "141158.265000",
    "141200.265000",
    "141202.265000",
    "141204.265000",
    "141206.265000",
    "141208.265000",
    "141210.265000",
    "141212.265000",
    "141214.265000",
    "141216.265000",
    "141218.265000",
    "141220.265000",
    "141222.265000",
    "141224.265000",
    "141226.265000",
    "141228.265000",
    "141230.265000",
    "141232.265000",
    "141234.265000",
    "141236.265000",
    "141238.265000",
    "141240.265000",
    "141242.265000",
    "141244.265000",
    "141246.265000",
    "141248.265000",
    "141250.265000",
    "141252.265000",
    "141254.265000",
    "141256.265000",
    "141258.265000",
    "141300.265000",
    "141302.265000",
    "141304.265000",
    "141306.265000",
    "141308.265000",
    "141310.265000",
    "141312.265000",
    "141314.265000",
    "141316.265000",
    "141318.265000",
    "141320.265000",
    "141322.265000",
    "141324.265000",
    "141326.265000",
    "141328.265000",
    "141330.265000",
    "141332.265000",
    "141334.265000",
    "141336.265000",
    "141338.265000",
    "141340.265000",
    "141342.265000",
    "141344.265000",
    "141346.265000",
    "141348.265000",
    "141350.265000",
    "141352.265000",
    "141354.265000",
    "141356.265000",
    "141358.265000",
    "141400.265000",
    "141402.265000",
    "141404.265000",
    "141406.265000",
    "141408.265000",
    "141410.265000",
    "141412.265000",
    "141414.265000",
    "141416.265000",
    "141418.265000",
    "141420.265000",
    "141422.265000",
    "141424.265000",
    "141426.265000",
    "141428.265000",
    "141430.265000",
    "141432.265000",
    "141434.265000",
    "141436.265000",
    "141438.265000",
    "141440.265000",
    "141442.265000",
    "141444.265000",
    "141446.265000",
    "141448.265000",
    "141450.265000",
    "141452.265000",
    "141454.265000",
    "141456.265000",
    "141458.265000",
    "141500.265000",
    "141502.265000",
    "141504.265000",
    "141506.265000",
    "141508.265000",
    "141510.265000",
    "141512.265000",
    "141514.265000",
    "141516.265000",
    "141518.265000",
    "141520.265000",
    "141522.265000",
    "141524.265000",
    "141526.265000",
    "141528.265000",
    "141530.265000",
    "141532.265000",
    "141534.265000",
    "141536.265000",
    "141538.265000",
    "141540.265000",
    "141542.265000",
    "141544.265000",
    "141546.265000",
    "141548.265000",
    "141550.265000",
    "141552.265000",
    "141554.265000",
    "141556.265000",
    "141558.265000",
    "141600.265000",
    "141602.265000",
    "141604.265000",
    "141606.265000",
    "141608.265000",
    "141610.265000",
    "141612.265000",
    "141614.265000",
    "141616.265000",
    "141618.265000",
    "141620.265000",
    "141622.265000",
    "141624.265000",
    "141626.265000",
    "141628.265000",
    "141630.265000",
    "141632.265000",
    "141634.265000",
    "141636.265000",
    "141638.265000",
    "141640.265000",
    "141642.265000",
    "141644.265000",
    "141646.265000",
    "141648.265000",
    "141650.265000",
    "141652.265000",
    "141654.265000",
    "141656.265000",
    "141658.265000",
    "141700.265000",
    "141702.265000",
    "141704.265000",
    "141706.265000",
    "141708.265000",
    "141710.265000",
    "141712.265000",
    "141714.265000",
    "141716.265000",
    "141718.265000",
    "141720.265000",
    "141722.265000",
    "141724.265000",
    "141726.265000",
    "141728.265000",
    "141730.265000",
    "141732.265000",
    "141734.265000",
    "141736.265000",
    "141738.265000",
    "141740.265000",
    "141742.265000",
    "141744.265000",
    "141746.265000",
    "141748.265000",
    "141750.265000",
    "141752.265000",
    "141754.265000",
    "141756.265000",
    "141758.265000",
    "141800.265000",
    "141802.265000",
    "141804.265000",
    "141806.265000",
    "141808.265000",
    "141810.265000",
    "141812.265000",
    "141814.265000",
    "141816.265000",
    "141818.265000",
    "141820.265000",
    "141822.265000",
    "141824.265000",
    "141826.265000",
    "141828.265000",
    "141830.265000",
    "141832.265000",
    "141834.265000",
    "141836.265000",
    "141838.265000",
    "141840.265000",
    "141842.265000",
    "141844.265000",
    "141846.265000",
    "141848.265000",
    "141850.265000",
    "141852.265000",
    "141854.265000",
    "141856.265000",
    "141858.265000",
    "141900.265000",
    "141902.265000",
    "141904.265000",
    "141906.265000",
    "141908.265000",
    "141910.265000",
    "141912.265000",
    "141914.265000",
    "141916.265000",
    "141918.265000",
    "141920.265000",
    "141922.265000",
    "141924.265000",
    "141926.265000",
    "141928.265000",
    "141930.265000",
    "141932.265000",
    "141934.265000",
    "141936.265000",
    "141938.265000",
    "141940.265000",
    "141942.265000",
    "141944.265000",
    "141946.265000",
    "141948.265000",
    "141950.265000",
    "141952.265000"
   ],
   "ContentTime": [
    "141124.944000",
    "141126.440000",
    "141128.440000",
    "141130.440000",
    "141132.440000",
    "141134.441000",
    "141136.440000",
    "141138.440000",
    "141140.440000",
    "141142.440000",
    "141144.440000",
    "141146.440000",
    "141148.439000",
    "141150.440000",
    "141152.440000",
    "141154.440000",
    "141156.439000",
    "141158.439000",
    "141200.439000",
    "141202.439000",
    "141204.439000",
    "141206.440000",
    "141208.441000",
    "141210.440000",
    "141212.439000",
    "141214.439000",
    "141216.439000",
    "141218.439000",
    "141220.440000",
    "141222.440000",
    "141224.441000",
    "141226.440000",
    "141228.440000",
    "141230.440000",
    "141232.440000",
    "141234.440000",
    "141236.439000",
    "141238.439000",
    "141240.439000",
    "141242.441000",
    "141244.441000",
    "141246.440000",
    "141248.440000",
    "141250.440000",
    "141252.440000",
    "141254.439000",
    "141256.439000",
    "141258.440000",
    "141300.440000",
    "141302.440000",
    "141304.440000",
    "141306.440000",
    "141308.440000",
    "141310.440000",
    "141312.440000",
    "141314.440000",
    "141316.441000",
    "141318.441000",
    "141320.441000",
    "141322.439000",
    "141324.440000",
    "141326.440000",
    "141328.439000",
    "141330.440000",
    "141332.440000",
    "141334.440000",
    "141336.440000",
    "141338.440000",
    "141340.439000",
    "141342.440000",
    "141344.440000",
    "141346.440000",
    "141348.440000",
    "141350.440000",
    "141352.440000",
    "141354.440000",
    "141356.439000",
    "141358.440000",
    "141400.439000",
    "141402.440000",
    "141404.439000",
    "141406.440000",
    "141408.441000",
    "141410.440000",
    "141412.440000",
    "141414.440000",
    "141416.439000",
    "141418.440000",
    "141420.440000",
    "141422.440000",
    "141424.440000",
    "141426.441000",
    "141428.441000",
    "141430.440000",
    "141432.439000",
    "141434.439000",
    "141436.439000",
    "141438.439000",
    "141440.439000",
    "141442.439000",
    "141444.440000",
    "141446.441000",
    "141448.440000",
    "141450.440000",
    "141452.440000",
    "141454.439000",
    "141456.440000",
    "141458.440000",
    "141500.439000",
    "141502.441000",
    "141504.440000",
    "141506.440000",
    "141508.440000",
    "141510.440000",
    "141512.439000",
    "141514.440000",
    "141516.440000",
    "141518.441000",
    "141520.440000",
    "141522.440000",
    "141524.439000",
    "141526.440000",
    "141528.440000",
    "141530.439000",
    "141532.440000",
    "141534.440000",
    "141536.441000",
    "141538.441000",
    "141540.440000",
    "141542.439000",
    "141544.439000",
    "141546.440000",
    "141548.440000",
    "141550.440000",
    "141552.440000",
    "141554.441000",
    "141556.441000",
    "141558.441000",
    "141600.440000",
    "141602.439000",
    "141604.439000",
    "141606.439000",
    "141608.439000",
    "141610.439000",
    "141612.440000",
    "141614.441000",
    "141616.440000",
    "141618.440000",
    "141620.440000",
    "141622.440000",
    "141624.440000",
    "141626.439000",
    "141628.441000",
    "141630.441000",
    "141632.441000",
    "141634.439000",
    "141636.440000",
    "141638.440000",
    "141640.439000",
    "141642.440000",
    "141644.439000",
    "141646.440000",
    "141648.441000",
    "141650.441000",
    "141652.440000",
    "141654.450000",
    "141656.439000",
    "141658.439000",
    "141700.440000",
    "141702.440000",
    "141704.440000",
    "141706.441000",
    "141708.441000",
    "141710.439000",
    "141712.439000",
    "141714.440000",
    "141716.439000",
    "141718.440000",
    "141720.440000",
    "141722.441000",
    "141724.440000",
    "141726.439000",
    "141728.440000",
    "141730.439000",
    "141732.440000",
    "141734.440000",
    "141736.440000",
    "141738.441000",
    "141740.440000",
    "141742.441000",
    "141744.439000",
    "141746.439000",
    "141748.439000",
    "141750.439000",
    "141752.439000",
    "141754.439000",
    "141756.440000",
    "141758.440000",
    "141800.441000",
    "141802.440000",
    "141804.440000",
    "141806.440000",
    "141808.440000",
    "141810.440000",
    "141812.440000",
    "141814.441000",
    "141816.441000",
    "141818.441000",
    "141820.440000",
    "141822.440000",
    "141824.440000",
    "141826.440000",
    "141828.440000",
    "141830.440000",
    "141832.440000",
    "141834.440000",
    "141836.439000",
    "141838.439000",
    "141840.440000",
    "141842.440000",
    "141844.440000",
    "141846.440000",
    "141848.440000",
    "141850.441000",
    "141852.441000",
    "141854.439000",
    "141856.439000",
    "141858.439000",
    "141900.440000",
    "141902.439000",
    "141904.440000",
    "141906.440000",
    "141908.441000",
    "141910.441000",
    "141912.440000",
    "141914.440000",
    "141916.439000",
    "141918.440000",
    "141920.439000",
    "141922.440000",
    "141924.440000",
    "141926.441000",
    "141928.439000",
    "141930.440000",
    "141932.440000",
    "141934.440000",
    "141936.440000",
    "141938.440000",
    "141940.440000",
    "141942.441000",
    "141944.441000",
    "141946.440000",
    "141948.440000",
    "141950.440000",
    "141952.439000",
    "141954.186000"
   ],
   "InstanceCreationTime": [
    "141124.944000",
    "141126.440000",
    "141128.440000",
    "141130.440000",
    "141132.440000",
    "141134.441000",
    "141136.440000",
    "141138.440000",
    "141140.440000",
    "141142.440000",
    "141144.440000",
    "141146.440000",
    "141148.439000",
    "141150.440000",
    "141152.440000",
    "141154.440000",
    "141156.439000",
    "141158.439000",
    "141200.439000",
    "141202.439000",
    "141204.439000",
    "141206.440000",
    "141208.441000",
    "141210.440000",
    "141212.439000",
    "141214.439000",
    "141216.439000",
    "141218.439000",
    "141220.440000",
    "141222.440000",
    "141224.441000",
    "141226.440000",
    "141228.440000",
    "141230.440000",
    "141232.440000",
    "141234.440000",
    "141236.439000",
    "141238.439000",
    "141240.439000",
    "141242.441000",
    "141244.441000",
    "141246.440000",
    "141248.440000",
    "141250.440000",
    "141252.440000",
    "141254.439000",
    "141256.439000",
    "141258.440000",
    "141300.440000",
    "141302.440000",
    "141304.440000",
    "141306.440000",
    "141308.440000",
    "141310.440000",
    "141312.440000",
    "141314.440000",
    "141316.441000",
    "141318.441000",
    "141320.441000",
    "141322.439000",
    "141324.440000",
    "141326.440000",
    "141328.439000",
    "141330.440000",
    "141332.440000",
    "141334.440000",
    "141336.440000",
    "141338.440000",
    "141340.439000",
    "141342.440000",
    "141344.440000",
    "141346.440000",
    "141348.440000",
    "141350.440000",
    "141352.440000",
    "141354.440000",
    "141356.439000",
    "141358.440000",
    "141400.439000",
    "141402.440000",
    "141404.439000",
    "141406.440000",
    "141408.441000",
    "141410.440000",
    "141412.440000",
    "141414.440000",
    "141416.439000",
    "141418.440000",
    "141420.440000",
    "141422.440000",
    "141424.440000",
    "141426.441000",
    "141428.441000",
    "141430.440000",
    "141432.439000",
    "141434.439000",
    "141436.439000",
    "141438.439000",
    "141440.439000",
    "141442.439000",
    "141444.440000",
    "141446.441000",
    "141448.440000",
    "141450.440000",
    "141452.440000",
    "141454.439000",
    "141456.440000",
    "141458.440000",
    "141500.439000",
    "141502.441000",
    "141504.440000",
    "141506.440000",
    "141508.440000",
    "141510.440000",
    "141512.439000",
    "141514.440000",
    "141516.440000",
    "141518.441000",
    "141520.440000",
    "141522.440000",
    "141524.439000",
    "141526.440000",
    "141528.440000",
    "141530.439000",
    "141532.440000",
    "141534.440000",
    "141536.441000",
    "141538.441000",
    "141540.440000",
    "141542.439000",
    "141544.439000",
    "141546.440000",
    "141548.440000",
    "141550.440000",
    "141552.440000",
    "141554.441000",
    "141556.441000",
    "141558.441000",
    "141600.440000",
    "141602.439000",
    "141604.439000",
    "141606.439000",
    "141608.439000",
    "141610.439000",
    "141612.440000",
    "141614.441000",
    "141616.440000",
    "141618.440000",
    "141620.440000",
    "141622.440000",
    "141624.440000",
    "141626.439000",
    "141628.441000",
    "141630.441000",
    "141632.441000",
    "141634.439000",
    "141636.440000",
    "141638.440000",
    "141640.439000",
    "141642.440000",
    "141644.439000",
    "141646.440000",
    "141648.441000",
    "141650.441000",
    "141652.440000",
    "141654.450000",
    "141656.439000",
    "141658.439000",
    "141700.440000",
    "141702.440000",
    "141704.440000",
    "141706.441000",
    "141708.441000",
    "141710.439000",
    "141712.439000",
    "141714.440000",
    "141716.439000",
    "141718.440000",
    "141720.440000",
    "141722.441000",
    "141724.440000",
    "141726.439000",
    "141728.440000",
    "141730.439000",
    "141732.440000",
    "141734.440000",
    "141736.440000",
    "141738.441000",
    "141740.440000",
    "141742.441000",
    "141744.439000",
    "141746.439000",
    "141748.439000",
    "141750.439000",
    "141752.439000",
    "141754.439000",
    "141756.440000",
    "141758.440000",
    "141800.441000",
    "141802.440000",
    "141804.440000",
    "141806.440000",
    "141808.440000",
    "141810.440000",
    "141812.440000",
    "141814.441000",
    "141816.441000",
    "141818.441000",
    "141820.440000",
    "141822.440000",
    "141824.440000",
    "141826.440000",
    "141828.440000",
    "141830.440000",
    "141832.440000",
    "141834.440000",
    "141836.439000",
    "141838.439000",
    "141840.440000",
    "141842.440000",
    "141844.440000",
    "141846.440000",
    "141848.440000",
    "141850.441000",
    "141852.441000",
    "141854.439000",
    "141856.439000",
    "141858.439000",
    "141900.440000",
    "141902.439000",
    "141904.440000",
    "141906.440000",
    "141908.441000",
    "141910.441000",
    "141912.440000",
    "141914.440000",
    "141916.439000",
    "141918.440000",
    "141920.439000",
    "141922.440000",
    "141924.440000",
    "141926.441000",
    "141928.439000",
    "141930.440000",
    "141932.440000",
    "141934.440000",
    "141936.440000",
    "141938.440000",
    "141940.440000",
    "141942.441000",
    "141944.441000",
    "141946.440000",
    "141948.440000",
    "141950.440000",
    "141952.439000",
    "141954.186000"
   ],
   "InstanceNumber": [
    1,
    2,
    3,
    4,
    5,
    6,
    7,
    8,
    9,
    10,
    11,
    12,
    13,
    14,
    15,
    16,
    17,
    18,
    19,
    20,
    21,
    22,
    23,
    24,
    25,
    26,
    27,
    28,
    29,
    30,
    31,
    32,
    33,
    34,
    35,
    36,
    37,
    38,
    39,
    40,
    41,
    42,
    43,
    44,
    45,
    46,
    47,
    48,
    49,
    50,
    51,
    52,
    53,
    54,
    55,
    56,
    57,
    58,
    59,
    60,
    61,
    62,
    63,
    64,
    65,
    66,
    67,
    68,
    69,
    70,
    71,
    72,
    73,
    74,
    75,
    76,
    77,
    78,
    79,
    80,
    81,
    82,
    83,
    84,
    85,
    86,
    87,
    88,
    89,
    90,
    91,
    92,
    93,
    94,
    95,
    96,
    97,
    98,
    99,
    100,
    101,
    102,
    103,
    104,
    105,
    106,
    107,
    108,
    109,
    110,
    111,
    112,
    113,
    114,
    115,
    116,
    117,
    118,
    119,
    120,
    121,
    122,
    123,
    124,
    125,
    126,
    127,
    128,
    129,
    130,
    131,
    132,
    133,
    134,
    135,
    136,
    137,
    138,
    139,
    140,
    141,
    142,
    143,
    144,
    145,
    146,
    147,
    148,
    149,
    150,
    151,
    152,
    153,
    154,
    155,
    156,
    157,
    158,
    159,
    160,
    161,
    162,
    163,
    164,
    165,
    166,
    167,
    168,
    169,
    170,
    171,
    172,
    173,
    174,
    175,
    176,
    177,
    178,
    179,
    180,
    181,
    182,
    183,
    184,
    185,
    186,
    187,
    188,
    189,
    190,
    191,
    192,
    193,
    194,
    195,
    196,
    197,
    198,
    199,
    200,
    201,
    202,
    203,
    204,
    205,
    206,
    207,
    208,
    209,
    210,
    211,
    212,
    213,
    214,
    215,
    216,
    217,
    218,
    219,
    220,
    221,
    222,
    223,
    224,
    225,
    226,
    227,
    228,
    229,
    230,
    231,
    232,
    233,
    234,
    235,
    236,
    237,
    238,
    239,
    240,
    241,
    242,
    243,
    244,
    245,
    246,
    247,
    248,
    249,
    250,
    251,
    252,
    253,
    254,
    255,
    256
   ],
   "LargestImagePixelValue": [
    2995,
    2889,
    2934,
    2892,
    2881,
    2884,
    2844,
    2859,
    2855,
    2850,
    2873,
    2864,
    2923,
    2885,
    2899,
    2905,
    2939,
    2883,
    2876,
    2877,
    2907,
    2901,
    2893,
    2918,
    2898,
    2936,
    2925,
    2928,
    2901,
    2900,
    2935,
    2964,
    2933,
    2923,
    2917,
    2917,
    2916,
    2931,
    2915,
    2904,
    2909,
    2939,
    2918,
    2938,
    2894,
    2888,
    2912,
    2941,
    2963,
    2943,
    2968,
    2889,
    2944,
    2931,
    2961,
    2947,
    2944,
    2926,
    2953,
    2946,
    2951,
    2918,
    2957,
    2941,
    2937,
    2956,
    2940,
    2941,
    2954,
    2941,
    2942,
    2930,
    2926,
    2932,
    2943,
    2868,
    2910,
    2932,
    2930,
    2894,
    2964,
    2934,
    2927,
    2948,
    2932,
    2930,
    2928,
    2912,
    2922,
    2949,
    2881,
    2975,
    2928,
    3010,
    2991,
    2992,
    2867,
    2877,
    2916,
    2927,
    2967,
    2960,
    2975,
    2954,
    2956,
    2949,
    2893,
    2935,
    2908,
    2957,
    2945,
    2963,
    2936,
    2879,
    2922,
    2917,
    2919,
    2969,
    2945,
    2909,
    2938,
    2925,
    2936,
    2921,
    2948,
    2937,
    2973,
    2962,
    2901,
    2928,
    2909,
    2978,
    2877,
    2834,
    2911,
    2921,
    2928,
    2961,
    2951,
    2942,
    2970,
    2957,
    2951,
    2888,
    2890,
    2933,
    2935,
    2947,
    2988,
    2979,
    2932,
    2951,
    2875,
    2915,
    2942,
    2937,
    2962,
    2928,
    2916,
    2935,
    2877,
    2887,
    2873,
    2873,
    2876,
    2918,
    2925,
    2952,
    2920,
    2897,
    2949,
    2859,
    2905,
    2909,
    2899,
    2935,
    2923,
    2940,
    2958,
    2943,
    2938,
    2926,
    2935,
    2940,
    2926,
    2900,
    2923,
    2940,
    2925,
    2977,
    2949,
    2933,
    2922,
    2899,
    2904,
    2912,
    2922,
    2946,
    2975,
    2947,
    2920,
    2931,
    2933,
    2958,
    2968,
    2971,
    2958,
    2931,
    2944,
    2946,
    2929,
    2992,
    3097,
    2903,
    2987,
    3006,
    2963,
    2937,
    2933,
    2925,
    2895,
    2880,
    2880,
    2902,
    2900,
    2920,
    2855,
    2882,
    2918,
    2858,
    2890,
    3026,
    2917,
    3016,
    2899,
    2894,
    2915,
    2914,
    2939,
    2897,
    2914,
    2877,
    2873,
    2903,
    2902,
    3046,
    2874,
    2840,
    2881,
    2906,
    2848,
    2868,
    2874,
    2877,
    2917,
    2883
   ]
  },
  "slices": {}
 }
}