{
  "AcquisitionMatrixPE": 100,
  "AcquisitionNumber": 1,
  "AcquisitionTime": "16:21:22.865000",
  "BandwidthPerPixelPhaseEncode": 18.519,
  "BaseResolution": 100,
  "BodyPartExamined": "BRAIN",
  "ConsistencyInfo": "N4_VE11C_LATEST_20160120",
  "ConversionSoftware": "dcm2niix",
  "ConversionSoftwareVersion": "v1.0.20180622 GCC4.9.2",
  "DerivedVendorReportedEchoSpacing": 0.000539986,
  "DeviceSerialNumber": "166078",
  "DwellTime": 2.1e-06,
  "EchoTime": 0.034,
  "EchoTrainLength": 100,
  "EffectiveEchoSpacing": 0.000539986,
  "FlipAngle": 90,
  "ImageOrientationPatientDICOM": [1, 0, 0, 0, 0.964095, -0.265556],
  "ImageType": [
    "ORIGINAL",
    "PRIMARY",
    "M",
    "ND",
    "MOSAIC"
],
  "InPlanePhaseEncodingDirectionDICOM": "COL",
  "InstitutionAddress": "Street_StreetNo_Bei_Jing_District_CN_ZIP",
  "InstitutionName": "BeiJing_Normal_University",
  "InstitutionalDepartmentName": "Department",
  "MRAcquisitionType": "2D",
  "MagneticFieldStrength": 3,
  "Manufacturer": "Siemens",
  "ManufacturersModelName": "Prisma",
  "Modality": "MR",
  "MultibandAccelerationFactor": 3,
  "PartialFourier": 1,
  "PatientPosition": "HFS",
  "PercentPhaseFOV": 100,
  "PhaseEncodingDirection": "j-",
  "PhaseEncodingSteps": 100,
  "PhaseResolution": 1,
  "PixelBandwidth": 2380,
  "ProcedureStepDescription": "BNU_P2018_64CH_Zhen.ZongLei",
  "ProtocolName": "bold_100x100_s3_2x2x2_cat_150",
  "PulseSequenceDetails": "%SiemensSeq%_ep2d_bold",
  "ReceiveCoilActiveElements": "HC1-7;NC1",
  "ReceiveCoilName": "HeadNeck_64",
  "ReconMatrixPE": 100,
  "RepetitionTime": 2,
  "SAR": 0.0639597,
  "ScanOptions": "FS",
  "ScanningSequence": "EP",
  "SequenceName": "_epfid2d1_100",
  "SequenceVariant": "SK",
  "SeriesDescription": "bold_100x100_s3_2x2x2_cat_150",
  "SeriesNumber": 13,
  "ShimSetting": [-5459, -11476, -1279, 418, -9, -332, -271, 50],
  "SliceThickness": 2,
  "SliceTiming": [1.485, 0, 0.99, 0.0825, 1.0725, 0.165, 1.155, 0.2475, 1.2375, 0.33, 1.32, 0.4125, 1.4025, 0.5775, 1.5675, 0.66, 1.65, 0.7425, 1.7325, 0.825, 1.815, 0.9075, 1.8975, 0.495, 1.485, 0, 0.99, 0.0825, 1.0725, 0.165, 1.155, 0.2475, 1.2375, 0.33, 1.32, 0.4125, 1.4025, 0.5775, 1.5675, 0.66, 1.65, 0.7425, 1.7325, 0.825, 1.815, 0.9075, 1.8975, 0.495, 1.485, 0, 0.99, 0.0825, 1.0725, 0.165, 1.155, 0.2475, 1.2375, 0.33, 1.32, 0.4125, 1.4025, 0.5775, 1.5675, 0.66, 1.65, 0.7425, 1.7325, 0.825, 1.815, 0.9075, 1.8975, 0.495],
  "SoftwareVersions": "syngo_MR_E11",
  "SpacingBetweenSlices": 2,
  "StationName": "AWP166078",
  "TaskName": "category",
  "TotalReadoutTime": 0.0534586,
  "TxRefAmp": 209.31,
  "dcmmeta_affine": [
    [-2.0, 0.0, 0.0, 102.02409362792969],
    [0.0, 1.92819082736969, -0.5311122536659241, -76.749755859375],
    [0.0, 0.5311122536659241, 1.92819082736969, -98.02226257324219],
    [0.0, 0.0, 0.0, 1.0]
],
  "dcmmeta_reorient_transform": [
    [0.0, -1.0, 0.0, 99.0],
    [1.0, 0.0, 0.0, 0.0],
    [0.0, 0.0, 1.0, 0.0],
    [0.0, 0.0, 0.0, 1.0]
],
  "dcmmeta_shape": [100, 100, 72, 150],
  "dcmmeta_slice_dim": 2,
  "dcmmeta_version": 0.6,
  "global": {
    "const": {
      "AcquisitionMatrix": [100, 0, 0, 100],
      "AngioFlag": "N",
      "BitsAllocated": 16,
      "BitsStored": 12,
      "BodyPartExamined": "BRAIN",
      "Columns": 900,
      "EchoNumbers": 1,
      "EchoTime": 34.0,
      "EchoTrainLength": 100,
      "FlipAngle": 90.0,
      "HighBit": 11,
      "ImageOrientationPatient": [1.0, 0.0, 0.0, 0.0, 0.96409539939404, -0.2655561350586],
      "ImagePositionPatient": [-902.02409648895, -885.41745163298, 167.00275696533],
      "ImageType": [
        "ORIGINAL",
        "PRIMARY",
        "M",
        "ND",
        "MOSAIC"
],
      "ImagedNucleus": "1H",
      "ImagingFrequency": 123.257789,
      "InPlanePhaseEncodingDirection": "COL",
      "MRAcquisitionType": "2D",
      "MagneticFieldStrength": 3.0,
      "Manufacturer": "SIEMENS",
      "ManufacturerModelName": "Prisma",
      "Modality": "MR",
      "NumberOfAverages": 1.0,
      "NumberOfPhaseEncodingSteps": 100,
      "PercentPhaseFieldOfView": 100.0,
      "PercentSampling": 100.0,
      "PerformedProcedureStepStartTime": "152922.304000",
      "PhotometricInterpretation": "MONOCHROME2",
      "PixelBandwidth": 2380.0,
      "PixelRepresentation": 0,
      "PixelSpacing": [2.0, 2.0],
      "ProtocolName": "bold_100x100_s3_2x2x2_cat_150",
      "RepetitionTime": 2000.0,
      "Rows": 900,
      "SAR": 0.06395974673457,
      "SamplesPerPixel": 1,
      "ScanOptions": "FS",
      "ScanningSequence": "EP",
      "SequenceName": "*epfid2d1_100",
      "SequenceVariant": "SK",
      "SeriesDescription": "bold_100x100_s3_2x2x2_cat_150",
      "SeriesNumber": 13,
      "SeriesTime": "162125.007000",
      "SliceLocation": -74.121446692686,
      "SliceThickness": 2.0,
      "SmallestImagePixelValue": 0,
      "SoftwareVersions": "syngo MR E11",
      "SpacingBetweenSlices": 2.0000000337521,
      "SpecificCharacterSet": "ISO_IR 100",
      "StudyID": "1",
      "StudyTime": "152922.223000",
      "TransmitCoilName": "Body",
      "VariableFlipAngleFlag": "N",
      "WindowCenterWidthExplanation": "Algo1",
      "dBdt": 0.0},
    "slices": {}
  },
  "time": {
    "samples": {
      "AcquisitionNumber": [1, 2, 3, 4, 5, 6, 7, 8, 9, 10, 11, 12, 13, 14, 15, 16, 17, 18, 19, 20, 21, 22, 23, 24, 25, 26, 27, 28, 29, 30, 31, 32, 33, 34, 35, 36, 37, 38, 39, 40, 41, 42, 43, 44, 45, 46, 47, 48, 49, 50, 51, 52, 53, 54, 55, 56, 57, 58, 59, 60, 61, 62, 63, 64, 65, 66, 67, 68, 69, 70, 71, 72, 73, 74, 75, 76, 77, 78, 79, 80, 81, 82, 83, 84, 85, 86, 87, 88, 89, 90, 91, 92, 93, 94, 95, 96, 97, 98, 99, 100, 101, 102, 103, 104, 105, 106, 107, 108, 109, 110, 111, 112, 113, 114, 115, 116, 117, 118, 119, 120, 121, 122, 123, 124, 125, 126, 127, 128, 129, 130, 131, 132, 133, 134, 135, 136, 137, 138, 139, 140, 141, 142, 143, 144, 145, 146, 147, 148, 149, 150],
      "AcquisitionTime": ["162122.865000", "162124.865000", "162126.865000", "162128.865000", "162130.865000", "162132.865000", "162134.865000", "162136.865000", "162138.865000", "162140.865000", "162142.865000", "162144.865000", "162146.865000", "162148.865000", "162150.865000", "162152.865000", "162154.865000", "162156.865000", "162158.865000", "162200.865000", "162202.865000", "162204.865000", "162206.865000", "162208.865000", "162210.865000", "162212.865000", "162214.865000", "162216.865000", "162218.865000", "162220.865000", "162222.865000", "162224.865000", "162226.865000", "162228.865000", "162230.865000", "162232.865000", "162234.865000", "162236.865000", "162238.865000", "162240.865000", "162242.865000", "162244.865000", "162246.865000", "162248.865000", "162250.865000", "162252.865000", "162254.865000", "162256.865000", "162258.865000", "162300.865000", "162302.865000", "162304.865000", "162306.865000", "162308.865000", "162310.865000", "162312.865000", "162314.865000", "162316.865000", "162318.865000", "162320.865000", "162322.865000", "162324.865000", "162326.865000", "162328.865000", "162330.865000", "162332.865000", "162334.865000", "162336.865000", "162338.865000", "162340.865000", "162342.865000", "162344.865000", "162346.865000", "162348.865000", "162350.865000", "162352.865000", "162354.865000", "162356.865000", "162358.865000", "162400.865000", "162402.865000", "162404.865000", "162406.865000", "162408.865000", "162410.865000", "162412.865000", "162414.865000", "162416.865000", "162418.865000", "162420.865000", "162422.865000", "162424.865000", "162426.865000", "162428.865000", "162430.865000", "162432.865000", "162434.865000", "162436.865000", "162438.865000", "162440.865000", "162442.865000", "162444.865000", "162446.865000", "162448.865000", "162450.865000", "162452.865000", "162454.865000", "162456.865000", "162458.865000", "162500.865000", "162502.865000", "162504.865000", "162506.865000", "162508.865000", "162510.865000", "162512.865000", "162514.865000", "162516.865000", "162518.865000", "162520.865000", "162522.865000", "162524.865000", "162526.865000", "162528.865000", "162530.865000", "162532.865000", "162534.865000", "162536.865000", "162538.865000", "162540.865000", "162542.865000", "162544.865000", "162546.865000", "162548.865000", "162550.865000", "162552.865000", "162554.865000", "162556.865000", "162558.865000", "162600.865000", "162602.865000", "162604.865000", "162606.865000", "162608.865000", "162610.865000", "162612.865000", "162614.865000", "162616.865000", "162618.865000", "162620.865000"],
      "ContentTime": ["162125.011000", "162126.506000", "162128.507000", "162130.508000", "162132.506000", "162134.506000", "162136.506000", "162138.506000", "162140.507000", "162142.507000", "162144.506000", "162146.506000", "162148.507000", "162150.506000", "162152.507000", "162154.509000", "162156.506000", "162158.506000", "162200.507000", "162202.506000", "162204.506000", "162206.506000", "162208.506000", "162210.506000", "162212.506000", "162214.506000", "162216.506000", "162218.506000", "162220.506000", "162222.507000", "162224.506000", "162226.507000", "162228.507000", "162230.506000", "162232.506000", "162234.506000", "162236.506000", "162238.507000", "162240.507000", "162242.506000", "162245.007000", "162246.507000", "162248.506000", "162250.506000", "162252.506000", "162254.507000", "162256.507000", "162258.506000", "162300.506000", "162302.506000", "162304.506000", "162306.507000", "162308.507000", "162310.506000", "162312.506000", "162314.506000", "162316.506000", "162318.507000", "162320.506000", "162322.506000", "162324.506000", "162326.507000", "162328.506000", "162330.506000", "162332.507000", "162334.506000", "162336.506000", "162338.506000", "162340.507000", "162342.507000", "162344.507000", "162346.507000", "162348.507000", "162350.507000", "162352.507000", "162354.506000", "162356.506000", "162358.507000", "162400.506000", "162402.506000", "162404.507000", "162406.507000", "162408.506000", "162410.507000", "162412.506000", "162414.507000", "162416.506000", "162418.506000", "162420.507000", "162422.507000", "162424.506000", "162426.507000", "162428.507000", "162430.506000", "162432.506000", "162434.507000", "162436.506000", "162438.506000", "162440.507000", "162442.508000", "162444.507000", "162446.506000", "162448.506000", "162450.507000", "162452.507000", "162454.506000", "162456.506000", "162458.507000", "162500.507000", "162502.506000", "162504.506000", "162506.506000", "162508.507000", "162510.506000", "162512.506000", "162514.506000", "162517.007000", "162518.507000", "162520.507000", "162522.507000", "162524.507000", "162526.507000", "162528.506000", "162530.507000", "162532.506000", "162534.507000", "162536.506000", "162538.506000", "162540.506000", "162542.506000", "162544.507000", "162546.506000", "162548.506000", "162550.506000", "162552.507000", "162554.506000", "162556.507000", "162558.506000", "162600.506000", "162602.506000", "162604.506000", "162606.507000", "162608.507000", "162610.507000", "162612.506000", "162614.507000", "162616.506000", "162618.506000", "162620.506000", "162622.334000"],
      "InstanceCreationTime": ["162125.011000", "162126.506000", "162128.507000", "162130.508000", "162132.506000", "162134.506000", "162136.506000", "162138.506000", "162140.507000", "162142.507000", "162144.506000", "162146.506000", "162148.507000", "162150.506000", "162152.507000", "162154.509000", "162156.506000", "162158.506000", "162200.507000", "162202.506000", "162204.506000", "162206.506000", "162208.506000", "162210.506000", "162212.506000", "162214.506000", "162216.506000", "162218.506000", "162220.506000", "162222.507000", "162224.506000", "162226.507000", "162228.507000", "162230.506000", "162232.506000", "162234.506000", "162236.506000", "162238.507000", "162240.507000", "162242.506000", "162245.007000", "162246.507000", "162248.506000", "162250.506000", "162252.506000", "162254.507000", "162256.507000", "162258.506000", "162300.506000", "162302.506000", "162304.506000", "162306.507000", "162308.507000", "162310.506000", "162312.506000", "162314.506000", "162316.506000", "162318.507000", "162320.506000", "162322.506000", "162324.506000", "162326.507000", "162328.506000", "162330.506000", "162332.507000", "162334.506000", "162336.506000", "162338.506000", "162340.507000", "162342.507000", "162344.507000", "162346.507000", "162348.507000", "162350.507000", "162352.507000", "162354.506000", "162356.506000", "162358.507000", "162400.506000", "162402.506000", "162404.507000", "162406.507000", "162408.506000", "162410.507000", "162412.506000", "162414.507000", "162416.506000", "162418.506000", "162420.507000", "162422.507000", "162424.506000", "162426.507000", "162428.507000", "162430.506000", "162432.506000", "162434.507000", "162436.506000", "162438.506000", "162440.507000", "162442.508000", "162444.507000", "162446.506000", "162448.506000", "162450.507000", "162452.507000", "162454.506000", "162456.506000", "162458.507000", "162500.507000", "162502.506000", "162504.506000", "162506.506000", "162508.507000", "162510.506000", "162512.506000", "162514.506000", "162517.007000", "162518.507000", "162520.507000", "162522.507000", "162524.507000", "162526.507000", "162528.506000", "162530.507000", "162532.506000", "162534.507000", "162536.506000", "162538.506000", "162540.506000", "162542.506000", "162544.507000", "162546.506000", "162548.506000", "162550.506000", "162552.507000", "162554.506000", "162556.507000", "162558.506000", "162600.506000", "162602.506000", "162604.506000", "162606.507000", "162608.507000", "162610.507000", "162612.506000", "162614.507000", "162616.506000", "162618.506000", "162620.506000", "162622.334000"],
      "InstanceNumber": [1, 2, 3, 4, 5, 6, 7, 8, 9, 10, 11, 12, 13, 14, 15, 16, 17, 18, 19, 20, 21, 22, 23, 24, 25, 26, 27, 28, 29, 30, 31, 32, 33, 34, 35, 36, 37, 38, 39, 40, 41, 42, 43, 44, 45, 46, 47, 48, 49, 50, 51, 52, 53, 54, 55, 56, 57, 58, 59, 60, 61, 62, 63, 64, 65, 66, 67, 68, 69, 70, 71, 72, 73, 74, 75, 76, 77, 78, 79, 80, 81, 82, 83, 84, 85, 86, 87, 88, 89, 90, 91, 92, 93, 94, 95, 96, 97, 98, 99, 100, 101, 102, 103, 104, 105, 106, 107, 108, 109, 110, 111, 112, 113, 114, 115, 116, 117, 118, 119, 120, 121, 122, 123, 124, 125, 126, 127, 128, 129, 130, 131, 132, 133, 134, 135, 136, 137, 138, 139, 140, 141, 142, 143, 144, 145, 146, 147, 148, 149, 150],
      "LargestImagePixelValue": [3546, 3512, 3493, 3430, 3420, 3432, 3381, 3439, 3464, 3483, 3489, 3480, 3479, 3458, 3476, 3502, 3496, 3519, 3521, 3512, 3526, 3520, 3502, 3499, 3447, 3470, 3479, 3446, 3458, 3522, 3511, 3508, 3545, 3514, 3518, 3506, 3451, 3460, 3470, 3475, 3477, 3483, 3431, 3472, 3502, 3502, 3459, 3450, 3451, 3466, 3485, 3451, 3445, 3467, 3520, 3515, 3496, 3491, 3489, 3473, 3491, 3484, 3506, 3492, 3486, 3521, 3533, 3471, 3495, 3469, 3497, 3476, 3457, 3492, 3497, 3481, 3456, 3512, 3518, 3486, 3478, 3467, 3512, 3483, 3519, 3513, 3506, 3466, 3531, 3540, 3502, 3496, 3514, 3486, 3491, 3495, 3498, 3485, 3509, 3516, 3456, 3462, 3513, 3506, 3483, 3474, 3497, 3531, 3465, 3451, 3469, 3495, 3525, 3518, 3518, 3543, 3548, 3552, 3523, 3510, 3479, 3474, 3485, 3511, 3486, 3456, 3509, 3525, 3547, 3485, 3480, 3500, 3482, 3495, 3460, 3506, 3523, 3539, 3464, 3512, 3516, 3539, 3525, 3518, 3538, 3571, 3576, 3559, 3486, 3521],
      "WindowCenter": [782.0, 780.0, 779.0, 778.0, 779.0, 779.0, 780.0, 780.0, 781.0, 780.0, 780.0, 780.0, 780.0, 780.0, 780.0, 780.0, 781.0, 782.0, 782.0, 781.0, 782.0, 784.0, 783.0, 781.0, 780.0, 780.0, 781.0, 781.0, 782.0, 782.0, 783.0, 783.0, 783.0, 782.0, 781.0, 781.0, 782.0, 783.0, 782.0, 780.0, 781.0, 781.0, 782.0, 783.0, 783.0, 783.0, 781.0, 780.0, 780.0, 781.0, 782.0, 782.0, 781.0, 781.0, 781.0, 782.0, 783.0, 783.0, 782.0, 781.0, 781.0, 782.0, 781.0, 781.0, 780.0, 782.0, 783.0, 782.0, 782.0, 783.0, 784.0, 783.0, 781.0, 781.0, 781.0, 783.0, 783.0, 783.0, 782.0, 781.0, 781.0, 782.0, 783.0, 783.0, 783.0, 783.0, 782.0, 781.0, 782.0, 782.0, 781.0, 781.0, 781.0, 781.0, 781.0, 782.0, 782.0, 783.0, 784.0, 784.0, 782.0, 782.0, 782.0, 781.0, 781.0, 781.0, 782.0, 783.0, 782.0, 782.0, 781.0, 783.0, 784.0, 783.0, 782.0, 782.0, 781.0, 781.0, 781.0, 782.0, 782.0, 781.0, 781.0, 781.0, 781.0, 782.0, 782.0, 782.0, 780.0, 779.0, 780.0, 780.0, 781.0, 781.0, 782.0, 782.0, 782.0, 781.0, 780.0, 782.0, 783.0, 783.0, 782.0, 782.0, 783.0, 784.0, 783.0, 782.0, 781.0, 781.0],
      "WindowWidth": [1699.0, 1696.0, 1693.0, 1690.0, 1691.0, 1693.0, 1694.0, 1696.0, 1698.0, 1696.0, 1695.0, 1695.0, 1694.0, 1694.0, 1695.0, 1697.0, 1698.0, 1700.0, 1700.0, 1700.0, 1703.0, 1706.0, 1704.0, 1698.0, 1694.0, 1695.0, 1697.0, 1699.0, 1701.0, 1702.0, 1704.0, 1705.0, 1703.0, 1700.0, 1698.0, 1698.0, 1700.0, 1703.0, 1700.0, 1696.0, 1696.0, 1698.0, 1700.0, 1703.0, 1704.0, 1702.0, 1698.0, 1696.0, 1696.0, 1698.0, 1701.0, 1699.0, 1697.0, 1696.0, 1699.0, 1701.0, 1703.0, 1702.0, 1698.0, 1697.0, 1698.0, 1698.0, 1698.0, 1696.0, 1696.0, 1699.0, 1702.0, 1701.0, 1700.0, 1702.0, 1705.0, 1703.0, 1698.0, 1698.0, 1699.0, 1702.0, 1704.0, 1704.0, 1700.0, 1697.0, 1697.0, 1700.0, 1704.0, 1702.0, 1704.0, 1703.0, 1700.0, 1698.0, 1700.0, 1701.0, 1698.0, 1698.0, 1698.0, 1697.0, 1697.0, 1699.0, 1700.0, 1704.0, 1706.0, 1705.0, 1701.0, 1700.0, 1699.0, 1697.0, 1698.0, 1698.0, 1701.0, 1702.0, 1700.0, 1699.0, 1699.0, 1703.0, 1705.0, 1703.0, 1701.0, 1701.0, 1698.0, 1698.0, 1698.0, 1700.0, 1700.0, 1698.0, 1697.0, 1699.0, 1697.0, 1699.0, 1701.0, 1699.0, 1695.0, 1691.0, 1693.0, 1694.0, 1697.0, 1698.0, 1699.0, 1698.0, 1699.0, 1697.0, 1695.0, 1699.0, 1703.0, 1704.0, 1701.0, 1699.0, 1703.0, 1707.0, 1704.0, 1700.0, 1696.0, 1695.0]
    },
    "slices": {}
  }
}