{
  "AcquisitionMatrixPE": 100,
  "AcquisitionNumber": 1,
  "AcquisitionTime": "15:43:52.590000",
  "BandwidthPerPixelPhaseEncode": 18.519,
  "BaseResolution": 100,
  "BodyPartExamined": "BRAIN",
  "ConsistencyInfo": "N4_VE11C_LATEST_20160120",
  "ConversionSoftware": "dcm2niix",
  "ConversionSoftwareVersion": "v1.0.20180622 GCC4.9.2",
  "DerivedVendorReportedEchoSpacing": 0.000539986,
  "DeviceSerialNumber": "166078",
  "DwellTime": 2.1e-06,
  "EchoTime": 0.034,
  "EchoTrainLength": 100,
  "EffectiveEchoSpacing": 0.000539986,
  "FlipAngle": 90,
  "ImageOrientationPatientDICOM": [1, 0, 0, 0, 0.964095, -0.265556],
  "ImageType": [
    "ORIGINAL",
    "PRIMARY",
    "M",
    "ND",
    "MOSAIC"
],
  "InPlanePhaseEncodingDirectionDICOM": "COL",
  "InstitutionAddress": "Street_StreetNo_Bei_Jing_District_CN_ZIP",
  "InstitutionName": "BeiJing_Normal_University",
  "InstitutionalDepartmentName": "Department",
  "MRAcquisitionType": "2D",
  "MagneticFieldStrength": 3,
  "Manufacturer": "Siemens",
  "ManufacturersModelName": "Prisma",
  "Modality": "MR",
  "MultibandAccelerationFactor": 3,
  "PartialFourier": 1,
  "PatientPosition": "HFS",
  "PercentPhaseFOV": 100,
  "PhaseEncodingDirection": "j-",
  "PhaseEncodingSteps": 100,
  "PhaseResolution": 1,
  "PixelBandwidth": 2380,
  "ProcedureStepDescription": "BNU_P2018_64CH_Zhen.ZongLei",
  "ProtocolName": "bold_100x100_s3_2x2x2_cat_150",
  "PulseSequenceDetails": "%SiemensSeq%_ep2d_bold",
  "ReceiveCoilActiveElements": "HC1-7;NC1",
  "ReceiveCoilName": "HeadNeck_64",
  "ReconMatrixPE": 100,
  "RepetitionTime": 2,
  "SAR": 0.0639597,
  "ScanOptions": "FS",
  "ScanningSequence": "EP",
  "SequenceName": "_epfid2d1_100",
  "SequenceVariant": "SK",
  "SeriesDescription": "bold_100x100_s3_2x2x2_cat_150",
  "SeriesNumber": 5,
  "ShimSetting": [-5459, -11476, -1279, 418, -9, -332, -271, 50],
  "SliceThickness": 2,
  "SliceTiming": [1.485, 0, 0.99, 0.0825, 1.0725, 0.165, 1.155, 0.2475, 1.2375, 0.33, 1.32, 0.4125, 1.4025, 0.5775, 1.5675, 0.66, 1.65, 0.7425, 1.7325, 0.825, 1.815, 0.9075, 1.8975, 0.495, 1.485, 0, 0.99, 0.0825, 1.0725, 0.165, 1.155, 0.2475, 1.2375, 0.33, 1.32, 0.4125, 1.4025, 0.5775, 1.5675, 0.66, 1.65, 0.7425, 1.7325, 0.825, 1.815, 0.9075, 1.8975, 0.495, 1.485, 0, 0.99, 0.0825, 1.0725, 0.165, 1.155, 0.2475, 1.2375, 0.33, 1.32, 0.4125, 1.4025, 0.5775, 1.5675, 0.66, 1.65, 0.7425, 1.7325, 0.825, 1.815, 0.9075, 1.8975, 0.495],
  "SoftwareVersions": "syngo_MR_E11",
  "SpacingBetweenSlices": 2,
  "StationName": "AWP166078",
  "TaskName": "category",
  "TotalReadoutTime": 0.0534586,
  "TxRefAmp": 209.31,
  "dcmmeta_affine": [
    [-2.0, 0.0, 0.0, 102.02409362792969],
    [0.0, 1.92819082736969, -0.5311122536659241, -76.749755859375],
    [0.0, 0.5311122536659241, 1.92819082736969, -98.02226257324219],
    [0.0, 0.0, 0.0, 1.0]
],
  "dcmmeta_reorient_transform": [
    [0.0, -1.0, 0.0, 99.0],
    [1.0, 0.0, 0.0, 0.0],
    [0.0, 0.0, 1.0, 0.0],
    [0.0, 0.0, 0.0, 1.0]
],
  "dcmmeta_shape": [100, 100, 72, 150],
  "dcmmeta_slice_dim": 2,
  "dcmmeta_version": 0.6,
  "global": {
    "const": {
      "AcquisitionMatrix": [100, 0, 0, 100],
      "AngioFlag": "N",
      "BitsAllocated": 16,
      "BitsStored": 12,
      "BodyPartExamined": "BRAIN",
      "Columns": 900,
      "EchoNumbers": 1,
      "EchoTime": 34.0,
      "EchoTrainLength": 100,
      "FlipAngle": 90.0,
      "HighBit": 11,
      "ImageOrientationPatient": [1.0, 0.0, 0.0, 0.0, 0.96409539939404, -0.2655561350586],
      "ImagePositionPatient": [-902.02409648895, -885.41745163298, 167.00275696533],
      "ImageType": [
        "ORIGINAL",
        "PRIMARY",
        "M",
        "ND",
        "MOSAIC"
],
      "ImagedNucleus": "1H",
      "ImagingFrequency": 123.257792,
      "InPlanePhaseEncodingDirection": "COL",
      "MRAcquisitionType": "2D",
      "MagneticFieldStrength": 3.0,
      "Manufacturer": "SIEMENS",
      "ManufacturerModelName": "Prisma",
      "Modality": "MR",
      "NumberOfAverages": 1.0,
      "NumberOfPhaseEncodingSteps": 100,
      "PercentPhaseFieldOfView": 100.0,
      "PercentSampling": 100.0,
      "PerformedProcedureStepStartTime": "152922.304000",
      "PhotometricInterpretation": "MONOCHROME2",
      "PixelBandwidth": 2380.0,
      "PixelRepresentation": 0,
      "PixelSpacing": [2.0, 2.0],
      "ProtocolName": "bold_100x100_s3_2x2x2_cat_150",
      "RepetitionTime": 2000.0,
      "Rows": 900,
      "SAR": 0.06395974673457,
      "SamplesPerPixel": 1,
      "ScanOptions": "FS",
      "ScanningSequence": "EP",
      "SequenceName": "*epfid2d1_100",
      "SequenceVariant": "SK",
      "SeriesDescription": "bold_100x100_s3_2x2x2_cat_150",
      "SeriesNumber": 5,
      "SeriesTime": "154355.632000",
      "SliceLocation": -74.121446692686,
      "SliceThickness": 2.0,
      "SmallestImagePixelValue": 0,
      "SoftwareVersions": "syngo MR E11",
      "SpacingBetweenSlices": 2.0000000337521,
      "SpecificCharacterSet": "ISO_IR 100",
      "StudyID": "1",
      "StudyTime": "152922.223000",
      "TransmitCoilName": "Body",
      "VariableFlipAngleFlag": "N",
      "WindowCenterWidthExplanation": "Algo1",
      "dBdt": 0.0},
    "slices": {}
  },
  "time": {
    "samples": {
      "AcquisitionNumber": [1, 2, 3, 4, 5, 6, 7, 8, 9, 10, 11, 12, 13, 14, 15, 16, 17, 18, 19, 20, 21, 22, 23, 24, 25, 26, 27, 28, 29, 30, 31, 32, 33, 34, 35, 36, 37, 38, 39, 40, 41, 42, 43, 44, 45, 46, 47, 48, 49, 50, 51, 52, 53, 54, 55, 56, 57, 58, 59, 60, 61, 62, 63, 64, 65, 66, 67, 68, 69, 70, 71, 72, 73, 74, 75, 76, 77, 78, 79, 80, 81, 82, 83, 84, 85, 86, 87, 88, 89, 90, 91, 92, 93, 94, 95, 96, 97, 98, 99, 100, 101, 102, 103, 104, 105, 106, 107, 108, 109, 110, 111, 112, 113, 114, 115, 116, 117, 118, 119, 120, 121, 122, 123, 124, 125, 126, 127, 128, 129, 130, 131, 132, 133, 134, 135, 136, 137, 138, 139, 140, 141, 142, 143, 144, 145, 146, 147, 148, 149, 150],
      "AcquisitionTime": ["154352.590000", "154354.590000", "154356.590000", "154358.590000", "154400.590000", "154402.590000", "154404.590000", "154406.590000", "154408.590000", "154410.590000", "154412.590000", "154414.590000", "154416.590000", "154418.590000", "154420.590000", "154422.590000", "154424.590000", "154426.590000", "154428.590000", "154430.590000", "154432.590000", "154434.590000", "154436.590000", "154438.590000", "154440.590000", "154442.590000", "154444.590000", "154446.590000", "154448.590000", "154450.590000", "154452.590000", "154454.590000", "154456.590000", "154458.590000", "154500.590000", "154502.590000", "154504.590000", "154506.590000", "154508.590000", "154510.590000", "154512.590000", "154514.590000", "154516.590000", "154518.590000", "154520.590000", "154522.590000", "154524.590000", "154526.590000", "154528.590000", "154530.590000", "154532.590000", "154534.590000", "154536.590000", "154538.590000", "154540.590000", "154542.590000", "154544.590000", "154546.590000", "154548.590000", "154550.590000", "154552.590000", "154554.590000", "154556.590000", "154558.590000", "154600.590000", "154602.590000", "154604.590000", "154606.590000", "154608.590000", "154610.590000", "154612.590000", "154614.590000", "154616.590000", "154618.590000", "154620.590000", "154622.590000", "154624.590000", "154626.590000", "154628.590000", "154630.590000", "154632.590000", "154634.590000", "154636.590000", "154638.590000", "154640.590000", "154642.590000", "154644.590000", "154646.590000", "154648.590000", "154650.590000", "154652.590000", "154654.590000", "154656.590000", "154658.590000", "154700.590000", "154702.590000", "154704.590000", "154706.590000", "154708.590000", "154710.590000", "154712.590000", "154714.590000", "154716.590000", "154718.590000", "154720.590000", "154722.590000", "154724.590000", "154726.590000", "154728.590000", "154730.590000", "154732.590000", "154734.590000", "154736.590000", "154738.590000", "154740.590000", "154742.590000", "154744.590000", "154746.590000", "154748.590000", "154750.590000", "154752.590000", "154754.590000", "154756.590000", "154758.590000", "154800.590000", "154802.590000", "154804.590000", "154806.590000", "154808.590000", "154810.590000", "154812.590000", "154814.590000", "154816.590000", "154818.590000", "154820.590000", "154822.590000", "154824.590000", "154826.590000", "154828.590000", "154830.590000", "154832.590000", "154834.590000", "154836.590000", "154838.590000", "154840.590000", "154842.590000", "154844.590000", "154846.590000", "154848.590000", "154850.590000"],
      "ContentTime": ["154355.636000", "154357.131000", "154359.131000", "154401.132000", "154403.132000", "154405.130000", "154407.131000", "154409.130000", "154411.131000", "154413.131000", "154415.131000", "154417.130000", "154419.130000", "154421.130000", "154423.130000", "154425.130000", "154427.131000", "154429.131000", "154431.131000", "154433.131000", "154435.131000", "154437.130000", "154439.131000", "154441.131000", "154443.130000", "154445.130000", "154447.130000", "154449.131000", "154451.130000", "154453.131000", "154455.130000", "154457.131000", "154459.130000", "154501.131000", "154503.131000", "154505.132000", "154507.132000", "154509.131000", "154511.131000", "154513.130000", "154515.130000", "154517.131000", "154519.132000", "154521.130000", "154523.131000", "154525.131000", "154527.130000", "154529.130000", "154531.130000", "154533.130000", "154535.131000", "154537.131000", "154539.131000", "154541.131000", "154543.131000", "154545.131000", "154547.131000", "154549.130000", "154551.130000", "154553.130000", "154555.130000", "154557.131000", "154559.132000", "154601.130000", "154603.131000", "154605.131000", "154607.131000", "154609.130000", "154611.130000", "154613.131000", "154615.131000", "154617.132000", "154619.131000", "154621.131000", "154623.130000", "154625.131000", "154627.130000", "154629.130000", "154631.131000", "154633.132000", "154635.131000", "154637.130000", "154639.130000", "154641.130000", "154643.131000", "154645.131000", "154647.130000", "154649.131000", "154651.132000", "154653.131000", "154655.131000", "154657.130000", "154659.131000", "154701.130000", "154703.130000", "154705.130000", "154707.130000", "154709.131000", "154711.131000", "154713.131000", "154715.130000", "154717.130000", "154719.131000", "154721.130000", "154723.130000", "154725.132000", "154727.132000", "154729.130000", "154731.131000", "154733.130000", "154735.130000", "154737.130000", "154739.130000", "154741.130000", "154743.132000", "154745.131000", "154747.131000", "154749.130000", "154751.130000", "154753.131000", "154755.130000", "154757.131000", "154759.131000", "154801.132000", "154803.131000", "154805.131000", "154807.131000", "154809.130000", "154811.131000", "154813.130000", "154815.131000", "154817.131000", "154819.132000", "154821.131000", "154823.130000", "154825.131000", "154827.131000", "154829.131000", "154831.131000", "154833.131000", "154835.132000", "154837.131000", "154839.131000", "154841.131000", "154843.131000", "154845.130000", "154847.130000", "154849.131000", "154851.132000", "154852.662000"],
      "InstanceCreationTime": ["154355.636000", "154357.131000", "154359.131000", "154401.132000", "154403.132000", "154405.130000", "154407.131000", "154409.130000", "154411.131000", "154413.131000", "154415.131000", "154417.130000", "154419.130000", "154421.130000", "154423.130000", "154425.130000", "154427.131000", "154429.131000", "154431.131000", "154433.131000", "154435.131000", "154437.130000", "154439.131000", "154441.131000", "154443.130000", "154445.130000", "154447.130000", "154449.131000", "154451.130000", "154453.131000", "154455.130000", "154457.131000", "154459.130000", "154501.131000", "154503.131000", "154505.132000", "154507.132000", "154509.131000", "154511.131000", "154513.130000", "154515.130000", "154517.131000", "154519.132000", "154521.130000", "154523.131000", "154525.131000", "154527.130000", "154529.130000", "154531.130000", "154533.130000", "154535.131000", "154537.131000", "154539.131000", "154541.131000", "154543.131000", "154545.131000", "154547.131000", "154549.130000", "154551.130000", "154553.130000", "154555.130000", "154557.131000", "154559.132000", "154601.130000", "154603.131000", "154605.131000", "154607.131000", "154609.130000", "154611.130000", "154613.131000", "154615.131000", "154617.132000", "154619.131000", "154621.131000", "154623.130000", "154625.131000", "154627.130000", "154629.130000", "154631.131000", "154633.132000", "154635.131000", "154637.130000", "154639.130000", "154641.130000", "154643.131000", "154645.131000", "154647.130000", "154649.131000", "154651.132000", "154653.131000", "154655.131000", "154657.130000", "154659.131000", "154701.130000", "154703.130000", "154705.130000", "154707.130000", "154709.131000", "154711.131000", "154713.131000", "154715.130000", "154717.130000", "154719.131000", "154721.130000", "154723.130000", "154725.132000", "154727.132000", "154729.130000", "154731.131000", "154733.130000", "154735.130000", "154737.130000", "154739.130000", "154741.130000", "154743.132000", "154745.131000", "154747.131000", "154749.130000", "154751.130000", "154753.131000", "154755.130000", "154757.131000", "154759.131000", "154801.132000", "154803.131000", "154805.131000", "154807.131000", "154809.130000", "154811.131000", "154813.130000", "154815.131000", "154817.131000", "154819.132000", "154821.131000", "154823.130000", "154825.131000", "154827.131000", "154829.131000", "154831.131000", "154833.131000", "154835.132000", "154837.131000", "154839.131000", "154841.131000", "154843.131000", "154845.130000", "154847.130000", "154849.131000", "154851.132000", "154852.662000"],
      "InstanceNumber": [1, 2, 3, 4, 5, 6, 7, 8, 9, 10, 11, 12, 13, 14, 15, 16, 17, 18, 19, 20, 21, 22, 23, 24, 25, 26, 27, 28, 29, 30, 31, 32, 33, 34, 35, 36, 37, 38, 39, 40, 41, 42, 43, 44, 45, 46, 47, 48, 49, 50, 51, 52, 53, 54, 55, 56, 57, 58, 59, 60, 61, 62, 63, 64, 65, 66, 67, 68, 69, 70, 71, 72, 73, 74, 75, 76, 77, 78, 79, 80, 81, 82, 83, 84, 85, 86, 87, 88, 89, 90, 91, 92, 93, 94, 95, 96, 97, 98, 99, 100, 101, 102, 103, 104, 105, 106, 107, 108, 109, 110, 111, 112, 113, 114, 115, 116, 117, 118, 119, 120, 121, 122, 123, 124, 125, 126, 127, 128, 129, 130, 131, 132, 133, 134, 135, 136, 137, 138, 139, 140, 141, 142, 143, 144, 145, 146, 147, 148, 149, 150],
      "LargestImagePixelValue": [3326, 3237, 3210, 3236, 3166, 3168, 3209, 3247, 3204, 3217, 3216, 3249, 3231, 3216, 3217, 3269, 3258, 3228, 3262, 3248, 3289, 3235, 3195, 3228, 3231, 3289, 3230, 3194, 3256, 3224, 3249, 3231, 3218, 3234, 3215, 3193, 3191, 3247, 3230, 3236, 3212, 3221, 3215, 3236, 3246, 3226, 3193, 3213, 3237, 3224, 3217, 3216, 3229, 3210, 3208, 3211, 3219, 3247, 3238, 3213, 3192, 3248, 3252, 3215, 3253, 3252, 3239, 3215, 3253, 3264, 3244, 3241, 3257, 3213, 3242, 3232, 3222, 3234, 3245, 3252, 3247, 3225, 3227, 3265, 3263, 3266, 3230, 3251, 3319, 3252, 3265, 3256, 3256, 3239, 3221, 3284, 3284, 3237, 3275, 3218, 3230, 3255, 3250, 3257, 3223, 3231, 3269, 3226, 3261, 3225, 3257, 3242, 3259, 3260, 3276, 3286, 3267, 3302, 3271, 3256, 3264, 3318, 3280, 3233, 3261, 3196, 3284, 3222, 3287, 3252, 3330, 3311, 3245, 3262, 3220, 3223, 3230, 3245, 3225, 3235, 3200, 3222, 3279, 3249, 3281, 3280, 3281, 3261, 3301, 3259],
      "WindowCenter": [777.0, 776.0, 775.0, 774.0, 773.0, 773.0, 775.0, 776.0, 777.0, 776.0, 776.0, 776.0, 776.0, 776.0, 776.0, 778.0, 778.0, 778.0, 778.0, 777.0, 778.0, 778.0, 778.0, 778.0, 779.0, 779.0, 779.0, 778.0, 777.0, 777.0, 778.0, 779.0, 778.0, 778.0, 778.0, 778.0, 778.0, 778.0, 778.0, 778.0, 778.0, 777.0, 778.0, 778.0, 779.0, 778.0, 777.0, 777.0, 777.0, 776.0, 775.0, 774.0, 774.0, 776.0, 776.0, 777.0, 777.0, 777.0, 777.0, 777.0, 777.0, 777.0, 777.0, 777.0, 777.0, 777.0, 777.0, 777.0, 778.0, 778.0, 777.0, 778.0, 779.0, 777.0, 776.0, 775.0, 775.0, 776.0, 777.0, 778.0, 778.0, 776.0, 776.0, 775.0, 776.0, 777.0, 777.0, 779.0, 779.0, 779.0, 778.0, 777.0, 777.0, 777.0, 778.0, 777.0, 777.0, 777.0, 778.0, 776.0, 777.0, 778.0, 779.0, 778.0, 777.0, 776.0, 777.0, 777.0, 778.0, 777.0, 777.0, 776.0, 776.0, 776.0, 777.0, 778.0, 778.0, 778.0, 777.0, 778.0, 778.0, 778.0, 778.0, 778.0, 777.0, 776.0, 777.0, 778.0, 780.0, 780.0, 777.0, 778.0, 777.0, 776.0, 776.0, 775.0, 775.0, 776.0, 776.0, 776.0, 776.0, 776.0, 777.0, 777.0, 777.0, 777.0, 778.0, 777.0, 779.0, 778.0],
      "WindowWidth": [1686.0, 1683.0, 1682.0, 1679.0, 1675.0, 1676.0, 1681.0, 1685.0, 1687.0, 1685.0, 1684.0, 1685.0, 1685.0, 1686.0, 1686.0, 1690.0, 1691.0, 1690.0, 1690.0, 1689.0, 1691.0, 1690.0, 1690.0, 1692.0, 1693.0, 1694.0, 1693.0, 1691.0, 1689.0, 1688.0, 1692.0, 1693.0, 1692.0, 1692.0, 1691.0, 1691.0, 1691.0, 1692.0, 1691.0, 1690.0, 1689.0, 1688.0, 1690.0, 1691.0, 1693.0, 1690.0, 1688.0, 1687.0, 1689.0, 1686.0, 1681.0, 1680.0, 1681.0, 1685.0, 1687.0, 1688.0, 1687.0, 1687.0, 1688.0, 1688.0, 1687.0, 1687.0, 1688.0, 1687.0, 1689.0, 1688.0, 1688.0, 1688.0, 1690.0, 1691.0, 1689.0, 1692.0, 1694.0, 1687.0, 1684.0, 1683.0, 1683.0, 1685.0, 1687.0, 1691.0, 1690.0, 1686.0, 1683.0, 1683.0, 1684.0, 1686.0, 1688.0, 1692.0, 1695.0, 1692.0, 1691.0, 1689.0, 1689.0, 1688.0, 1689.0, 1688.0, 1688.0, 1688.0, 1689.0, 1686.0, 1687.0, 1690.0, 1694.0, 1690.0, 1687.0, 1684.0, 1687.0, 1687.0, 1690.0, 1688.0, 1687.0, 1685.0, 1684.0, 1684.0, 1688.0, 1692.0, 1691.0, 1690.0, 1689.0, 1690.0, 1690.0, 1692.0, 1690.0, 1690.0, 1689.0, 1686.0, 1688.0, 1690.0, 1695.0, 1695.0, 1687.0, 1689.0, 1686.0, 1686.0, 1684.0, 1681.0, 1682.0, 1685.0, 1686.0, 1686.0, 1684.0, 1684.0, 1687.0, 1688.0, 1688.0, 1688.0, 1690.0, 1689.0, 1693.0, 1691.0]
    },
    "slices": {}
  }
}