{
  "AcquisitionMatrixPE": 100,
  "AcquisitionNumber": 1,
  "AcquisitionTime": "14:22:33.252500",
  "BandwidthPerPixelPhaseEncode": 18.519,
  "BaseResolution": 100,
  "BodyPartExamined": "BRAIN",
  "ConsistencyInfo": "N4_VE11C_LATEST_20160120",
  "ConversionSoftware": "dcm2niix",
  "ConversionSoftwareVersion": "v1.0.20180622 GCC4.9.2",
  "DerivedVendorReportedEchoSpacing": 0.000539986,
  "DeviceSerialNumber": "166078",
  "DwellTime": 2.1e-06,
  "EchoTime": 0.034,
  "EchoTrainLength": 100,
  "EffectiveEchoSpacing": 0.000539986,
  "FlipAngle": 90,
  "ImageOrientationPatientDICOM": [1, -7.15896e-05, -0.000323094, -3.05258e-08, 0.976301, -0.216419],
  "ImageType": [
    "ORIGINAL",
    "PRIMARY",
    "M",
    "ND",
    "MOSAIC"
],
  "InPlanePhaseEncodingDirectionDICOM": "COL",
  "InstitutionAddress": "Street_StreetNo_Bei_Jing_District_CN_ZIP",
  "InstitutionName": "BeiJing_Normal_University",
  "InstitutionalDepartmentName": "Department",
  "MRAcquisitionType": "2D",
  "MagneticFieldStrength": 3,
  "Manufacturer": "Siemens",
  "ManufacturersModelName": "Prisma",
  "Modality": "MR",
  "MultibandAccelerationFactor": 3,
  "PartialFourier": 1,
  "PatientPosition": "HFS",
  "PercentPhaseFOV": 100,
  "PhaseEncodingDirection": "j-",
  "PhaseEncodingSteps": 100,
  "PhaseResolution": 1,
  "PixelBandwidth": 2380,
  "ProcedureStepDescription": "BNU_P2018_64CH_Zhen.ZongLei",
  "ProtocolName": "bold_100x100_s3_2x2x2_static_256",
  "PulseSequenceDetails": "%SiemensSeq%_ep2d_bold",
  "ReceiveCoilActiveElements": "HC1-7;NC1",
  "ReceiveCoilName": "HeadNeck_64",
  "ReconMatrixPE": 100,
  "RepetitionTime": 2,
  "SAR": 0.0726713,
  "ScanOptions": "FS",
  "ScanningSequence": "EP",
  "SequenceName": "_epfid2d1_100",
  "SequenceVariant": "SK",
  "SeriesDescription": "bold_100x100_s3_2x2x2_static_256",
  "SeriesNumber": 12,
  "ShimSetting": [-5474, -11480, -1249, 273, -75, -134, -196, 41],
  "SliceThickness": 2,
  "SliceTiming": [1.485, 0, 0.99, 0.0825, 1.0725, 0.165, 1.155, 0.2475, 1.2375, 0.33, 1.32, 0.4125, 1.4025, 0.5775, 1.5675, 0.66, 1.65, 0.7425, 1.7325, 0.825, 1.815, 0.9075, 1.8975, 0.495, 1.485, 0, 0.99, 0.0825, 1.0725, 0.165, 1.155, 0.2475, 1.2375, 0.33, 1.32, 0.4125, 1.4025, 0.5775, 1.5675, 0.66, 1.65, 0.7425, 1.7325, 0.825, 1.815, 0.9075, 1.8975, 0.495, 1.485, 0, 0.99, 0.0825, 1.0725, 0.165, 1.155, 0.2475, 1.2375, 0.33, 1.32, 0.4125, 1.4025, 0.5775, 1.5675, 0.66, 1.65, 0.7425, 1.7325, 0.825, 1.815, 0.9075, 1.8975, 0.495],
  "SoftwareVersions": "syngo_MR_E11",
  "SpacingBetweenSlices": 2,
  "StationName": "AWP166078",
  "TaskName": "naturalvision",
  "TotalReadoutTime": 0.0534586,
  "TxRefAmp": 221.303,
  "dcmmeta_affine": [
    [-1.9999998807907104, -6.105160110791985e-08, -0.0006618598126806319, 99.94599151611328],
    [0.000143179131555371, 1.9526013135910034, -0.43283703923225403, -75.8633804321289],
    [-0.0006461873999796808, 0.4328370690345764, 1.9526013135910034, -96.04450988769531],
    [0.0, 0.0, 0.0, 1.0]
],
  "dcmmeta_reorient_transform": [
    [0.0, -1.0, 0.0, 99.0],
    [1.0, 0.0, 0.0, 0.0],
    [0.0, 0.0, 1.0, 0.0],
    [0.0, 0.0, 0.0, 1.0]
],
  "dcmmeta_shape": [100, 100, 72, 256],
  "dcmmeta_slice_dim": 2,
  "dcmmeta_version": 0.6,
  "global": {
    "const": {
      "AcquisitionMatrix": [100, 0, 0, 100],
      "AngioFlag": "N",
      "BitsAllocated": 16,
      "BitsStored": 12,
      "BodyPartExamined": "BRAIN",
      "Columns": 900,
      "EchoNumbers": 1,
      "EchoTime": 34.0,
      "EchoTrainLength": 100,
      "FlipAngle": 90.0,
      "HighBit": 11,
      "ImageOrientationPatient": [0.9999999452427, -7.15895623e-05, -0.0003230937053, -3.0525802e-08, 0.97630068142963, -0.2164185284121],
      "ImagePositionPatient": [-899.9459147874, -898.42743168879, 120.19965442468],
      "ImageType": [
        "ORIGINAL",
        "PRIMARY",
        "M",
        "ND",
        "MOSAIC"
],
      "ImagedNucleus": "1H",
      "ImagingFrequency": 123.257796,
      "InPlanePhaseEncodingDirection": "COL",
      "MRAcquisitionType": "2D",
      "MagneticFieldStrength": 3.0,
      "Manufacturer": "SIEMENS",
      "ManufacturerModelName": "Prisma",
      "Modality": "MR",
      "NumberOfAverages": 1.0,
      "NumberOfPhaseEncodingSteps": 100,
      "PercentPhaseFieldOfView": 100.0,
      "PercentSampling": 100.0,
      "PerformedProcedureStepStartTime": "130757.984000",
      "PhotometricInterpretation": "MONOCHROME2",
      "PixelBandwidth": 2380.0,
      "PixelRepresentation": 0,
      "PixelSpacing": [2.0, 2.0],
      "ProtocolName": "bold_100x100_s3_2x2x2_static_256",
      "RepetitionTime": 2000.0,
      "Rows": 900,
      "SAR": 0.07267128103089,
      "SamplesPerPixel": 1,
      "ScanOptions": "FS",
      "ScanningSequence": "EP",
      "SequenceName": "*epfid2d1_100",
      "SequenceVariant": "SK",
      "SeriesDescription": "bold_100x100_s3_2x2x2_static_256",
      "SeriesNumber": 12,
      "SeriesTime": "142235.843000",
      "SliceLocation": -77.383152939562,
      "SliceThickness": 2.0,
      "SmallestImagePixelValue": 0,
      "SoftwareVersions": "syngo MR E11",
      "SpacingBetweenSlices": 2.0000000043292,
      "SpecificCharacterSet": "ISO_IR 100",
      "StudyID": "1",
      "StudyTime": "130757.863000",
      "TransmitCoilName": "Body",
      "VariableFlipAngleFlag": "N",
      "WindowCenterWidthExplanation": "Algo1",
      "dBdt": 0.0},
    "slices": {}
  },
  "time": {
    "samples": {
      "AcquisitionNumber": [1, 2, 3, 4, 5, 6, 7, 8, 9, 10, 11, 12, 13, 14, 15, 16, 17, 18, 19, 20, 21, 22, 23, 24, 25, 26, 27, 28, 29, 30, 31, 32, 33, 34, 35, 36, 37, 38, 39, 40, 41, 42, 43, 44, 45, 46, 47, 48, 49, 50, 51, 52, 53, 54, 55, 56, 57, 58, 59, 60, 61, 62, 63, 64, 65, 66, 67, 68, 69, 70, 71, 72, 73, 74, 75, 76, 77, 78, 79, 80, 81, 82, 83, 84, 85, 86, 87, 88, 89, 90, 91, 92, 93, 94, 95, 96, 97, 98, 99, 100, 101, 102, 103, 104, 105, 106, 107, 108, 109, 110, 111, 112, 113, 114, 115, 116, 117, 118, 119, 120, 121, 122, 123, 124, 125, 126, 127, 128, 129, 130, 131, 132, 133, 134, 135, 136, 137, 138, 139, 140, 141, 142, 143, 144, 145, 146, 147, 148, 149, 150, 151, 152, 153, 154, 155, 156, 157, 158, 159, 160, 161, 162, 163, 164, 165, 166, 167, 168, 169, 170, 171, 172, 173, 174, 175, 176, 177, 178, 179, 180, 181, 182, 183, 184, 185, 186, 187, 188, 189, 190, 191, 192, 193, 194, 195, 196, 197, 198, 199, 200, 201, 202, 203, 204, 205, 206, 207, 208, 209, 210, 211, 212, 213, 214, 215, 216, 217, 218, 219, 220, 221, 222, 223, 224, 225, 226, 227, 228, 229, 230, 231, 232, 233, 234, 235, 236, 237, 238, 239, 240, 241, 242, 243, 244, 245, 246, 247, 248, 249, 250, 251, 252, 253, 254, 255, 256],
      "AcquisitionTime": ["142233.252500", "142235.252500", "142237.252500", "142239.252500", "142241.252500", "142243.252500", "142245.252500", "142247.252500", "142249.252500", "142251.252500", "142253.252500", "142255.252500", "142257.252500", "142259.252500", "142301.252500", "142303.252500", "142305.252500", "142307.252500", "142309.252500", "142311.252500", "142313.252500", "142315.252500", "142317.252500", "142319.252500", "142321.252500", "142323.252500", "142325.252500", "142327.252500", "142329.252500", "142331.252500", "142333.252500", "142335.252500", "142337.252500", "142339.252500", "142341.252500", "142343.252500", "142345.252500", "142347.252500", "142349.252500", "142351.252500", "142353.252500", "142355.252500", "142357.252500", "142359.252500", "142401.252500", "142403.252500", "142405.252500", "142407.252500", "142409.252500", "142411.252500", "142413.252500", "142415.252500", "142417.252500", "142419.252500", "142421.252500", "142423.252500", "142425.252500", "142427.252500", "142429.252500", "142431.252500", "142433.252500", "142435.252500", "142437.252500", "142439.252500", "142441.252500", "142443.252500", "142445.252500", "142447.252500", "142449.252500", "142451.252500", "142453.252500", "142455.252500", "142457.252500", "142459.252500", "142501.252500", "142503.252500", "142505.252500", "142507.252500", "142509.252500", "142511.252500", "142513.252500", "142515.252500", "142517.252500", "142519.252500", "142521.252500", "142523.252500", "142525.252500", "142527.252500", "142529.252500", "142531.252500", "142533.252500", "142535.252500", "142537.252500", "142539.252500", "142541.252500", "142543.252500", "142545.252500", "142547.252500", "142549.252500", "142551.252500", "142553.252500", "142555.252500", "142557.252500", "142559.252500", "142601.252500", "142603.252500", "142605.252500", "142607.252500", "142609.252500", "142611.252500", "142613.252500", "142615.252500", "142617.252500", "142619.252500", "142621.252500", "142623.252500", "142625.252500", "142627.252500", "142629.252500", "142631.252500", "142633.252500", "142635.252500", "142637.252500", "142639.252500", "142641.252500", "142643.252500", "142645.252500", "142647.252500", "142649.252500", "142651.252500", "142653.252500", "142655.252500", "142657.252500", "142659.252500", "142701.252500", "142703.252500", "142705.252500", "142707.252500", "142709.252500", "142711.252500", "142713.252500", "142715.252500", "142717.252500", "142719.252500", "142721.252500", "142723.252500", "142725.252500", "142727.252500", "142729.252500", "142731.252500", "142733.252500", "142735.252500", "142737.252500", "142739.252500", "142741.252500", "142743.252500", "142745.252500", "142747.252500", "142749.252500", "142751.252500", "142753.252500", "142755.252500", "142757.252500", "142759.252500", "142801.252500", "142803.252500", "142805.252500", "142807.252500", "142809.252500", "142811.252500", "142813.252500", "142815.252500", "142817.252500", "142819.252500", "142821.252500", "142823.252500", "142825.252500", "142827.252500", "142829.252500", "142831.252500", "142833.252500", "142835.252500", "142837.252500", "142839.252500", "142841.252500", "142843.252500", "142845.252500", "142847.252500", "142849.252500", "142851.252500", "142853.252500", "142855.252500", "142857.252500", "142859.252500", "142901.252500", "142903.252500", "142905.252500", "142907.252500", "142909.252500", "142911.252500", "142913.252500", "142915.252500", "142917.252500", "142919.252500", "142921.252500", "142923.252500", "142925.252500", "142927.252500", "142929.252500", "142931.252500", "142933.252500", "142935.252500", "142937.252500", "142939.252500", "142941.252500", "142943.252500", "142945.252500", "142947.252500", "142949.252500", "142951.252500", "142953.252500", "142955.252500", "142957.252500", "142959.252500", "143001.252500", "143003.252500", "143005.252500", "143007.252500", "143009.252500", "143011.252500", "143013.252500", "143015.252500", "143017.252500", "143019.252500", "143021.252500", "143023.252500", "143025.252500", "143027.252500", "143029.252500", "143031.252500", "143033.252500", "143035.252500", "143037.252500", "143039.252500", "143041.252500", "143043.252500", "143045.252500", "143047.252500", "143049.252500", "143051.252500", "143053.252500", "143055.252500", "143057.252500", "143059.252500", "143101.252500", "143103.252500"],
      "ContentTime": ["142235.847000", "142237.343000", "142239.341000", "142241.342000", "142243.341000", "142245.343000", "142247.342000", "142249.342000", "142251.342000", "142253.342000", "142255.343000", "142257.342000", "142259.342000", "142301.342000", "142303.343000", "142305.342000", "142307.342000", "142309.343000", "142311.343000", "142313.343000", "142315.341000", "142317.342000", "142319.342000", "142321.343000", "142323.342000", "142325.343000", "142327.343000", "142329.343000", "142331.343000", "142333.342000", "142335.342000", "142337.342000", "142339.342000", "142341.342000", "142343.343000", "142345.343000", "142347.343000", "142349.341000", "142351.342000", "142353.342000", "142355.342000", "142357.342000", "142359.343000", "142401.343000", "142403.342000", "142405.343000", "142407.341000", "142409.342000", "142411.341000", "142413.342000", "142415.343000", "142417.343000", "142419.343000", "142421.342000", "142423.343000", "142425.342000", "142427.342000", "142429.342000", "142431.342000", "142433.343000", "142435.343000", "142437.342000", "142439.343000", "142441.343000", "142443.341000", "142445.342000", "142447.342000", "142449.342000", "142451.343000", "142453.342000", "142455.342000", "142457.342000", "142459.341000", "142501.341000", "142503.342000", "142505.343000", "142507.343000", "142509.342000", "142511.342000", "142513.343000", "142515.343000", "142517.341000", "142519.342000", "142521.341000", "142523.343000", "142525.343000", "142527.342000", "142529.342000", "142531.342000", "142533.342000", "142535.341000", "142537.342000", "142539.341000", "142541.342000", "142543.343000", "142545.343000", "142547.343000", "142549.342000", "142551.342000", "142553.341000", "142555.341000", "142557.342000", "142559.343000", "142601.343000", "142603.343000", "142605.342000", "142607.343000", "142609.342000", "142611.342000", "142613.341000", "142615.343000", "142617.343000", "142619.343000", "142621.342000", "142623.343000", "142625.342000", "142627.342000", "142629.341000", "142631.341000", "142633.342000", "142635.342000", "142637.342000", "142639.342000", "142641.342000", "142643.342000", "142645.342000", "142647.341000", "142649.341000", "142651.343000", "142653.342000", "142655.342000", "142657.343000", "142659.342000", "142701.342000", "142703.342000", "142705.341000", "142707.341000", "142709.342000", "142711.343000", "142713.343000", "142715.343000", "142717.342000", "142719.342000", "142721.342000", "142723.341000", "142725.343000", "142727.343000", "142729.342000", "142731.343000", "142733.343000", "142735.342000", "142737.342000", "142739.342000", "142741.342000", "142743.343000", "142745.343000", "142747.342000", "142749.342000", "142751.343000", "142753.343000", "142755.342000", "142757.341000", "142759.342000", "142801.343000", "142803.343000", "142805.343000", "142807.343000", "142809.343000", "142811.343000", "142813.342000", "142815.341000", "142817.342000", "142819.343000", "142821.343000", "142823.343000", "142825.342000", "142827.343000", "142829.342000", "142831.341000", "142833.342000", "142835.342000", "142837.343000", "142839.343000", "142841.343000", "142843.342000", "142845.342000", "142847.341000", "142849.341000", "142851.342000", "142853.342000", "142855.342000", "142857.343000", "142859.342000", "142901.343000", "142903.343000", "142905.342000", "142907.342000", "142909.341000", "142911.343000", "142913.343000", "142915.343000", "142917.343000", "142919.342000", "142921.343000", "142923.342000", "142925.342000", "142927.343000", "142929.343000", "142931.343000", "142933.343000", "142935.343000", "142937.342000", "142939.342000", "142941.342000", "142943.342000", "142945.343000", "142947.343000", "142949.343000", "142951.343000", "142953.342000", "142955.343000", "142957.342000", "142959.342000", "143001.342000", "143003.343000", "143005.342000", "143007.343000", "143009.343000", "143011.343000", "143013.343000", "143015.342000", "143017.342000", "143019.342000", "143021.342000", "143023.342000", "143025.343000", "143027.343000", "143029.343000", "143031.343000", "143033.342000", "143035.342000", "143037.343000", "143039.343000", "143041.343000", "143043.343000", "143045.343000", "143047.343000", "143049.342000", "143051.342000", "143053.342000", "143055.343000", "143057.343000", "143059.342000", "143101.363000", "143103.343000", "143105.101000"],
      "InstanceCreationTime": ["142235.847000", "142237.343000", "142239.341000", "142241.342000", "142243.341000", "142245.343000", "142247.342000", "142249.342000", "142251.342000", "142253.342000", "142255.343000", "142257.342000", "142259.342000", "142301.342000", "142303.343000", "142305.342000", "142307.342000", "142309.343000", "142311.343000", "142313.343000", "142315.341000", "142317.342000", "142319.342000", "142321.343000", "142323.342000", "142325.343000", "142327.343000", "142329.343000", "142331.343000", "142333.342000", "142335.342000", "142337.342000", "142339.342000", "142341.342000", "142343.343000", "142345.343000", "142347.343000", "142349.341000", "142351.342000", "142353.342000", "142355.342000", "142357.342000", "142359.343000", "142401.343000", "142403.342000", "142405.343000", "142407.341000", "142409.342000", "142411.341000", "142413.342000", "142415.343000", "142417.343000", "142419.343000", "142421.342000", "142423.343000", "142425.342000", "142427.342000", "142429.342000", "142431.342000", "142433.343000", "142435.343000", "142437.342000", "142439.343000", "142441.343000", "142443.341000", "142445.342000", "142447.342000", "142449.342000", "142451.343000", "142453.342000", "142455.342000", "142457.342000", "142459.341000", "142501.341000", "142503.342000", "142505.343000", "142507.343000", "142509.342000", "142511.342000", "142513.343000", "142515.343000", "142517.341000", "142519.342000", "142521.341000", "142523.343000", "142525.343000", "142527.342000", "142529.342000", "142531.342000", "142533.342000", "142535.341000", "142537.342000", "142539.341000", "142541.342000", "142543.343000", "142545.343000", "142547.343000", "142549.342000", "142551.342000", "142553.341000", "142555.341000", "142557.342000", "142559.343000", "142601.343000", "142603.343000", "142605.342000", "142607.343000", "142609.342000", "142611.342000", "142613.341000", "142615.343000", "142617.343000", "142619.343000", "142621.342000", "142623.343000", "142625.342000", "142627.342000", "142629.341000", "142631.341000", "142633.342000", "142635.342000", "142637.342000", "142639.342000", "142641.342000", "142643.342000", "142645.342000", "142647.341000", "142649.341000", "142651.343000", "142653.342000", "142655.342000", "142657.343000", "142659.342000", "142701.342000", "142703.342000", "142705.341000", "142707.341000", "142709.342000", "142711.343000", "142713.343000", "142715.343000", "142717.342000", "142719.342000", "142721.342000", "142723.341000", "142725.343000", "142727.343000", "142729.342000", "142731.343000", "142733.343000", "142735.342000", "142737.342000", "142739.342000", "142741.342000", "142743.343000", "142745.343000", "142747.342000", "142749.342000", "142751.343000", "142753.343000", "142755.342000", "142757.341000", "142759.342000", "142801.343000", "142803.343000", "142805.343000", "142807.343000", "142809.343000", "142811.343000", "142813.342000", "142815.341000", "142817.342000", "142819.343000", "142821.343000", "142823.343000", "142825.342000", "142827.343000", "142829.342000", "142831.341000", "142833.342000", "142835.342000", "142837.343000", "142839.343000", "142841.343000", "142843.342000", "142845.342000", "142847.341000", "142849.341000", "142851.342000", "142853.342000", "142855.342000", "142857.343000", "142859.342000", "142901.343000", "142903.343000", "142905.342000", "142907.342000", "142909.341000", "142911.343000", "142913.343000", "142915.343000", "142917.343000", "142919.342000", "142921.343000", "142923.342000", "142925.342000", "142927.343000", "142929.343000", "142931.343000", "142933.343000", "142935.343000", "142937.342000", "142939.342000", "142941.342000", "142943.342000", "142945.343000", "142947.343000", "142949.343000", "142951.343000", "142953.342000", "142955.343000", "142957.342000", "142959.342000", "143001.342000", "143003.343000", "143005.342000", "143007.343000", "143009.343000", "143011.343000", "143013.343000", "143015.342000", "143017.342000", "143019.342000", "143021.342000", "143023.342000", "143025.343000", "143027.343000", "143029.343000", "143031.343000", "143033.342000", "143035.342000", "143037.343000", "143039.343000", "143041.343000", "143043.343000", "143045.343000", "143047.343000", "143049.342000", "143051.342000", "143053.342000", "143055.343000", "143057.343000", "143059.342000", "143101.363000", "143103.343000", "143105.101000"],
      "InstanceNumber": [1, 2, 3, 4, 5, 6, 7, 8, 9, 10, 11, 12, 13, 14, 15, 16, 17, 18, 19, 20, 21, 22, 23, 24, 25, 26, 27, 28, 29, 30, 31, 32, 33, 34, 35, 36, 37, 38, 39, 40, 41, 42, 43, 44, 45, 46, 47, 48, 49, 50, 51, 52, 53, 54, 55, 56, 57, 58, 59, 60, 61, 62, 63, 64, 65, 66, 67, 68, 69, 70, 71, 72, 73, 74, 75, 76, 77, 78, 79, 80, 81, 82, 83, 84, 85, 86, 87, 88, 89, 90, 91, 92, 93, 94, 95, 96, 97, 98, 99, 100, 101, 102, 103, 104, 105, 106, 107, 108, 109, 110, 111, 112, 113, 114, 115, 116, 117, 118, 119, 120, 121, 122, 123, 124, 125, 126, 127, 128, 129, 130, 131, 132, 133, 134, 135, 136, 137, 138, 139, 140, 141, 142, 143, 144, 145, 146, 147, 148, 149, 150, 151, 152, 153, 154, 155, 156, 157, 158, 159, 160, 161, 162, 163, 164, 165, 166, 167, 168, 169, 170, 171, 172, 173, 174, 175, 176, 177, 178, 179, 180, 181, 182, 183, 184, 185, 186, 187, 188, 189, 190, 191, 192, 193, 194, 195, 196, 197, 198, 199, 200, 201, 202, 203, 204, 205, 206, 207, 208, 209, 210, 211, 212, 213, 214, 215, 216, 217, 218, 219, 220, 221, 222, 223, 224, 225, 226, 227, 228, 229, 230, 231, 232, 233, 234, 235, 236, 237, 238, 239, 240, 241, 242, 243, 244, 245, 246, 247, 248, 249, 250, 251, 252, 253, 254, 255, 256],
      "LargestImagePixelValue": [3576, 3482, 3417, 3379, 3371, 3431, 3403, 3381, 3410, 3399, 3443, 3398, 3409, 3420, 3416, 3415, 3368, 3441, 3377, 3430, 3454, 3439, 3440, 3477, 3424, 3439, 3411, 3429, 3389, 3440, 3381, 3441, 3429, 3450, 3429, 3455, 3423, 3411, 3448, 3402, 3413, 3408, 3451, 3441, 3448, 3424, 3450, 3440, 3443, 3421, 3424, 3434, 3455, 3465, 3454, 3498, 3481, 3520, 3467, 3447, 3450, 3455, 3458, 3463, 3474, 3454, 3430, 3433, 3453, 3478, 3454, 3478, 3495, 3420, 3456, 3434, 3480, 3453, 3463, 3449, 3466, 3444, 3493, 3480, 3453, 3495, 3511, 3507, 3495, 3469, 3504, 3486, 3524, 3503, 3534, 3470, 3488, 3435, 3494, 3478, 3451, 3462, 3432, 3417, 3473, 3487, 3418, 3526, 3471, 3465, 3448, 3474, 3480, 3468, 3493, 3495, 3474, 3435, 3452, 3471, 3470, 3479, 3478, 3470, 3495, 3480, 3497, 3410, 3532, 3520, 3496, 3503, 3488, 3509, 3510, 3488, 3479, 3481, 3488, 3482, 3490, 3535, 3465, 3489, 3520, 3512, 3522, 3483, 3522, 3518, 3516, 3521, 3502, 3528, 3496, 3504, 3502, 3478, 3519, 3484, 3543, 3572, 3541, 3541, 3561, 3584, 3564, 3572, 3570, 3551, 3543, 3526, 3528, 3519, 3544, 3555, 3555, 3570, 3577, 3575, 3567, 3566, 3584, 3569, 3555, 3576, 3593, 3540, 3570, 3574, 3584, 3584, 3564, 3552, 3581, 3551, 3550, 3517, 3526, 3540, 3567, 3578, 3535, 3554, 3518, 3545, 3528, 3531, 3539, 3550, 3538, 3573, 3580, 3593, 3585, 3564, 3578, 3583, 3549, 3572, 3564, 3558, 3514, 3560, 3556, 3588, 3558, 3542, 3564, 3563, 3531, 3529, 3529, 3531, 3523, 3528, 3491, 3516, 3514, 3488, 3501, 3493, 3527, 3531, 3524, 3508, 3550, 3551, 3584, 3542, 3501, 3534, 3536, 3521, 3498, 3518],
      "WindowCenter": [799.0, 797.0, 795.0, 795.0, 795.0, 794.0, 793.0, 792.0, 793.0, 794.0, 794.0, 793.0, 792.0, 793.0, 794.0, 793.0, 792.0, 792.0, 793.0, 792.0, 792.0, 791.0, 791.0, 793.0, 793.0, 793.0, 792.0, 792.0, 792.0, 793.0, 793.0, 792.0, 792.0, 792.0, 793.0, 793.0, 794.0, 793.0, 793.0, 792.0, 793.0, 792.0, 792.0, 792.0, 791.0, 791.0, 791.0, 790.0, 790.0, 791.0, 791.0, 792.0, 792.0, 793.0, 793.0, 793.0, 794.0, 793.0, 793.0, 793.0, 793.0, 792.0, 792.0, 791.0, 792.0, 793.0, 793.0, 794.0, 793.0, 793.0, 793.0, 793.0, 793.0, 793.0, 793.0, 792.0, 792.0, 792.0, 793.0, 793.0, 792.0, 792.0, 792.0, 793.0, 793.0, 793.0, 793.0, 793.0, 795.0, 795.0, 794.0, 793.0, 792.0, 791.0, 793.0, 793.0, 793.0, 793.0, 794.0, 794.0, 794.0, 793.0, 793.0, 794.0, 793.0, 794.0, 794.0, 795.0, 794.0, 793.0, 793.0, 792.0, 793.0, 793.0, 795.0, 794.0, 793.0, 794.0, 794.0, 793.0, 792.0, 792.0, 792.0, 792.0, 792.0, 792.0, 795.0, 792.0, 791.0, 791.0, 791.0, 792.0, 791.0, 792.0, 792.0, 792.0, 792.0, 793.0, 793.0, 793.0, 793.0, 794.0, 794.0, 793.0, 794.0, 795.0, 796.0, 795.0, 795.0, 794.0, 793.0, 793.0, 792.0, 793.0, 793.0, 793.0, 793.0, 794.0, 795.0, 795.0, 795.0, 795.0, 795.0, 795.0, 793.0, 794.0, 794.0, 795.0, 797.0, 796.0, 796.0, 794.0, 793.0, 794.0, 794.0, 795.0, 795.0, 794.0, 793.0, 793.0, 793.0, 793.0, 794.0, 794.0, 794.0, 795.0, 795.0, 796.0, 796.0, 796.0, 795.0, 795.0, 795.0, 795.0, 796.0, 795.0, 796.0, 796.0, 795.0, 794.0, 792.0, 794.0, 795.0, 795.0, 794.0, 793.0, 793.0, 794.0, 795.0, 794.0, 793.0, 792.0, 792.0, 793.0, 794.0, 794.0, 794.0, 794.0, 794.0, 796.0, 795.0, 795.0, 797.0, 797.0, 795.0, 795.0, 794.0, 794.0, 796.0, 796.0, 795.0, 793.0, 793.0, 794.0, 793.0, 794.0, 793.0, 793.0, 793.0, 793.0, 795.0, 795.0, 795.0, 795.0, 795.0, 794.0, 794.0, 794.0, 793.0, 793.0, 794.0, 793.0, 794.0, 794.0, 793.0, 792.0],
      "WindowWidth": [1724.0, 1718.0, 1714.0, 1713.0, 1712.0, 1710.0, 1708.0, 1703.0, 1708.0, 1709.0, 1710.0, 1708.0, 1705.0, 1709.0, 1709.0, 1709.0, 1706.0, 1705.0, 1707.0, 1706.0, 1705.0, 1703.0, 1703.0, 1709.0, 1707.0, 1708.0, 1705.0, 1705.0, 1704.0, 1708.0, 1707.0, 1706.0, 1706.0, 1706.0, 1708.0, 1710.0, 1710.0, 1709.0, 1709.0, 1706.0, 1707.0, 1706.0, 1707.0, 1706.0, 1702.0, 1703.0, 1702.0, 1701.0, 1699.0, 1701.0, 1703.0, 1707.0, 1706.0, 1709.0, 1709.0, 1709.0, 1710.0, 1708.0, 1709.0, 1707.0, 1709.0, 1706.0, 1706.0, 1704.0, 1707.0, 1708.0, 1708.0, 1710.0, 1708.0, 1707.0, 1707.0, 1707.0, 1709.0, 1709.0, 1709.0, 1704.0, 1705.0, 1705.0, 1709.0, 1707.0, 1706.0, 1705.0, 1705.0, 1709.0, 1708.0, 1708.0, 1707.0, 1709.0, 1713.0, 1713.0, 1712.0, 1708.0, 1705.0, 1703.0, 1708.0, 1709.0, 1708.0, 1707.0, 1710.0, 1711.0, 1710.0, 1708.0, 1708.0, 1711.0, 1708.0, 1712.0, 1710.0, 1714.0, 1711.0, 1708.0, 1707.0, 1705.0, 1709.0, 1709.0, 1712.0, 1711.0, 1709.0, 1710.0, 1710.0, 1708.0, 1705.0, 1706.0, 1704.0, 1705.0, 1705.0, 1706.0, 1713.0, 1705.0, 1703.0, 1702.0, 1701.0, 1704.0, 1703.0, 1705.0, 1707.0, 1707.0, 1705.0, 1709.0, 1707.0, 1708.0, 1708.0, 1711.0, 1710.0, 1708.0, 1712.0, 1712.0, 1716.0, 1714.0, 1712.0, 1711.0, 1708.0, 1708.0, 1706.0, 1708.0, 1709.0, 1709.0, 1709.0, 1712.0, 1713.0, 1713.0, 1714.0, 1713.0, 1713.0, 1712.0, 1708.0, 1710.0, 1712.0, 1714.0, 1717.0, 1715.0, 1715.0, 1711.0, 1709.0, 1711.0, 1711.0, 1715.0, 1712.0, 1710.0, 1709.0, 1707.0, 1708.0, 1707.0, 1710.0, 1710.0, 1710.0, 1713.0, 1712.0, 1717.0, 1716.0, 1716.0, 1712.0, 1715.0, 1714.0, 1714.0, 1715.0, 1714.0, 1715.0, 1717.0, 1714.0, 1710.0, 1706.0, 1710.0, 1712.0, 1712.0, 1709.0, 1707.0, 1708.0, 1710.0, 1713.0, 1712.0, 1709.0, 1706.0, 1705.0, 1709.0, 1711.0, 1712.0, 1710.0, 1710.0, 1711.0, 1715.0, 1714.0, 1714.0, 1719.0, 1717.0, 1713.0, 1712.0, 1709.0, 1711.0, 1716.0, 1716.0, 1713.0, 1709.0, 1707.0, 1709.0, 1708.0, 1710.0, 1707.0, 1707.0, 1709.0, 1708.0, 1712.0, 1712.0, 1713.0, 1713.0, 1712.0, 1712.0, 1709.0, 1710.0, 1707.0, 1707.0, 1710.0, 1708.0, 1710.0, 1710.0, 1707.0, 1705.0]
    },
    "slices": {}
  }
}