{
 "AcquisitionMatrixPE": 100,
 "AcquisitionNumber": 1,
 "AcquisitionTime": "13:17:1.660000",
 "BandwidthPerPixelPhaseEncode": 18.519,
 "BaseResolution": 100,
 "BodyPartExamined": "BRAIN",
 "ConsistencyInfo": "N4_VE11C_LATEST_20160120",
 "ConversionSoftware": "dcm2niix",
 "ConversionSoftwareVersion": "v1.0.20180622 GCC4.9.2",
 "DerivedVendorReportedEchoSpacing": 0.000539986,
 "DeviceSerialNumber": "166078",
 "DwellTime": 2.1e-06,
 "EchoTime": 0.034,
 "EchoTrainLength": 100,
 "EffectiveEchoSpacing": 0.000539986,
 "FlipAngle": 90,
 "ImageOrientationPatientDICOM": [
  0.999354,
  0.0153282,
  0.0325131,
  -0.0104656,
  0.989409,
  -0.144776
 ],
 "ImageType": [
  "ORIGINAL",
  "PRIMARY",
  "M",
  "ND",
  "MOSAIC"
 ],
 "InPlanePhaseEncodingDirectionDICOM": "COL",
 "InstitutionAddress": "Street_StreetNo_Bei_Jing_District_CN_ZIP",
 "InstitutionName": "BeiJing_Normal_University",
 "InstitutionalDepartmentName": "Department",
 "MRAcquisitionType": "2D",
 "MagneticFieldStrength": 3,
 "Manufacturer": "Siemens",
 "ManufacturersModelName": "Prisma",
 "Modality": "MR",
 "MultibandAccelerationFactor": 3,
 "PartialFourier": 1,
 "PatientPosition": "HFS",
 "PercentPhaseFOV": 100,
 "PhaseEncodingDirection": "j-",
 "PhaseEncodingSteps": 100,
 "PhaseResolution": 1,
 "PixelBandwidth": 2380,
 "ProcedureStepDescription": "BNU_P2018_64CH_Zhen.ZongLei",
 "ProtocolName": "bold_100x100_s3_2x2x2_static_test_241",
 "PulseSequenceDetails": "%SiemensSeq%_ep2d_bold",
 "ReceiveCoilActiveElements": "HC1-7;NC1",
 "ReceiveCoilName": "HeadNeck_64",
 "ReconMatrixPE": 100,
 "RepetitionTime": 2,
 "SAR": 0.0665423,
 "ScanOptions": "FS",
 "ScanningSequence": "EP",
 "SequenceName": "_epfid2d1_100",
 "SequenceVariant": "SK",
 "SeriesDescription": "bold_100x100_s3_2x2x2_static_test_241",
 "SeriesNumber": 4,
 "ShimSetting": [
  -5453,
  -11492,
  -1261,
  271,
  -19,
  -147,
  -206,
  46
 ],
 "SliceThickness": 2,
 "SliceTiming": [
  1.485,
  0,
  0.99,
  0.0825,
  1.0725,
  0.165,
  1.155,
  0.2475,
  1.2375,
  0.33,
  1.32,
  0.4125,
  1.4025,
  0.5775,
  1.5675,
  0.66,
  1.65,
  0.7425,
  1.7325,
  0.825,
  1.815,
  0.9075,
  1.8975,
  0.495,
  1.485,
  0,
  0.99,
  0.0825,
  1.0725,
  0.165,
  1.155,
  0.2475,
  1.2375,
  0.33,
  1.32,
  0.4125,
  1.4025,
  0.5775,
  1.5675,
  0.66,
  1.65,
  0.7425,
  1.7325,
  0.825,
  1.815,
  0.9075,
  1.8975,
  0.495,
  1.485,
  0,
  0.99,
  0.0825,
  1.0725,
  0.165,
  1.155,
  0.2475,
  1.2375,
  0.33,
  1.32,
  0.4125,
  1.4025,
  0.5775,
  1.5675,
  0.66,
  1.65,
  0.7425,
  1.7325,
  0.825,
  1.815,
  0.9075,
  1.8975,
  0.495
 ],
 "SoftwareVersions": "syngo_MR_E11",
 "SpacingBetweenSlices": 2,
 "StationName": "AWP166078",
 "TaskName": "coco",
 "TotalReadoutTime": 0.0534586,
 "TxRefAmp": 217.351,
 "dcmmeta_affine": [
  [
   -1.9987075328826904,
   -0.020931115373969078,
   0.06877576559782028,
   99.7071533203125
  ],
  [
   -0.030656486749649048,
   1.9788181781768799,
   -0.28868424892425537,
   -80.1117172241211
  ],
  [
   0.06502612680196762,
   0.28955191373825073,
   1.9778602123260498,
   -97.1391830444336
  ],
  [
   0.0,
   0.0,
   0.0,
   1.0
  ]
 ],
 "dcmmeta_reorient_transform": [
  [
   0.0,
   -1.0,
   0.0,
   99.0
  ],
  [
   1.0,
   0.0,
   0.0,
   0.0
  ],
  [
   0.0,
   0.0,
   1.0,
   0.0
  ],
  [
   0.0,
   0.0,
   0.0,
   1.0
  ]
 ],
 "dcmmeta_shape": [
  100,
  100,
  72,
  241
 ],
 "dcmmeta_slice_dim": 2,
 "dcmmeta_version": 0.6,
 "global": {
  "const": {
   "AcquisitionMatrix": [
    100,
    0,
    0,
    100
   ],
   "AngioFlag": "N",
   "BitsAllocated": 16,
   "BitsStored": 12,
   "BodyPartExamined": "BRAIN",
   "Columns": 900,
   "EchoNumbers": 1,
   "EchoTime": 34.0,
   "EchoTrainLength": 100,
   "FlipAngle": 90.0,
   "HighBit": 11,
   "ImageOrientationPatient": [
    0.99935376397286,
    0.01532824374509,
    0.03251306471194,
    -0.0104655573422,
    0.98940911426748,
    -0.1447759535073
   ],
   "ImagePositionPatient": [
    -888.74554039513,
    -919.58117477784,
    21.336763184887
   ],
   "ImageType": [
    "ORIGINAL",
    "PRIMARY",
    "M",
    "ND",
    "MOSAIC"
   ],
   "ImagedNucleus": "1H",
   "ImagingFrequency": 123.257748,
   "InPlanePhaseEncodingDirection": "COL",
   "MRAcquisitionType": "2D",
   "MagneticFieldStrength": 3.0,
   "Manufacturer": "SIEMENS",
   "ManufacturerModelName": "Prisma",
   "Modality": "MR",
   "NumberOfAverages": 1.0,
   "NumberOfPhaseEncodingSteps": 100,
   "PercentPhaseFieldOfView": 100.0,
   "PercentSampling": 100.0,
   "PerformedProcedureStepStartTime": "130045.791000",
   "PhotometricInterpretation": "MONOCHROME2",
   "PixelBandwidth": 2380.0,
   "PixelRepresentation": 0,
   "PixelSpacing": [
    2.0,
    2.0
   ],
   "ProtocolName": "bold_100x100_s3_2x2x2_static_test_241",
   "RepetitionTime": 2000.0,
   "Rows": 900,
   "SAR": 0.066542340542,
   "SamplesPerPixel": 1,
   "ScanOptions": "FS",
   "ScanningSequence": "EP",
   "SequenceName": "*epfid2d1_100",
   "SequenceVariant": "SK",
   "SeriesDescription": "bold_100x100_s3_2x2x2_static_test_241",
   "SeriesNumber": 4,
   "SeriesTime": "131704.822000",
   "SliceLocation": -81.071655990678,
   "SliceThickness": 2.0,
   "SmallestImagePixelValue": 0,
   "SoftwareVersions": "syngo MR E11",
   "SpacingBetweenSlices": 1.9999999686196,
   "SpecificCharacterSet": "ISO_IR 100",
   "StudyID": "1",
   "StudyTime": "130045.697000",
   "TransmitCoilName": "Body",
   "VariableFlipAngleFlag": "N",
   "WindowCenterWidthExplanation": "Algo1",
   "dBdt": 0.0
  },
  "slices": {}
 },
 "time": {
  "samples": {
   "AcquisitionNumber": [
    1,
    2,
    3,
    4,
    5,
    6,
    7,
    8,
    9,
    10,
    11,
    12,
    13,
    14,
    15,
    16,
    17,
    18,
    19,
    20,
    21,
    22,
    23,
    24,
    25,
    26,
    27,
    28,
    29,
    30,
    31,
    32,
    33,
    34,
    35,
    36,
    37,
    38,
    39,
    40,
    41,
    42,
    43,
    44,
    45,
    46,
    47,
    48,
    49,
    50,
    51,
    52,
    53,
    54,
    55,
    56,
    57,
    58,
    59,
    60,
    61,
    62,
    63,
    64,
    65,
    66,
    67,
    68,
    69,
    70,
    71,
    72,
    73,
    74,
    75,
    76,
    77,
    78,
    79,
    80,
    81,
    82,
    83,
    84,
    85,
    86,
    87,
    88,
    89,
    90,
    91,
    92,
    93,
    94,
    95,
    96,
    97,
    98,
    99,
    100,
    101,
    102,
    103,
    104,
    105,
    106,
    107,
    108,
    109,
    110,
    111,
    112,
    113,
    114,
    115,
    116,
    117,
    118,
    119,
    120,
    121,
    122,
    123,
    124,
    125,
    126,
    127,
    128,
    129,
    130,
    131,
    132,
    133,
    134,
    135,
    136,
    137,
    138,
    139,
    140,
    141,
    142,
    143,
    144,
    145,
    146,
    147,
    148,
    149,
    150,
    151,
    152,
    153,
    154,
    155,
    156,
    157,
    158,
    159,
    160,
    161,
    162,
    163,
    164,
    165,
    166,
    167,
    168,
    169,
    170,
    171,
    172,
    173,
    174,
    175,
    176,
    177,
    178,
    179,
    180,
    181,
    182,
    183,
    184,
    185,
    186,
    187,
    188,
    189,
    190,
    191,
    192,
    193,
    194,
    195,
    196,
    197,
    198,
    199,
    200,
    201,
    202,
    203,
    204,
    205,
    206,
    207,
    208,
    209,
    210,
    211,
    212,
    213,
    214,
    215,
    216,
    217,
    218,
    219,
    220,
    221,
    222,
    223,
    224,
    225,
    226,
    227,
    228,
    229,
    230,
    231,
    232,
    233,
    234,
    235,
    236,
    237,
    238,
    239,
    240,
    241
   ],
   "AcquisitionTime": [
    "131701.660000",
    "131703.660000",
    "131705.660000",
    "131707.660000",
    "131709.660000",
    "131711.660000",
    "131713.660000",
    "131715.660000",
    "131717.660000",
    "131719.660000",
    "131721.660000",
    "131723.660000",
    "131725.660000",
    "131727.660000",
    "131729.660000",
    "131731.660000",
    "131733.660000",
    "131735.660000",
    "131737.660000",
    "131739.660000",
    "131741.660000",
    "131743.660000",
    "131745.660000",
    "131747.660000",
    "131749.660000",
    "131751.660000",
    "131753.660000",
    "131755.660000",
    "131757.660000",
    "131759.660000",
    "131801.660000",
    "131803.660000",
    "131805.660000",
    "131807.660000",
    "131809.660000",
    "131811.660000",
    "131813.660000",
    "131815.660000",
    "131817.660000",
    "131819.660000",
    "131821.660000",
    "131823.660000",
    "131825.660000",
    "131827.660000",
    "131829.660000",
    "131831.660000",
    "131833.660000",
    "131835.660000",
    "131837.660000",
    "131839.660000",
    "131841.660000",
    "131843.660000",
    "131845.660000",
    "131847.660000",
    "131849.660000",
    "131851.660000",
    "131853.660000",
    "131855.660000",
    "131857.660000",
    "131859.660000",
    "131901.660000",
    "131903.660000",
    "131905.660000",
    "131907.660000",
    "131909.660000",
    "131911.660000",
    "131913.660000",
    "131915.660000",
    "131917.660000",
    "131919.660000",
    "131921.660000",
    "131923.660000",
    "131925.660000",
    "131927.660000",
    "131929.660000",
    "131931.660000",
    "131933.660000",
    "131935.660000",
    "131937.660000",
    "131939.660000",
    "131941.660000",
    "131943.660000",
    "131945.660000",
    "131947.660000",
    "131949.660000",
    "131951.660000",
    "131953.660000",
    "131955.660000",
    "131957.660000",
    "131959.660000",
    "132001.660000",
    "132003.660000",
    "132005.660000",
    "132007.660000",
    "132009.660000",
    "132011.660000",
    "132013.660000",
    "132015.660000",
    "132017.660000",
    "132019.660000",
    "132021.660000",
    "132023.660000",
    "132025.660000",
    "132027.660000",
    "132029.660000",
    "132031.660000",
    "132033.660000",
    "132035.660000",
    "132037.660000",
    "132039.660000",
    "132041.660000",
    "132043.660000",
    "132045.660000",
    "132047.660000",
    "132049.660000",
    "132051.660000",
    "132053.660000",
    "132055.660000",
    "132057.660000",
    "132059.660000",
    "132101.660000",
    "132103.660000",
    "132105.660000",
    "132107.660000",
    "132109.660000",
    "132111.660000",
    "132113.660000",
    "132115.660000",
    "132117.660000",
    "132119.660000",
    "132121.660000",
    "132123.660000",
    "132125.660000",
    "132127.660000",
    "132129.660000",
    "132131.660000",
    "132133.660000",
    "132135.660000",
    "132137.660000",
    "132139.660000",
    "132141.660000",
    "132143.660000",
    "132145.660000",
    "132147.660000",
    "132149.660000",
    "132151.660000",
    "132153.660000",
    "132155.660000",
    "132157.660000",
    "132159.660000",
    "132201.660000",
    "132203.660000",
    "132205.660000",
    "132207.660000",
    "132209.660000",
    "132211.660000",
    "132213.660000",
    "132215.660000",
    "132217.660000",
    "132219.660000",
    "132221.660000",
    "132223.660000",
    "132225.660000",
    "132227.660000",
    "132229.660000",
    "132231.660000",
    "132233.660000",
    "132235.660000",
    "132237.660000",
    "132239.660000",
    "132241.660000",
    "132243.660000",
    "132245.660000",
    "132247.660000",
    "132249.660000",
    "132251.660000",
    "132253.660000",
    "132255.660000",
    "132257.660000",
    "132259.660000",
    "132301.660000",
    "132303.660000",
    "132305.660000",
    "132307.660000",
    "132309.660000",
    "132311.660000",
    "132313.660000",
    "132315.660000",
    "132317.660000",
    "132319.660000",
    "132321.660000",
    "132323.660000",
    "132325.660000",
    "132327.660000",
    "132329.660000",
    "132331.660000",
    "132333.660000",
    "132335.660000",
    "132337.660000",
    "132339.660000",
    "132341.660000",
    "132343.660000",
    "132345.660000",
    "132347.660000",
    "132349.660000",
    "132351.660000",
    "132353.660000",
    "132355.660000",
    "132357.660000",
    "132359.660000",
    "132401.660000",
    "132403.660000",
    "132405.660000",
    "132407.660000",
    "132409.660000",
    "132411.660000",
    "132413.660000",
    "132415.660000",
    "132417.660000",
    "132419.660000",
    "132421.660000",
    "132423.660000",
    "132425.660000",
    "132427.660000",
    "132429.660000",
    "132431.660000",
    "132433.660000",
    "132435.660000",
    "132437.660000",
    "132439.660000",
    "132441.660000",
    "132443.660000",
    "132445.660000",
    "132447.660000",
    "132449.660000",
    "132451.660000",
    "132453.660000",
    "132455.660000",
    "132457.660000",
    "132459.660000",
    "132501.660000"
   ],
   "ContentTime": [
    "131704.825000",
    "131706.320000",
    "131708.321000",
    "131710.320000",
    "131712.319000",
    "131714.320000",
    "131716.320000",
    "131718.320000",
    "131720.320000",
    "131722.321000",
    "131724.321000",
    "131726.320000",
    "131728.320000",
    "131730.320000",
    "131732.320000",
    "131734.321000",
    "131736.320000",
    "131738.320000",
    "131740.321000",
    "131742.320000",
    "131744.321000",
    "131746.320000",
    "131748.320000",
    "131750.321000",
    "131752.321000",
    "131754.321000",
    "131756.320000",
    "131758.320000",
    "131800.321000",
    "131802.321000",
    "131804.320000",
    "131806.319000",
    "131808.320000",
    "131810.321000",
    "131812.320000",
    "131814.321000",
    "131816.320000",
    "131818.320000",
    "131820.321000",
    "131822.320000",
    "131824.319000",
    "131826.320000",
    "131828.320000",
    "131830.321000",
    "131832.321000",
    "131834.320000",
    "131836.321000",
    "131838.319000",
    "131840.319000",
    "131842.319000",
    "131844.321000",
    "131846.320000",
    "131848.320000",
    "131850.321000",
    "131852.321000",
    "131854.320000",
    "131856.319000",
    "131858.319000",
    "131900.320000",
    "131902.320000",
    "131904.320000",
    "131906.321000",
    "131908.320000",
    "131910.321000",
    "131912.320000",
    "131914.319000",
    "131916.319000",
    "131918.321000",
    "131920.320000",
    "131922.320000",
    "131924.320000",
    "131926.321000",
    "131928.320000",
    "131930.320000",
    "131932.319000",
    "131934.320000",
    "131936.320000",
    "131938.320000",
    "131940.320000",
    "131942.321000",
    "131944.321000",
    "131946.321000",
    "131948.319000",
    "131950.319000",
    "131952.319000",
    "131954.321000",
    "131956.321000",
    "131958.321000",
    "132000.321000",
    "132002.320000",
    "132004.320000",
    "132006.319000",
    "132008.320000",
    "132010.320000",
    "132012.320000",
    "132014.320000",
    "132016.321000",
    "132018.321000",
    "132020.320000",
    "132022.320000",
    "132024.320000",
    "132026.319000",
    "132028.320000",
    "132030.321000",
    "132032.321000",
    "132034.321000",
    "132036.320000",
    "132038.321000",
    "132040.320000",
    "132042.319000",
    "132044.320000",
    "132046.320000",
    "132048.321000",
    "132050.321000",
    "132052.321000",
    "132054.320000",
    "132056.321000",
    "132058.320000",
    "132100.320000",
    "132102.320000",
    "132104.321000",
    "132106.321000",
    "132108.321000",
    "132110.320000",
    "132112.321000",
    "132114.321000",
    "132116.320000",
    "132118.320000",
    "132120.320000",
    "132122.321000",
    "132124.321000",
    "132126.321000",
    "132128.321000",
    "132130.321000",
    "132132.321000",
    "132134.320000",
    "132136.320000",
    "132138.321000",
    "132140.321000",
    "132142.321000",
    "132144.321000",
    "132146.321000",
    "132148.320000",
    "132150.321000",
    "132152.319000",
    "132154.319000",
    "132156.321000",
    "132158.321000",
    "132200.321000",
    "132202.321000",
    "132204.320000",
    "132206.320000",
    "132208.319000",
    "132210.320000",
    "132212.321000",
    "132214.320000",
    "132216.321000",
    "132218.320000",
    "132220.320000",
    "132222.321000",
    "132224.320000",
    "132226.319000",
    "132228.320000",
    "132230.321000",
    "132232.321000",
    "132234.321000",
    "132236.321000",
    "132238.321000",
    "132240.321000",
    "132242.320000",
    "132244.320000",
    "132246.320000",
    "132248.321000",
    "132250.321000",
    "132252.321000",
    "132254.320000",
    "132256.320000",
    "132258.320000",
    "132300.320000",
    "132302.319000",
    "132304.320000",
    "132306.321000",
    "132308.321000",
    "132310.321000",
    "132312.321000",
    "132314.321000",
    "132316.320000",
    "132318.320000",
    "132320.319000",
    "132322.321000",
    "132324.321000",
    "132326.321000",
    "132328.321000",
    "132330.321000",
    "132332.321000",
    "132334.321000",
    "132336.319000",
    "132338.319000",
    "132340.321000",
    "132342.321000",
    "132344.321000",
    "132346.320000",
    "132348.320000",
    "132350.320000",
    "132352.321000",
    "132354.320000",
    "132356.320000",
    "132358.320000",
    "132400.320000",
    "132402.321000",
    "132404.321000",
    "132406.320000",
    "132408.321000",
    "132410.320000",
    "132412.320000",
    "132414.320000",
    "132416.321000",
    "132418.321000",
    "132420.320000",
    "132422.321000",
    "132424.321000",
    "132426.321000",
    "132428.320000",
    "132430.320000",
    "132432.321000",
    "132434.321000",
    "132436.321000",
    "132438.321000",
    "132440.321000",
    "132442.320000",
    "132444.320000",
    "132446.332000",
    "132448.320000",
    "132450.320000",
    "132452.320000",
    "132454.320000",
    "132456.321000",
    "132458.321000",
    "132500.321000",
    "132502.321000",
    "132503.967000"
   ],
   "InstanceCreationTime": [
    "131704.825000",
    "131706.320000",
    "131708.321000",
    "131710.320000",
    "131712.319000",
    "131714.320000",
    "131716.320000",
    "131718.320000",
    "131720.320000",
    "131722.321000",
    "131724.321000",
    "131726.320000",
    "131728.320000",
    "131730.320000",
    "131732.320000",
    "131734.321000",
    "131736.320000",
    "131738.320000",
    "131740.321000",
    "131742.320000",
    "131744.321000",
    "131746.320000",
    "131748.320000",
    "131750.321000",
    "131752.321000",
    "131754.321000",
    "131756.320000",
    "131758.320000",
    "131800.321000",
    "131802.321000",
    "131804.320000",
    "131806.319000",
    "131808.320000",
    "131810.321000",
    "131812.320000",
    "131814.321000",
    "131816.320000",
    "131818.320000",
    "131820.321000",
    "131822.320000",
    "131824.319000",
    "131826.320000",
    "131828.320000",
    "131830.321000",
    "131832.321000",
    "131834.320000",
    "131836.321000",
    "131838.319000",
    "131840.319000",
    "131842.319000",
    "131844.321000",
    "131846.320000",
    "131848.320000",
    "131850.321000",
    "131852.321000",
    "131854.320000",
    "131856.319000",
    "131858.319000",
    "131900.320000",
    "131902.320000",
    "131904.320000",
    "131906.321000",
    "131908.320000",
    "131910.321000",
    "131912.320000",
    "131914.319000",
    "131916.319000",
    "131918.321000",
    "131920.320000",
    "131922.320000",
    "131924.320000",
    "131926.321000",
    "131928.320000",
    "131930.320000",
    "131932.319000",
    "131934.320000",
    "131936.320000",
    "131938.320000",
    "131940.320000",
    "131942.321000",
    "131944.321000",
    "131946.321000",
    "131948.319000",
    "131950.319000",
    "131952.319000",
    "131954.321000",
    "131956.321000",
    "131958.321000",
    "132000.321000",
    "132002.320000",
    "132004.320000",
    "132006.319000",
    "132008.320000",
    "132010.320000",
    "132012.320000",
    "132014.320000",
    "132016.321000",
    "132018.321000",
    "132020.320000",
    "132022.320000",
    "132024.320000",
    "132026.319000",
    "132028.320000",
    "132030.321000",
    "132032.321000",
    "132034.321000",
    "132036.320000",
    "132038.321000",
    "132040.320000",
    "132042.319000",
    "132044.320000",
    "132046.320000",
    "132048.321000",
    "132050.321000",
    "132052.321000",
    "132054.320000",
    "132056.321000",
    "132058.320000",
    "132100.320000",
    "132102.320000",
    "132104.321000",
    "132106.321000",
    "132108.321000",
    "132110.320000",
    "132112.321000",
    "132114.321000",
    "132116.320000",
    "132118.320000",
    "132120.320000",
    "132122.321000",
    "132124.321000",
    "132126.321000",
    "132128.321000",
    "132130.321000",
    "132132.321000",
    "132134.320000",
    "132136.320000",
    "132138.321000",
    "132140.321000",
    "132142.321000",
    "132144.321000",
    "132146.321000",
    "132148.320000",
    "132150.321000",
    "132152.319000",
    "132154.319000",
    "132156.321000",
    "132158.321000",
    "132200.321000",
    "132202.321000",
    "132204.320000",
    "132206.320000",
    "132208.319000",
    "132210.320000",
    "132212.321000",
    "132214.320000",
    "132216.321000",
    "132218.320000",
    "132220.320000",
    "132222.321000",
    "132224.320000",
    "132226.319000",
    "132228.320000",
    "132230.321000",
    "132232.321000",
    "132234.321000",
    "132236.321000",
    "132238.321000",
    "132240.321000",
    "132242.320000",
    "132244.320000",
    "132246.320000",
    "132248.321000",
    "132250.321000",
    "132252.321000",
    "132254.320000",
    "132256.320000",
    "132258.320000",
    "132300.320000",
    "132302.319000",
    "132304.320000",
    "132306.321000",
    "132308.321000",
    "132310.321000",
    "132312.321000",
    "132314.321000",
    "132316.320000",
    "132318.320000",
    "132320.319000",
    "132322.321000",
    "132324.321000",
    "132326.321000",
    "132328.321000",
    "132330.321000",
    "132332.321000",
    "132334.321000",
    "132336.319000",
    "132338.319000",
    "132340.321000",
    "132342.321000",
    "132344.321000",
    "132346.320000",
    "132348.320000",
    "132350.320000",
    "132352.321000",
    "132354.320000",
    "132356.320000",
    "132358.320000",
    "132400.320000",
    "132402.321000",
    "132404.321000",
    "132406.320000",
    "132408.321000",
    "132410.320000",
    "132412.320000",
    "132414.320000",
    "132416.321000",
    "132418.321000",
    "132420.320000",
    "132422.321000",
    "132424.321000",
    "132426.321000",
    "132428.320000",
    "132430.320000",
    "132432.321000",
    "132434.321000",
    "132436.321000",
    "132438.321000",
    "132440.321000",
    "132442.320000",
    "132444.320000",
    "132446.332000",
    "132448.320000",
    "132450.320000",
    "132452.320000",
    "132454.320000",
    "132456.321000",
    "132458.321000",
    "132500.321000",
    "132502.321000",
    "132503.967000"
   ],
   "InstanceNumber": [
    1,
    2,
    3,
    4,
    5,
    6,
    7,
    8,
    9,
    10,
    11,
    12,
    13,
    14,
    15,
    16,
    17,
    18,
    19,
    20,
    21,
    22,
    23,
    24,
    25,
    26,
    27,
    28,
    29,
    30,
    31,
    32,
    33,
    34,
    35,
    36,
    37,
    38,
    39,
    40,
    41,
    42,
    43,
    44,
    45,
    46,
    47,
    48,
    49,
    50,
    51,
    52,
    53,
    54,
    55,
    56,
    57,
    58,
    59,
    60,
    61,
    62,
    63,
    64,
    65,
    66,
    67,
    68,
    69,
    70,
    71,
    72,
    73,
    74,
    75,
    76,
    77,
    78,
    79,
    80,
    81,
    82,
    83,
    84,
    85,
    86,
    87,
    88,
    89,
    90,
    91,
    92,
    93,
    94,
    95,
    96,
    97,
    98,
    99,
    100,
    101,
    102,
    103,
    104,
    105,
    106,
    107,
    108,
    109,
    110,
    111,
    112,
    113,
    114,
    115,
    116,
    117,
    118,
    119,
    120,
    121,
    122,
    123,
    124,
    125,
    126,
    127,
    128,
    129,
    130,
    131,
    132,
    133,
    134,
    135,
    136,
    137,
    138,
    139,
    140,
    141,
    142,
    143,
    144,
    145,
    146,
    147,
    148,
    149,
    150,
    151,
    152,
    153,
    154,
    155,
    156,
    157,
    158,
    159,
    160,
    161,
    162,
    163,
    164,
    165,
    166,
    167,
    168,
    169,
    170,
    171,
    172,
    173,
    174,
    175,
    176,
    177,
    178,
    179,
    180,
    181,
    182,
    183,
    184,
    185,
    186,
    187,
    188,
    189,
    190,
    191,
    192,
    193,
    194,
    195,
    196,
    197,
    198,
    199,
    200,
    201,
    202,
    203,
    204,
    205,
    206,
    207,
    208,
    209,
    210,
    211,
    212,
    213,
    214,
    215,
    216,
    217,
    218,
    219,
    220,
    221,
    222,
    223,
    224,
    225,
    226,
    227,
    228,
    229,
    230,
    231,
    232,
    233,
    234,
    235,
    236,
    237,
    238,
    239,
    240,
    241
   ],
   "LargestImagePixelValue": [
    3772,
    3687,
    3689,
    3650,
    3694,
    3653,
    3669,
    3645,
    3672,
    3632,
    3655,
    3648,
    3657,
    3651,
    3654,
    3679,
    3660,
    3656,
    3663,
    3673,
    3674,
    3682,
    3666,
    3688,
    3655,
    3670,
    3674,
    3666,
    3662,
    3697,
    3648,
    3646,
    3652,
    3664,
    3650,
    3666,
    3671,
    3674,
    3658,
    3672,
    3651,
    3665,
    3674,
    3666,
    3653,
    3657,
    3670,
    3672,
    3654,
    3655,
    3670,
    3666,
    3664,
    3649,
    3680,
    3701,
    3689,
    3683,
    3658,
    3677,
    3684,
    3646,
    3681,
    3645,
    3654,
    3688,
    3673,
    3674,
    3655,
    3652,
    3640,
    3642,
    3676,
    3678,
    3683,
    3672,
    3678,
    3692,
    3655,
    3698,
    3652,
    3678,
    3656,
    3690,
    3636,
    3656,
    3656,
    3685,
    3661,
    3688,
    3700,
    3646,
    3685,
    3657,
    3653,
    3650,
    3679,
    3678,
    3673,
    3673,
    3677,
    3642,
    3664,
    3665,
    3656,
    3641,
    3682,
    3628,
    3650,
    3646,
    3637,
    3641,
    3665,
    3671,
    3672,
    3666,
    3679,
    3639,
    3688,
    3647,
    3661,
    3650,
    3673,
    3652,
    3692,
    3662,
    3666,
    3657,
    3673,
    3668,
    3656,
    3642,
    3645,
    3626,
    3627,
    3620,
    3623,
    3641,
    3611,
    3638,
    3637,
    3628,
    3654,
    3638,
    3641,
    3682,
    3667,
    3683,
    3656,
    3669,
    3630,
    3639,
    3645,
    3643,
    3634,
    3648,
    3665,
    3662,
    3677,
    3635,
    3633,
    3638,
    3641,
    3608,
    3632,
    3632,
    3641,
    3639,
    3641,
    3652,
    3651,
    3644,
    3647,
    3646,
    3633,
    3659,
    3619,
    3643,
    3644,
    3661,
    3633,
    3658,
    3662,
    3638,
    3645,
    3640,
    3617,
    3611,
    3655,
    3633,
    3648,
    3622,
    3630,
    3617,
    3649,
    3647,
    3661,
    3645,
    3640,
    3638,
    3667,
    3612,
    3650,
    3624,
    3652,
    3602,
    3616,
    3654,
    3642,
    3646,
    3611,
    3629,
    3640,
    3630,
    3653,
    3651,
    3652,
    3649,
    3657,
    3635,
    3663,
    3627,
    3660,
    3636,
    3623,
    3637,
    3648,
    3632,
    3656,
    3637,
    3642,
    3635,
    3649,
    3661,
    3632,
    3660,
    3629,
    3641,
    3632,
    3624,
    3618
   ],
   "WindowCenter": [
    811.0,
    810.0,
    811.0,
    810.0,
    811.0,
    809.0,
    809.0,
    809.0,
    810.0,
    808.0,
    809.0,
    808.0,
    808.0,
    808.0,
    808.0,
    809.0,
    808.0,
    809.0,
    808.0,
    808.0,
    808.0,
    809.0,
    808.0,
    809.0,
    808.0,
    809.0,
    808.0,
    807.0,
    807.0,
    807.0,
    808.0,
    808.0,
    808.0,
    807.0,
    807.0,
    808.0,
    808.0,
    808.0,
    808.0,
    807.0,
    807.0,
    807.0,
    808.0,
    808.0,
    807.0,
    807.0,
    807.0,
    808.0,
    809.0,
    809.0,
    809.0,
    808.0,
    808.0,
    807.0,
    808.0,
    809.0,
    810.0,
    809.0,
    808.0,
    807.0,
    807.0,
    807.0,
    808.0,
    808.0,
    809.0,
    808.0,
    808.0,
    808.0,
    808.0,
    808.0,
    807.0,
    807.0,
    808.0,
    807.0,
    808.0,
    807.0,
    807.0,
    808.0,
    808.0,
    810.0,
    809.0,
    810.0,
    808.0,
    809.0,
    809.0,
    810.0,
    810.0,
    810.0,
    809.0,
    808.0,
    808.0,
    808.0,
    809.0,
    809.0,
    809.0,
    808.0,
    808.0,
    807.0,
    810.0,
    811.0,
    811.0,
    809.0,
    809.0,
    808.0,
    808.0,
    808.0,
    809.0,
    808.0,
    809.0,
    808.0,
    808.0,
    808.0,
    808.0,
    808.0,
    809.0,
    810.0,
    810.0,
    809.0,
    809.0,
    809.0,
    810.0,
    810.0,
    810.0,
    810.0,
    810.0,
    810.0,
    809.0,
    808.0,
    809.0,
    810.0,
    810.0,
    809.0,
    808.0,
    807.0,
    808.0,
    809.0,
    809.0,
    810.0,
    809.0,
    809.0,
    808.0,
    808.0,
    810.0,
    811.0,
    811.0,
    810.0,
    810.0,
    809.0,
    810.0,
    811.0,
    810.0,
    809.0,
    809.0,
    810.0,
    810.0,
    809.0,
    809.0,
    810.0,
    810.0,
    809.0,
    808.0,
    808.0,
    807.0,
    807.0,
    807.0,
    808.0,
    808.0,
    808.0,
    808.0,
    808.0,
    807.0,
    808.0,
    809.0,
    810.0,
    809.0,
    809.0,
    807.0,
    808.0,
    808.0,
    809.0,
    808.0,
    807.0,
    807.0,
    806.0,
    807.0,
    808.0,
    808.0,
    808.0,
    809.0,
    809.0,
    809.0,
    808.0,
    807.0,
    806.0,
    808.0,
    808.0,
    809.0,
    809.0,
    809.0,
    809.0,
    810.0,
    808.0,
    809.0,
    809.0,
    808.0,
    807.0,
    807.0,
    808.0,
    809.0,
    810.0,
    809.0,
    808.0,
    807.0,
    808.0,
    808.0,
    809.0,
    809.0,
    808.0,
    808.0,
    808.0,
    807.0,
    807.0,
    807.0,
    807.0,
    808.0,
    809.0,
    809.0,
    808.0,
    808.0,
    809.0,
    809.0,
    809.0,
