{
 "AcquisitionMatrixPE": 100,
 "AcquisitionNumber": 1,
 "AcquisitionTime": "14:14:53.895000",
 "BandwidthPerPixelPhaseEncode": 18.519,
 "BaseResolution": 100,
 "BodyPartExamined": "BRAIN",
 "ConsistencyInfo": "N4_VE11C_LATEST_20160120",
 "ConversionSoftware": "dcm2niix",
 "ConversionSoftwareVersion": "v1.0.20180622 GCC4.9.2",
 "DerivedVendorReportedEchoSpacing": 0.000539986,
 "DeviceSerialNumber": "166078",
 "DwellTime": 2.1e-06,
 "EchoTime": 0.034,
 "EchoTrainLength": 100,
 "EffectiveEchoSpacing": 0.000539986,
 "FlipAngle": 90,
 "ImageOrientationPatientDICOM": [
  0.999354,
  0.0153282,
  0.0325131,
  -0.0104656,
  0.989409,
  -0.144776
 ],
 "ImageType": [
  "ORIGINAL",
  "PRIMARY",
  "M",
  "ND",
  "MOSAIC"
 ],
 "InPlanePhaseEncodingDirectionDICOM": "COL",
 "InstitutionAddress": "Street_StreetNo_Bei_Jing_District_CN_ZIP",
 "InstitutionName": "BeiJing_Normal_University",
 "InstitutionalDepartmentName": "Department",
 "MRAcquisitionType": "2D",
 "MagneticFieldStrength": 3,
 "Manufacturer": "Siemens",
 "ManufacturersModelName": "Prisma",
 "Modality": "MR",
 "MultibandAccelerationFactor": 3,
 "PartialFourier": 1,
 "PatientPosition": "HFS",
 "PercentPhaseFOV": 100,
 "PhaseEncodingDirection": "j-",
 "PhaseEncodingSteps": 100,
 "PhaseResolution": 1,
 "PixelBandwidth": 2380,
 "ProcedureStepDescription": "BNU_P2018_64CH_Zhen.ZongLei",
 "ProtocolName": "bold_100x100_s3_2x2x2_static_test_241",
 "PulseSequenceDetails": "%SiemensSeq%_ep2d_bold",
 "ReceiveCoilActiveElements": "HC1-7;NC1",
 "ReceiveCoilName": "HeadNeck_64",
 "ReconMatrixPE": 100,
 "RepetitionTime": 2,
 "SAR": 0.0665423,
 "ScanOptions": "FS",
 "ScanningSequence": "EP",
 "SequenceName": "_epfid2d1_100",
 "SequenceVariant": "SK",
 "SeriesDescription": "bold_100x100_s3_2x2x2_static_test_241",
 "SeriesNumber": 12,
 "ShimSetting": [
  -5453,
  -11492,
  -1261,
  271,
  -19,
  -147,
  -206,
  46
 ],
 "SliceThickness": 2,
 "SliceTiming": [
  1.485,
  0,
  0.99,
  0.0825,
  1.0725,
  0.165,
  1.155,
  0.2475,
  1.2375,
  0.33,
  1.32,
  0.4125,
  1.4025,
  0.5775,
  1.5675,
  0.66,
  1.65,
  0.7425,
  1.7325,
  0.825,
  1.815,
  0.9075,
  1.8975,
  0.495,
  1.485,
  0,
  0.99,
  0.0825,
  1.0725,
  0.165,
  1.155,
  0.2475,
  1.2375,
  0.33,
  1.32,
  0.4125,
  1.4025,
  0.5775,
  1.5675,
  0.66,
  1.65,
  0.7425,
  1.7325,
  0.825,
  1.815,
  0.9075,
  1.8975,
  0.495,
  1.485,
  0,
  0.99,
  0.0825,
  1.0725,
  0.165,
  1.155,
  0.2475,
  1.2375,
  0.33,
  1.32,
  0.4125,
  1.4025,
  0.5775,
  1.5675,
  0.66,
  1.65,
  0.7425,
  1.7325,
  0.825,
  1.815,
  0.9075,
  1.8975,
  0.495
 ],
 "SoftwareVersions": "syngo_MR_E11",
 "SpacingBetweenSlices": 2,
 "StationName": "AWP166078",
 "TaskName": "coco",
 "TotalReadoutTime": 0.0534586,
 "TxRefAmp": 217.351,
 "dcmmeta_affine": [
  [
   -1.9987075328826904,
   -0.020931115373969078,
   0.06877576559782028,
   99.7071533203125
  ],
  [
   -0.030656486749649048,
   1.9788181781768799,
   -0.28868424892425537,
   -80.1117172241211
  ],
  [
   0.06502612680196762,
   0.28955191373825073,
   1.9778602123260498,
   -97.1391830444336
  ],
  [
   0.0,
   0.0,
   0.0,
   1.0
  ]
 ],
 "dcmmeta_reorient_transform": [
  [
   0.0,
   -1.0,
   0.0,
   99.0
  ],
  [
   1.0,
   0.0,
   0.0,
   0.0
  ],
  [
   0.0,
   0.0,
   1.0,
   0.0
  ],
  [
   0.0,
   0.0,
   0.0,
   1.0
  ]
 ],
 "dcmmeta_shape": [
  100,
  100,
  72,
  241
 ],
 "dcmmeta_slice_dim": 2,
 "dcmmeta_version": 0.6,
 "global": {
  "const": {
   "AcquisitionMatrix": [
    100,
    0,
    0,
    100
   ],
   "AngioFlag": "N",
   "BitsAllocated": 16,
   "BitsStored": 12,
   "BodyPartExamined": "BRAIN",
   "Columns": 900,
   "EchoNumbers": 1,
   "EchoTime": 34.0,
   "EchoTrainLength": 100,
   "FlipAngle": 90.0,
   "HighBit": 11,
   "ImageOrientationPatient": [
    0.99935376397286,
    0.01532824374509,
    0.03251306471194,
    -0.0104655573422,
    0.98940911426748,
    -0.1447759535073
   ],
   "ImagePositionPatient": [
    -888.74554039513,
    -919.58117477784,
    21.336763184887
   ],
   "ImageType": [
    "ORIGINAL",
    "PRIMARY",
    "M",
    "ND",
    "MOSAIC"
   ],
   "ImagedNucleus": "1H",
   "ImagingFrequency": 123.257777,
   "InPlanePhaseEncodingDirection": "COL",
   "MRAcquisitionType": "2D",
   "MagneticFieldStrength": 3.0,
   "Manufacturer": "SIEMENS",
   "ManufacturerModelName": "Prisma",
   "Modality": "MR",
   "NumberOfAverages": 1.0,
   "NumberOfPhaseEncodingSteps": 100,
   "PercentPhaseFieldOfView": 100.0,
   "PercentSampling": 100.0,
   "PerformedProcedureStepStartTime": "130045.791000",
   "PhotometricInterpretation": "MONOCHROME2",
   "PixelBandwidth": 2380.0,
   "PixelRepresentation": 0,
   "PixelSpacing": [
    2.0,
    2.0
   ],
   "ProtocolName": "bold_100x100_s3_2x2x2_static_test_241",
   "RepetitionTime": 2000.0,
   "Rows": 900,
   "SAR": 0.066542340542,
   "SamplesPerPixel": 1,
   "ScanOptions": "FS",
   "ScanningSequence": "EP",
   "SequenceName": "*epfid2d1_100",
   "SequenceVariant": "SK",
   "SeriesDescription": "bold_100x100_s3_2x2x2_static_test_241",
   "SeriesNumber": 12,
   "SeriesTime": "141456.374000",
   "SliceLocation": -81.071655990678,
   "SliceThickness": 2.0,
   "SmallestImagePixelValue": 0,
   "SoftwareVersions": "syngo MR E11",
   "SpacingBetweenSlices": 1.9999999686196,
   "SpecificCharacterSet": "ISO_IR 100",
   "StudyID": "1",
   "StudyTime": "130045.697000",
   "TransmitCoilName": "Body",
   "VariableFlipAngleFlag": "N",
   "WindowCenterWidthExplanation": "Algo1",
   "dBdt": 0.0
  },
  "slices": {}
 },
 "time": {
  "samples": {
   "AcquisitionNumber": [
    1,
    2,
    3,
    4,
    5,
    6,
    7,
    8,
    9,
    10,
    11,
    12,
    13,
    14,
    15,
    16,
    17,
    18,
    19,
    20,
    21,
    22,
    23,
    24,
    25,
    26,
    27,
    28,
    29,
    30,
    31,
    32,
    33,
    34,
    35,
    36,
    37,
    38,
    39,
    40,
    41,
    42,
    43,
    44,
    45,
    46,
    47,
    48,
    49,
    50,
    51,
    52,
    53,
    54,
    55,
    56,
    57,
    58,
    59,
    60,
    61,
    62,
    63,
    64,
    65,
    66,
    67,
    68,
    69,
    70,
    71,
    72,
    73,
    74,
    75,
    76,
    77,
    78,
    79,
    80,
    81,
    82,
    83,
    84,
    85,
    86,
    87,
    88,
    89,
    90,
    91,
    92,
    93,
    94,
    95,
    96,
    97,
    98,
    99,
    100,
    101,
    102,
    103,
    104,
    105,
    106,
    107,
    108,
    109,
    110,
    111,
    112,
    113,
    114,
    115,
    116,
    117,
    118,
    119,
    120,
    121,
    122,
    123,
    124,
    125,
    126,
    127,
    128,
    129,
    130,
    131,
    132,
    133,
    134,
    135,
    136,
    137,
    138,
    139,
    140,
    141,
    142,
    143,
    144,
    145,
    146,
    147,
    148,
    149,
    150,
    151,
    152,
    153,
    154,
    155,
    156,
    157,
    158,
    159,
    160,
    161,
    162,
    163,
    164,
    165,
    166,
    167,
    168,
    169,
    170,
    171,
    172,
    173,
    174,
    175,
    176,
    177,
    178,
    179,
    180,
    181,
    182,
    183,
    184,
    185,
    186,
    187,
    188,
    189,
    190,
    191,
    192,
    193,
    194,
    195,
    196,
    197,
    198,
    199,
    200,
    201,
    202,
    203,
    204,
    205,
    206,
    207,
    208,
    209,
    210,
    211,
    212,
    213,
    214,
    215,
    216,
    217,
    218,
    219,
    220,
    221,
    222,
    223,
    224,
    225,
    226,
    227,
    228,
    229,
    230,
    231,
    232,
    233,
    234,
    235,
    236,
    237,
    238,
    239,
    240,
    241
   ],
   "AcquisitionTime": [
    "141453.895000",
    "141455.895000",
    "141457.895000",
    "141459.895000",
    "141501.895000",
    "141503.895000",
    "141505.895000",
    "141507.895000",
    "141509.895000",
    "141511.895000",
    "141513.895000",
    "141515.895000",
    "141517.895000",
    "141519.895000",
    "141521.895000",
    "141523.895000",
    "141525.895000",
    "141527.895000",
    "141529.895000",
    "141531.895000",
    "141533.895000",
    "141535.895000",
    "141537.895000",
    "141539.895000",
    "141541.895000",
    "141543.895000",
    "141545.895000",
    "141547.895000",
    "141549.895000",
    "141551.895000",
    "141553.895000",
    "141555.895000",
    "141557.895000",
    "141559.895000",
    "141601.895000",
    "141603.895000",
    "141605.895000",
    "141607.895000",
    "141609.895000",
    "141611.895000",
    "141613.895000",
    "141615.895000",
    "141617.895000",
    "141619.895000",
    "141621.895000",
    "141623.895000",
    "141625.895000",
    "141627.895000",
    "141629.895000",
    "141631.895000",
    "141633.895000",
    "141635.895000",
    "141637.895000",
    "141639.895000",
    "141641.895000",
    "141643.895000",
    "141645.895000",
    "141647.895000",
    "141649.895000",
    "141651.895000",
    "141653.895000",
    "141655.895000",
    "141657.895000",
    "141659.895000",
    "141701.895000",
    "141703.895000",
    "141705.895000",
    "141707.895000",
    "141709.895000",
    "141711.895000",
    "141713.895000",
    "141715.895000",
    "141717.895000",
    "141719.895000",
    "141721.895000",
    "141723.895000",
    "141725.895000",
    "141727.895000",
    "141729.895000",
    "141731.895000",
    "141733.895000",
    "141735.895000",
    "141737.895000",
    "141739.895000",
    "141741.895000",
    "141743.895000",
    "141745.895000",
    "141747.895000",
    "141749.895000",
    "141751.895000",
    "141753.895000",
    "141755.895000",
    "141757.895000",
    "141759.895000",
    "141801.895000",
    "141803.895000",
    "141805.895000",
    "141807.895000",
    "141809.895000",
    "141811.895000",
    "141813.895000",
    "141815.895000",
    "141817.895000",
    "141819.895000",
    "141821.895000",
    "141823.895000",
    "141825.895000",
    "141827.895000",
    "141829.895000",
    "141831.895000",
    "141833.895000",
    "141835.895000",
    "141837.895000",
    "141839.895000",
    "141841.895000",
    "141843.895000",
    "141845.895000",
    "141847.895000",
    "141849.895000",
    "141851.895000",
    "141853.895000",
    "141855.895000",
    "141857.895000",
    "141859.895000",
    "141901.895000",
    "141903.895000",
    "141905.895000",
    "141907.895000",
    "141909.895000",
    "141911.895000",
    "141913.895000",
    "141915.895000",
    "141917.895000",
    "141919.895000",
    "141921.895000",
    "141923.895000",
    "141925.895000",
    "141927.895000",
    "141929.895000",
    "141931.895000",
    "141933.895000",
    "141935.895000",
    "141937.895000",
    "141939.895000",
    "141941.895000",
    "141943.895000",
    "141945.895000",
    "141947.895000",
    "141949.895000",
    "141951.895000",
    "141953.895000",
    "141955.895000",
    "141957.895000",
    "141959.895000",
    "142001.895000",
    "142003.895000",
    "142005.895000",
    "142007.895000",
    "142009.895000",
    "142011.895000",
    "142013.895000",
    "142015.895000",
    "142017.895000",
    "142019.895000",
    "142021.895000",
    "142023.895000",
    "142025.895000",
    "142027.895000",
    "142029.895000",
    "142031.895000",
    "142033.895000",
    "142035.895000",
    "142037.895000",
    "142039.895000",
    "142041.895000",
    "142043.895000",
    "142045.895000",
    "142047.895000",
    "142049.895000",
    "142051.895000",
    "142053.895000",
    "142055.895000",
    "142057.895000",
    "142059.895000",
    "142101.895000",
    "142103.895000",
    "142105.895000",
    "142107.895000",
    "142109.895000",
    "142111.895000",
    "142113.895000",
    "142115.895000",
    "142117.895000",
    "142119.895000",
    "142121.895000",
    "142123.895000",
    "142125.895000",
    "142127.895000",
    "142129.895000",
    "142131.895000",
    "142133.895000",
    "142135.895000",
    "142137.895000",
    "142139.895000",
    "142141.895000",
    "142143.895000",
    "142145.895000",
    "142147.895000",
    "142149.895000",
    "142151.895000",
    "142153.895000",
    "142155.895000",
    "142157.895000",
    "142159.895000",
    "142201.895000",
    "142203.895000",
    "142205.895000",
    "142207.895000",
    "142209.895000",
    "142211.895000",
    "142213.895000",
    "142215.895000",
    "142217.895000",
    "142219.895000",
    "142221.895000",
    "142223.895000",
    "142225.895000",
    "142227.895000",
    "142229.895000",
    "142231.895000",
    "142233.895000",
    "142235.895000",
    "142237.895000",
    "142239.895000",
    "142241.895000",
    "142243.895000",
    "142245.895000",
    "142247.895000",
    "142249.895000",
    "142251.895000",
    "142253.895000"
   ],
   "ContentTime": [
    "141456.378000",
    "141457.874000",
    "141459.874000",
    "141501.874000",
    "141503.873000",
    "141505.874000",
    "141507.874000",
    "141509.874000",
    "141511.873000",
    "141513.874000",
    "141515.874000",
    "141517.874000",
    "141519.875000",
    "141521.873000",
    "141523.874000",
    "141525.873000",
    "141527.874000",
    "141529.874000",
    "141531.875000",
    "141533.874000",
    "141535.875000",
    "141537.875000",
    "141539.873000",
    "141541.873000",
    "141543.873000",
    "141545.874000",
    "141547.874000",
    "141549.875000",
    "141551.875000",
    "141553.874000",
    "141555.874000",
    "141557.874000",
    "141559.874000",
    "141601.874000",
    "141603.874000",
    "141605.874000",
    "141607.875000",
    "141609.874000",
    "141611.874000",
    "141613.873000",
    "141615.874000",
    "141617.874000",
    "141619.873000",
    "141621.873000",
    "141623.874000",
    "141625.875000",
    "141627.875000",
    "141629.874000",
    "141631.874000",
    "141633.874000",
    "141635.873000",
    "141637.874000",
    "141639.874000",
    "141641.875000",
    "141643.874000",
    "141645.875000",
    "141647.874000",
    "141649.873000",
    "141651.874000",
    "141653.874000",
    "141655.874000",
    "141657.873000",
    "141659.875000",
    "141701.875000",
    "141703.895000",
    "141705.873000",
    "141707.874000",
    "141709.873000",
    "141711.873000",
    "141713.873000",
    "141715.873000",
    "141717.874000",
    "141719.874000",
    "141721.874000",
    "141723.874000",
    "141725.874000",
    "141727.874000",
    "141729.874000",
    "141731.873000",
    "141733.874000",
    "141735.874000",
    "141737.875000",
    "141739.875000",
    "141741.874000",
    "141743.873000",
    "141745.874000",
    "141747.873000",
    "141749.873000",
    "141751.874000",
    "141753.874000",
    "141755.875000",
    "141757.874000",
    "141759.874000",
    "141801.874000",
    "141803.873000",
    "141805.874000",
    "141807.873000",
    "141809.875000",
    "141811.875000",
    "141813.874000",
    "141815.873000",
    "141817.874000",
    "141819.874000",
    "141821.873000",
    "141823.874000",
    "141825.874000",
    "141827.875000",
    "141829.875000",
    "141831.874000",
    "141833.873000",
    "141835.874000",
    "141837.873000",
    "141839.873000",
    "141841.873000",
    "141843.873000",
    "141845.875000",
    "141847.875000",
    "141849.874000",
    "141851.873000",
    "141853.874000",
    "141855.874000",
    "141857.873000",
    "141859.874000",
    "141901.875000",
    "141903.874000",
    "141905.874000",
    "141907.874000",
    "141909.874000",
    "141911.873000",
    "141913.874000",
    "141915.874000",
    "141917.874000",
    "141919.874000",
    "141921.875000",
    "141923.875000",
    "141925.874000",
    "141927.874000",
    "141929.873000",
    "141931.877000",
    "141933.874000",
    "141935.873000",
    "141937.875000",
    "141939.874000",
    "141941.875000",
    "141943.874000",
    "141945.874000",
    "141947.874000",
    "141949.874000",
    "141951.874000",
    "141953.874000",
    "141955.875000",
    "141957.875000",
    "141959.874000",
    "142001.873000",
    "142003.874000",
    "142005.873000",
    "142007.874000",
    "142009.874000",
    "142011.875000",
    "142013.875000",
    "142015.875000",
    "142017.875000",
    "142019.874000",
    "142021.873000",
    "142023.874000",
    "142025.874000",
    "142027.874000",
    "142029.875000",
    "142031.875000",
    "142033.874000",
    "142035.874000",
    "142037.873000",
    "142039.874000",
    "142041.873000",
    "142043.873000",
    "142045.873000",
    "142047.875000",
    "142049.874000",
    "142051.875000",
    "142053.874000",
    "142055.874000",
    "142057.874000",
    "142059.873000",
    "142101.874000",
    "142103.874000",
    "142105.875000",
    "142107.875000",
    "142109.875000",
    "142111.874000",
    "142113.874000",
    "142115.874000",
    "142117.874000",
    "142119.874000",
    "142121.875000",
    "142123.875000",
    "142125.875000",
    "142127.875000",
    "142129.873000",
    "142131.874000",
    "142133.874000",
    "142135.874000",
    "142137.873000",
    "142139.875000",
    "142141.875000",
    "142143.875000",
    "142145.873000",
    "142147.874000",
    "142149.873000",
    "142151.874000",
    "142153.874000",
    "142155.874000",
    "142157.875000",
    "142159.875000",
    "142201.874000",
    "142203.874000",
    "142205.874000",
    "142207.874000",
    "142209.874000",
    "142211.874000",
    "142213.874000",
    "142215.884000",
    "142217.875000",
    "142219.875000",
    "142221.874000",
    "142223.874000",
    "142225.874000",
    "142227.874000",
    "142229.874000",
    "142231.875000",
    "142233.875000",
    "142235.874000",
    "142237.875000",
    "142239.874000",
    "142241.874000",
    "142243.874000",
    "142245.874000",
    "142247.874000",
    "142249.875000",
    "142251.875000",
    "142253.875000",
    "142255.717000"
   ],
   "InstanceCreationTime": [
    "141456.378000",
    "141457.874000",
    "141459.874000",
    "141501.874000",
    "141503.873000",
    "141505.874000",
    "141507.874000",
    "141509.874000",
    "141511.873000",
    "141513.874000",
    "141515.874000",
    "141517.874000",
    "141519.875000",
    "141521.873000",
    "141523.874000",
    "141525.873000",
    "141527.874000",
    "141529.874000",
    "141531.875000",
    "141533.874000",
    "141535.875000",
    "141537.875000",
    "141539.873000",
    "141541.873000",
    "141543.873000",
    "141545.874000",
    "141547.874000",
    "141549.875000",
    "141551.875000",
    "141553.874000",
    "141555.874000",
    "141557.874000",
    "141559.874000",
    "141601.874000",
    "141603.874000",
    "141605.874000",
    "141607.875000",
    "141609.874000",
    "141611.874000",
    "141613.873000",
    "141615.874000",
    "141617.874000",
    "141619.873000",
    "141621.873000",
    "141623.874000",
    "141625.875000",
    "141627.875000",
    "141629.874000",
    "141631.874000",
    "141633.874000",
    "141635.873000",
    "141637.874000",
    "141639.874000",
    "141641.875000",
    "141643.874000",
    "141645.875000",
    "141647.874000",
    "141649.873000",
    "141651.874000",
    "141653.874000",
    "141655.874000",
    "141657.873000",
    "141659.875000",
    "141701.875000",
    "141703.895000",
    "141705.873000",
    "141707.874000",
    "141709.873000",
    "141711.873000",
    "141713.873000",
    "141715.873000",
    "141717.874000",
    "141719.874000",
    "141721.874000",
    "141723.874000",
    "141725.874000",
    "141727.874000",
    "141729.874000",
    "141731.873000",
    "141733.874000",
    "141735.874000",
    "141737.875000",
    "141739.875000",
    "141741.874000",
    "141743.873000",
    "141745.874000",
    "141747.873000",
    "141749.873000",
    "141751.874000",
    "141753.874000",
    "141755.875000",
    "141757.874000",
    "141759.874000",
    "141801.874000",
    "141803.873000",
    "141805.874000",
    "141807.873000",
    "141809.875000",
    "141811.875000",
    "141813.874000",
    "141815.873000",
    "141817.874000",
    "141819.874000",
    "141821.873000",
    "141823.874000",
    "141825.874000",
    "141827.875000",
    "141829.875000",
    "141831.874000",
    "141833.873000",
    "141835.874000",
    "141837.873000",
    "141839.873000",
    "141841.873000",
    "141843.873000",
    "141845.875000",
    "141847.875000",
    "141849.874000",
    "141851.873000",
    "141853.874000",
    "141855.874000",
    "141857.873000",
    "141859.874000",
    "141901.875000",
    "141903.874000",
    "141905.874000",
    "141907.874000",
    "141909.874000",
    "141911.873000",
    "141913.874000",
    "141915.874000",
    "141917.874000",
    "141919.874000",
    "141921.875000",
    "141923.875000",
    "141925.874000",
    "141927.874000",
    "141929.873000",
    "141931.877000",
    "141933.874000",
    "141935.873000",
    "141937.875000",
    "141939.874000",
    "141941.875000",
    "141943.874000",
    "141945.874000",
    "141947.874000",
    "141949.874000",
    "141951.874000",
    "141953.874000",
    "141955.875000",
    "141957.875000",
    "141959.874000",
    "142001.873000",
    "142003.874000",
    "142005.873000",
    "142007.874000",
    "142009.874000",
    "142011.875000",
    "142013.875000",
    "142015.875000",
    "142017.875000",
    "142019.874000",
    "142021.873000",
    "142023.874000",
    "142025.874000",
    "142027.874000",
    "142029.875000",
    "142031.875000",
    "142033.874000",
    "142035.874000",
    "142037.873000",
    "142039.874000",
    "142041.873000",
    "142043.873000",
    "142045.873000",
    "142047.875000",
    "142049.874000",
    "142051.875000",
    "142053.874000",
    "142055.874000",
    "142057.874000",
    "142059.873000",
    "142101.874000",
    "142103.874000",
    "142105.875000",
    "142107.875000",
    "142109.875000",
    "142111.874000",
    "142113.874000",
    "142115.874000",
    "142117.874000",
    "142119.874000",
    "142121.875000",
    "142123.875000",
    "142125.875000",
    "142127.875000",
    "142129.873000",
    "142131.874000",
    "142133.874000",
    "142135.874000",
    "142137.873000",
    "142139.875000",
    "142141.875000",
    "142143.875000",
    "142145.873000",
    "142147.874000",
    "142149.873000",
    "142151.874000",
    "142153.874000",
    "142155.874000",
    "142157.875000",
    "142159.875000",
    "142201.874000",
    "142203.874000",
    "142205.874000",
    "142207.874000",
    "142209.874000",
    "142211.874000",
    "142213.874000",
    "142215.884000",
    "142217.875000",
    "142219.875000",
    "142221.874000",
    "142223.874000",
    "142225.874000",
    "142227.874000",
    "142229.874000",
    "142231.875000",
    "142233.875000",
    "142235.874000",
    "142237.875000",
    "142239.874000",
    "142241.874000",
    "142243.874000",
    "142245.874000",
    "142247.874000",
    "142249.875000",
    "142251.875000",
    "142253.875000",
    "142255.717000"
   ],
   "InstanceNumber": [
    1,
    2,
    3,
    4,
    5,
    6,
    7,
    8,
    9,
    10,
    11,
    12,
    13,
    14,
    15,
    16,
    17,
    18,
    19,
    20,
    21,
    22,
    23,
    24,
    25,
    26,
    27,
    28,
    29,
    30,
    31,
    32,
    33,
    34,
    35,
    36,
    37,
    38,
    39,
    40,
    41,
    42,
    43,
    44,
    45,
    46,
    47,
    48,
    49,
    50,
    51,
    52,
    53,
    54,
    55,
    56,
    57,
    58,
    59,
    60,
    61,
    62,
    63,
    64,
    65,
    66,
    67,
    68,
    69,
    70,
    71,
    72,
    73,
    74,
    75,
    76,
    77,
    78,
    79,
    80,
    81,
    82,
    83,
    84,
    85,
    86,
    87,
    88,
    89,
    90,
    91,
    92,
    93,
    94,
    95,
    96,
    97,
    98,
    99,
    100,
    101,
    102,
    103,
    104,
    105,
    106,
    107,
    108,
    109,
    110,
    111,
    112,
    113,
    114,
    115,
    116,
    117,
    118,
    119,
    120,
    121,
    122,
    123,
    124,
    125,
    126,
    127,
    128,
    129,
    130,
    131,
    132,
    133,
    134,
    135,
    136,
    137,
    138,
    139,
    140,
    141,
    142,
    143,
    144,
    145,
    146,
    147,
    148,
    149,
    150,
    151,
    152,
    153,
    154,
    155,
    156,
    157,
    158,
    159,
    160,
    161,
    162,
    163,
    164,
    165,
    166,
    167,
    168,
    169,
    170,
    171,
    172,
    173,
    174,
    175,
    176,
    177,
    178,
    179,
    180,
    181,
    182,
    183,
    184,
    185,
    186,
    187,
    188,
    189,
    190,
    191,
    192,
    193,
    194,
    195,
    196,
    197,
    198,
    199,
    200,
    201,
    202,
    203,
    204,
    205,
    206,
    207,
    208,
    209,
    210,
    211,
    212,
    213,
    214,
    215,
    216,
    217,
    218,
    219,
    220,
    221,
    222,
    223,
    224,
    225,
    226,
    227,
    228,
    229,
    230,
    231,
    232,
    233,
    234,
    235,
    236,
    237,
    238,
    239,
    240,
    241
   ],
   "LargestImagePixelValue": [
    3927,
    3875,
    3829,
    3855,
    3814,
    3827,
    3855,
    3835,
    3866,
    3831,
    3858,
    3859,
    3842,
    3836,
    3851,
    3847,
    3834,
    3829,
    3826,
    3812,
    3796,
    3818,
    3830,
    3799,
    3834,
    3851,
    3870,
    3829,
    3841,
    3844,
    3829,
    3881,
    3860,
    3857,
    3856,
    3844,
    3847,
    3846,
    3884,
    3859,
    3876,
    3848,
    3863,
    3853,
    3873,
    3879,
    3865,
    3837,
    3825,
    3843,
    3851,
    3837,
    3828,
    3833,
    3833,
    3840,
    3845,
    3837,
    3819,
    3867,
    3846,
    3874,
    3866,
    3869,
    3828,
    3838,
    3842,
    3863,
    3872,
    3878,
    3866,
    3836,
    3845,
    3850,
    3880,
    3875,
    3855,
    3866,
    3882,
    3868,
    3846,
    3837,
    3856,
    3886,
    3879,
    3848,
    3869,
    3849,
    3850,
    3842,
    3855,
    3851,
    3861,
    3862,
    3848,
    3825,
    3874,
    3845,
    3902,
    3925,
    3869,
    3851,
    3850,
    3828,
    3864,
    3861,
    3862,
    3876,
    3848,
    3876,
    3848,
    3855,
    3851,
    3830,
    3835,
    3834,
    3856,
    3861,
    3874,
    3846,
    3875,
    3845,
    3871,
    3862,
    3883,
    3863,
    3854,
    3837,
    3837,
    3860,
    3873,
    3882,
    3845,
    3865,
    3844,
    3858,
    3859,
    3850,
    3855,
    3833,
    3863,
    3866,
    3833,
    3837,
    3836,
    3816,
    3839,
    3825,
    3824,
    3852,
    3848,
    3874,
    3869,
    3831,
    3831,
    3819,
    3867,
    3874,
    3846,
    3841,
    3872,
    3826,
    3840,
    3857,
    3867,
    3873,
    3866,
    3886,
    3864,
    3857,
    3876,
    3872,
    3804,
    3819,
    3825,
    3786,
    3855,
    3864,
    3866,
    3863,
    3855,
    3876,
    3856,
    3862,
    3847,
    3864,
    3866,
    3864,
    3888,
    3845,
    3860,
    3850,
    3871,
    3830,
    3879,
    3837,
    3821,
    3858,
    3826,
    3855,
    3864,
    3851,
    3837,
    3828,
    3860,
    3850,
    3810,
    3837,
    3887,
    3857,
    3905,
    3849,
    3864,
    3857,
    3868,
    3870,
    3872,
    3876,
    3876,
    3867,
    3830,
    3873,
    3863,
    3880,
    3847,
    3798,
    3821,
    3795,
    3823,
    3808,
    3831,
    3835,
    3805,
    3806,
    3824,
    3856,
    3781,
    3832,
    3809,
    3828,
    3802
   ],
   "WindowCenter": [
    818.0,
    813.0,
    812.0,
    813.0,
    811.0,
    812.0,
    811.0,
    811.0,
    811.0,
    811.0,
    812.0,
    812.0,
    811.0,
    810.0,
    809.0,
    810.0,
    810.0,
    811.0,
    810.0,
    810.0,
    810.0,
    810.0,
    810.0,
    810.0,
    811.0,
    811.0,
    811.0,
    809.0,
    810.0,
    811.0,
    811.0,
    811.0,
    811.0,
    810.0,
    811.0,
    811.0,
    811.0,
    811.0,
    810.0,
    810.0,
    811.0,
    811.0,
    811.0,
    811.0,
    811.0,
    811.0,
    812.0,
    812.0,
    812.0,
    811.0,
    811.0,
    813.0,
    812.0,
    811.0,
    810.0,
    809.0,
    810.0,
    810.0,
    810.0,
    811.0,
    811.0,
    811.0,
    811.0,
    811.0,
    810.0,
    810.0,
    810.0,
    811.0,
    811.0,
    811.0,
    812.0,
    812.0,
    812.0,
    812.0,
    812.0,
    812.0,
    811.0,
    811.0,
    811.0,
    811.0,
    811.0,
    811.0,
    810.0,
    810.0,
    811.0,
    811.0,
    811.0,
    810.0,
    810.0,
    810.0,
    810.0,
    810.0,
    810.0,
    810.0,
    810.0,
    811.0,
    811.0,
    810.0,
    811.0,
    810.0,
    811.0,
    811.0,
    811.0,
    811.0,
    812.0,
    811.0,
    811.0,
    811.0,
    812.0,
    812.0,
    813.0,
    813.0,
    814.0,
    814.0,
    813.0,
    811.0,
    812.0,
    812.0,
    813.0,
    812.0,
    813.0,
    812.0,
    811.0,
    811.0,
    810.0,
    810.0,
    810.0,
    811.0,
    812.0,
    811.0,
    810.0,
    810.0,
    810.0,
    810.0,
    810.0,
    810.0,
    810.0,
    810.0,
    810.0,
    810.0,
    810.0,
    810.0,
    811.0,
    812.0,
    812.0,
    812.0,
    812.0,
    811.0,
    812.0,
    810.0,
    810.0,
    810.0,
    811.0,
    811.0,
    811.0,
    811.0,
    812.0,
    811.0,
    810.0,
    809.0,
    810.0,
    810.0,
    810.0,
    810.0,
    810.0,
    810.0,
    811.0,
    810.0,
    810.0,
    811.0,
    811.0,
    811.0,
    812.0,
    813.0,
    813.0,
    813.0,
    811.0,
    810.0,
    810.0,
    811.0,
    809.0,
    810.0,
    810.0,
    811.0,
    811.0,
    810.0,
    810.0,
    809.0,
    811.0,
    810.0,
    811.0,
    811.0,
    812.0,
    811.0,
    812.0,
    813.0,
    814.0,
    814.0,
    813.0,
    812.0,
    812.0,
    812.0,
    813.0,
    813.0,
    813.0,
    812.0,
    811.0,
    810.0,
    811.0,
    810.0,
    810.0,
    811.0,
    812.0,
    811.0,
    810.0,
    810.0,
    810.0,
    810.0,
    810.0,
    811.0,
    811.0,
    811.0,
    811.0,
    811.0,
    812.0,
    812.0,
    812.0,
    812.0,
    812.0,
    811.0,
    811.0,
    811.0,
