{
  "AcquisitionMatrixPE": 100,
  "AcquisitionNumber": 1,
  "AcquisitionTime": "12:26:40.110000",
  "BandwidthPerPixelPhaseEncode": 18.519,
  "BaseResolution": 100,
  "BodyPartExamined": "BRAIN",
  "ConsistencyInfo": "N4_VE11C_LATEST_20160120",
  "ConversionSoftware": "dcm2niix",
  "ConversionSoftwareVersion": "v1.0.20180622 GCC4.9.2",
  "DerivedVendorReportedEchoSpacing": 0.000539986,
  "DeviceSerialNumber": "166078",
  "DwellTime": 2.1e-06,
  "EchoTime": 0.034,
  "EchoTrainLength": 100,
  "EffectiveEchoSpacing": 0.000539986,
  "FlipAngle": 90,
  "ImageOrientationPatientDICOM": [1, 0, 0, 0, 0.971134, -0.238533],
  "ImageType": [
    "ORIGINAL",
    "PRIMARY",
    "M",
    "ND",
    "MOSAIC"
],
  "InPlanePhaseEncodingDirectionDICOM": "COL",
  "InstitutionAddress": "Street_StreetNo_Bei_Jing_District_CN_ZIP",
  "InstitutionName": "BeiJing_Normal_University",
  "InstitutionalDepartmentName": "Department",
  "MRAcquisitionType": "2D",
  "MagneticFieldStrength": 3,
  "Manufacturer": "Siemens",
  "ManufacturersModelName": "Prisma",
  "Modality": "MR",
  "MultibandAccelerationFactor": 3,
  "PartialFourier": 1,
  "PatientPosition": "HFS",
  "PercentPhaseFOV": 100,
  "PhaseEncodingDirection": "j-",
  "PhaseEncodingSteps": 100,
  "PhaseResolution": 1,
  "PixelBandwidth": 2380,
  "ProcedureStepDescription": "BNU_P2018_64CH_Zhen.ZongLei",
  "ProtocolName": "bold_100x100_s3_2x2x2_static_256",
  "PulseSequenceDetails": "%SiemensSeq%_ep2d_bold",
  "ReceiveCoilActiveElements": "HC1-7;NC1",
  "ReceiveCoilName": "HeadNeck_64",
  "ReconMatrixPE": 100,
  "RepetitionTime": 2,
  "SAR": 0.0791928,
  "ScanOptions": "FS",
  "ScanningSequence": "EP",
  "SequenceName": "_epfid2d1_100",
  "SequenceVariant": "SK",
  "SeriesDescription": "bold_100x100_s3_2x2x2_static_256",
  "SeriesNumber": 12,
  "ShimSetting": [-5469, -11479, -1225, 278, -34, -346, -158, 82],
  "SliceThickness": 2,
  "SliceTiming": [1.4825, 0, 0.9875, 0.0825, 1.07, 0.1625, 1.1525, 0.245, 1.235, 0.3275, 1.3175, 0.41, 1.4, 0.575, 1.565, 0.6575, 1.6475, 0.74, 1.73, 0.8225, 1.8125, 0.905, 1.895, 0.4925, 1.4825, 0, 0.9875, 0.0825, 1.07, 0.1625, 1.1525, 0.245, 1.235, 0.3275, 1.3175, 0.41, 1.4, 0.575, 1.565, 0.6575, 1.6475, 0.74, 1.73, 0.8225, 1.8125, 0.905, 1.895, 0.4925, 1.4825, 0, 0.9875, 0.0825, 1.07, 0.1625, 1.1525, 0.245, 1.235, 0.3275, 1.3175, 0.41, 1.4, 0.575, 1.565, 0.6575, 1.6475, 0.74, 1.73, 0.8225, 1.8125, 0.905, 1.895, 0.4925],
  "SoftwareVersions": "syngo_MR_E11",
  "SpacingBetweenSlices": 2,
  "StationName": "AWP166078",
  "TaskName": "naturalvision",
  "TotalReadoutTime": 0.0534586,
  "TxRefAmp": 230.166,
  "dcmmeta_affine": [
    [-2.0, 0.0, 0.0, 102.03389739990234],
    [0.0, 1.9422686100006104, -0.4770669639110565, -72.98104858398438],
    [0.0, 0.47706693410873413, 1.9422686100006104, -80.8013916015625],
    [0.0, 0.0, 0.0, 1.0]
],
  "dcmmeta_reorient_transform": [
    [0.0, -1.0, 0.0, 99.0],
    [1.0, 0.0, 0.0, 0.0],
    [0.0, 0.0, 1.0, 0.0],
    [0.0, 0.0, 0.0, 1.0]
],
  "dcmmeta_shape": [100, 100, 72, 256],
  "dcmmeta_slice_dim": 2,
  "dcmmeta_version": 0.6,
  "global": {
    "const": {
      "AcquisitionMatrix": [100, 0, 0, 100],
      "AngioFlag": "N",
      "BitsAllocated": 16,
      "BitsStored": 12,
      "BodyPartExamined": "BRAIN",
      "Columns": 900,
      "EchoNumbers": 1,
      "EchoTime": 34.0,
      "EchoTrainLength": 100,
      "FlipAngle": 90.0,
      "HighBit": 11,
      "ImageOrientationPatient": [1.0, 0.0, 0.0, 0.0, 0.97113427618897, -0.2385334727264],
      "ImagePositionPatient": [-902.03389835358, -896.2109616377, 157.25501559049],
      "ImageType": [
        "ORIGINAL",
        "PRIMARY",
        "M",
        "ND",
        "MOSAIC"
],
      "ImagedNucleus": "1H",
      "ImagingFrequency": 123.257729,
      "InPlanePhaseEncodingDirection": "COL",
      "MRAcquisitionType": "2D",
      "MagneticFieldStrength": 3.0,
      "Manufacturer": "SIEMENS",
      "ManufacturerModelName": "Prisma",
      "Modality": "MR",
      "NumberOfAverages": 1.0,
      "NumberOfPhaseEncodingSteps": 100,
      "PercentPhaseFieldOfView": 100.0,
      "PercentSampling": 100.0,
      "PerformedProcedureStepStartTime": "111206.127000",
      "PhotometricInterpretation": "MONOCHROME2",
      "PixelBandwidth": 2380.0,
      "PixelRepresentation": 0,
      "PixelSpacing": [2.0, 2.0],
      "ProtocolName": "bold_100x100_s3_2x2x2_static_256",
      "RepetitionTime": 2000.0,
      "Rows": 900,
      "SAR": 0.07919283649308,
      "SamplesPerPixel": 1,
      "ScanOptions": "FS",
      "ScanningSequence": "EP",
      "SequenceName": "*epfid2d1_100",
      "SequenceVariant": "SK",
      "SeriesDescription": "bold_100x100_s3_2x2x2_static_256",
      "SeriesNumber": 12,
      "SeriesTime": "122643.238000",
      "SliceLocation": -61.060577232363,
      "SliceThickness": 2.0,
      "SmallestImagePixelValue": 0,
      "SoftwareVersions": "syngo MR E11",
      "SpacingBetweenSlices": 2.0000000254196,
      "SpecificCharacterSet": "ISO_IR 100",
      "StudyID": "1",
      "StudyTime": "111206.067000",
      "TransmitCoilName": "Body",
      "VariableFlipAngleFlag": "N",
      "WindowCenterWidthExplanation": "Algo1",
      "dBdt": 0.0},
    "slices": {}
  },
  "time": {
    "samples": {
      "AcquisitionNumber": [1, 2, 3, 4, 5, 6, 7, 8, 9, 10, 11, 12, 13, 14, 15, 16, 17, 18, 19, 20, 21, 22, 23, 24, 25, 26, 27, 28, 29, 30, 31, 32, 33, 34, 35, 36, 37, 38, 39, 40, 41, 42, 43, 44, 45, 46, 47, 48, 49, 50, 51, 52, 53, 54, 55, 56, 57, 58, 59, 60, 61, 62, 63, 64, 65, 66, 67, 68, 69, 70, 71, 72, 73, 74, 75, 76, 77, 78, 79, 80, 81, 82, 83, 84, 85, 86, 87, 88, 89, 90, 91, 92, 93, 94, 95, 96, 97, 98, 99, 100, 101, 102, 103, 104, 105, 106, 107, 108, 109, 110, 111, 112, 113, 114, 115, 116, 117, 118, 119, 120, 121, 122, 123, 124, 125, 126, 127, 128, 129, 130, 131, 132, 133, 134, 135, 136, 137, 138, 139, 140, 141, 142, 143, 144, 145, 146, 147, 148, 149, 150, 151, 152, 153, 154, 155, 156, 157, 158, 159, 160, 161, 162, 163, 164, 165, 166, 167, 168, 169, 170, 171, 172, 173, 174, 175, 176, 177, 178, 179, 180, 181, 182, 183, 184, 185, 186, 187, 188, 189, 190, 191, 192, 193, 194, 195, 196, 197, 198, 199, 200, 201, 202, 203, 204, 205, 206, 207, 208, 209, 210, 211, 212, 213, 214, 215, 216, 217, 218, 219, 220, 221, 222, 223, 224, 225, 226, 227, 228, 229, 230, 231, 232, 233, 234, 235, 236, 237, 238, 239, 240, 241, 242, 243, 244, 245, 246, 247, 248, 249, 250, 251, 252, 253, 254, 255, 256],
      "AcquisitionTime": ["122640.110000", "122642.110000", "122644.110000", "122646.110000", "122648.110000", "122650.110000", "122652.110000", "122654.110000", "122656.110000", "122658.110000", "122700.110000", "122702.110000", "122704.110000", "122706.110000", "122708.110000", "122710.110000", "122712.110000", "122714.110000", "122716.110000", "122718.110000", "122720.110000", "122722.110000", "122724.110000", "122726.110000", "122728.110000", "122730.110000", "122732.110000", "122734.110000", "122736.110000", "122738.110000", "122740.110000", "122742.110000", "122744.110000", "122746.110000", "122748.110000", "122750.110000", "122752.110000", "122754.110000", "122756.110000", "122758.110000", "122800.110000", "122802.110000", "122804.110000", "122806.110000", "122808.110000", "122810.110000", "122812.110000", "122814.110000", "122816.110000", "122818.110000", "122820.110000", "122822.110000", "122824.110000", "122826.110000", "122828.110000", "122830.110000", "122832.110000", "122834.110000", "122836.110000", "122838.110000", "122840.110000", "122842.110000", "122844.110000", "122846.110000", "122848.110000", "122850.110000", "122852.110000", "122854.110000", "122856.110000", "122858.110000", "122900.110000", "122902.110000", "122904.110000", "122906.110000", "122908.110000", "122910.110000", "122912.110000", "122914.110000", "122916.110000", "122918.110000", "122920.110000", "122922.110000", "122924.110000", "122926.110000", "122928.110000", "122930.110000", "122932.110000", "122934.110000", "122936.110000", "122938.110000", "122940.110000", "122942.110000", "122944.110000", "122946.110000", "122948.110000", "122950.110000", "122952.110000", "122954.110000", "122956.110000", "122958.110000", "123000.110000", "123002.110000", "123004.110000", "123006.110000", "123008.110000", "123010.110000", "123012.110000", "123014.110000", "123016.110000", "123018.110000", "123020.110000", "123022.110000", "123024.110000", "123026.110000", "123028.110000", "123030.110000", "123032.110000", "123034.110000", "123036.110000", "123038.110000", "123040.110000", "123042.110000", "123044.110000", "123046.110000", "123048.110000", "123050.110000", "123052.110000", "123054.110000", "123056.110000", "123058.110000", "123100.110000", "123102.110000", "123104.110000", "123106.110000", "123108.110000", "123110.110000", "123112.110000", "123114.110000", "123116.110000", "123118.110000", "123120.110000", "123122.110000", "123124.110000", "123126.110000", "123128.110000", "123130.110000", "123132.110000", "123134.110000", "123136.110000", "123138.110000", "123140.110000", "123142.110000", "123144.110000", "123146.110000", "123148.110000", "123150.110000", "123152.110000", "123154.110000", "123156.110000", "123158.110000", "123200.110000", "123202.110000", "123204.110000", "123206.110000", "123208.110000", "123210.110000", "123212.110000", "123214.110000", "123216.110000", "123218.110000", "123220.110000", "123222.110000", "123224.110000", "123226.110000", "123228.110000", "123230.110000", "123232.110000", "123234.110000", "123236.110000", "123238.110000", "123240.110000", "123242.110000", "123244.110000", "123246.110000", "123248.110000", "123250.110000", "123252.110000", "123254.110000", "123256.110000", "123258.110000", "123300.110000", "123302.110000", "123304.110000", "123306.110000", "123308.110000", "123310.110000", "123312.110000", "123314.110000", "123316.110000", "123318.110000", "123320.110000", "123322.110000", "123324.110000", "123326.110000", "123328.110000", "123330.110000", "123332.110000", "123334.110000", "123336.110000", "123338.110000", "123340.110000", "123342.110000", "123344.110000", "123346.110000", "123348.110000", "123350.110000", "123352.110000", "123354.110000", "123356.110000", "123358.110000", "123400.110000", "123402.110000", "123404.110000", "123406.110000", "123408.110000", "123410.110000", "123412.110000", "123414.110000", "123416.110000", "123418.110000", "123420.110000", "123422.110000", "123424.110000", "123426.110000", "123428.110000", "123430.110000", "123432.110000", "123434.110000", "123436.110000", "123438.110000", "123440.110000", "123442.110000", "123444.110000", "123446.110000", "123448.110000", "123450.110000", "123452.110000", "123454.110000", "123456.110000", "123458.110000", "123500.110000", "123502.110000", "123504.110000", "123506.110000", "123508.110000", "123510.110000"],
      "ContentTime": ["122643.241000", "122644.736000", "122646.736000", "122648.737000", "122650.737000", "122652.737000", "122654.738000", "122656.737000", "122658.737000", "122700.736000", "122702.736000", "122704.737000", "122706.738000", "122708.738000", "122710.738000", "122712.737000", "122714.737000", "122716.736000", "122718.736000", "122720.737000", "122722.736000", "122724.737000", "122726.737000", "122728.737000", "122730.738000", "122732.738000", "122734.736000", "122736.236000", "122738.736000", "122740.737000", "122742.737000", "122744.737000", "122746.737000", "122748.737000", "122750.737000", "122752.736000", "122754.737000", "122756.736000", "122758.737000", "122800.737000", "122802.737000", "122804.738000", "122806.737000", "122808.736000", "122810.736000", "122812.236000", "122814.737000", "122816.737000", "122818.737000", "122820.737000", "122822.737000", "122824.738000", "122826.737000", "122828.737000", "122830.736000", "122832.737000", "122834.738000", "122836.737000", "122838.738000", "122840.737000", "122842.738000", "122844.736000", "122846.737000", "122848.737000", "122850.738000", "122852.738000", "122854.738000", "122856.738000", "122858.737000", "122900.738000", "122902.736000", "122904.737000", "122906.736000", "122908.738000", "122910.738000", "122912.738000", "122914.738000", "122916.738000", "122918.737000", "122920.737000", "122922.737000", "122924.737000", "122926.737000", "122928.738000", "122930.738000", "122932.737000", "122934.737000", "122936.736000", "122938.737000", "122940.736000", "122942.737000", "122944.737000", "122946.737000", "122948.737000", "122950.737000", "122952.737000", "122954.736000", "122956.736000", "122958.736000", "123000.737000", "123002.738000", "123004.737000", "123006.738000", "123008.737000", "123010.737000", "123012.736000", "123014.736000", "123016.737000", "123018.737000", "123020.737000", "123022.737000", "123024.737000", "123026.737000", "123028.737000", "123030.736000", "123032.736000", "123034.737000", "123036.738000", "123038.738000", "123040.737000", "123042.737000", "123044.738000", "123046.737000", "123048.737000", "123050.737000", "123052.736000", "123054.738000", "123056.738000", "123058.738000", "123100.737000", "123102.738000", "123104.736000", "123106.737000", "123108.736000", "123110.738000", "123112.737000", "123114.737000", "123116.737000", "123118.738000", "123120.738000", "123122.737000", "123124.737000", "123126.737000", "123128.737000", "123130.738000", "123132.738000", "123134.737000", "123136.738000", "123138.736000", "123140.737000", "123142.737000", "123144.736000", "123146.737000", "123148.737000", "123150.737000", "123152.737000", "123154.737000", "123156.736000", "123158.737000", "123200.737000", "123202.738000", "123204.737000", "123206.737000", "123208.738000", "123210.737000", "123212.737000", "123214.736000", "123216.737000", "123218.737000", "123220.737000", "123222.737000", "123224.737000", "123226.737000", "123228.737000", "123230.737000", "123232.737000", "123234.737000", "123236.737000", "123238.738000", "123240.738000", "123242.737000", "123244.737000", "123246.738000", "123248.736000", "123250.736000", "123252.736000", "123254.736000", "123256.737000", "123258.737000", "123300.737000", "123302.737000", "123304.737000", "123306.737000", "123308.736000", "123310.736000", "123312.737000", "123314.737000", "123316.737000", "123318.738000", "123320.737000", "123322.738000", "123324.736000", "123326.737000", "123328.737000", "123330.737000", "123332.737000", "123334.737000", "123336.737000", "123338.738000", "123340.738000", "123342.737000", "123344.737000", "123346.737000", "123348.738000", "123350.738000", "123352.738000", "123354.237000", "123356.737000", "123358.736000", "123400.737000", "123402.737000", "123404.737000", "123406.737000", "123408.737000", "123410.738000", "123412.737000", "123414.738000", "123416.736000", "123418.736000", "123420.737000", "123422.737000", "123424.738000", "123426.738000", "123428.737000", "123430.737000", "123432.737000", "123434.736000", "123436.237000", "123438.736000", "123440.738000", "123442.738000", "123444.737000", "123446.737000", "123448.738000", "123450.736000", "123452.736000", "123454.736000", "123456.736000", "123458.737000", "123500.737000", "123502.737000", "123504.737000", "123506.737000", "123508.737000", "123510.737000", "123512.377000"],
      "InstanceCreationTime": ["122643.241000", "122644.736000", "122646.736000", "122648.737000", "122650.737000", "122652.737000", "122654.738000", "122656.737000", "122658.737000", "122700.736000", "122702.736000", "122704.737000", "122706.738000", "122708.738000", "122710.738000", "122712.737000", "122714.737000", "122716.736000", "122718.736000", "122720.737000", "122722.736000", "122724.737000", "122726.737000", "122728.737000", "122730.738000", "122732.738000", "122734.736000", "122736.236000", "122738.736000", "122740.737000", "122742.737000", "122744.737000", "122746.737000", "122748.737000", "122750.737000", "122752.736000", "122754.737000", "122756.736000", "122758.737000", "122800.737000", "122802.737000", "122804.738000", "122806.737000", "122808.736000", "122810.736000", "122812.236000", "122814.737000", "122816.737000", "122818.737000", "122820.737000", "122822.737000", "122824.738000", "122826.737000", "122828.737000", "122830.736000", "122832.737000", "122834.738000", "122836.737000", "122838.738000", "122840.737000", "122842.738000", "122844.736000", "122846.737000", "122848.737000", "122850.738000", "122852.738000", "122854.738000", "122856.738000", "122858.737000", "122900.738000", "122902.736000", "122904.737000", "122906.736000", "122908.738000", "122910.738000", "122912.738000", "122914.738000", "122916.738000", "122918.737000", "122920.737000", "122922.737000", "122924.737000", "122926.737000", "122928.738000", "122930.738000", "122932.737000", "122934.737000", "122936.736000", "122938.737000", "122940.736000", "122942.737000", "122944.737000", "122946.737000", "122948.737000", "122950.737000", "122952.737000", "122954.736000", "122956.736000", "122958.736000", "123000.737000", "123002.738000", "123004.737000", "123006.738000", "123008.737000", "123010.737000", "123012.736000", "123014.736000", "123016.737000", "123018.737000", "123020.737000", "123022.737000", "123024.737000", "123026.737000", "123028.737000", "123030.736000", "123032.736000", "123034.737000", "123036.738000", "123038.738000", "123040.737000", "123042.737000", "123044.738000", "123046.737000", "123048.737000", "123050.737000", "123052.736000", "123054.738000", "123056.738000", "123058.738000", "123100.737000", "123102.738000", "123104.736000", "123106.737000", "123108.736000", "123110.738000", "123112.737000", "123114.737000", "123116.737000", "123118.738000", "123120.738000", "123122.737000", "123124.737000", "123126.737000", "123128.737000", "123130.738000", "123132.738000", "123134.737000", "123136.738000", "123138.736000", "123140.737000", "123142.737000", "123144.736000", "123146.737000", "123148.737000", "123150.737000", "123152.737000", "123154.737000", "123156.736000", "123158.737000", "123200.737000", "123202.738000", "123204.737000", "123206.737000", "123208.738000", "123210.737000", "123212.737000", "123214.736000", "123216.737000", "123218.737000", "123220.737000", "123222.737000", "123224.737000", "123226.737000", "123228.737000", "123230.737000", "123232.737000", "123234.737000", "123236.737000", "123238.738000", "123240.738000", "123242.737000", "123244.737000", "123246.738000", "123248.736000", "123250.736000", "123252.736000", "123254.736000", "123256.737000", "123258.737000", "123300.737000", "123302.737000", "123304.737000", "123306.737000", "123308.736000", "123310.736000", "123312.737000", "123314.737000", "123316.737000", "123318.738000", "123320.737000", "123322.738000", "123324.736000", "123326.737000", "123328.737000", "123330.737000", "123332.737000", "123334.737000", "123336.737000", "123338.738000", "123340.738000", "123342.737000", "123344.737000", "123346.737000", "123348.738000", "123350.738000", "123352.738000", "123354.237000", "123356.737000", "123358.736000", "123400.737000", "123402.737000", "123404.737000", "123406.737000", "123408.737000", "123410.738000", "123412.737000", "123414.738000", "123416.736000", "123418.736000", "123420.737000", "123422.737000", "123424.738000", "123426.738000", "123428.737000", "123430.737000", "123432.737000", "123434.736000", "123436.237000", "123438.736000", "123440.738000", "123442.738000", "123444.737000", "123446.737000", "123448.738000", "123450.736000", "123452.736000", "123454.736000", "123456.736000", "123458.737000", "123500.737000", "123502.737000", "123504.737000", "123506.737000", "123508.737000", "123510.737000", "123512.377000"],
      "InstanceNumber": [1, 2, 3, 4, 5, 6, 7, 8, 9, 10, 11, 12, 13, 14, 15, 16, 17, 18, 19, 20, 21, 22, 23, 24, 25, 26, 27, 28, 29, 30, 31, 32, 33, 34, 35, 36, 37, 38, 39, 40, 41, 42, 43, 44, 45, 46, 47, 48, 49, 50, 51, 52, 53, 54, 55, 56, 57, 58, 59, 60, 61, 62, 63, 64, 65, 66, 67, 68, 69, 70, 71, 72, 73, 74, 75, 76, 77, 78, 79, 80, 81, 82, 83, 84, 85, 86, 87, 88, 89, 90, 91, 92, 93, 94, 95, 96, 97, 98, 99, 100, 101, 102, 103, 104, 105, 106, 107, 108, 109, 110, 111, 112, 113, 114, 115, 116, 117, 118, 119, 120, 121, 122, 123, 124, 125, 126, 127, 128, 129, 130, 131, 132, 133, 134, 135, 136, 137, 138, 139, 140, 141, 142, 143, 144, 145, 146, 147, 148, 149, 150, 151, 152, 153, 154, 155, 156, 157, 158, 159, 160, 161, 162, 163, 164, 165, 166, 167, 168, 169, 170, 171, 172, 173, 174, 175, 176, 177, 178, 179, 180, 181, 182, 183, 184, 185, 186, 187, 188, 189, 190, 191, 192, 193, 194, 195, 196, 197, 198, 199, 200, 201, 202, 203, 204, 205, 206, 207, 208, 209, 210, 211, 212, 213, 214, 215, 216, 217, 218, 219, 220, 221, 222, 223, 224, 225, 226, 227, 228, 229, 230, 231, 232, 233, 234, 235, 236, 237, 238, 239, 240, 241, 242, 243, 244, 245, 246, 247, 248, 249, 250, 251, 252, 253, 254, 255, 256],
      "LargestImagePixelValue": [3619, 3475, 3433, 3378, 3335, 3399, 3428, 3384, 3402, 3425, 3425, 3392, 3414, 3470, 3459, 3576, 3414, 3377, 3357, 3407, 3445, 3466, 3455, 3421, 3403, 3393, 3432, 3435, 3482, 3484, 3512, 3478, 3458, 3442, 3460, 3493, 3469, 3473, 3499, 3506, 3496, 3492, 3467, 3458, 3453, 3470, 3471, 3468, 3436, 3441, 3409, 3447, 3431, 3408, 3420, 3422, 3396, 3436, 3463, 3457, 3402, 3378, 3405, 3415, 3448, 3433, 3374, 3421, 3410, 3439, 3446, 3402, 3408, 3462, 3461, 3483, 3486, 3483, 3424, 3446, 3451, 3463, 3511, 3479, 3502, 3515, 3464, 3432, 3435, 3448, 3434, 3438, 3427, 3433, 3453, 3414, 3439, 3443, 3471, 3500, 3491, 3449, 3403, 3450, 3439, 3481, 3469, 3459, 3488, 3482, 3442, 3454, 3592, 3436, 3408, 3431, 3448, 3478, 3473, 3484, 3465, 3494, 3469, 3505, 3547, 3523, 3515, 3478, 3462, 3451, 3460, 3430, 3449, 3463, 3428, 3462, 3464, 3424, 3417, 3395, 3475, 3430, 3399, 3462, 3485, 3495, 3502, 3499, 3520, 3504, 3517, 3528, 3514, 3517, 3511, 3464, 3413, 3433, 3525, 3479, 3518, 3478, 3500, 3490, 3493, 3451, 3458, 3466, 3430, 3466, 3467, 3490, 3448, 3414, 3394, 3392, 3446, 3473, 3487, 3496, 3496, 3466, 3457, 3435, 3456, 3437, 3444, 3493, 3503, 3509, 3538, 3525, 3476, 3442, 3427, 3435, 3416, 3443, 3430, 3409, 3416, 3433, 3424, 3454, 3429, 3460, 3461, 3486, 3467, 3445, 3402, 3376, 3424, 3434, 3420, 3452, 3428, 3447, 3431, 3368, 3381, 3368, 3402, 3417, 3461, 3471, 3477, 3488, 3440, 3447, 3459, 3494, 3532, 3498, 3464, 3465, 3442, 3399, 3414, 3399, 3393, 3409, 3423, 3384, 3416, 3401, 3433, 3474, 3468, 3485, 3462, 3492, 3458, 3452, 3456, 3482],
      "WindowCenter": [764.0, 764.0, 764.0, 764.0, 762.0, 762.0, 762.0, 761.0, 761.0, 761.0, 761.0, 762.0, 761.0, 761.0, 761.0, 763.0, 763.0, 764.0, 763.0, 762.0, 762.0, 762.0, 763.0, 762.0, 763.0, 762.0, 761.0, 760.0, 761.0, 761.0, 762.0, 763.0, 763.0, 763.0, 763.0, 764.0, 763.0, 762.0, 762.0, 762.0, 764.0, 765.0, 765.0, 765.0, 764.0, 765.0, 765.0, 766.0, 767.0, 766.0, 766.0, 765.0, 765.0, 766.0, 767.0, 766.0, 765.0, 764.0, 765.0, 766.0, 767.0, 767.0, 767.0, 767.0, 767.0, 768.0, 768.0, 767.0, 766.0, 765.0, 765.0, 765.0, 765.0, 764.0, 764.0, 763.0, 763.0, 764.0, 764.0, 764.0, 763.0, 763.0, 763.0, 763.0, 764.0, 766.0, 767.0, 768.0, 768.0, 768.0, 769.0, 768.0, 768.0, 767.0, 767.0, 768.0, 768.0, 766.0, 766.0, 766.0, 767.0, 767.0, 767.0, 765.0, 764.0, 764.0, 764.0, 764.0, 765.0, 765.0, 766.0, 766.0, 770.0, 768.0, 766.0, 765.0, 764.0, 763.0, 763.0, 764.0, 764.0, 765.0, 764.0, 764.0, 765.0, 765.0, 765.0, 766.0, 767.0, 768.0, 768.0, 768.0, 768.0, 768.0, 767.0, 767.0, 768.0, 770.0, 770.0, 769.0, 769.0, 770.0, 769.0, 768.0, 767.0, 766.0, 765.0, 765.0, 764.0, 764.0, 765.0, 766.0, 765.0, 765.0, 766.0, 767.0, 765.0, 764.0, 763.0, 762.0, 762.0, 762.0, 763.0, 764.0, 765.0, 766.0, 767.0, 767.0, 767.0, 766.0, 766.0, 767.0, 768.0, 770.0, 771.0, 769.0, 768.0, 767.0, 767.0, 768.0, 769.0, 769.0, 768.0, 767.0, 767.0, 767.0, 767.0, 767.0, 766.0, 765.0, 766.0, 769.0, 770.0, 769.0, 769.0, 768.0, 767.0, 767.0, 769.0, 769.0, 769.0, 769.0, 768.0, 769.0, 768.0, 767.0, 767.0, 767.0, 768.0, 769.0, 769.0, 769.0, 768.0, 768.0, 767.0, 768.0, 768.0, 768.0, 769.0, 770.0, 770.0, 769.0, 767.0, 766.0, 764.0, 765.0, 765.0, 767.0, 767.0, 766.0, 766.0, 765.0, 765.0, 766.0, 767.0, 767.0, 768.0, 769.0, 769.0, 769.0, 769.0, 770.0, 770.0, 771.0, 771.0, 769.0, 768.0, 768.0, 768.0, 767.0, 767.0, 768.0, 769.0, 767.0, 766.0, 764.0],
      "WindowWidth": [1639.0, 1639.0, 1640.0, 1639.0, 1636.0, 1634.0, 1635.0, 1634.0, 1632.0, 1634.0, 1634.0, 1635.0, 1633.0, 1633.0, 1633.0, 1639.0, 1639.0, 1641.0, 1639.0, 1637.0, 1635.0, 1636.0, 1638.0, 1637.0, 1638.0, 1635.0, 1632.0, 1631.0, 1632.0, 1632.0, 1636.0, 1638.0, 1638.0, 1638.0, 1639.0, 1640.0, 1637.0, 1637.0, 1635.0, 1636.0, 1639.0, 1642.0, 1643.0, 1642.0, 1641.0, 1643.0, 1644.0, 1647.0, 1647.0, 1647.0, 1645.0, 1644.0, 1644.0, 1646.0, 1649.0, 1646.0, 1642.0, 1640.0, 1643.0, 1645.0, 1648.0, 1650.0, 1648.0, 1647.0, 1649.0, 1652.0, 1652.0, 1648.0, 1645.0, 1643.0, 1643.0, 1644.0, 1642.0, 1639.0, 1639.0, 1638.0, 1639.0, 1642.0, 1641.0, 1640.0, 1638.0, 1637.0, 1638.0, 1639.0, 1641.0, 1645.0, 1649.0, 1651.0, 1651.0, 1652.0, 1653.0, 1652.0, 1650.0, 1649.0, 1649.0, 1651.0, 1650.0, 1646.0, 1645.0, 1645.0, 1647.0, 1649.0, 1647.0, 1643.0, 1641.0, 1640.0, 1641.0, 1640.0, 1642.0, 1644.0, 1645.0, 1645.0, 1655.0, 1651.0, 1646.0, 1643.0, 1639.0, 1637.0, 1639.0, 1641.0, 1641.0, 1642.0, 1640.0, 1639.0, 1642.0, 1642.0, 1643.0, 1645.0, 1647.0, 1649.0, 1650.0, 1651.0, 1650.0, 1651.0, 1648.0, 1648.0, 1652.0, 1656.0, 1655.0, 1652.0, 1652.0, 1656.0, 1653.0, 1650.0, 1648.0, 1646.0, 1644.0, 1642.0, 1641.0, 1640.0, 1644.0, 1645.0, 1643.0, 1642.0, 1646.0, 1649.0, 1643.0, 1639.0, 1637.0, 1634.0, 1635.0, 1634.0, 1637.0, 1639.0, 1641.0, 1644.0, 1647.0, 1648.0, 1648.0, 1646.0, 1646.0, 1649.0, 1652.0, 1657.0, 1657.0, 1653.0, 1649.0, 1647.0, 1648.0, 1651.0, 1653.0, 1653.0, 1651.0, 1649.0, 1647.0, 1648.0, 1648.0, 1647.0, 1644.0, 1641.0, 1646.0, 1652.0, 1654.0, 1654.0, 1652.0, 1651.0, 1649.0, 1648.0, 1654.0, 1655.0, 1654.0, 1652.0, 1652.0, 1653.0, 1651.0, 1648.0, 1648.0, 1649.0, 1650.0, 1654.0, 1654.0, 1653.0, 1651.0, 1650.0, 1648.0, 1651.0, 1652.0, 1651.0, 1653.0, 1656.0, 1656.0, 1653.0, 1649.0, 1644.0, 1641.0, 1642.0, 1643.0, 1647.0, 1648.0, 1646.0, 1644.0, 1642.0, 1643.0, 1646.0, 1647.0, 1648.0, 1651.0, 1652.0, 1653.0, 1653.0, 1654.0, 1655.0, 1656.0, 1657.0, 1659.0, 1653.0, 1651.0, 1652.0, 1651.0, 1649.0, 1649.0, 1651.0, 1652.0, 1648.0, 1644.0, 1639.0]
    },
    "slices": {}
  }
}