{
  "AcquisitionMatrixPE": 100,
  "AcquisitionNumber": 1,
  "AcquisitionTime": "11:25:18.500000",
  "BandwidthPerPixelPhaseEncode": 18.519,
  "BaseResolution": 100,
  "BodyPartExamined": "BRAIN",
  "ConsistencyInfo": "N4_VE11C_LATEST_20160120",
  "ConversionSoftware": "dcm2niix",
  "ConversionSoftwareVersion": "v1.0.20180622 GCC4.9.2",
  "DerivedVendorReportedEchoSpacing": 0.000539986,
  "DeviceSerialNumber": "166078",
  "DwellTime": 2.1e-06,
  "EchoTime": 0.034,
  "EchoTrainLength": 100,
  "EffectiveEchoSpacing": 0.000539986,
  "FlipAngle": 90,
  "ImageOrientationPatientDICOM": [1, 0, 0, 0, 0.971134, -0.238533],
  "ImageType": [
    "ORIGINAL",
    "PRIMARY",
    "M",
    "ND",
    "MOSAIC"
],
  "InPlanePhaseEncodingDirectionDICOM": "COL",
  "InstitutionAddress": "Street_StreetNo_Bei_Jing_District_CN_ZIP",
  "InstitutionName": "BeiJing_Normal_University",
  "InstitutionalDepartmentName": "Department",
  "MRAcquisitionType": "2D",
  "MagneticFieldStrength": 3,
  "Manufacturer": "Siemens",
  "ManufacturersModelName": "Prisma",
  "Modality": "MR",
  "MultibandAccelerationFactor": 3,
  "PartialFourier": 1,
  "PatientPosition": "HFS",
  "PercentPhaseFOV": 100,
  "PhaseEncodingDirection": "j-",
  "PhaseEncodingSteps": 100,
  "PhaseResolution": 1,
  "PixelBandwidth": 2380,
  "ProcedureStepDescription": "BNU_P2018_64CH_Zhen.ZongLei",
  "ProtocolName": "bold_100x100_s3_2x2x2_static_256",
  "PulseSequenceDetails": "%SiemensSeq%_ep2d_bold",
  "ReceiveCoilActiveElements": "HC1-7;NC1",
  "ReceiveCoilName": "HeadNeck_64",
  "ReconMatrixPE": 100,
  "RepetitionTime": 2,
  "SAR": 0.0791928,
  "ScanOptions": "FS",
  "ScanningSequence": "EP",
  "SequenceName": "_epfid2d1_100",
  "SequenceVariant": "SK",
  "SeriesDescription": "bold_100x100_s3_2x2x2_static_256",
  "SeriesNumber": 4,
  "ShimSetting": [-5469, -11479, -1225, 278, -34, -346, -158, 82],
  "SliceThickness": 2,
  "SliceTiming": [1.485, 0, 0.99, 0.0825, 1.0725, 0.165, 1.155, 0.2475, 1.2375, 0.33, 1.32, 0.4125, 1.4025, 0.5775, 1.5675, 0.66, 1.65, 0.7425, 1.7325, 0.825, 1.815, 0.9075, 1.8975, 0.495, 1.485, 0, 0.99, 0.0825, 1.0725, 0.165, 1.155, 0.2475, 1.2375, 0.33, 1.32, 0.4125, 1.4025, 0.5775, 1.5675, 0.66, 1.65, 0.7425, 1.7325, 0.825, 1.815, 0.9075, 1.8975, 0.495, 1.485, 0, 0.99, 0.0825, 1.0725, 0.165, 1.155, 0.2475, 1.2375, 0.33, 1.32, 0.4125, 1.4025, 0.5775, 1.5675, 0.66, 1.65, 0.7425, 1.7325, 0.825, 1.815, 0.9075, 1.8975, 0.495],
  "SoftwareVersions": "syngo_MR_E11",
  "SpacingBetweenSlices": 2,
  "StationName": "AWP166078",
  "TaskName": "naturalvision",
  "TotalReadoutTime": 0.0534586,
  "TxRefAmp": 230.166,
  "dcmmeta_affine": [
    [-2.0, 0.0, 0.0, 102.03389739990234],
    [0.0, 1.9422686100006104, -0.4770669639110565, -72.98104858398438],
    [0.0, 0.47706693410873413, 1.9422686100006104, -80.8013916015625],
    [0.0, 0.0, 0.0, 1.0]
],
  "dcmmeta_reorient_transform": [
    [0.0, -1.0, 0.0, 99.0],
    [1.0, 0.0, 0.0, 0.0],
    [0.0, 0.0, 1.0, 0.0],
    [0.0, 0.0, 0.0, 1.0]
],
  "dcmmeta_shape": [100, 100, 72, 256],
  "dcmmeta_slice_dim": 2,
  "dcmmeta_version": 0.6,
  "global": {
    "const": {
      "AcquisitionMatrix": [100, 0, 0, 100],
      "AngioFlag": "N",
      "BitsAllocated": 16,
      "BitsStored": 12,
      "BodyPartExamined": "BRAIN",
      "Columns": 900,
      "EchoNumbers": 1,
      "EchoTime": 34.0,
      "EchoTrainLength": 100,
      "FlipAngle": 90.0,
      "HighBit": 11,
      "ImageOrientationPatient": [1.0, 0.0, 0.0, 0.0, 0.97113427618897, -0.2385334727264],
      "ImagePositionPatient": [-902.03389835358, -896.2109616377, 157.25501559049],
      "ImageType": [
        "ORIGINAL",
        "PRIMARY",
        "M",
        "ND",
        "MOSAIC"
],
      "ImagedNucleus": "1H",
      "ImagingFrequency": 123.257707,
      "InPlanePhaseEncodingDirection": "COL",
      "MRAcquisitionType": "2D",
      "MagneticFieldStrength": 3.0,
      "Manufacturer": "SIEMENS",
      "ManufacturerModelName": "Prisma",
      "Modality": "MR",
      "NumberOfAverages": 1.0,
      "NumberOfPhaseEncodingSteps": 100,
      "PercentPhaseFieldOfView": 100.0,
      "PercentSampling": 100.0,
      "PerformedProcedureStepStartTime": "111206.127000",
      "PhotometricInterpretation": "MONOCHROME2",
      "PixelBandwidth": 2380.0,
      "PixelRepresentation": 0,
      "PixelSpacing": [2.0, 2.0],
      "ProtocolName": "bold_100x100_s3_2x2x2_static_256",
      "RepetitionTime": 2000.0,
      "Rows": 900,
      "SAR": 0.07919283649308,
      "SamplesPerPixel": 1,
      "ScanOptions": "FS",
      "ScanningSequence": "EP",
      "SequenceName": "*epfid2d1_100",
      "SequenceVariant": "SK",
      "SeriesDescription": "bold_100x100_s3_2x2x2_static_256",
      "SeriesNumber": 4,
      "SeriesTime": "112520.516000",
      "SliceLocation": -61.060577232363,
      "SliceThickness": 2.0,
      "SmallestImagePixelValue": 0,
      "SoftwareVersions": "syngo MR E11",
      "SpacingBetweenSlices": 2.0000000254196,
      "SpecificCharacterSet": "ISO_IR 100",
      "StudyID": "1",
      "StudyTime": "111206.067000",
      "TransmitCoilName": "Body",
      "VariableFlipAngleFlag": "N",
      "WindowCenterWidthExplanation": "Algo1",
      "dBdt": 0.0},
    "slices": {}
  },
  "time": {
    "samples": {
      "AcquisitionNumber": [1, 2, 3, 4, 5, 6, 7, 8, 9, 10, 11, 12, 13, 14, 15, 16, 17, 18, 19, 20, 21, 22, 23, 24, 25, 26, 27, 28, 29, 30, 31, 32, 33, 34, 35, 36, 37, 38, 39, 40, 41, 42, 43, 44, 45, 46, 47, 48, 49, 50, 51, 52, 53, 54, 55, 56, 57, 58, 59, 60, 61, 62, 63, 64, 65, 66, 67, 68, 69, 70, 71, 72, 73, 74, 75, 76, 77, 78, 79, 80, 81, 82, 83, 84, 85, 86, 87, 88, 89, 90, 91, 92, 93, 94, 95, 96, 97, 98, 99, 100, 101, 102, 103, 104, 105, 106, 107, 108, 109, 110, 111, 112, 113, 114, 115, 116, 117, 118, 119, 120, 121, 122, 123, 124, 125, 126, 127, 128, 129, 130, 131, 132, 133, 134, 135, 136, 137, 138, 139, 140, 141, 142, 143, 144, 145, 146, 147, 148, 149, 150, 151, 152, 153, 154, 155, 156, 157, 158, 159, 160, 161, 162, 163, 164, 165, 166, 167, 168, 169, 170, 171, 172, 173, 174, 175, 176, 177, 178, 179, 180, 181, 182, 183, 184, 185, 186, 187, 188, 189, 190, 191, 192, 193, 194, 195, 196, 197, 198, 199, 200, 201, 202, 203, 204, 205, 206, 207, 208, 209, 210, 211, 212, 213, 214, 215, 216, 217, 218, 219, 220, 221, 222, 223, 224, 225, 226, 227, 228, 229, 230, 231, 232, 233, 234, 235, 236, 237, 238, 239, 240, 241, 242, 243, 244, 245, 246, 247, 248, 249, 250, 251, 252, 253, 254, 255, 256],
      "AcquisitionTime": ["112518.500000", "112520.500000", "112522.500000", "112524.500000", "112526.500000", "112528.500000", "112530.500000", "112532.500000", "112534.500000", "112536.500000", "112538.500000", "112540.500000", "112542.500000", "112544.500000", "112546.500000", "112548.500000", "112550.500000", "112552.500000", "112554.500000", "112556.500000", "112558.500000", "112600.500000", "112602.500000", "112604.500000", "112606.500000", "112608.500000", "112610.500000", "112612.500000", "112614.500000", "112616.500000", "112618.500000", "112620.500000", "112622.500000", "112624.500000", "112626.500000", "112628.500000", "112630.500000", "112632.500000", "112634.500000", "112636.500000", "112638.500000", "112640.500000", "112642.500000", "112644.500000", "112646.500000", "112648.500000", "112650.500000", "112652.500000", "112654.500000", "112656.500000", "112658.500000", "112700.500000", "112702.500000", "112704.500000", "112706.500000", "112708.500000", "112710.500000", "112712.500000", "112714.500000", "112716.500000", "112718.500000", "112720.500000", "112722.500000", "112724.500000", "112726.500000", "112728.500000", "112730.500000", "112732.500000", "112734.500000", "112736.500000", "112738.500000", "112740.500000", "112742.500000", "112744.500000", "112746.500000", "112748.500000", "112750.500000", "112752.500000", "112754.500000", "112756.500000", "112758.500000", "112800.500000", "112802.500000", "112804.500000", "112806.500000", "112808.500000", "112810.500000", "112812.500000", "112814.500000", "112816.500000", "112818.500000", "112820.500000", "112822.500000", "112824.500000", "112826.500000", "112828.500000", "112830.500000", "112832.500000", "112834.500000", "112836.500000", "112838.500000", "112840.500000", "112842.500000", "112844.500000", "112846.500000", "112848.500000", "112850.500000", "112852.500000", "112854.500000", "112856.500000", "112858.500000", "112900.500000", "112902.500000", "112904.500000", "112906.500000", "112908.500000", "112910.500000", "112912.500000", "112914.500000", "112916.500000", "112918.500000", "112920.500000", "112922.500000", "112924.500000", "112926.500000", "112928.500000", "112930.500000", "112932.500000", "112934.500000", "112936.500000", "112938.500000", "112940.500000", "112942.500000", "112944.500000", "112946.500000", "112948.500000", "112950.500000", "112952.500000", "112954.500000", "112956.500000", "112958.500000", "113000.500000", "113002.500000", "113004.500000", "113006.500000", "113008.500000", "113010.500000", "113012.500000", "113014.500000", "113016.500000", "113018.500000", "113020.500000", "113022.500000", "113024.500000", "113026.500000", "113028.500000", "113030.500000", "113032.500000", "113034.500000", "113036.500000", "113038.500000", "113040.500000", "113042.500000", "113044.500000", "113046.500000", "113048.500000", "113050.500000", "113052.500000", "113054.500000", "113056.500000", "113058.500000", "113100.500000", "113102.500000", "113104.500000", "113106.500000", "113108.500000", "113110.500000", "113112.500000", "113114.500000", "113116.500000", "113118.500000", "113120.500000", "113122.500000", "113124.500000", "113126.500000", "113128.500000", "113130.500000", "113132.500000", "113134.500000", "113136.500000", "113138.500000", "113140.500000", "113142.500000", "113144.500000", "113146.500000", "113148.500000", "113150.500000", "113152.500000", "113154.500000", "113156.500000", "113158.500000", "113200.500000", "113202.500000", "113204.500000", "113206.500000", "113208.500000", "113210.500000", "113212.500000", "113214.500000", "113216.500000", "113218.500000", "113220.500000", "113222.500000", "113224.500000", "113226.500000", "113228.500000", "113230.500000", "113232.500000", "113234.500000", "113236.500000", "113238.500000", "113240.500000", "113242.500000", "113244.500000", "113246.500000", "113248.500000", "113250.500000", "113252.500000", "113254.500000", "113256.500000", "113258.500000", "113300.500000", "113302.500000", "113304.500000", "113306.500000", "113308.500000", "113310.500000", "113312.500000", "113314.500000", "113316.500000", "113318.500000", "113320.500000", "113322.500000", "113324.500000", "113326.500000", "113328.500000", "113330.500000", "113332.500000", "113334.500000", "113336.500000", "113338.500000", "113340.500000", "113342.500000", "113344.500000", "113346.500000", "113348.500000"],
      "ContentTime": ["112520.520000", "112522.015000", "112524.016000", "112526.016000", "112528.514000", "112530.014000", "112532.015000", "112534.015000", "112536.015000", "112538.015000", "112540.015000", "112542.015000", "112544.015000", "112546.515000", "112548.015000", "112550.015000", "112552.015000", "112554.016000", "112556.015000", "112558.015000", "112600.015000", "112602.016000", "112604.015000", "112606.514000", "112608.515000", "112610.015000", "112612.016000", "112614.015000", "112616.015000", "112618.015000", "112620.015000", "112622.515000", "112624.015000", "112626.014000", "112628.014000", "112630.015000", "112632.015000", "112634.015000", "112636.016000", "112638.016000", "112640.014000", "112642.514000", "112644.014000", "112646.015000", "112648.516000", "112650.015000", "112652.516000", "112654.015000", "112656.014000", "112658.014000", "112700.014000", "112702.014000", "112704.015000", "112706.015000", "112708.016000", "112710.016000", "112712.015000", "112714.015000", "112716.015000", "112718.515000", "112720.014000", "112722.016000", "112724.016000", "112726.516000", "112728.015000", "112730.516000", "112732.014000", "112734.014000", "112736.014000", "112738.514000", "112740.015000", "112742.015000", "112744.016000", "112746.015000", "112748.015000", "112750.015000", "112752.015000", "112754.515000", "112756.015000", "112758.015000", "112800.515000", "112802.016000", "112804.015000", "112806.014000", "112808.015000", "112810.015000", "112812.515000", "112814.515000", "112816.015000", "112818.516000", "112820.015000", "112822.015000", "112824.015000", "112826.014000", "112828.015000", "112830.015000", "112832.015000", "112834.016000", "112836.016000", "112838.015000", "112840.016000", "112842.014000", "112844.014000", "112846.014000", "112848.014000", "112850.015000", "112852.016000", "112854.015000", "112856.016000", "112858.016000", "112900.014000", "112902.014000", "112904.515000", "112906.516000", "112908.015000", "112910.016000", "112912.016000", "112914.015000", "112916.515000", "112918.515000", "112920.515000", "112922.014000", "112924.015000", "112926.015000", "112928.015000", "112930.015000", "112932.515000", "112934.015000", "112936.014000", "112938.514000", "112940.014000", "112942.016000", "112944.015000", "112946.016000", "112948.016000", "112950.015000", "112952.015000", "112954.015000", "112956.014000", "112958.515000", "113000.516000", "113002.016000", "113004.016000", "113006.516000", "113008.016000", "113010.015000", "113012.015000", "113014.014000", "113016.014000", "113018.016000", "113020.516000", "113022.515000", "113024.015000", "113026.014000", "113028.015000", "113030.015000", "113032.015000", "113034.016000", "113036.015000", "113038.015000", "113040.015000", "113042.016000", "113044.014000", "113046.015000", "113048.014000", "113050.015000", "113052.015000", "113054.515000", "113056.015000", "113058.015000", "113100.015000", "113102.015000", "113104.015000", "113106.514000", "113108.014000", "113110.516000", "113112.026000", "113114.515000", "113116.015000", "113118.015000", "113120.015000", "113122.015000", "113124.015000", "113126.515000", "113128.516000", "113130.016000", "113132.015000", "113134.016000", "113136.015000", "113138.014000", "113140.014000", "113142.014000", "113144.015000", "113146.516000", "113148.015000", "113150.515000", "113152.015000", "113154.514000", "113156.015000", "113158.015000", "113200.015000", "113202.015000", "113204.016000", "113206.516000", "113208.516000", "113210.016000", "113212.015000", "113214.015000", "113216.015000", "113218.015000", "113220.516000", "113222.016000", "113224.016000", "113226.015000", "113228.015000", "113230.015000", "113232.015000", "113234.015000", "113236.516000", "113238.515000", "113240.016000", "113242.515000", "113244.516000", "113246.014000", "113248.015000", "113250.014000", "113252.015000", "113254.016000", "113256.015000", "113258.016000", "113300.016000", "113302.516000", "113304.014000", "113306.515000", "113308.015000", "113310.015000", "113312.016000", "113314.016000", "113316.015000", "113318.515000", "113320.015000", "113322.014000", "113324.015000", "113326.015000", "113328.014000", "113330.516000", "113332.516000", "113334.015000", "113336.016000", "113338.015000", "113340.014000", "113342.014000", "113344.515000", "113346.015000", "113348.016000", "113349.896000"],
      "InstanceCreationTime": ["112520.520000", "112522.015000", "112524.016000", "112526.016000", "112528.514000", "112530.014000", "112532.015000", "112534.015000", "112536.015000", "112538.015000", "112540.015000", "112542.015000", "112544.015000", "112546.515000", "112548.015000", "112550.015000", "112552.015000", "112554.016000", "112556.015000", "112558.015000", "112600.015000", "112602.016000", "112604.015000", "112606.514000", "112608.515000", "112610.015000", "112612.016000", "112614.015000", "112616.015000", "112618.015000", "112620.015000", "112622.515000", "112624.015000", "112626.014000", "112628.014000", "112630.015000", "112632.015000", "112634.015000", "112636.016000", "112638.016000", "112640.014000", "112642.514000", "112644.014000", "112646.015000", "112648.516000", "112650.015000", "112652.516000", "112654.015000", "112656.014000", "112658.014000", "112700.014000", "112702.014000", "112704.015000", "112706.015000", "112708.016000", "112710.016000", "112712.015000", "112714.015000", "112716.015000", "112718.515000", "112720.014000", "112722.016000", "112724.016000", "112726.516000", "112728.015000", "112730.516000", "112732.014000", "112734.014000", "112736.014000", "112738.514000", "112740.015000", "112742.015000", "112744.016000", "112746.015000", "112748.015000", "112750.015000", "112752.015000", "112754.515000", "112756.015000", "112758.015000", "112800.515000", "112802.016000", "112804.015000", "112806.014000", "112808.015000", "112810.015000", "112812.515000", "112814.515000", "112816.015000", "112818.516000", "112820.015000", "112822.015000", "112824.015000", "112826.014000", "112828.015000", "112830.015000", "112832.015000", "112834.016000", "112836.016000", "112838.015000", "112840.016000", "112842.014000", "112844.014000", "112846.014000", "112848.014000", "112850.015000", "112852.016000", "112854.015000", "112856.016000", "112858.016000", "112900.014000", "112902.014000", "112904.515000", "112906.516000", "112908.015000", "112910.016000", "112912.016000", "112914.015000", "112916.515000", "112918.515000", "112920.515000", "112922.014000", "112924.015000", "112926.015000", "112928.015000", "112930.015000", "112932.515000", "112934.015000", "112936.014000", "112938.514000", "112940.014000", "112942.016000", "112944.015000", "112946.016000", "112948.016000", "112950.015000", "112952.015000", "112954.015000", "112956.014000", "112958.515000", "113000.516000", "113002.016000", "113004.016000", "113006.516000", "113008.016000", "113010.015000", "113012.015000", "113014.014000", "113016.014000", "113018.016000", "113020.516000", "113022.515000", "113024.015000", "113026.014000", "113028.015000", "113030.015000", "113032.015000", "113034.016000", "113036.015000", "113038.015000", "113040.015000", "113042.016000", "113044.014000", "113046.015000", "113048.014000", "113050.015000", "113052.015000", "113054.515000", "113056.015000", "113058.015000", "113100.015000", "113102.015000", "113104.015000", "113106.514000", "113108.014000", "113110.516000", "113112.026000", "113114.515000", "113116.015000", "113118.015000", "113120.015000", "113122.015000", "113124.015000", "113126.515000", "113128.516000", "113130.016000", "113132.015000", "113134.016000", "113136.015000", "113138.014000", "113140.014000", "113142.014000", "113144.015000", "113146.516000", "113148.015000", "113150.515000", "113152.015000", "113154.514000", "113156.015000", "113158.015000", "113200.015000", "113202.015000", "113204.016000", "113206.516000", "113208.516000", "113210.016000", "113212.015000", "113214.015000", "113216.015000", "113218.015000", "113220.516000", "113222.016000", "113224.016000", "113226.015000", "113228.015000", "113230.015000", "113232.015000", "113234.015000", "113236.516000", "113238.515000", "113240.016000", "113242.515000", "113244.516000", "113246.014000", "113248.015000", "113250.014000", "113252.015000", "113254.016000", "113256.015000", "113258.016000", "113300.016000", "113302.516000", "113304.014000", "113306.515000", "113308.015000", "113310.015000", "113312.016000", "113314.016000", "113316.015000", "113318.515000", "113320.015000", "113322.014000", "113324.015000", "113326.015000", "113328.014000", "113330.516000", "113332.516000", "113334.015000", "113336.016000", "113338.015000", "113340.014000", "113342.014000", "113344.515000", "113346.015000", "113348.016000", "113349.896000"],
      "InstanceNumber": [1, 2, 3, 4, 5, 6, 7, 8, 9, 10, 11, 12, 13, 14, 15, 16, 17, 18, 19, 20, 21, 22, 23, 24, 25, 26, 27, 28, 29, 30, 31, 32, 33, 34, 35, 36, 37, 38, 39, 40, 41, 42, 43, 44, 45, 46, 47, 48, 49, 50, 51, 52, 53, 54, 55, 56, 57, 58, 59, 60, 61, 62, 63, 64, 65, 66, 67, 68, 69, 70, 71, 72, 73, 74, 75, 76, 77, 78, 79, 80, 81, 82, 83, 84, 85, 86, 87, 88, 89, 90, 91, 92, 93, 94, 95, 96, 97, 98, 99, 100, 101, 102, 103, 104, 105, 106, 107, 108, 109, 110, 111, 112, 113, 114, 115, 116, 117, 118, 119, 120, 121, 122, 123, 124, 125, 126, 127, 128, 129, 130, 131, 132, 133, 134, 135, 136, 137, 138, 139, 140, 141, 142, 143, 144, 145, 146, 147, 148, 149, 150, 151, 152, 153, 154, 155, 156, 157, 158, 159, 160, 161, 162, 163, 164, 165, 166, 167, 168, 169, 170, 171, 172, 173, 174, 175, 176, 177, 178, 179, 180, 181, 182, 183, 184, 185, 186, 187, 188, 189, 190, 191, 192, 193, 194, 195, 196, 197, 198, 199, 200, 201, 202, 203, 204, 205, 206, 207, 208, 209, 210, 211, 212, 213, 214, 215, 216, 217, 218, 219, 220, 221, 222, 223, 224, 225, 226, 227, 228, 229, 230, 231, 232, 233, 234, 235, 236, 237, 238, 239, 240, 241, 242, 243, 244, 245, 246, 247, 248, 249, 250, 251, 252, 253, 254, 255, 256],
      "LargestImagePixelValue": [3612, 3566, 3513, 3529, 3531, 3547, 3529, 3553, 3576, 3548, 3541, 3573, 3552, 3557, 3563, 3524, 3524, 3549, 3564, 3546, 3570, 3533, 3568, 3529, 3553, 3559, 3558, 3560, 3543, 3546, 3528, 3536, 3546, 3567, 3615, 3612, 3604, 3581, 3582, 3613, 3612, 3594, 3588, 3669, 3610, 3655, 3613, 3609, 3578, 3613, 3611, 3614, 3614, 3625, 3583, 3569, 3568, 3614, 3610, 3627, 3588, 3612, 3594, 3606, 3661, 3604, 3618, 3650, 3602, 3685, 3648, 3668, 3654, 3662, 3629, 3678, 3615, 3643, 3630, 3669, 3663, 3648, 3669, 3634, 3640, 3616, 3611, 3646, 3665, 3628, 3678, 3659, 3669, 3668, 3679, 3620, 3672, 3670, 3686, 3694, 3714, 3710, 3715, 3732, 3708, 3734, 3659, 3652, 3652, 3662, 3697, 3655, 3688, 3676, 3682, 3646, 3653, 3686, 3669, 3651, 3667, 3716, 3693, 3693, 3684, 3708, 3711, 3693, 3666, 3680, 3728, 3692, 3719, 3718, 3748, 3698, 3706, 3729, 3750, 3738, 3715, 3763, 3744, 3749, 3742, 3751, 3736, 3725, 3703, 3719, 3712, 3724, 3677, 3684, 3707, 3692, 3696, 3672, 3676, 3718, 3686, 3762, 3752, 3735, 3748, 3731, 3727, 3725, 3726, 3667, 3655, 3666, 3666, 3694, 3675, 3659, 3690, 3657, 3706, 3694, 3697, 3672, 3617, 3612, 3615, 3692, 3665, 3720, 3701, 3663, 3658, 3650, 3612, 3596, 3598, 3651, 3644, 3701, 3651, 3683, 3604, 3664, 3645, 3662, 3648, 3673, 3673, 3626, 3717, 3724, 3715, 3735, 3740, 3685, 3707, 3692, 3733, 3730, 3746, 3728, 3740, 3707, 3738, 3677, 3738, 3701, 3704, 3611, 3664, 3577, 3693, 3681, 3666, 3679, 3632, 3689, 3675, 3710, 3659, 3676, 3657, 3700, 3663, 3692, 3659, 3704, 3656, 3719, 3666, 3723, 3700, 3745, 3668, 3694, 3666, 3714],
      "WindowCenter": [782.0, 782.0, 783.0, 782.0, 781.0, 780.0, 780.0, 780.0, 782.0, 782.0, 782.0, 781.0, 780.0, 779.0, 780.0, 780.0, 780.0, 780.0, 780.0, 780.0, 780.0, 779.0, 779.0, 779.0, 780.0, 780.0, 779.0, 779.0, 779.0, 779.0, 779.0, 779.0, 779.0, 779.0, 779.0, 779.0, 779.0, 779.0, 779.0, 780.0, 780.0, 779.0, 779.0, 779.0, 778.0, 779.0, 780.0, 781.0, 781.0, 780.0, 780.0, 779.0, 780.0, 781.0, 782.0, 782.0, 780.0, 779.0, 778.0, 779.0, 780.0, 781.0, 781.0, 780.0, 780.0, 779.0, 780.0, 780.0, 779.0, 780.0, 780.0, 781.0, 781.0, 781.0, 781.0, 781.0, 781.0, 781.0, 781.0, 781.0, 781.0, 780.0, 780.0, 780.0, 780.0, 781.0, 782.0, 780.0, 780.0, 779.0, 780.0, 779.0, 779.0, 779.0, 779.0, 779.0, 779.0, 780.0, 780.0, 780.0, 780.0, 781.0, 781.0, 781.0, 781.0, 782.0, 782.0, 781.0, 780.0, 779.0, 780.0, 780.0, 781.0, 781.0, 782.0, 782.0, 782.0, 782.0, 781.0, 780.0, 780.0, 780.0, 780.0, 780.0, 780.0, 780.0, 781.0, 782.0, 781.0, 780.0, 780.0, 780.0, 781.0, 781.0, 782.0, 782.0, 780.0, 780.0, 780.0, 780.0, 780.0, 780.0, 780.0, 780.0, 780.0, 780.0, 780.0, 781.0, 781.0, 782.0, 782.0, 783.0, 783.0, 782.0, 783.0, 782.0, 782.0, 782.0, 781.0, 780.0, 781.0, 781.0, 781.0, 781.0, 781.0, 781.0, 781.0, 781.0, 782.0, 781.0, 781.0, 781.0, 782.0, 783.0, 783.0, 782.0, 783.0, 783.0, 783.0, 783.0, 783.0, 782.0, 782.0, 781.0, 780.0, 779.0, 780.0, 781.0, 781.0, 781.0, 781.0, 781.0, 782.0, 781.0, 780.0, 780.0, 781.0, 782.0, 783.0, 784.0, 784.0, 784.0, 783.0, 782.0, 782.0, 782.0, 783.0, 782.0, 781.0, 780.0, 779.0, 780.0, 780.0, 780.0, 780.0, 779.0, 779.0, 779.0, 780.0, 780.0, 781.0, 781.0, 782.0, 782.0, 782.0, 782.0, 783.0, 782.0, 782.0, 780.0, 781.0, 781.0, 781.0, 782.0, 782.0, 782.0, 782.0, 782.0, 782.0, 782.0, 781.0, 781.0, 780.0, 780.0, 781.0, 782.0, 782.0, 782.0, 780.0, 781.0, 781.0, 781.0, 781.0, 782.0, 782.0, 782.0],
      "WindowWidth": [1690.0, 1689.0, 1691.0, 1690.0, 1686.0, 1684.0, 1682.0, 1684.0, 1688.0, 1688.0, 1689.0, 1685.0, 1683.0, 1682.0, 1683.0, 1683.0, 1685.0, 1684.0, 1684.0, 1683.0, 1683.0, 1681.0, 1682.0, 1682.0, 1684.0, 1683.0, 1681.0, 1681.0, 1680.0, 1681.0, 1680.0, 1681.0, 1681.0, 1680.0, 1681.0, 1681.0, 1681.0, 1681.0, 1681.0, 1684.0, 1683.0, 1682.0, 1681.0, 1681.0, 1679.0, 1681.0, 1685.0, 1686.0, 1686.0, 1685.0, 1683.0, 1683.0, 1685.0, 1687.0, 1689.0, 1688.0, 1683.0, 1681.0, 1679.0, 1681.0, 1684.0, 1688.0, 1687.0, 1684.0, 1683.0, 1682.0, 1683.0, 1685.0, 1683.0, 1685.0, 1685.0, 1686.0, 1686.0, 1687.0, 1686.0, 1687.0, 1688.0, 1687.0, 1687.0, 1686.0, 1686.0, 1683.0, 1684.0, 1684.0, 1685.0, 1687.0, 1689.0, 1685.0, 1684.0, 1682.0, 1683.0, 1683.0, 1681.0, 1681.0, 1682.0, 1682.0, 1683.0, 1685.0, 1685.0, 1686.0, 1686.0, 1688.0, 1687.0, 1686.0, 1686.0, 1689.0, 1690.0, 1688.0, 1685.0, 1682.0, 1684.0, 1686.0, 1688.0, 1688.0, 1690.0, 1691.0, 1690.0, 1690.0, 1688.0, 1685.0, 1684.0, 1685.0, 1684.0, 1685.0, 1684.0, 1683.0, 1687.0, 1689.0, 1687.0, 1685.0, 1685.0, 1684.0, 1686.0, 1687.0, 1689.0, 1689.0, 1685.0, 1684.0, 1684.0, 1686.0, 1683.0, 1684.0, 1684.0, 1684.0, 1684.0, 1684.0, 1685.0, 1687.0, 1688.0, 1689.0, 1690.0, 1692.0, 1692.0, 1691.0, 1691.0, 1690.0, 1689.0, 1689.0, 1687.0, 1686.0, 1687.0, 1687.0, 1687.0, 1688.0, 1688.0, 1686.0, 1686.0, 1686.0, 1689.0, 1688.0, 1688.0, 1687.0, 1689.0, 1691.0, 1692.0, 1691.0, 1692.0, 1691.0, 1691.0, 1691.0, 1693.0, 1691.0, 1690.0, 1688.0, 1685.0, 1682.0, 1683.0, 1686.0, 1687.0, 1685.0, 1685.0, 1687.0, 1689.0, 1686.0, 1685.0, 1685.0, 1687.0, 1690.0, 1691.0, 1694.0, 1695.0, 1693.0, 1691.0, 1688.0, 1688.0, 1689.0, 1690.0, 1688.0, 1687.0, 1683.0, 1682.0, 1682.0, 1685.0, 1683.0, 1684.0, 1681.0, 1682.0, 1682.0, 1683.0, 1684.0, 1687.0, 1686.0, 1689.0, 1689.0, 1689.0, 1688.0, 1692.0, 1689.0, 1690.0, 1685.0, 1688.0, 1686.0, 1687.0, 1688.0, 1689.0, 1689.0, 1688.0, 1689.0, 1690.0, 1689.0, 1687.0, 1686.0, 1684.0, 1684.0, 1686.0, 1689.0, 1690.0, 1689.0, 1686.0, 1687.0, 1686.0, 1688.0, 1688.0, 1689.0, 1688.0, 1689.0]
    },
    "slices": {}
  }
}