{
  "AcquisitionMatrixPE": 100,
  "AcquisitionNumber": 1,
  "AcquisitionTime": "12:07:7.080000",
  "BandwidthPerPixelPhaseEncode": 18.519,
  "BaseResolution": 100,
  "BodyPartExamined": "BRAIN",
  "ConsistencyInfo": "N4_VE11C_LATEST_20160120",
  "ConversionSoftware": "dcm2niix",
  "ConversionSoftwareVersion": "v1.0.20180622 GCC4.9.2",
  "DerivedVendorReportedEchoSpacing": 0.000539986,
  "DeviceSerialNumber": "166078",
  "DwellTime": 2.1e-06,
  "EchoTime": 0.034,
  "EchoTrainLength": 100,
  "EffectiveEchoSpacing": 0.000539986,
  "FlipAngle": 90,
  "ImageOrientationPatientDICOM": [1, 0, 0, 0, 0.971134, -0.238533],
  "ImageType": [
    "ORIGINAL",
    "PRIMARY",
    "M",
    "ND",
    "MOSAIC"
],
  "InPlanePhaseEncodingDirectionDICOM": "COL",
  "InstitutionAddress": "Street_StreetNo_Bei_Jing_District_CN_ZIP",
  "InstitutionName": "BeiJing_Normal_University",
  "InstitutionalDepartmentName": "Department",
  "MRAcquisitionType": "2D",
  "MagneticFieldStrength": 3,
  "Manufacturer": "Siemens",
  "ManufacturersModelName": "Prisma",
  "Modality": "MR",
  "MultibandAccelerationFactor": 3,
  "PartialFourier": 1,
  "PatientPosition": "HFS",
  "PercentPhaseFOV": 100,
  "PhaseEncodingDirection": "j-",
  "PhaseEncodingSteps": 100,
  "PhaseResolution": 1,
  "PixelBandwidth": 2380,
  "ProcedureStepDescription": "BNU_P2018_64CH_Zhen.ZongLei",
  "ProtocolName": "bold_100x100_s3_2x2x2_static_256",
  "PulseSequenceDetails": "%SiemensSeq%_ep2d_bold",
  "ReceiveCoilActiveElements": "HC1-7;NC1",
  "ReceiveCoilName": "HeadNeck_64",
  "ReconMatrixPE": 100,
  "RepetitionTime": 2,
  "SAR": 0.0791928,
  "ScanOptions": "FS",
  "ScanningSequence": "EP",
  "SequenceName": "_epfid2d1_100",
  "SequenceVariant": "SK",
  "SeriesDescription": "bold_100x100_s3_2x2x2_static_256",
  "SeriesNumber": 10,
  "ShimSetting": [-5469, -11479, -1225, 278, -34, -346, -158, 82],
  "SliceThickness": 2,
  "SliceTiming": [1.485, 0, 0.99, 0.0825, 1.0725, 0.165, 1.155, 0.2475, 1.2375, 0.33, 1.32, 0.4125, 1.4025, 0.5775, 1.5675, 0.66, 1.6475, 0.7425, 1.73, 0.825, 1.8125, 0.9075, 1.895, 0.495, 1.485, 0, 0.99, 0.0825, 1.0725, 0.165, 1.155, 0.2475, 1.2375, 0.33, 1.32, 0.4125, 1.4025, 0.5775, 1.5675, 0.66, 1.6475, 0.7425, 1.73, 0.825, 1.8125, 0.9075, 1.895, 0.495, 1.485, 0, 0.99, 0.0825, 1.0725, 0.165, 1.155, 0.2475, 1.2375, 0.33, 1.32, 0.4125, 1.4025, 0.5775, 1.5675, 0.66, 1.6475, 0.7425, 1.73, 0.825, 1.8125, 0.9075, 1.895, 0.495],
  "SoftwareVersions": "syngo_MR_E11",
  "SpacingBetweenSlices": 2,
  "StationName": "AWP166078",
  "TaskName": "naturalvision",
  "TotalReadoutTime": 0.0534586,
  "TxRefAmp": 230.166,
  "dcmmeta_affine": [
    [-2.0, 0.0, 0.0, 102.03389739990234],
    [0.0, 1.9422686100006104, -0.4770669639110565, -72.98104858398438],
    [0.0, 0.47706693410873413, 1.9422686100006104, -80.8013916015625],
    [0.0, 0.0, 0.0, 1.0]
],
  "dcmmeta_reorient_transform": [
    [0.0, -1.0, 0.0, 99.0],
    [1.0, 0.0, 0.0, 0.0],
    [0.0, 0.0, 1.0, 0.0],
    [0.0, 0.0, 0.0, 1.0]
],
  "dcmmeta_shape": [100, 100, 72, 256],
  "dcmmeta_slice_dim": 2,
  "dcmmeta_version": 0.6,
  "global": {
    "const": {
      "AcquisitionMatrix": [100, 0, 0, 100],
      "AngioFlag": "N",
      "BitsAllocated": 16,
      "BitsStored": 12,
      "BodyPartExamined": "BRAIN",
      "Columns": 900,
      "EchoNumbers": 1,
      "EchoTime": 34.0,
      "EchoTrainLength": 100,
      "FlipAngle": 90.0,
      "HighBit": 11,
      "ImageOrientationPatient": [1.0, 0.0, 0.0, 0.0, 0.97113427618897, -0.2385334727264],
      "ImagePositionPatient": [-902.03389835358, -896.2109616377, 157.25501559049],
      "ImageType": [
        "ORIGINAL",
        "PRIMARY",
        "M",
        "ND",
        "MOSAIC"
],
      "ImagedNucleus": "1H",
      "ImagingFrequency": 123.257719,
      "InPlanePhaseEncodingDirection": "COL",
      "MRAcquisitionType": "2D",
      "MagneticFieldStrength": 3.0,
      "Manufacturer": "SIEMENS",
      "ManufacturerModelName": "Prisma",
      "Modality": "MR",
      "NumberOfAverages": 1.0,
      "NumberOfPhaseEncodingSteps": 100,
      "PercentPhaseFieldOfView": 100.0,
      "PercentSampling": 100.0,
      "PerformedProcedureStepStartTime": "111206.127000",
      "PhotometricInterpretation": "MONOCHROME2",
      "PixelBandwidth": 2380.0,
      "PixelRepresentation": 0,
      "PixelSpacing": [2.0, 2.0],
      "ProtocolName": "bold_100x100_s3_2x2x2_static_256",
      "RepetitionTime": 2000.0,
      "Rows": 900,
      "SAR": 0.07919283649308,
      "SamplesPerPixel": 1,
      "ScanOptions": "FS",
      "ScanningSequence": "EP",
      "SequenceName": "*epfid2d1_100",
      "SequenceVariant": "SK",
      "SeriesDescription": "bold_100x100_s3_2x2x2_static_256",
      "SeriesNumber": 10,
      "SeriesTime": "120709.712000",
      "SliceLocation": -61.060577232363,
      "SliceThickness": 2.0,
      "SmallestImagePixelValue": 0,
      "SoftwareVersions": "syngo MR E11",
      "SpacingBetweenSlices": 2.0000000254196,
      "SpecificCharacterSet": "ISO_IR 100",
      "StudyID": "1",
      "StudyTime": "111206.067000",
      "TransmitCoilName": "Body",
      "VariableFlipAngleFlag": "N",
      "WindowCenterWidthExplanation": "Algo1",
      "dBdt": 0.0},
    "slices": {}
  },
  "time": {
    "samples": {
      "AcquisitionNumber": [1, 2, 3, 4, 5, 6, 7, 8, 9, 10, 11, 12, 13, 14, 15, 16, 17, 18, 19, 20, 21, 22, 23, 24, 25, 26, 27, 28, 29, 30, 31, 32, 33, 34, 35, 36, 37, 38, 39, 40, 41, 42, 43, 44, 45, 46, 47, 48, 49, 50, 51, 52, 53, 54, 55, 56, 57, 58, 59, 60, 61, 62, 63, 64, 65, 66, 67, 68, 69, 70, 71, 72, 73, 74, 75, 76, 77, 78, 79, 80, 81, 82, 83, 84, 85, 86, 87, 88, 89, 90, 91, 92, 93, 94, 95, 96, 97, 98, 99, 100, 101, 102, 103, 104, 105, 106, 107, 108, 109, 110, 111, 112, 113, 114, 115, 116, 117, 118, 119, 120, 121, 122, 123, 124, 125, 126, 127, 128, 129, 130, 131, 132, 133, 134, 135, 136, 137, 138, 139, 140, 141, 142, 143, 144, 145, 146, 147, 148, 149, 150, 151, 152, 153, 154, 155, 156, 157, 158, 159, 160, 161, 162, 163, 164, 165, 166, 167, 168, 169, 170, 171, 172, 173, 174, 175, 176, 177, 178, 179, 180, 181, 182, 183, 184, 185, 186, 187, 188, 189, 190, 191, 192, 193, 194, 195, 196, 197, 198, 199, 200, 201, 202, 203, 204, 205, 206, 207, 208, 209, 210, 211, 212, 213, 214, 215, 216, 217, 218, 219, 220, 221, 222, 223, 224, 225, 226, 227, 228, 229, 230, 231, 232, 233, 234, 235, 236, 237, 238, 239, 240, 241, 242, 243, 244, 245, 246, 247, 248, 249, 250, 251, 252, 253, 254, 255, 256],
      "AcquisitionTime": ["120707.080000", "120709.080000", "120711.080000", "120713.080000", "120715.080000", "120717.080000", "120719.080000", "120721.080000", "120723.080000", "120725.080000", "120727.080000", "120729.080000", "120731.080000", "120733.080000", "120735.080000", "120737.080000", "120739.080000", "120741.080000", "120743.080000", "120745.080000", "120747.080000", "120749.080000", "120751.080000", "120753.080000", "120755.080000", "120757.080000", "120759.080000", "120801.080000", "120803.080000", "120805.080000", "120807.080000", "120809.080000", "120811.080000", "120813.080000", "120815.080000", "120817.080000", "120819.080000", "120821.080000", "120823.080000", "120825.080000", "120827.080000", "120829.080000", "120831.080000", "120833.080000", "120835.080000", "120837.080000", "120839.080000", "120841.080000", "120843.080000", "120845.080000", "120847.080000", "120849.080000", "120851.080000", "120853.080000", "120855.080000", "120857.080000", "120859.080000", "120901.080000", "120903.080000", "120905.080000", "120907.080000", "120909.080000", "120911.080000", "120913.080000", "120915.080000", "120917.080000", "120919.080000", "120921.080000", "120923.080000", "120925.080000", "120927.080000", "120929.080000", "120931.080000", "120933.080000", "120935.080000", "120937.080000", "120939.080000", "120941.080000", "120943.080000", "120945.080000", "120947.080000", "120949.080000", "120951.080000", "120953.080000", "120955.080000", "120957.080000", "120959.080000", "121001.080000", "121003.080000", "121005.080000", "121007.080000", "121009.080000", "121011.080000", "121013.080000", "121015.080000", "121017.080000", "121019.080000", "121021.080000", "121023.080000", "121025.080000", "121027.080000", "121029.080000", "121031.080000", "121033.080000", "121035.080000", "121037.080000", "121039.080000", "121041.080000", "121043.080000", "121045.080000", "121047.080000", "121049.080000", "121051.080000", "121053.080000", "121055.080000", "121057.080000", "121059.080000", "121101.080000", "121103.080000", "121105.080000", "121107.080000", "121109.080000", "121111.080000", "121113.080000", "121115.080000", "121117.080000", "121119.080000", "121121.080000", "121123.080000", "121125.080000", "121127.080000", "121129.080000", "121131.080000", "121133.080000", "121135.080000", "121137.080000", "121139.080000", "121141.080000", "121143.080000", "121145.080000", "121147.080000", "121149.080000", "121151.080000", "121153.080000", "121155.080000", "121157.080000", "121159.080000", "121201.080000", "121203.080000", "121205.080000", "121207.080000", "121209.080000", "121211.080000", "121213.080000", "121215.080000", "121217.080000", "121219.080000", "121221.080000", "121223.080000", "121225.080000", "121227.080000", "121229.080000", "121231.080000", "121233.080000", "121235.080000", "121237.080000", "121239.080000", "121241.080000", "121243.080000", "121245.080000", "121247.080000", "121249.080000", "121251.080000", "121253.080000", "121255.080000", "121257.080000", "121259.080000", "121301.080000", "121303.080000", "121305.080000", "121307.080000", "121309.080000", "121311.080000", "121313.080000", "121315.080000", "121317.080000", "121319.080000", "121321.080000", "121323.080000", "121325.080000", "121327.080000", "121329.080000", "121331.080000", "121333.080000", "121335.080000", "121337.080000", "121339.080000", "121341.080000", "121343.080000", "121345.080000", "121347.080000", "121349.080000", "121351.080000", "121353.080000", "121355.080000", "121357.080000", "121359.080000", "121401.080000", "121403.080000", "121405.080000", "121407.080000", "121409.080000", "121411.080000", "121413.080000", "121415.080000", "121417.080000", "121419.080000", "121421.080000", "121423.080000", "121425.080000", "121427.080000", "121429.080000", "121431.080000", "121433.080000", "121435.080000", "121437.080000", "121439.080000", "121441.080000", "121443.080000", "121445.080000", "121447.080000", "121449.080000", "121451.080000", "121453.080000", "121455.080000", "121457.080000", "121459.080000", "121501.080000", "121503.080000", "121505.080000", "121507.080000", "121509.080000", "121511.080000", "121513.080000", "121515.080000", "121517.080000", "121519.080000", "121521.080000", "121523.080000", "121525.080000", "121527.080000", "121529.080000", "121531.080000", "121533.080000", "121535.080000", "121537.080000"],
      "ContentTime": ["120709.716000", "120711.712000", "120713.711000", "120715.710000", "120717.712000", "120719.712000", "120721.712000", "120723.711000", "120725.712000", "120727.711000", "120729.211000", "120731.711000", "120733.710000", "120735.712000", "120737.711000", "120739.711000", "120741.711000", "120743.711000", "120745.712000", "120747.711000", "120749.711000", "120751.210000", "120753.712000", "120755.711000", "120757.211000", "120759.711000", "120801.711000", "120803.712000", "120805.712000", "120807.712000", "120809.712000", "120811.211000", "120813.712000", "120815.712000", "120817.711000", "120819.712000", "120821.712000", "120823.712000", "120825.211000", "120827.211000", "120829.711000", "120831.711000", "120833.712000", "120835.711000", "120837.712000", "120839.711000", "120841.711000", "120843.711000", "120845.711000", "120847.711000", "120849.712000", "120851.212000", "120853.712000", "120855.712000", "120857.711000", "120859.711000", "120901.210000", "120903.711000", "120905.711000", "120907.711000", "120909.711000", "120911.712000", "120913.712000", "120915.711000", "120917.711000", "120919.711000", "120921.211000", "120923.711000", "120925.712000", "120927.712000", "120929.711000", "120931.711000", "120933.712000", "120935.710000", "120937.712000", "120939.712000", "120941.712000", "120943.712000", "120945.712000", "120947.712000", "120949.712000", "120951.711000", "120953.710000", "120955.711000", "120957.712000", "120959.711000", "121001.711000", "121003.211000", "121005.711000", "121007.711000", "121009.711000", "121011.210000", "121013.712000", "121015.712000", "121017.712000", "121019.712000", "121021.212000", "121023.712000", "121025.712000", "121027.712000", "121029.711000", "121031.712000", "121033.712000", "121035.711000", "121037.711000", "121039.711000", "121041.711000", "121043.712000", "121045.711000", "121047.711000", "121049.712000", "121051.711000", "121053.712000", "121055.712000", "121057.711000", "121059.711000", "121101.711000", "121103.710000", "121105.711000", "121107.712000", "121109.712000", "121111.722000", "121113.711000", "121115.711000", "121117.712000", "121119.712000", "121121.711000", "121123.711000", "121125.712000", "121127.711000", "121129.712000", "121131.711000", "121133.711000", "121135.712000", "121137.712000", "121139.711000", "121141.712000", "121143.211000", "121145.712000", "121147.711000", "121149.712000", "121151.712000", "121153.712000", "121155.711000", "121157.712000", "121159.712000", "121201.711000", "121203.712000", "121205.712000", "121207.711000", "121209.712000", "121211.711000", "121213.710000", "121215.712000", "121217.712000", "121219.712000", "121221.711000", "121223.712000", "121225.213000", "121227.711000", "121229.712000", "121231.712000", "121233.711000", "121235.711000", "121237.712000", "121239.712000", "121241.712000", "121243.711000", "121245.211000", "121247.711000", "121249.711000", "121251.712000", "121253.712000", "121255.211000", "121257.712000", "121259.712000", "121301.712000", "121303.712000", "121305.212000", "121307.711000", "121309.711000", "121311.711000", "121313.712000", "121315.712000", "121317.712000", "121319.711000", "121321.711000", "121323.710000", "121325.712000", "121327.711000", "121329.712000", "121331.712000", "121333.712000", "121335.711000", "121337.711000", "121339.712000", "121341.711000", "121343.711000", "121345.711000", "121347.712000", "121349.711000", "121351.711000", "121353.711000", "121355.711000", "121357.211000", "121359.712000", "121401.712000", "121403.711000", "121405.712000", "121407.712000", "121409.711000", "121411.212000", "121413.712000", "121415.711000", "121417.711000", "121419.712000", "121421.712000", "121423.712000", "121425.712000", "121427.712000", "121429.712000", "121431.712000", "121433.712000", "121435.711000", "121437.211000", "121439.712000", "121441.711000", "121443.712000", "121445.712000", "121447.711000", "121449.712000", "121451.211000", "121453.712000", "121455.711000", "121457.712000", "121459.712000", "121501.712000", "121503.712000", "121505.712000", "121507.712000", "121509.712000", "121511.712000", "121513.711000", "121515.711000", "121517.211000", "121519.712000", "121521.212000", "121523.712000", "121525.710000", "121527.712000", "121529.711000", "121531.712000", "121533.711000", "121535.212000", "121537.712000", "121539.370000"],
      "InstanceCreationTime": ["120709.716000", "120711.712000", "120713.711000", "120715.710000", "120717.712000", "120719.712000", "120721.712000", "120723.711000", "120725.712000", "120727.711000", "120729.211000", "120731.711000", "120733.710000", "120735.712000", "120737.711000", "120739.711000", "120741.711000", "120743.711000", "120745.712000", "120747.711000", "120749.711000", "120751.210000", "120753.712000", "120755.711000", "120757.211000", "120759.711000", "120801.711000", "120803.712000", "120805.712000", "120807.712000", "120809.712000", "120811.211000", "120813.712000", "120815.712000", "120817.711000", "120819.712000", "120821.712000", "120823.712000", "120825.211000", "120827.211000", "120829.711000", "120831.711000", "120833.712000", "120835.711000", "120837.712000", "120839.711000", "120841.711000", "120843.711000", "120845.711000", "120847.711000", "120849.712000", "120851.212000", "120853.712000", "120855.712000", "120857.711000", "120859.711000", "120901.210000", "120903.711000", "120905.711000", "120907.711000", "120909.711000", "120911.712000", "120913.712000", "120915.711000", "120917.711000", "120919.711000", "120921.211000", "120923.711000", "120925.712000", "120927.712000", "120929.711000", "120931.711000", "120933.712000", "120935.710000", "120937.712000", "120939.712000", "120941.712000", "120943.712000", "120945.712000", "120947.712000", "120949.712000", "120951.711000", "120953.710000", "120955.711000", "120957.712000", "120959.711000", "121001.711000", "121003.211000", "121005.711000", "121007.711000", "121009.711000", "121011.210000", "121013.712000", "121015.712000", "121017.712000", "121019.712000", "121021.212000", "121023.712000", "121025.712000", "121027.712000", "121029.711000", "121031.712000", "121033.712000", "121035.711000", "121037.711000", "121039.711000", "121041.711000", "121043.712000", "121045.711000", "121047.711000", "121049.712000", "121051.711000", "121053.712000", "121055.712000", "121057.711000", "121059.711000", "121101.711000", "121103.710000", "121105.711000", "121107.712000", "121109.712000", "121111.722000", "121113.711000", "121115.711000", "121117.712000", "121119.712000", "121121.711000", "121123.711000", "121125.712000", "121127.711000", "121129.712000", "121131.711000", "121133.711000", "121135.712000", "121137.712000", "121139.711000", "121141.712000", "121143.211000", "121145.712000", "121147.711000", "121149.712000", "121151.712000", "121153.712000", "121155.711000", "121157.712000", "121159.712000", "121201.711000", "121203.712000", "121205.712000", "121207.711000", "121209.712000", "121211.711000", "121213.710000", "121215.712000", "121217.712000", "121219.712000", "121221.711000", "121223.712000", "121225.213000", "121227.711000", "121229.712000", "121231.712000", "121233.711000", "121235.711000", "121237.712000", "121239.712000", "121241.712000", "121243.711000", "121245.211000", "121247.711000", "121249.711000", "121251.712000", "121253.712000", "121255.211000", "121257.712000", "121259.712000", "121301.712000", "121303.712000", "121305.212000", "121307.711000", "121309.711000", "121311.711000", "121313.712000", "121315.712000", "121317.712000", "121319.711000", "121321.711000", "121323.710000", "121325.712000", "121327.711000", "121329.712000", "121331.712000", "121333.712000", "121335.711000", "121337.711000", "121339.712000", "121341.711000", "121343.711000", "121345.711000", "121347.712000", "121349.711000", "121351.711000", "121353.711000", "121355.711000", "121357.211000", "121359.712000", "121401.712000", "121403.711000", "121405.712000", "121407.712000", "121409.711000", "121411.212000", "121413.712000", "121415.711000", "121417.711000", "121419.712000", "121421.712000", "121423.712000", "121425.712000", "121427.712000", "121429.712000", "121431.712000", "121433.712000", "121435.711000", "121437.211000", "121439.712000", "121441.711000", "121443.712000", "121445.712000", "121447.711000", "121449.712000", "121451.211000", "121453.712000", "121455.711000", "121457.712000", "121459.712000", "121501.712000", "121503.712000", "121505.712000", "121507.712000", "121509.712000", "121511.712000", "121513.711000", "121515.711000", "121517.211000", "121519.712000", "121521.212000", "121523.712000", "121525.710000", "121527.712000", "121529.711000", "121531.712000", "121533.711000", "121535.212000", "121537.712000", "121539.370000"],
      "InstanceNumber": [1, 2, 3, 4, 5, 6, 7, 8, 9, 10, 11, 12, 13, 14, 15, 16, 17, 18, 19, 20, 21, 22, 23, 24, 25, 26, 27, 28, 29, 30, 31, 32, 33, 34, 35, 36, 37, 38, 39, 40, 41, 42, 43, 44, 45, 46, 47, 48, 49, 50, 51, 52, 53, 54, 55, 56, 57, 58, 59, 60, 61, 62, 63, 64, 65, 66, 67, 68, 69, 70, 71, 72, 73, 74, 75, 76, 77, 78, 79, 80, 81, 82, 83, 84, 85, 86, 87, 88, 89, 90, 91, 92, 93, 94, 95, 96, 97, 98, 99, 100, 101, 102, 103, 104, 105, 106, 107, 108, 109, 110, 111, 112, 113, 114, 115, 116, 117, 118, 119, 120, 121, 122, 123, 124, 125, 126, 127, 128, 129, 130, 131, 132, 133, 134, 135, 136, 137, 138, 139, 140, 141, 142, 143, 144, 145, 146, 147, 148, 149, 150, 151, 152, 153, 154, 155, 156, 157, 158, 159, 160, 161, 162, 163, 164, 165, 166, 167, 168, 169, 170, 171, 172, 173, 174, 175, 176, 177, 178, 179, 180, 181, 182, 183, 184, 185, 186, 187, 188, 189, 190, 191, 192, 193, 194, 195, 196, 197, 198, 199, 200, 201, 202, 203, 204, 205, 206, 207, 208, 209, 210, 211, 212, 213, 214, 215, 216, 217, 218, 219, 220, 221, 222, 223, 224, 225, 226, 227, 228, 229, 230, 231, 232, 233, 234, 235, 236, 237, 238, 239, 240, 241, 242, 243, 244, 245, 246, 247, 248, 249, 250, 251, 252, 253, 254, 255, 256],
      "LargestImagePixelValue": [3504, 3488, 3457, 3465, 3432, 3427, 3436, 3443, 3422, 3481, 3412, 3492, 3400, 3410, 3449, 3436, 3437, 3411, 3450, 3461, 3460, 3427, 3454, 3424, 3460, 3443, 3471, 3442, 3474, 3460, 3474, 3481, 3484, 3445, 3396, 3427, 3414, 3433, 3420, 3447, 3470, 3490, 3480, 3502, 3503, 3521, 3503, 3491, 3492, 3472, 3467, 3446, 3463, 3463, 3471, 3479, 3481, 3483, 3447, 3459, 3488, 3517, 3517, 3512, 3535, 3496, 3517, 3452, 3456, 3496, 3484, 3481, 3484, 3491, 3471, 3507, 3512, 3494, 3486, 3467, 3495, 3504, 3534, 3486, 3494, 3482, 3482, 3514, 3604, 3589, 3575, 3524, 3551, 3519, 3503, 3526, 3483, 3492, 3516, 3494, 3488, 3490, 3487, 3484, 3500, 3524, 3507, 3492, 3550, 3510, 3547, 3539, 3471, 3510, 3539, 3533, 3533, 3539, 3528, 3503, 3492, 3537, 3545, 3511, 3555, 3541, 3561, 3582, 3540, 3528, 3481, 3511, 3503, 3552, 3545, 3513, 3532, 3549, 3486, 3513, 3499, 3519, 3506, 3494, 3490, 3489, 3524, 3530, 3529, 3492, 3484, 3523, 3483, 3472, 3484, 3504, 3514, 3518, 3538, 3546, 3556, 3524, 3536, 3524, 3521, 3537, 3513, 3520, 3515, 3507, 3532, 3521, 3534, 3537, 3509, 3511, 3484, 3506, 3490, 3511, 3505, 3515, 3516, 3489, 3487, 3494, 3518, 3548, 3567, 3543, 3517, 3652, 3591, 3505, 3523, 3543, 3571, 3553, 3583, 3604, 3579, 3559, 3580, 3543, 3551, 3550, 3541, 3534, 3528, 3516, 3549, 3531, 3552, 3583, 3512, 3475, 3486, 3518, 3539, 3512, 3494, 3517, 3569, 3578, 3595, 3528, 3543, 3547, 3572, 3560, 3568, 3573, 3580, 3592, 3594, 3556, 3514, 3545, 3559, 3545, 3529, 3534, 3546, 3553, 3537, 3546, 3598, 3591, 3613, 3583, 3515, 3507, 3548, 3534, 3557, 3489],
      "WindowCenter": [774.0, 774.0, 774.0, 774.0, 774.0, 773.0, 774.0, 775.0, 775.0, 776.0, 776.0, 779.0, 778.0, 776.0, 775.0, 775.0, 774.0, 773.0, 772.0, 772.0, 772.0, 773.0, 773.0, 772.0, 772.0, 772.0, 773.0, 774.0, 776.0, 776.0, 776.0, 775.0, 775.0, 776.0, 776.0, 776.0, 775.0, 775.0, 774.0, 775.0, 775.0, 775.0, 774.0, 773.0, 772.0, 772.0, 772.0, 773.0, 772.0, 771.0, 771.0, 772.0, 773.0, 773.0, 774.0, 773.0, 772.0, 772.0, 772.0, 773.0, 774.0, 774.0, 774.0, 775.0, 775.0, 775.0, 775.0, 775.0, 775.0, 775.0, 775.0, 775.0, 774.0, 774.0, 775.0, 775.0, 775.0, 774.0, 774.0, 774.0, 774.0, 774.0, 775.0, 775.0, 775.0, 776.0, 776.0, 776.0, 775.0, 776.0, 775.0, 773.0, 773.0, 774.0, 775.0, 776.0, 776.0, 776.0, 775.0, 775.0, 774.0, 774.0, 774.0, 773.0, 773.0, 774.0, 774.0, 774.0, 774.0, 774.0, 774.0, 775.0, 774.0, 774.0, 773.0, 772.0, 773.0, 774.0, 775.0, 776.0, 777.0, 775.0, 776.0, 774.0, 773.0, 771.0, 771.0, 772.0, 772.0, 773.0, 773.0, 773.0, 772.0, 773.0, 773.0, 773.0, 774.0, 774.0, 774.0, 774.0, 774.0, 773.0, 773.0, 773.0, 775.0, 776.0, 776.0, 776.0, 777.0, 778.0, 777.0, 777.0, 776.0, 776.0, 775.0, 776.0, 775.0, 775.0, 774.0, 775.0, 775.0, 774.0, 774.0, 773.0, 772.0, 771.0, 773.0, 774.0, 775.0, 775.0, 776.0, 776.0, 776.0, 776.0, 775.0, 775.0, 775.0, 776.0, 777.0, 777.0, 776.0, 775.0, 775.0, 775.0, 776.0, 776.0, 775.0, 776.0, 775.0, 775.0, 775.0, 777.0, 779.0, 777.0, 774.0, 772.0, 772.0, 774.0, 775.0, 776.0, 775.0, 774.0, 774.0, 773.0, 776.0, 776.0, 775.0, 775.0, 775.0, 776.0, 777.0, 777.0, 777.0, 776.0, 777.0, 778.0, 778.0, 779.0, 778.0, 777.0, 776.0, 777.0, 778.0, 778.0, 777.0, 775.0, 775.0, 775.0, 775.0, 775.0, 775.0, 776.0, 777.0, 776.0, 775.0, 774.0, 773.0, 773.0, 775.0, 775.0, 774.0, 775.0, 776.0, 778.0, 777.0, 775.0, 775.0, 774.0, 773.0, 773.0, 774.0, 774.0, 774.0, 775.0, 776.0, 775.0],
      "WindowWidth": [1666.0, 1666.0, 1666.0, 1666.0, 1665.0, 1664.0, 1667.0, 1669.0, 1668.0, 1671.0, 1672.0, 1681.0, 1677.0, 1672.0, 1669.0, 1668.0, 1668.0, 1664.0, 1662.0, 1662.0, 1662.0, 1663.0, 1665.0, 1662.0, 1662.0, 1663.0, 1666.0, 1667.0, 1671.0, 1672.0, 1671.0, 1669.0, 1669.0, 1671.0, 1673.0, 1673.0, 1670.0, 1668.0, 1667.0, 1669.0, 1670.0, 1669.0, 1666.0, 1664.0, 1661.0, 1662.0, 1662.0, 1663.0, 1663.0, 1660.0, 1660.0, 1662.0, 1665.0, 1665.0, 1667.0, 1664.0, 1662.0, 1662.0, 1662.0, 1665.0, 1666.0, 1666.0, 1668.0, 1669.0, 1670.0, 1669.0, 1670.0, 1670.0, 1669.0, 1670.0, 1669.0, 1669.0, 1667.0, 1667.0, 1669.0, 1668.0, 1669.0, 1668.0, 1666.0, 1666.0, 1668.0, 1667.0, 1669.0, 1668.0, 1670.0, 1672.0, 1671.0, 1671.0, 1670.0, 1672.0, 1669.0, 1665.0, 1665.0, 1666.0, 1669.0, 1672.0, 1673.0, 1672.0, 1670.0, 1669.0, 1668.0, 1667.0, 1667.0, 1665.0, 1665.0, 1666.0, 1666.0, 1667.0, 1667.0, 1667.0, 1666.0, 1668.0, 1668.0, 1666.0, 1665.0, 1662.0, 1663.0, 1666.0, 1669.0, 1673.0, 1675.0, 1669.0, 1671.0, 1668.0, 1664.0, 1659.0, 1659.0, 1661.0, 1662.0, 1663.0, 1663.0, 1663.0, 1662.0, 1663.0, 1663.0, 1665.0, 1667.0, 1667.0, 1666.0, 1668.0, 1666.0, 1663.0, 1663.0, 1665.0, 1669.0, 1671.0, 1672.0, 1672.0, 1674.0, 1677.0, 1676.0, 1674.0, 1671.0, 1671.0, 1669.0, 1671.0, 1670.0, 1669.0, 1667.0, 1668.0, 1669.0, 1666.0, 1666.0, 1662.0, 1660.0, 1660.0, 1663.0, 1666.0, 1669.0, 1669.0, 1671.0, 1671.0, 1671.0, 1671.0, 1669.0, 1671.0, 1671.0, 1673.0, 1675.0, 1675.0, 1672.0, 1670.0, 1671.0, 1671.0, 1671.0, 1671.0, 1671.0, 1671.0, 1670.0, 1669.0, 1668.0, 1674.0, 1679.0, 1673.0, 1665.0, 1660.0, 1660.0, 1665.0, 1668.0, 1669.0, 1668.0, 1666.0, 1665.0, 1664.0, 1671.0, 1672.0, 1669.0, 1667.0, 1667.0, 1670.0, 1673.0, 1674.0, 1672.0, 1671.0, 1674.0, 1676.0, 1678.0, 1679.0, 1677.0, 1673.0, 1672.0, 1674.0, 1678.0, 1678.0, 1674.0, 1668.0, 1669.0, 1670.0, 1669.0, 1668.0, 1668.0, 1671.0, 1674.0, 1671.0, 1669.0, 1666.0, 1664.0, 1665.0, 1668.0, 1669.0, 1667.0, 1668.0, 1672.0, 1676.0, 1675.0, 1670.0, 1669.0, 1666.0, 1664.0, 1663.0, 1665.0, 1667.0, 1667.0, 1669.0, 1673.0, 1670.0]
    },
    "slices": {}
  }
}