{
  "AcquisitionMatrixPE": 100,
  "AcquisitionNumber": 1,
  "AcquisitionTime": "16:50:0.725000",
  "BandwidthPerPixelPhaseEncode": 18.519,
  "BaseResolution": 100,
  "BodyPartExamined": "BRAIN",
  "ConsistencyInfo": "N4_VE11C_LATEST_20160120",
  "ConversionSoftware": "dcm2niix",
  "ConversionSoftwareVersion": "v1.0.20180622 GCC4.9.2",
  "DerivedVendorReportedEchoSpacing": 0.000539986,
  "DeviceSerialNumber": "166078",
  "DwellTime": 2.1e-06,
  "EchoTime": 0.034,
  "EchoTrainLength": 100,
  "EffectiveEchoSpacing": 0.000539986,
  "FlipAngle": 90,
  "ImageOrientationPatientDICOM": [1, 0.000106318, 0.000574268, 4.88817e-08, 0.983275, -0.182125],
  "ImageType": [
    "ORIGINAL",
    "PRIMARY",
    "M",
    "ND",
    "MOSAIC"
],
  "InPlanePhaseEncodingDirectionDICOM": "COL",
  "InstitutionAddress": "Street_StreetNo_Bei_Jing_District_CN_ZIP",
  "InstitutionName": "BeiJing_Normal_University",
  "InstitutionalDepartmentName": "Department",
  "MRAcquisitionType": "2D",
  "MagneticFieldStrength": 3,
  "Manufacturer": "Siemens",
  "ManufacturersModelName": "Prisma",
  "Modality": "MR",
  "MultibandAccelerationFactor": 3,
  "PartialFourier": 1,
  "PatientPosition": "HFS",
  "PercentPhaseFOV": 100,
  "PhaseEncodingDirection": "j-",
  "PhaseEncodingSteps": 100,
  "PhaseResolution": 1,
  "PixelBandwidth": 2380,
  "ProcedureStepDescription": "BNU_P2018_64CH_Zhen.ZongLei",
  "ProtocolName": "bold_100x100_s3_2x2x2_static_256",
  "PulseSequenceDetails": "%SiemensSeq%_ep2d_bold",
  "ReceiveCoilActiveElements": "HC1-7;NC1",
  "ReceiveCoilName": "HeadNeck_64",
  "ReconMatrixPE": 100,
  "RepetitionTime": 2,
  "SAR": 0.0640485,
  "ScanOptions": "FS",
  "ScanningSequence": "EP",
  "SequenceName": "_epfid2d1_100",
  "SequenceVariant": "SK",
  "SeriesDescription": "bold_100x100_s3_2x2x2_static_256",
  "SeriesNumber": 14,
  "ShimSetting": [-5461, -11488, -1290, 294, -94, -291, -83, 26],
  "SliceThickness": 2,
  "SliceTiming": [1.485, 0, 0.99, 0.0825, 1.0725, 0.165, 1.155, 0.2475, 1.2375, 0.33, 1.32, 0.4125, 1.4025, 0.5775, 1.5675, 0.66, 1.65, 0.7425, 1.7325, 0.825, 1.815, 0.9075, 1.8975, 0.495, 1.485, 0, 0.99, 0.0825, 1.0725, 0.165, 1.155, 0.2475, 1.2375, 0.33, 1.32, 0.4125, 1.4025, 0.5775, 1.5675, 0.66, 1.65, 0.7425, 1.7325, 0.825, 1.815, 0.9075, 1.8975, 0.495, 1.485, 0, 0.99, 0.0825, 1.0725, 0.165, 1.155, 0.2475, 1.2375, 0.33, 1.32, 0.4125, 1.4025, 0.5775, 1.5675, 0.66, 1.65, 0.7425, 1.7325, 0.825, 1.815, 0.9075, 1.8975, 0.495],
  "SoftwareVersions": "syngo_MR_E11",
  "SpacingBetweenSlices": 2,
  "StationName": "AWP166078",
  "TaskName": "naturalvision",
  "TotalReadoutTime": 0.0534586,
  "TxRefAmp": 235.543,
  "dcmmeta_affine": [
    [-1.9999996423721313, 9.77634542209671e-08, 0.0011680538300424814, 100.00170135498047],
    [-0.0002126351319020614, 1.9665509462356567, -0.36424902081489563, -77.9105453491211],
    [0.0011485364520922303, 0.3642490804195404, 1.966550588607788, -103.8703384399414],
    [0.0, 0.0, 0.0, 1.0]
],
  "dcmmeta_reorient_transform": [
    [0.0, -1.0, 0.0, 99.0],
    [1.0, 0.0, 0.0, 0.0],
    [0.0, 0.0, 1.0, 0.0],
    [0.0, 0.0, 0.0, 1.0]
],
  "dcmmeta_shape": [100, 100, 72, 256],
  "dcmmeta_slice_dim": 2,
  "dcmmeta_version": 0.6,
  "global": {
    "const": {
      "AcquisitionMatrix": [100, 0, 0, 100],
      "AngioFlag": "N",
      "BitsAllocated": 16,
      "BitsStored": 12,
      "BodyPartExamined": "BRAIN",
      "Columns": 900,
      "EchoNumbers": 1,
      "EchoTime": 34.0,
      "EchoTrainLength": 100,
      "FlipAngle": 90.0,
      "HighBit": 11,
      "ImageOrientationPatient": [0.99999982945628, 0.00010631756889, 0.00057426822051, 4.8881728e-08, 0.98327546982895, -0.1821245464858],
      "ImagePositionPatient": [-900.00161744891, -903.48342799399, 77.43054401784],
      "ImageType": [
        "ORIGINAL",
        "PRIMARY",
        "M",
        "ND",
        "MOSAIC"
],
      "ImagedNucleus": "1H",
      "ImagingFrequency": 123.257751,
      "InPlanePhaseEncodingDirection": "COL",
      "MRAcquisitionType": "2D",
      "MagneticFieldStrength": 3.0,
      "Manufacturer": "SIEMENS",
      "ManufacturerModelName": "Prisma",
      "Modality": "MR",
      "NumberOfAverages": 1.0,
      "NumberOfPhaseEncodingSteps": 100,
      "PercentPhaseFieldOfView": 100.0,
      "PercentSampling": 100.0,
      "PerformedProcedureStepStartTime": "151951.028000",
      "PhotometricInterpretation": "MONOCHROME2",
      "PixelBandwidth": 2380.0,
      "PixelRepresentation": 0,
      "PixelSpacing": [2.0, 2.0],
      "ProtocolName": "bold_100x100_s3_2x2x2_static_256",
      "RepetitionTime": 2000.0,
      "Rows": 900,
      "SAR": 0.06404845381537,
      "SamplesPerPixel": 1,
      "ScanOptions": "FS",
      "ScanningSequence": "EP",
      "SequenceName": "*epfid2d1_100",
      "SequenceVariant": "SK",
      "SeriesDescription": "bold_100x100_s3_2x2x2_static_256",
      "SeriesNumber": 14,
      "SeriesTime": "165003.319000",
      "SliceLocation": -87.885314831752,
      "SliceThickness": 2.0,
      "SmallestImagePixelValue": 0,
      "SoftwareVersions": "syngo MR E11",
      "SpacingBetweenSlices": 1.9999999783334,
      "SpecificCharacterSet": "ISO_IR 100",
      "StudyID": "1",
      "StudyTime": "151950.955000",
      "TransmitCoilName": "Body",
      "VariableFlipAngleFlag": "N",
      "WindowCenterWidthExplanation": "Algo1",
      "dBdt": 0.0},
    "slices": {}
  },
  "time": {
    "samples": {
      "AcquisitionNumber": [1, 2, 3, 4, 5, 6, 7, 8, 9, 10, 11, 12, 13, 14, 15, 16, 17, 18, 19, 20, 21, 22, 23, 24, 25, 26, 27, 28, 29, 30, 31, 32, 33, 34, 35, 36, 37, 38, 39, 40, 41, 42, 43, 44, 45, 46, 47, 48, 49, 50, 51, 52, 53, 54, 55, 56, 57, 58, 59, 60, 61, 62, 63, 64, 65, 66, 67, 68, 69, 70, 71, 72, 73, 74, 75, 76, 77, 78, 79, 80, 81, 82, 83, 84, 85, 86, 87, 88, 89, 90, 91, 92, 93, 94, 95, 96, 97, 98, 99, 100, 101, 102, 103, 104, 105, 106, 107, 108, 109, 110, 111, 112, 113, 114, 115, 116, 117, 118, 119, 120, 121, 122, 123, 124, 125, 126, 127, 128, 129, 130, 131, 132, 133, 134, 135, 136, 137, 138, 139, 140, 141, 142, 143, 144, 145, 146, 147, 148, 149, 150, 151, 152, 153, 154, 155, 156, 157, 158, 159, 160, 161, 162, 163, 164, 165, 166, 167, 168, 169, 170, 171, 172, 173, 174, 175, 176, 177, 178, 179, 180, 181, 182, 183, 184, 185, 186, 187, 188, 189, 190, 191, 192, 193, 194, 195, 196, 197, 198, 199, 200, 201, 202, 203, 204, 205, 206, 207, 208, 209, 210, 211, 212, 213, 214, 215, 216, 217, 218, 219, 220, 221, 222, 223, 224, 225, 226, 227, 228, 229, 230, 231, 232, 233, 234, 235, 236, 237, 238, 239, 240, 241, 242, 243, 244, 245, 246, 247, 248, 249, 250, 251, 252, 253, 254, 255, 256],
      "AcquisitionTime": ["165000.725000", "165002.725000", "165004.725000", "165006.725000", "165008.725000", "165010.725000", "165012.725000", "165014.725000", "165016.725000", "165018.725000", "165020.725000", "165022.725000", "165024.725000", "165026.725000", "165028.725000", "165030.725000", "165032.725000", "165034.725000", "165036.725000", "165038.725000", "165040.725000", "165042.725000", "165044.725000", "165046.725000", "165048.725000", "165050.725000", "165052.725000", "165054.725000", "165056.725000", "165058.725000", "165100.725000", "165102.725000", "165104.725000", "165106.725000", "165108.725000", "165110.725000", "165112.725000", "165114.725000", "165116.725000", "165118.725000", "165120.725000", "165122.725000", "165124.725000", "165126.725000", "165128.725000", "165130.725000", "165132.725000", "165134.725000", "165136.725000", "165138.725000", "165140.725000", "165142.725000", "165144.725000", "165146.725000", "165148.725000", "165150.725000", "165152.725000", "165154.725000", "165156.725000", "165158.725000", "165200.725000", "165202.725000", "165204.725000", "165206.725000", "165208.725000", "165210.725000", "165212.725000", "165214.725000", "165216.725000", "165218.725000", "165220.725000", "165222.725000", "165224.725000", "165226.725000", "165228.725000", "165230.725000", "165232.725000", "165234.725000", "165236.725000", "165238.725000", "165240.725000", "165242.725000", "165244.725000", "165246.725000", "165248.725000", "165250.725000", "165252.725000", "165254.725000", "165256.725000", "165258.725000", "165300.725000", "165302.725000", "165304.725000", "165306.725000", "165308.725000", "165310.725000", "165312.725000", "165314.725000", "165316.725000", "165318.725000", "165320.725000", "165322.725000", "165324.725000", "165326.725000", "165328.725000", "165330.725000", "165332.725000", "165334.725000", "165336.725000", "165338.725000", "165340.725000", "165342.725000", "165344.725000", "165346.725000", "165348.725000", "165350.725000", "165352.725000", "165354.725000", "165356.725000", "165358.725000", "165400.725000", "165402.725000", "165404.725000", "165406.725000", "165408.725000", "165410.725000", "165412.725000", "165414.725000", "165416.725000", "165418.725000", "165420.725000", "165422.725000", "165424.725000", "165426.725000", "165428.725000", "165430.725000", "165432.725000", "165434.725000", "165436.725000", "165438.725000", "165440.725000", "165442.725000", "165444.725000", "165446.725000", "165448.725000", "165450.725000", "165452.725000", "165454.725000", "165456.725000", "165458.725000", "165500.725000", "165502.725000", "165504.725000", "165506.725000", "165508.725000", "165510.725000", "165512.725000", "165514.725000", "165516.725000", "165518.725000", "165520.725000", "165522.725000", "165524.725000", "165526.725000", "165528.725000", "165530.725000", "165532.725000", "165534.725000", "165536.725000", "165538.725000", "165540.725000", "165542.725000", "165544.725000", "165546.725000", "165548.725000", "165550.725000", "165552.725000", "165554.725000", "165556.725000", "165558.725000", "165600.725000", "165602.725000", "165604.725000", "165606.725000", "165608.725000", "165610.725000", "165612.725000", "165614.725000", "165616.725000", "165618.725000", "165620.725000", "165622.725000", "165624.725000", "165626.725000", "165628.725000", "165630.725000", "165632.725000", "165634.725000", "165636.725000", "165638.725000", "165640.725000", "165642.725000", "165644.725000", "165646.725000", "165648.725000", "165650.725000", "165652.725000", "165654.725000", "165656.725000", "165658.725000", "165700.725000", "165702.725000", "165704.725000", "165706.725000", "165708.725000", "165710.725000", "165712.725000", "165714.725000", "165716.725000", "165718.725000", "165720.725000", "165722.725000", "165724.725000", "165726.725000", "165728.725000", "165730.725000", "165732.725000", "165734.725000", "165736.725000", "165738.725000", "165740.725000", "165742.725000", "165744.725000", "165746.725000", "165748.725000", "165750.725000", "165752.725000", "165754.725000", "165756.725000", "165758.725000", "165800.725000", "165802.725000", "165804.725000", "165806.725000", "165808.725000", "165810.725000", "165812.725000", "165814.725000", "165816.725000", "165818.725000", "165820.725000", "165822.725000", "165824.725000", "165826.725000", "165828.725000", "165830.725000"],
      "ContentTime": ["165003.323000", "165004.818000", "165006.818000", "165008.818000", "165010.818000", "165012.817000", "165014.818000", "165016.818000", "165018.818000", "165020.819000", "165022.818000", "165024.819000", "165026.818000", "165028.818000", "165030.818000", "165032.818000", "165034.818000", "165036.818000", "165038.818000", "165040.818000", "165042.818000", "165044.817000", "165046.817000", "165048.819000", "165050.819000", "165052.818000", "165054.818000", "165056.819000", "165058.818000", "165100.817000", "165102.817000", "165104.817000", "165106.818000", "165108.818000", "165110.818000", "165112.818000", "165114.818000", "165116.818000", "165118.817000", "165120.817000", "165122.817000", "165124.818000", "165126.818000", "165128.819000", "165130.818000", "165132.818000", "165134.819000", "165136.817000", "165138.817000", "165140.817000", "165142.818000", "165144.819000", "165146.818000", "165148.819000", "165150.818000", "165152.818000", "165154.818000", "165156.817000", "165158.818000", "165200.818000", "165202.818000", "165204.818000", "165206.819000", "165208.818000", "165210.817000", "165212.818000", "165214.817000", "165216.818000", "165218.818000", "165220.818000", "165222.818000", "165224.818000", "165226.818000", "165228.818000", "165230.817000", "165232.817000", "165234.818000", "165236.819000", "165238.818000", "165240.818000", "165242.818000", "165244.818000", "165246.817000", "165248.817000", "165250.818000", "165252.818000", "165254.818000", "165256.818000", "165258.818000", "165300.818000", "165302.819000", "165304.817000", "165306.817000", "165308.818000", "165310.818000", "165312.818000", "165314.819000", "165316.818000", "165318.818000", "165320.817000", "165322.818000", "165324.818000", "165326.819000", "165328.818000", "165330.818000", "165332.818000", "165334.818000", "165336.819000", "165338.817000", "165340.817000", "165342.818000", "165344.818000", "165346.818000", "165348.818000", "165350.819000", "165352.818000", "165354.818000", "165356.838000", "165358.817000", "165400.817000", "165402.819000", "165404.818000", "165406.818000", "165408.818000", "165410.818000", "165412.819000", "165414.817000", "165416.818000", "165418.819000", "165420.818000", "165422.818000", "165424.819000", "165426.818000", "165428.818000", "165430.817000", "165432.817000", "165434.817000", "165436.819000", "165438.818000", "165440.819000", "165442.819000", "165444.818000", "165446.819000", "165448.817000", "165450.817000", "165452.818000", "165454.818000", "165456.818000", "165458.818000", "165500.818000", "165502.819000", "165504.819000", "165506.817000", "165508.817000", "165510.817000", "165512.818000", "165514.818000", "165516.818000", "165518.818000", "165520.819000", "165522.819000", "165524.818000", "165526.818000", "165528.818000", "165530.818000", "165532.819000", "165534.818000", "165536.819000", "165538.818000", "165540.817000", "165542.817000", "165544.817000", "165546.818000", "165548.818000", "165550.818000", "165552.818000", "165554.833000", "165556.819000", "165558.817000", "165600.817000", "165602.817000", "165604.818000", "165606.818000", "165608.818000", "165610.818000", "165612.818000", "165614.818000", "165616.817000", "165618.817000", "165620.818000", "165622.819000", "165624.818000", "165626.818000", "165628.818000", "165630.818000", "165632.819000", "165634.818000", "165636.818000", "165638.825000", "165640.839000", "165642.819000", "165644.819000", "165646.819000", "165648.819000", "165650.818000", "165652.817000", "165654.818000", "165656.819000", "165658.818000", "165700.819000", "165702.819000", "165704.819000", "165706.819000", "165708.818000", "165710.817000", "165712.818000", "165714.818000", "165716.819000", "165718.818000", "165720.819000", "165722.818000", "165724.819000", "165726.818000", "165728.818000", "165730.818000", "165732.818000", "165734.818000", "165736.819000", "165738.818000", "165740.818000", "165742.819000", "165744.818000", "165746.818000", "165748.818000", "165750.818000", "165752.819000", "165754.818000", "165756.818000", "165758.819000", "165800.817000", "165802.818000", "165804.818000", "165806.818000", "165808.818000", "165810.818000", "165812.818000", "165814.819000", "165816.819000", "165818.818000", "165820.817000", "165822.818000", "165824.818000", "165826.818000", "165828.819000", "165830.819000", "165832.517000"],
      "InstanceCreationTime": ["165003.323000", "165004.818000", "165006.818000", "165008.818000", "165010.818000", "165012.817000", "165014.818000", "165016.818000", "165018.818000", "165020.819000", "165022.818000", "165024.819000", "165026.818000", "165028.818000", "165030.818000", "165032.818000", "165034.818000", "165036.818000", "165038.818000", "165040.818000", "165042.818000", "165044.817000", "165046.817000", "165048.819000", "165050.819000", "165052.818000", "165054.818000", "165056.819000", "165058.818000", "165100.817000", "165102.817000", "165104.817000", "165106.818000", "165108.818000", "165110.818000", "165112.818000", "165114.818000", "165116.818000", "165118.817000", "165120.817000", "165122.817000", "165124.818000", "165126.818000", "165128.819000", "165130.818000", "165132.818000", "165134.819000", "165136.817000", "165138.817000", "165140.817000", "165142.818000", "165144.819000", "165146.818000", "165148.819000", "165150.818000", "165152.818000", "165154.818000", "165156.817000", "165158.818000", "165200.818000", "165202.818000", "165204.818000", "165206.819000", "165208.818000", "165210.817000", "165212.818000", "165214.817000", "165216.818000", "165218.818000", "165220.818000", "165222.818000", "165224.818000", "165226.818000", "165228.818000", "165230.817000", "165232.817000", "165234.818000", "165236.819000", "165238.818000", "165240.818000", "165242.818000", "165244.818000", "165246.817000", "165248.817000", "165250.818000", "165252.818000", "165254.818000", "165256.818000", "165258.818000", "165300.818000", "165302.819000", "165304.817000", "165306.817000", "165308.818000", "165310.818000", "165312.818000", "165314.819000", "165316.818000", "165318.818000", "165320.817000", "165322.818000", "165324.818000", "165326.819000", "165328.818000", "165330.818000", "165332.818000", "165334.818000", "165336.819000", "165338.817000", "165340.817000", "165342.818000", "165344.818000", "165346.818000", "165348.818000", "165350.819000", "165352.818000", "165354.818000", "165356.838000", "165358.817000", "165400.817000", "165402.819000", "165404.818000", "165406.818000", "165408.818000", "165410.818000", "165412.819000", "165414.817000", "165416.818000", "165418.819000", "165420.818000", "165422.818000", "165424.819000", "165426.818000", "165428.818000", "165430.817000", "165432.817000", "165434.817000", "165436.819000", "165438.818000", "165440.819000", "165442.819000", "165444.818000", "165446.819000", "165448.817000", "165450.817000", "165452.818000", "165454.818000", "165456.818000", "165458.818000", "165500.818000", "165502.819000", "165504.819000", "165506.817000", "165508.817000", "165510.817000", "165512.818000", "165514.818000", "165516.818000", "165518.818000", "165520.819000", "165522.819000", "165524.818000", "165526.818000", "165528.818000", "165530.818000", "165532.819000", "165534.818000", "165536.819000", "165538.818000", "165540.817000", "165542.817000", "165544.817000", "165546.818000", "165548.818000", "165550.818000", "165552.818000", "165554.833000", "165556.819000", "165558.817000", "165600.817000", "165602.817000", "165604.818000", "165606.818000", "165608.818000", "165610.818000", "165612.818000", "165614.818000", "165616.817000", "165618.817000", "165620.818000", "165622.819000", "165624.818000", "165626.818000", "165628.818000", "165630.818000", "165632.819000", "165634.818000", "165636.818000", "165638.825000", "165640.839000", "165642.819000", "165644.819000", "165646.819000", "165648.819000", "165650.818000", "165652.817000", "165654.818000", "165656.819000", "165658.818000", "165700.819000", "165702.819000", "165704.819000", "165706.819000", "165708.818000", "165710.817000", "165712.818000", "165714.818000", "165716.819000", "165718.818000", "165720.819000", "165722.818000", "165724.819000", "165726.818000", "165728.818000", "165730.818000", "165732.818000", "165734.818000", "165736.819000", "165738.818000", "165740.818000", "165742.819000", "165744.818000", "165746.818000", "165748.818000", "165750.818000", "165752.819000", "165754.818000", "165756.818000", "165758.819000", "165800.817000", "165802.818000", "165804.818000", "165806.818000", "165808.818000", "165810.818000", "165812.818000", "165814.819000", "165816.819000", "165818.818000", "165820.817000", "165822.818000", "165824.818000", "165826.818000", "165828.819000", "165830.819000", "165832.517000"],
      "InstanceNumber": [1, 2, 3, 4, 5, 6, 7, 8, 9, 10, 11, 12, 13, 14, 15, 16, 17, 18, 19, 20, 21, 22, 23, 24, 25, 26, 27, 28, 29, 30, 31, 32, 33, 34, 35, 36, 37, 38, 39, 40, 41, 42, 43, 44, 45, 46, 47, 48, 49, 50, 51, 52, 53, 54, 55, 56, 57, 58, 59, 60, 61, 62, 63, 64, 65, 66, 67, 68, 69, 70, 71, 72, 73, 74, 75, 76, 77, 78, 79, 80, 81, 82, 83, 84, 85, 86, 87, 88, 89, 90, 91, 92, 93, 94, 95, 96, 97, 98, 99, 100, 101, 102, 103, 104, 105, 106, 107, 108, 109, 110, 111, 112, 113, 114, 115, 116, 117, 118, 119, 120, 121, 122, 123, 124, 125, 126, 127, 128, 129, 130, 131, 132, 133, 134, 135, 136, 137, 138, 139, 140, 141, 142, 143, 144, 145, 146, 147, 148, 149, 150, 151, 152, 153, 154, 155, 156, 157, 158, 159, 160, 161, 162, 163, 164, 165, 166, 167, 168, 169, 170, 171, 172, 173, 174, 175, 176, 177, 178, 179, 180, 181, 182, 183, 184, 185, 186, 187, 188, 189, 190, 191, 192, 193, 194, 195, 196, 197, 198, 199, 200, 201, 202, 203, 204, 205, 206, 207, 208, 209, 210, 211, 212, 213, 214, 215, 216, 217, 218, 219, 220, 221, 222, 223, 224, 225, 226, 227, 228, 229, 230, 231, 232, 233, 234, 235, 236, 237, 238, 239, 240, 241, 242, 243, 244, 245, 246, 247, 248, 249, 250, 251, 252, 253, 254, 255, 256],
      "LargestImagePixelValue": [2785, 2740, 2714, 2724, 2823, 3232, 3155, 2740, 3145, 2697, 2728, 2763, 2765, 2739, 2937, 2742, 2803, 2774, 2750, 3233, 2733, 2755, 2833, 3093, 2747, 2741, 3237, 2769, 2746, 2753, 3139, 2745, 3007, 2732, 3047, 2772, 2909, 2746, 2756, 2748, 2715, 2776, 2789, 2737, 2760, 2762, 2767, 2730, 2706, 2747, 2784, 2751, 2751, 2729, 2750, 2748, 2736, 2751, 2965, 2769, 2730, 2740, 3059, 2728, 2713, 2741, 2762, 2742, 3173, 3027, 2720, 2734, 2719, 2717, 2920, 2728, 2750, 2737, 2749, 2749, 2734, 2745, 3109, 3036, 2725, 2793, 2741, 2720, 2705, 2716, 2706, 2719, 2736, 2733, 2727, 2730, 2746, 2767, 2760, 2748, 2732, 2753, 2738, 2742, 2719, 2739, 2722, 2704, 2737, 2719, 2719, 2725, 2866, 2731, 2728, 2743, 2738, 2708, 3051, 2767, 2735, 2982, 2698, 2731, 2703, 2731, 2755, 2757, 2730, 2722, 2752, 2723, 2716, 2771, 3064, 2933, 2736, 2746, 2771, 2727, 2930, 2757, 2914, 2726, 2705, 2717, 2711, 2725, 2780, 2695, 2747, 2748, 2715, 2732, 2750, 2735, 2761, 2738, 2916, 2744, 2748, 2736, 2732, 2692, 2738, 2743, 2724, 2773, 2716, 2725, 2723, 2894, 2731, 2707, 2726, 2734, 2711, 2743, 2732, 2720, 2796, 2743, 2711, 2703, 2731, 2746, 2752, 2770, 2740, 2703, 2763, 2834, 2762, 2753, 2730, 2909, 2831, 2740, 2723, 2717, 2762, 2742, 2757, 2785, 2738, 2733, 2744, 2736, 2743, 2736, 2744, 2770, 2774, 2740, 2805, 2866, 2724, 2713, 2752, 2769, 2719, 2748, 2782, 2726, 2732, 2745, 2741, 2716, 2764, 2732, 2738, 2756, 2756, 2753, 2788, 2728, 2720, 2730, 2737, 2738, 2755, 2785, 2773, 2756, 2837, 2750, 2756, 2702, 2738, 2727, 2734, 2731, 2725, 2919, 2719, 2725],
      "WindowCenter": [756.0, 754.0, 754.0, 753.0, 754.0, 758.0, 757.0, 753.0, 755.0, 748.0, 749.0, 751.0, 751.0, 751.0, 754.0, 753.0, 755.0, 754.0, 753.0, 756.0, 753.0, 752.0, 755.0, 757.0, 754.0, 754.0, 756.0, 753.0, 751.0, 754.0, 755.0, 753.0, 753.0, 753.0, 755.0, 754.0, 753.0, 752.0, 753.0, 753.0, 754.0, 755.0, 758.0, 754.0, 753.0, 756.0, 753.0, 755.0, 752.0, 752.0, 754.0, 751.0, 755.0, 754.0, 755.0, 753.0, 752.0, 752.0, 752.0, 752.0, 753.0, 755.0, 758.0, 754.0, 753.0, 753.0, 753.0, 753.0, 758.0, 757.0, 754.0, 754.0, 754.0, 754.0, 756.0, 753.0, 752.0, 752.0, 751.0, 752.0, 751.0, 752.0, 756.0, 755.0, 752.0, 755.0, 752.0, 755.0, 755.0, 755.0, 754.0, 756.0, 752.0, 754.0, 755.0, 751.0, 754.0, 753.0, 754.0, 755.0, 754.0, 757.0, 755.0, 755.0, 757.0, 755.0, 755.0, 755.0, 755.0, 757.0, 755.0, 755.0, 756.0, 753.0, 754.0, 752.0, 754.0, 752.0, 753.0, 753.0, 752.0, 755.0, 752.0, 753.0, 754.0, 755.0, 755.0, 754.0, 752.0, 752.0, 754.0, 754.0, 754.0, 755.0, 757.0, 756.0, 753.0, 753.0, 754.0, 754.0, 754.0, 754.0, 756.0, 756.0, 754.0, 755.0, 754.0, 752.0, 756.0, 752.0, 752.0, 754.0, 751.0, 754.0, 752.0, 752.0, 753.0, 753.0, 754.0, 751.0, 753.0, 754.0, 756.0, 754.0, 752.0, 756.0, 754.0, 753.0, 755.0, 754.0, 757.0, 756.0, 754.0, 755.0, 755.0, 754.0, 756.0, 754.0, 757.0, 758.0, 755.0, 758.0, 756.0, 756.0, 755.0, 756.0, 753.0, 751.0, 754.0, 752.0, 754.0, 755.0, 756.0, 754.0, 752.0, 755.0, 755.0, 754.0, 754.0, 754.0, 753.0, 752.0, 754.0, 754.0, 753.0, 753.0, 753.0, 754.0, 754.0, 754.0, 752.0, 752.0, 756.0, 756.0, 754.0, 755.0, 756.0, 754.0, 754.0, 754.0, 754.0, 755.0, 756.0, 751.0, 753.0, 753.0, 754.0, 753.0, 756.0, 755.0, 755.0, 753.0, 753.0, 752.0, 757.0, 755.0, 756.0, 755.0, 757.0, 755.0, 754.0, 754.0, 753.0, 757.0, 758.0, 753.0, 757.0, 757.0, 756.0, 755.0, 754.0, 755.0, 759.0, 760.0, 755.0, 756.0],
      "WindowWidth": [1608.0, 1604.0, 1604.0, 1599.0, 1601.0, 1610.0, 1608.0, 1600.0, 1604.0, 1589.0, 1591.0, 1595.0, 1596.0, 1596.0, 1602.0, 1600.0, 1607.0, 1603.0, 1600.0, 1607.0, 1599.0, 1599.0, 1605.0, 1610.0, 1603.0, 1602.0, 1606.0, 1600.0, 1597.0, 1604.0, 1605.0, 1601.0, 1601.0, 1602.0, 1604.0, 1604.0, 1601.0, 1600.0, 1600.0, 1600.0, 1602.0, 1606.0, 1612.0, 1603.0, 1602.0, 1608.0, 1602.0, 1607.0, 1599.0, 1600.0, 1604.0, 1596.0, 1606.0, 1602.0, 1606.0, 1600.0, 1597.0, 1597.0, 1597.0, 1598.0, 1601.0, 1606.0, 1612.0, 1602.0, 1601.0, 1601.0, 1602.0, 1602.0, 1611.0, 1609.0, 1604.0, 1604.0, 1603.0, 1603.0, 1608.0, 1601.0, 1599.0, 1598.0, 1597.0, 1598.0, 1597.0, 1598.0, 1608.0, 1605.0, 1599.0, 1605.0, 1600.0, 1607.0, 1605.0, 1607.0, 1604.0, 1608.0, 1599.0, 1603.0, 1605.0, 1597.0, 1604.0, 1600.0, 1604.0, 1605.0, 1605.0, 1611.0, 1607.0, 1606.0, 1612.0, 1607.0, 1606.0, 1606.0, 1606.0, 1612.0, 1605.0, 1607.0, 1607.0, 1602.0, 1603.0, 1599.0, 1602.0, 1599.0, 1600.0, 1601.0, 1598.0, 1604.0, 1600.0, 1601.0, 1603.0, 1606.0, 1606.0, 1603.0, 1599.0, 1598.0, 1603.0, 1604.0, 1603.0, 1605.0, 1611.0, 1607.0, 1601.0, 1601.0, 1603.0, 1603.0, 1602.0, 1603.0, 1607.0, 1608.0, 1605.0, 1606.0, 1604.0, 1599.0, 1608.0, 1599.0, 1600.0, 1603.0, 1595.0, 1602.0, 1598.0, 1597.0, 1600.0, 1601.0, 1602.0, 1597.0, 1600.0, 1605.0, 1609.0, 1603.0, 1598.0, 1607.0, 1604.0, 1602.0, 1606.0, 1603.0, 1611.0, 1608.0, 1603.0, 1606.0, 1606.0, 1603.0, 1608.0, 1603.0, 1611.0, 1612.0, 1606.0, 1612.0, 1607.0, 1608.0, 1607.0, 1607.0, 1599.0, 1596.0, 1604.0, 1600.0, 1602.0, 1605.0, 1608.0, 1603.0, 1598.0, 1605.0, 1606.0, 1604.0, 1605.0, 1604.0, 1601.0, 1599.0, 1602.0, 1603.0, 1601.0, 1601.0, 1601.0, 1604.0, 1604.0, 1602.0, 1599.0, 1599.0, 1607.0, 1608.0, 1603.0, 1605.0, 1607.0, 1604.0, 1604.0, 1604.0, 1604.0, 1605.0, 1609.0, 1597.0, 1602.0, 1601.0, 1603.0, 1601.0, 1608.0, 1605.0, 1605.0, 1601.0, 1602.0, 1598.0, 1610.0, 1606.0, 1609.0, 1607.0, 1612.0, 1605.0, 1603.0, 1604.0, 1602.0, 1610.0, 1613.0, 1601.0, 1611.0, 1611.0, 1609.0, 1606.0, 1604.0, 1605.0, 1616.0, 1617.0, 1605.0, 1607.0]
    },
    "slices": {}
  }
}