{
 "AcquisitionMatrixPE": 100,
 "AcquisitionNumber": 1,
 "AcquisitionTime": "16:34:1.707500",
 "BandwidthPerPixelPhaseEncode": 18.519,
 "BaseResolution": 100,
 "BodyPartExamined": "BRAIN",
 "ConsistencyInfo": "N4_VE11C_LATEST_20160120",
 "ConversionSoftware": "dcm2niix",
 "ConversionSoftwareVersion": "v1.0.20180622 GCC4.9.2",
 "DerivedVendorReportedEchoSpacing": 0.000539986,
 "DeviceSerialNumber": "166078",
 "DwellTime": 2.1e-06,
 "EchoTime": 0.034,
 "EchoTrainLength": 100,
 "EffectiveEchoSpacing": 0.000539986,
 "FlipAngle": 90,
 "ImageOrientationPatientDICOM": [
  1,
  0,
  0,
  0,
  0.999781,
  -0.0209424
 ],
 "ImageType": [
  "ORIGINAL",
  "PRIMARY",
  "M",
  "ND",
  "MOSAIC"
 ],
 "InPlanePhaseEncodingDirectionDICOM": "COL",
 "InstitutionAddress": "Street_StreetNo_Bei_Jing_District_CN_ZIP",
 "InstitutionName": "BeiJing_Normal_University",
 "InstitutionalDepartmentName": "Department",
 "MRAcquisitionType": "2D",
 "MagneticFieldStrength": 3,
 "Manufacturer": "Siemens",
 "ManufacturersModelName": "Prisma",
 "Modality": "MR",
 "MultibandAccelerationFactor": 3,
 "PartialFourier": 1,
 "PatientPosition": "HFS",
 "PercentPhaseFOV": 100,
 "PhaseEncodingDirection": "j-",
 "PhaseEncodingSteps": 100,
 "PhaseResolution": 1,
 "PixelBandwidth": 2380,
 "ProcedureStepDescription": "BNU_P2018_64CH_Zhen.ZongLei",
 "ProtocolName": "bold_100x100_s3_2x2x2_retino_150",
 "PulseSequenceDetails": "%SiemensSeq%_ep2d_bold",
 "ReceiveCoilActiveElements": "HC1-7;NC1",
 "ReceiveCoilName": "HeadNeck_64",
 "ReconMatrixPE": 100,
 "RepetitionTime": 2,
 "SAR": 0.0766486,
 "ScanOptions": "FS",
 "ScanningSequence": "EP",
 "SequenceName": "_epfid2d1_100",
 "SequenceVariant": "SK",
 "SeriesDescription": "bold_100x100_s3_2x2x2_retino_150",
 "SeriesNumber": 16,
 "ShimSetting": [
  -5450,
  -11528,
  -1197,
  543,
  14,
  -244,
  22,
  63
 ],
 "SliceThickness": 2,
 "SliceTiming": [
  1.485,
  0,
  0.99,
  0.0825,
  1.0725,
  0.165,
  1.155,
  0.2475,
  1.2375,
  0.33,
  1.32,
  0.4125,
  1.4025,
  0.5775,
  1.5675,
  0.66,
  1.65,
  0.7425,
  1.7325,
  0.825,
  1.815,
  0.9075,
  1.8975,
  0.495,
  1.485,
  0,
  0.99,
  0.0825,
  1.0725,
  0.165,
  1.155,
  0.2475,
  1.2375,
  0.33,
  1.32,
  0.4125,
  1.4025,
  0.5775,
  1.5675,
  0.66,
  1.65,
  0.7425,
  1.7325,
  0.825,
  1.815,
  0.9075,
  1.8975,
  0.495,
  1.485,
  0,
  0.99,
  0.0825,
  1.0725,
  0.165,
  1.155,
  0.2475,
  1.2375,
  0.33,
  1.32,
  0.4125,
  1.4025,
  0.5775,
  1.5675,
  0.66,
  1.65,
  0.7425,
  1.7325,
  0.825,
  1.815,
  0.9075,
  1.8975,
  0.495
 ],
 "SoftwareVersions": "syngo_MR_E11",
 "SpacingBetweenSlices": 2,
 "StationName": "AWP166078",
 "TaskName": "prf",
 "TotalReadoutTime": 0.0534586,
 "TxRefAmp": 209.645,
 "dcmmeta_affine": [
  [
   -2.0,
   0.0,
   0.0,
   100.67469787597656
  ],
  [
   0.0,
   1.9995613098144531,
   -0.04188483953475952,
   -82.38557434082031
  ],
  [
   0.0,
   0.04188483953475952,
   1.9995613098144531,
   -38.7428092956543
  ],
  [
   0.0,
   0.0,
   0.0,
   1.0
  ]
 ],
 "dcmmeta_reorient_transform": [
  [
   0.0,
   -1.0,
   0.0,
   99.0
  ],
  [
   1.0,
   0.0,
   0.0,
   0.0
  ],
  [
   0.0,
   0.0,
   1.0,
   0.0
  ],
  [
   0.0,
   0.0,
   0.0,
   1.0
  ]
 ],
 "dcmmeta_shape": [
  100,
  100,
  72,
  150
 ],
 "dcmmeta_slice_dim": 2,
 "dcmmeta_version": 0.6,
 "global": {
  "const": {
   "AcquisitionMatrix": [
    100,
    0,
    0,
    100
   ],
   "AngioFlag": "N",
   "BitsAllocated": 16,
   "BitsStored": 12,
   "BodyPartExamined": "BRAIN",
   "Columns": 900,
   "EchoNumbers": 1,
   "EchoTime": 34.0,
   "EchoTrainLength": 100,
   "FlipAngle": 90.0,
   "HighBit": 11,
   "ImageOrientationPatient": [
    1.0,
    0.0,
    0.0,
    0.0,
    0.9997806834792,
    -0.0209424196753
   ],
   "ImagePositionPatient": [
    -900.67469877005,
    -915.39555069341,
    -17.842274867905
   ],
   "ImageType": [
    "ORIGINAL",
    "PRIMARY",
    "M",
    "ND",
    "MOSAIC"
   ],
   "ImagedNucleus": "1H",
   "ImagingFrequency": 123.257727,
   "InPlanePhaseEncodingDirection": "COL",
   "MRAcquisitionType": "2D",
   "MagneticFieldStrength": 3.0,
   "Manufacturer": "SIEMENS",
   "ManufacturerModelName": "Prisma",
   "Modality": "MR",
   "NumberOfAverages": 1.0,
   "NumberOfPhaseEncodingSteps": 100,
   "PercentPhaseFieldOfView": 100.0,
   "PercentSampling": 100.0,
   "PerformedProcedureStepStartTime": "144707.790000",
   "PhotometricInterpretation": "MONOCHROME2",
   "PixelBandwidth": 2380.0,
   "PixelRepresentation": 0,
   "PixelSpacing": [
    2.0,
    2.0
   ],
   "ProtocolName": "bold_100x100_s3_2x2x2_retino_150",
   "RepetitionTime": 2000.0,
   "Rows": 900,
   "SAR": 0.07664859823314,
   "SamplesPerPixel": 1,
   "ScanOptions": "FS",
   "ScanningSequence": "EP",
   "SequenceName": "*epfid2d1_100",
   "SequenceVariant": "SK",
   "SeriesDescription": "bold_100x100_s3_2x2x2_retino_150",
   "SeriesNumber": 16,
   "SeriesTime": "163404.446000",
   "SliceLocation": -37.00895955379,
   "SliceThickness": 2.0,
   "SmallestImagePixelValue": 0,
   "SoftwareVersions": "syngo MR E11",
   "SpacingBetweenSlices": 1.9999999965712,
   "SpecificCharacterSet": "ISO_IR 100",
   "StudyID": "1",
   "StudyTime": "144707.690000",
   "TransmitCoilName": "Body",
   "VariableFlipAngleFlag": "N",
   "WindowCenterWidthExplanation": "Algo1",
   "dBdt": 0.0
  },
  "slices": {}
 },
 "time": {
  "samples": {
   "AcquisitionNumber": [
    1,
    2,
    3,
    4,
    5,
    6,
    7,
    8,
    9,
    10,
    11,
    12,
    13,
    14,
    15,
    16,
    17,
    18,
    19,
    20,
    21,
    22,
    23,
    24,
    25,
    26,
    27,
    28,
    29,
    30,
    31,
    32,
    33,
    34,
    35,
    36,
    37,
    38,
    39,
    40,
    41,
    42,
    43,
    44,
    45,
    46,
    47,
    48,
    49,
    50,
    51,
    52,
    53,
    54,
    55,
    56,
    57,
    58,
    59,
    60,
    61,
    62,
    63,
    64,
    65,
    66,
    67,
    68,
    69,
    70,
    71,
    72,
    73,
    74,
    75,
    76,
    77,
    78,
    79,
    80,
    81,
    82,
    83,
    84,
    85,
    86,
    87,
    88,
    89,
    90,
    91,
    92,
    93,
    94,
    95,
    96,
    97,
    98,
    99,
    100,
    101,
    102,
    103,
    104,
    105,
    106,
    107,
    108,
    109,
    110,
    111,
    112,
    113,
    114,
    115,
    116,
    117,
    118,
    119,
    120,
    121,
    122,
    123,
    124,
    125,
    126,
    127,
    128,
    129,
    130,
    131,
    132,
    133,
    134,
    135,
    136,
    137,
    138,
    139,
    140,
    141,
    142,
    143,
    144,
    145,
    146,
    147,
    148,
    149,
    150
   ],
   "AcquisitionTime": [
    "163401.707500",
    "163403.707500",
    "163405.707500",
    "163407.707500",
    "163409.707500",
    "163411.707500",
    "163413.707500",
    "163415.707500",
    "163417.707500",
    "163419.707500",
    "163421.707500",
    "163423.707500",
    "163425.707500",
    "163427.707500",
    "163429.707500",
    "163431.707500",
    "163433.707500",
    "163435.707500",
    "163437.707500",
    "163439.707500",
    "163441.707500",
    "163443.707500",
    "163445.707500",
    "163447.707500",
    "163449.707500",
    "163451.707500",
    "163453.707500",
    "163455.707500",
    "163457.707500",
    "163459.707500",
    "163501.707500",
    "163503.707500",
    "163505.707500",
    "163507.707500",
    "163509.707500",
    "163511.707500",
    "163513.707500",
    "163515.707500",
    "163517.707500",
    "163519.707500",
    "163521.707500",
    "163523.707500",
    "163525.707500",
    "163527.707500",
    "163529.707500",
    "163531.707500",
    "163533.707500",
    "163535.707500",
    "163537.707500",
    "163539.707500",
    "163541.707500",
    "163543.707500",
    "163545.707500",
    "163547.707500",
    "163549.707500",
    "163551.707500",
    "163553.707500",
    "163555.707500",
    "163557.707500",
    "163559.707500",
    "163601.707500",
    "163603.707500",
    "163605.707500",
    "163607.707500",
    "163609.707500",
    "163611.707500",
    "163613.707500",
    "163615.707500",
    "163617.707500",
    "163619.707500",
    "163621.707500",
    "163623.707500",
    "163625.707500",
    "163627.707500",
    "163629.707500",
    "163631.707500",
    "163633.707500",
    "163635.707500",
    "163637.707500",
    "163639.707500",
    "163641.707500",
    "163643.707500",
    "163645.707500",
    "163647.707500",
    "163649.707500",
    "163651.707500",
    "163653.707500",
    "163655.707500",
    "163657.707500",
    "163659.707500",
    "163701.707500",
    "163703.707500",
    "163705.707500",
    "163707.707500",
    "163709.707500",
    "163711.707500",
    "163713.707500",
    "163715.707500",
    "163717.707500",
    "163719.707500",
    "163721.707500",
    "163723.707500",
    "163725.707500",
    "163727.707500",
    "163729.707500",
    "163731.707500",
    "163733.707500",
    "163735.707500",
    "163737.707500",
    "163739.707500",
    "163741.707500",
    "163743.707500",
    "163745.707500",
    "163747.707500",
    "163749.707500",
    "163751.707500",
    "163753.707500",
    "163755.707500",
    "163757.707500",
    "163759.707500",
    "163801.707500",
    "163803.707500",
    "163805.707500",
    "163807.707500",
    "163809.707500",
    "163811.707500",
    "163813.707500",
    "163815.707500",
    "163817.707500",
    "163819.707500",
    "163821.707500",
    "163823.707500",
    "163825.707500",
    "163827.707500",
    "163829.707500",
    "163831.707500",
    "163833.707500",
    "163835.707500",
    "163837.707500",
    "163839.707500",
    "163841.707500",
    "163843.707500",
    "163845.707500",
    "163847.707500",
    "163849.707500",
    "163851.707500",
    "163853.707500",
    "163855.707500",
    "163857.707500",
    "163859.707500"
   ],
   "ContentTime": [
    "163404.450000",
    "163405.945000",
    "163407.945000",
    "163409.945000",
    "163411.946000",
    "163413.946000",
    "163415.946000",
    "163417.946000",
    "163419.946000",
    "163421.945000",
    "163423.946000",
    "163425.945000",
    "163427.945000",
    "163429.946000",
    "163431.946000",
    "163433.945000",
    "163435.945000",
    "163437.946000",
    "163439.945000",
    "163441.946000",
    "163443.946000",
    "163445.945000",
    "163447.945000",
    "163449.945000",
    "163451.946000",
    "163453.945000",
    "163455.946000",
    "163457.946000",
    "163459.945000",
    "163501.946000",
    "163503.945000",
    "163505.945000",
    "163507.945000",
    "163509.945000",
    "163511.945000",
    "163513.946000",
    "163515.946000",
    "163517.945000",
    "163519.946000",
    "163521.945000",
    "163523.945000",
    "163525.945000",
    "163527.945000",
    "163529.946000",
    "163531.946000",
    "163533.946000",
    "163535.945000",
    "163537.946000",
    "163539.946000",
    "163541.946000",
    "163543.945000",
    "163545.944000",
    "163547.946000",
    "163549.945000",
    "163551.946000",
    "163553.946000",
    "163555.946000",
    "163557.945000",
    "163559.945000",
    "163601.945000",
    "163603.944000",
    "163605.946000",
    "163607.946000",
    "163609.946000",
    "163611.946000",
    "163613.946000",
    "163615.946000",
    "163617.946000",
    "163619.946000",
    "163621.946000",
    "163623.945000",
    "163625.946000",
    "163627.945000",
    "163629.946000",
    "163631.946000",
    "163633.945000",
    "163635.946000",
    "163637.945000",
    "163639.945000",
    "163641.946000",
    "163643.945000",
    "163645.946000",
    "163647.945000",
    "163649.946000",
    "163651.945000",
    "163653.946000",
    "163655.944000",
    "163657.945000",
    "163659.946000",
    "163701.946000",
    "163703.945000",
    "163705.946000",
    "163707.945000",
    "163709.946000",
    "163711.945000",
    "163713.945000",
    "163715.945000",
    "163717.945000",
    "163719.946000",
    "163721.946000",
    "163723.946000",
    "163725.946000",
    "163727.946000",
    "163729.946000",
    "163731.946000",
    "163733.945000",
    "163735.946000",
    "163737.945000",
    "163739.946000",
    "163741.946000",
    "163743.946000",
    "163745.946000",
    "163747.946000",
    "163749.946000",
    "163751.945000",
    "163753.946000",
    "163755.946000",
    "163757.946000",
    "163759.946000",
    "163801.946000",
    "163803.946000",
    "163805.945000",
    "163807.946000",
    "163809.945000",
    "163811.946000",
    "163813.945000",
    "163815.946000",
    "163817.946000",
    "163819.946000",
    "163821.946000",
    "163823.946000",
    "163825.945000",
    "163827.946000",
    "163829.946000",
    "163831.946000",
    "163833.946000",
    "163835.946000",
    "163837.946000",
    "163839.945000",
    "163841.945000",
    "163843.945000",
    "163845.945000",
    "163847.945000",
    "163849.946000",
    "163851.946000",
    "163853.946000",
    "163855.946000",
    "163857.944000",
    "163859.945000",
    "163901.645000"
   ],
   "InstanceCreationTime": [
    "163404.450000",
    "163405.945000",
    "163407.945000",
    "163409.945000",
    "163411.946000",
    "163413.946000",
    "163415.946000",
    "163417.946000",
    "163419.946000",
    "163421.945000",
    "163423.946000",
    "163425.945000",
    "163427.945000",
    "163429.946000",
    "163431.946000",
    "163433.945000",
    "163435.945000",
    "163437.946000",
    "163439.945000",
    "163441.946000",
    "163443.946000",
    "163445.945000",
    "163447.945000",
    "163449.945000",
    "163451.946000",
    "163453.945000",
    "163455.946000",
    "163457.946000",
    "163459.945000",
    "163501.946000",
    "163503.945000",
    "163505.945000",
    "163507.945000",
    "163509.945000",
    "163511.945000",
    "163513.946000",
    "163515.946000",
    "163517.945000",
    "163519.946000",
    "163521.945000",
    "163523.945000",
    "163525.945000",
    "163527.945000",
    "163529.946000",
    "163531.946000",
    "163533.946000",
    "163535.945000",
    "163537.946000",
    "163539.946000",
    "163541.946000",
    "163543.945000",
    "163545.944000",
    "163547.946000",
    "163549.945000",
    "163551.946000",
    "163553.946000",
    "163555.946000",
    "163557.945000",
    "163559.945000",
    "163601.945000",
    "163603.944000",
    "163605.946000",
    "163607.946000",
    "163609.946000",
    "163611.946000",
    "163613.946000",
    "163615.946000",
    "163617.946000",
    "163619.946000",
    "163621.946000",
    "163623.945000",
    "163625.946000",
    "163627.945000",
    "163629.946000",
    "163631.946000",
    "163633.945000",
    "163635.946000",
    "163637.945000",
    "163639.945000",
    "163641.946000",
    "163643.945000",
    "163645.946000",
    "163647.945000",
    "163649.946000",
    "163651.945000",
    "163653.946000",
    "163655.944000",
    "163657.945000",
    "163659.946000",
    "163701.946000",
    "163703.945000",
    "163705.946000",
    "163707.945000",
    "163709.946000",
    "163711.945000",
    "163713.945000",
    "163715.945000",
    "163717.945000",
    "163719.946000",
    "163721.946000",
    "163723.946000",
    "163725.946000",
    "163727.946000",
    "163729.946000",
    "163731.946000",
    "163733.945000",
    "163735.946000",
    "163737.945000",
    "163739.946000",
    "163741.946000",
    "163743.946000",
    "163745.946000",
    "163747.946000",
    "163749.946000",
    "163751.945000",
    "163753.946000",
    "163755.946000",
    "163757.946000",
    "163759.946000",
    "163801.946000",
    "163803.946000",
    "163805.945000",
    "163807.946000",
    "163809.945000",
    "163811.946000",
    "163813.945000",
    "163815.946000",
    "163817.946000",
    "163819.946000",
    "163821.946000",
    "163823.946000",
    "163825.945000",
    "163827.946000",
    "163829.946000",
    "163831.946000",
    "163833.946000",
    "163835.946000",
    "163837.946000",
    "163839.945000",
    "163841.945000",
    "163843.945000",
    "163845.945000",
    "163847.945000",
    "163849.946000",
    "163851.946000",
    "163853.946000",
    "163855.946000",
    "163857.944000",
    "163859.945000",
    "163901.645000"
   ],
   "InstanceNumber": [
    1,
    2,
    3,
    4,
    5,
    6,
    7,
    8,
    9,
    10,
    11,
    12,
    13,
    14,
    15,
    16,
    17,
    18,
    19,
    20,
    21,
    22,
    23,
    24,
    25,
    26,
    27,
    28,
    29,
    30,
    31,
    32,
    33,
    34,
    35,
    36,
    37,
    38,
    39,
    40,
    41,
    42,
    43,
    44,
    45,
    46,
    47,
    48,
    49,
    50,
    51,
    52,
    53,
    54,
    55,
    56,
    57,
    58,
    59,
    60,
    61,
    62,
    63,
    64,
    65,
    66,
    67,
    68,
    69,
    70,
    71,
    72,
    73,
    74,
    75,
    76,
    77,
    78,
    79,
    80,
    81,
    82,
    83,
    84,
    85,
    86,
    87,
    88,
    89,
    90,
    91,
    92,
    93,
    94,
    95,
    96,
    97,
    98,
    99,
    100,
    101,
    102,
    103,
    104,
    105,
    106,
    107,
    108,
    109,
    110,
    111,
    112,
    113,
    114,
    115,
    116,
    117,
    118,
    119,
    120,
    121,
    122,
    123,
    124,
    125,
    126,
    127,
    128,
    129,
    130,
    131,
    132,
    133,
    134,
    135,
    136,
    137,
    138,
    139,
    140,
    141,
    142,
    143,
    144,
    145,
    146,
    147,
    148,
    149,
    150
   ],
   "LargestImagePixelValue": [
    2841,
    2759,
    2741,
    2753,
    2717,
    2717,
    2772,
    2710,
    2672,
    2675,
    2705,
    2732,
    2692,
    2693,
    2703,
    2716,
    2678,
    2694,
    2701,
    2669,
    2681,
    2689,
    2654,
    2682,
    2720,
    2750,
    2688,
    2714,
    2747,
    2661,
    2667,
    2698,
    2656,
    2684,
    2691,
    2675,
    2672,
    2674,
    2692,
    2687,
    2674,
    2661,
    2669,
    2677,
    2677,
    2666,
    2722,
    2650,
    2669,
    2696,
    2662,
    2682,
    2667,
    2689,
    2653,
    2681,
    2686,
    2787,
    2666,
    2669,
    2683,
    2647,
    2704,
    2737,
    2688,
    2675,
    2745,
    2678,
    2675,
    2685,
    2716,
    2708,
    2688,
    2647,
    2744,
    2660,
    2665,
    2756,
    2676,
    2683,
    2644,
    2676,
    2652,
    2646,
    2667,
    2661,
    2674,
    2697,
    2691,
    2704,
    2697,
    2723,
    2687,
    2724,
    2731,
    2694,
    2684,
    2643,
    2745,
    2642,
    2638,
    2708,
    2657,
    2636,
    2661,
    2626,
    2665,
    2616,
    2615,
    2614,
    2633,
    2633,
    2652,
    2640,
    2662,
    2605,
    2628,
    2639,
    2738,
    2657,
    2605,
    2755,
    2640,
    2698,
    2691,
    2655,
    2633,
    2639,
    2697,
    2786,
    2672,
    2720,
    2649,
    2661,
    2680,
    2721,
    2722,
    2732,
    2639,
    2805,
    2737,
    2713,
    2810,
    2799,
    2789,
    2770,
    2797,
    2768,
    2795,
    2727
   ],
   "WindowCenter": [
    759.0,
    757.0,
    756.0,
    757.0,
    757.0,
    757.0,
    757.0,
    757.0,
    757.0,
    756.0,
    757.0,
    758.0,
    757.0,
    757.0,
    757.0,
    757.0,
    757.0,
    757.0,
    757.0,
    757.0,
    757.0,
    757.0,
    757.0,
    757.0,
    757.0,
    757.0,
    756.0,
    757.0,
    757.0,
    756.0,
    756.0,
    755.0,
    755.0,
    756.0,
    756.0,
    756.0,
    756.0,
    756.0,
    757.0,
    756.0,
    756.0,
    756.0,
    756.0,
    756.0,
    756.0,
    756.0,
    756.0,
    755.0,
    755.0,
    755.0,
    754.0,
    755.0,
    756.0,
    756.0,
    756.0,
    756.0,
    756.0,
    756.0,
    756.0,
    756.0,
    756.0,
    755.0,
    755.0,
    755.0,
    755.0,
    756.0,
    756.0,
    756.0,
    755.0,
    756.0,
    757.0,
    756.0,
    756.0,
    756.0,
    757.0,
    755.0,
    754.0,
    755.0,
    755.0,
    755.0,
    754.0,
    754.0,
    754.0,
    754.0,
    754.0,
    754.0,
    755.0,
    755.0,
    756.0,
    755.0,
    756.0,
    756.0,
    755.0,
    756.0,
    756.0,
    756.0,
    755.0,
    755.0,
    756.0,
    755.0,
    755.0,
    755.0,
    755.0,
    755.0,
    755.0,
    755.0,
    756.0,
    755.0,
    755.0,
    755.0,
    756.0,
    756.0,
    755.0,
    755.0,
    755.0,
    755.0,
    755.0,
    755.0,
    756.0,
    754.0,
    753.0,
    755.0,
    754.0,
    755.0,
    755.0,
    755.0,
    755.0,
    755.0,
    755.0,
    755.0,
    755.0,
    756.0,
    754.0,
    755.0,
    756.0,
    756.0,
    755.0,
    754.0,
    754.0,
    756.0,
    755.0,
    755.0,
    756.0,
    756.0,
    757.0,
    757.0,
    756.0,
    756.0,
    756.0,
    755.0
   ],
   "WindowWidth": [
    1636.0,
    1631.0,
    1629.0,
    1631.0,
    1630.0,
    1630.0,
    1632.0,
    1631.0,
    1630.0,
    1630.0,
    1630.0,
    1634.0,
    1631.0,
    1630.0,
    1631.0,
    1632.0,
    1632.0,
    1632.0,
    1631.0,
    1630.0,
    1631.0,
    1632.0,
    1630.0,
    1630.0,
    1630.0,
    1631.0,
    1629.0,
    1631.0,
    1631.0,
    1628.0,
    1627.0,
    1627.0,
    1627.0,
    1628.0,
    1630.0,
    1628.0,
    1628.0,
    1629.0,
    1630.0,
    1629.0,
    1629.0,
    1629.0,
    1629.0,
    1628.0,
    1628.0,
    1628.0,
    1629.0,
    1626.0,
    1625.0,
    1625.0,
    1623.0,
    1625.0,
    1627.0,
    1628.0,
    1628.0,
    1628.0,
    1627.0,
    1629.0,
    1627.0,
    1629.0,
    1630.0,
    1626.0,
    1625.0,
    1626.0,
    1627.0,
    1629.0,
    1629.0,
    1627.0,
    1626.0,
    1628.0,
    1630.0,
    1629.0,
    1628.0,
    1628.0,
    1630.0,
    1624.0,
    1623.0,
    1626.0,
    1625.0,
    1624.0,
    1621.0,
    1622.0,
    1623.0,
    1623.0,
    1623.0,
    1624.0,
    1624.0,
    1625.0,
    1627.0,
    1627.0,
    1627.0,
    1628.0,
    1626.0,
    1628.0,
    1629.0,
    1628.0,
    1626.0,
    1624.0,
    1628.0,
    1626.0,
    1626.0,
    1626.0,
    1625.0,
    1625.0,
    1626.0,
    1625.0,
    1627.0,
    1625.0,
    1625.0,
    1626.0,
    1627.0,
    1627.0,
    1626.0,
    1624.0,
    1625.0,
    1624.0,
    1626.0,
    1626.0,
    1628.0,
    1623.0,
    1620.0,
    1625.0,
    1624.0,
    1625.0,
    1625.0,
    1624.0,
    1625.0,
    1624.0,
    1625.0,
    1626.0,
    1624.0,
    1627.0,
    1623.0,
    1625.0,
    1627.0,
    1626.0,
    1624.0,
    1623.0,
    1621.0,
    1627.0,
    1626.0,
    1625.0,
    1628.0,
    1629.0,
    1630.0,
    1629.0,
    1629.0,
    1628.0,
    1629.0,
    1626.0
   ]
  },
  "slices": {}
 }
}