{
 "AcquisitionMatrixPE": 100,
 "AcquisitionNumber": 1,
 "AcquisitionTime": "15:07:22.397500",
 "BandwidthPerPixelPhaseEncode": 18.519,
 "BaseResolution": 100,
 "BodyPartExamined": "BRAIN",
 "ConsistencyInfo": "N4_VE11C_LATEST_20160120",
 "ConversionSoftware": "dcm2niix",
 "ConversionSoftwareVersion": "v1.0.20180622 GCC4.9.2",
 "DerivedVendorReportedEchoSpacing": 0.000539986,
 "DeviceSerialNumber": "166078",
 "DwellTime": 2.1e-06,
 "EchoTime": 0.034,
 "EchoTrainLength": 100,
 "EffectiveEchoSpacing": 0.000539986,
 "FlipAngle": 90,
 "ImageOrientationPatientDICOM": [
  0.999864,
  -0.0133867,
  0.00958516,
  0.0139616,
  0.997937,
  -0.0626628
 ],
 "ImageType": [
  "ORIGINAL",
  "PRIMARY",
  "M",
  "ND",
  "MOSAIC"
 ],
 "InPlanePhaseEncodingDirectionDICOM": "COL",
 "InstitutionAddress": "Street_StreetNo_Bei_Jing_District_CN_ZIP",
 "InstitutionName": "BeiJing_Normal_University",
 "InstitutionalDepartmentName": "Department",
 "MRAcquisitionType": "2D",
 "MagneticFieldStrength": 3,
 "Manufacturer": "Siemens",
 "ManufacturersModelName": "Prisma",
 "Modality": "MR",
 "MultibandAccelerationFactor": 3,
 "PartialFourier": 1,
 "PatientPosition": "HFS",
 "PercentPhaseFOV": 100,
 "PhaseEncodingDirection": "j-",
 "PhaseEncodingSteps": 100,
 "PhaseResolution": 1,
 "PixelBandwidth": 2380,
 "ProcedureStepDescription": "BNU_P2018_64CH_Zhen.ZongLei",
 "ProtocolName": "bold_100x100_s3_2x2x2_retino_150",
 "PulseSequenceDetails": "%SiemensSeq%_ep2d_bold",
 "ReceiveCoilActiveElements": "HC1-7;NC1",
 "ReceiveCoilName": "HeadNeck_64",
 "ReconMatrixPE": 100,
 "RepetitionTime": 2,
 "SAR": 0.0722816,
 "ScanOptions": "FS",
 "ScanningSequence": "EP",
 "SequenceName": "_epfid2d1_100",
 "SequenceVariant": "SK",
 "SeriesDescription": "bold_100x100_s3_2x2x2_retino_150",
 "SeriesNumber": 4,
 "ShimSetting": [
  -5459,
  -11506,
  -1280,
  608,
  -4,
  -239,
  -16,
  57
 ],
 "SliceThickness": 2,
 "SliceTiming": [
  1.485,
  0,
  0.99,
  0.0825,
  1.0725,
  0.165,
  1.155,
  0.2475,
  1.2375,
  0.33,
  1.32,
  0.4125,
  1.4025,
  0.5775,
  1.5675,
  0.66,
  1.65,
  0.7425,
  1.7325,
  0.825,
  1.815,
  0.9075,
  1.8975,
  0.495,
  1.485,
  0,
  0.99,
  0.0825,
  1.0725,
  0.165,
  1.155,
  0.2475,
  1.2375,
  0.33,
  1.32,
  0.4125,
  1.4025,
  0.5775,
  1.5675,
  0.66,
  1.65,
  0.7425,
  1.7325,
  0.825,
  1.815,
  0.9075,
  1.8975,
  0.495,
  1.485,
  0,
  0.99,
  0.0825,
  1.0725,
  0.165,
  1.155,
  0.2475,
  1.2375,
  0.33,
  1.32,
  0.4125,
  1.4025,
  0.5775,
  1.5675,
  0.66,
  1.65,
  0.7425,
  1.7325,
  0.825,
  1.815,
  0.9075,
  1.8975,
  0.495
 ],
 "SoftwareVersions": "syngo_MR_E11",
 "SpacingBetweenSlices": 2,
 "StationName": "AWP166078",
 "TaskName": "prf",
 "TotalReadoutTime": 0.0534586,
 "TxRefAmp": 210.95,
 "dcmmeta_affine": [
  [
   -1.9997289180755615,
   0.027923252433538437,
   0.01745307445526123,
   97.99861907958984
  ],
  [
   0.02677343226969242,
   1.9958741664886475,
   -0.12557625770568848,
   -79.12895965576172
  ],
  [
   0.01917031966149807,
   0.12532559037208557,
   1.995977520942688,
   -77.33649444580078
  ],
  [
   0.0,
   0.0,
   0.0,
   1.0
  ]
 ],
 "dcmmeta_reorient_transform": [
  [
   0.0,
   -1.0,
   0.0,
   99.0
  ],
  [
   1.0,
   0.0,
   0.0,
   0.0
  ],
  [
   0.0,
   0.0,
   1.0,
   0.0
  ],
  [
   0.0,
   0.0,
   0.0,
   1.0
  ]
 ],
 "dcmmeta_shape": [
  100,
  100,
  72,
  150
 ],
 "dcmmeta_slice_dim": 2,
 "dcmmeta_version": 0.6,
 "global": {
  "const": {
   "AcquisitionMatrix": [
    100,
    0,
    0,
    100
   ],
   "AngioFlag": "N",
   "BitsAllocated": 16,
   "BitsStored": 12,
   "BodyPartExamined": "BRAIN",
   "Columns": 900,
   "EchoNumbers": 1,
   "EchoTime": 34.0,
   "EchoTrainLength": 100,
   "FlipAngle": 90.0,
   "HighBit": 11,
   "ImageOrientationPatient": [
    0.99986445108199,
    -0.0133867164992,
    0.00958515956505,
    0.01396162637604,
    0.99793709563415,
    -0.0626627971465
   ],
   "ImagePositionPatient": [
    -911.82388568827,
    -906.10289050738,
    -22.467148576603
   ],
   "ImageType": [
    "ORIGINAL",
    "PRIMARY",
    "M",
    "ND",
    "MOSAIC"
   ],
   "ImagedNucleus": "1H",
   "ImagingFrequency": 123.257766,
   "InPlanePhaseEncodingDirection": "COL",
   "MRAcquisitionType": "2D",
   "MagneticFieldStrength": 3.0,
   "Manufacturer": "SIEMENS",
   "ManufacturerModelName": "Prisma",
   "Modality": "MR",
   "NumberOfAverages": 1.0,
   "NumberOfPhaseEncodingSteps": 100,
   "PercentPhaseFieldOfView": 100.0,
   "PercentSampling": 100.0,
   "PerformedProcedureStepStartTime": "145752.075000",
   "PhotometricInterpretation": "MONOCHROME2",
   "PixelBandwidth": 2380.0,
   "PixelRepresentation": 0,
   "PixelSpacing": [
    2.0,
    2.0
   ],
   "ProtocolName": "bold_100x100_s3_2x2x2_retino_150",
   "RepetitionTime": 2000.0,
   "Rows": 900,
   "SAR": 0.07228158101174,
   "SamplesPerPixel": 1,
   "ScanOptions": "FS",
   "ScanningSequence": "EP",
   "SequenceName": "*epfid2d1_100",
   "SequenceVariant": "SK",
   "SeriesDescription": "bold_100x100_s3_2x2x2_retino_150",
   "SeriesNumber": 4,
   "SeriesTime": "150724.549000",
   "SliceLocation": -71.357399932637,
   "SliceThickness": 2.0,
   "SmallestImagePixelValue": 0,
   "SoftwareVersions": "syngo MR E11",
   "SpacingBetweenSlices": 2.0000000292461,
   "SpecificCharacterSet": "ISO_IR 100",
   "StudyID": "1",
   "StudyTime": "145751.984000",
   "TransmitCoilName": "Body",
   "VariableFlipAngleFlag": "N",
   "WindowCenterWidthExplanation": "Algo1",
   "dBdt": 0.0
  },
  "slices": {}
 },
 "time": {
  "samples": {
   "AcquisitionNumber": [
    1,
    2,
    3,
    4,
    5,
    6,
    7,
    8,
    9,
    10,
    11,
    12,
    13,
    14,
    15,
    16,
    17,
    18,
    19,
    20,
    21,
    22,
    23,
    24,
    25,
    26,
    27,
    28,
    29,
    30,
    31,
    32,
    33,
    34,
    35,
    36,
    37,
    38,
    39,
    40,
    41,
    42,
    43,
    44,
    45,
    46,
    47,
    48,
    49,
    50,
    51,
    52,
    53,
    54,
    55,
    56,
    57,
    58,
    59,
    60,
    61,
    62,
    63,
    64,
    65,
    66,
    67,
    68,
    69,
    70,
    71,
    72,
    73,
    74,
    75,
    76,
    77,
    78,
    79,
    80,
    81,
    82,
    83,
    84,
    85,
    86,
    87,
    88,
    89,
    90,
    91,
    92,
    93,
    94,
    95,
    96,
    97,
    98,
    99,
    100,
    101,
    102,
    103,
    104,
    105,
    106,
    107,
    108,
    109,
    110,
    111,
    112,
    113,
    114,
    115,
    116,
    117,
    118,
    119,
    120,
    121,
    122,
    123,
    124,
    125,
    126,
    127,
    128,
    129,
    130,
    131,
    132,
    133,
    134,
    135,
    136,
    137,
    138,
    139,
    140,
    141,
    142,
    143,
    144,
    145,
    146,
    147,
    148,
    149,
    150
   ],
   "AcquisitionTime": [
    "150722.397500",
    "150724.397500",
    "150726.397500",
    "150728.397500",
    "150730.397500",
    "150732.397500",
    "150734.397500",
    "150736.397500",
    "150738.397500",
    "150740.397500",
    "150742.397500",
    "150744.397500",
    "150746.397500",
    "150748.397500",
    "150750.397500",
    "150752.397500",
    "150754.397500",
    "150756.397500",
    "150758.397500",
    "150800.397500",
    "150802.397500",
    "150804.397500",
    "150806.397500",
    "150808.397500",
    "150810.397500",
    "150812.397500",
    "150814.397500",
    "150816.397500",
    "150818.397500",
    "150820.397500",
    "150822.397500",
    "150824.397500",
    "150826.397500",
    "150828.397500",
    "150830.397500",
    "150832.397500",
    "150834.397500",
    "150836.397500",
    "150838.397500",
    "150840.397500",
    "150842.397500",
    "150844.397500",
    "150846.397500",
    "150848.397500",
    "150850.397500",
    "150852.397500",
    "150854.397500",
    "150856.397500",
    "150858.397500",
    "150900.397500",
    "150902.397500",
    "150904.397500",
    "150906.397500",
    "150908.397500",
    "150910.397500",
    "150912.397500",
    "150914.397500",
    "150916.397500",
    "150918.397500",
    "150920.397500",
    "150922.397500",
    "150924.397500",
    "150926.397500",
    "150928.397500",
    "150930.397500",
    "150932.397500",
    "150934.397500",
    "150936.397500",
    "150938.397500",
    "150940.397500",
    "150942.397500",
    "150944.397500",
    "150946.397500",
    "150948.397500",
    "150950.397500",
    "150952.397500",
    "150954.397500",
    "150956.397500",
    "150958.397500",
    "151000.397500",
    "151002.397500",
    "151004.397500",
    "151006.397500",
    "151008.397500",
    "151010.397500",
    "151012.397500",
    "151014.397500",
    "151016.397500",
    "151018.397500",
    "151020.397500",
    "151022.397500",
    "151024.397500",
    "151026.397500",
    "151028.397500",
    "151030.397500",
    "151032.397500",
    "151034.397500",
    "151036.397500",
    "151038.397500",
    "151040.397500",
    "151042.397500",
    "151044.397500",
    "151046.397500",
    "151048.397500",
    "151050.397500",
    "151052.397500",
    "151054.397500",
    "151056.397500",
    "151058.397500",
    "151100.397500",
    "151102.397500",
    "151104.397500",
    "151106.397500",
    "151108.397500",
    "151110.397500",
    "151112.397500",
    "151114.397500",
    "151116.397500",
    "151118.397500",
    "151120.397500",
    "151122.397500",
    "151124.397500",
    "151126.397500",
    "151128.397500",
    "151130.397500",
    "151132.397500",
    "151134.397500",
    "151136.397500",
    "151138.397500",
    "151140.397500",
    "151142.397500",
    "151144.397500",
    "151146.397500",
    "151148.397500",
    "151150.397500",
    "151152.397500",
    "151154.397500",
    "151156.397500",
    "151158.397500",
    "151200.397500",
    "151202.397500",
    "151204.397500",
    "151206.397500",
    "151208.397500",
    "151210.397500",
    "151212.397500",
    "151214.397500",
    "151216.397500",
    "151218.397500",
    "151220.397500"
   ],
   "ContentTime": [
    "150724.553000",
    "150726.548000",
    "150728.049000",
    "150730.049000",
    "150732.049000",
    "150734.048000",
    "150736.048000",
    "150738.049000",
    "150740.048000",
    "150742.049000",
    "150744.048000",
    "150746.050000",
    "150748.050000",
    "150750.048000",
    "150752.048000",
    "150754.049000",
    "150756.048000",
    "150758.048000",
    "150800.049000",
    "150802.049000",
    "150804.050000",
    "150806.050000",
    "150808.049000",
    "150810.049000",
    "150812.049000",
    "150814.048000",
    "150816.049000",
    "150818.049000",
    "150820.048000",
    "150822.050000",
    "150824.049000",
    "150826.049000",
    "150828.048000",
    "150830.049000",
    "150832.049000",
    "150834.049000",
    "150836.049000",
    "150838.050000",
    "150840.050000",
    "150842.049000",
    "150844.049000",
    "150846.048000",
    "150848.049000",
    "150850.049000",
    "150852.049000",
    "150854.048000",
    "150856.049000",
    "150858.049000",
    "150900.049000",
    "150902.048000",
    "150904.048000",
    "150906.049000",
    "150908.049000",
    "150910.048000",
    "150912.048000",
    "150914.049000",
    "150916.050000",
    "150918.049000",
    "150920.049000",
    "150922.048000",
    "150924.048000",
    "150926.049000",
    "150928.048000",
    "150930.048000",
    "150932.050000",
    "150934.050000",
    "150936.048000",
    "150938.048000",
    "150940.048000",
    "150942.049000",
    "150944.049000",
    "150946.049000",
    "150948.049000",
    "150950.050000",
    "150952.050000",
    "150954.049000",
    "150956.048000",
    "150958.048000",
    "151000.049000",
    "151002.049000",
    "151004.049000",
    "151006.049000",
    "151008.050000",
    "151010.048000",
    "151012.049000",
    "151014.048000",
    "151016.048000",
    "151018.048000",
    "151020.049000",
    "151022.049000",
    "151024.050000",
    "151026.049000",
    "151028.049000",
    "151030.048000",
    "151032.049000",
    "151034.048000",
    "151036.048000",
    "151038.048000",
    "151040.048000",
    "151042.049000",
    "151044.050000",
    "151046.048000",
    "151048.048000",
    "151050.048000",
    "151052.049000",
    "151054.049000",
    "151056.048000",
    "151058.050000",
    "151100.049000",
    "151102.049000",
    "151104.048000",
    "151106.049000",
    "151108.049000",
    "151110.049000",
    "151112.049000",
    "151114.049000",
    "151116.050000",
    "151118.050000",
    "151120.048000",
    "151122.048000",
    "151124.049000",
    "151126.048000",
    "151128.049000",
    "151130.049000",
    "151132.048000",
    "151134.049000",
    "151136.049000",
    "151138.049000",
    "151140.048000",
    "151142.048000",
    "151144.049000",
    "151146.048000",
    "151148.049000",
    "151150.049000",
    "151152.049000",
    "151154.050000",
    "151156.049000",
    "151158.049000",
    "151200.049000",
    "151202.049000",
    "151204.048000",
    "151206.049000",
    "151208.050000",
    "151210.050000",
    "151212.049000",
    "151214.048000",
    "151216.048000",
    "151218.048000",
    "151220.048000",
    "151221.928000"
   ],
   "InstanceCreationTime": [
    "150724.553000",
    "150726.548000",
    "150728.049000",
    "150730.049000",
    "150732.049000",
    "150734.048000",
    "150736.048000",
    "150738.049000",
    "150740.048000",
    "150742.049000",
    "150744.048000",
    "150746.050000",
    "150748.050000",
    "150750.048000",
    "150752.048000",
    "150754.049000",
    "150756.048000",
    "150758.048000",
    "150800.049000",
    "150802.049000",
    "150804.050000",
    "150806.050000",
    "150808.049000",
    "150810.049000",
    "150812.049000",
    "150814.048000",
    "150816.049000",
    "150818.049000",
    "150820.048000",
    "150822.050000",
    "150824.049000",
    "150826.049000",
    "150828.048000",
    "150830.049000",
    "150832.049000",
    "150834.049000",
    "150836.049000",
    "150838.050000",
    "150840.050000",
    "150842.049000",
    "150844.049000",
    "150846.048000",
    "150848.049000",
    "150850.049000",
    "150852.049000",
    "150854.048000",
    "150856.049000",
    "150858.049000",
    "150900.049000",
    "150902.048000",
    "150904.048000",
    "150906.049000",
    "150908.049000",
    "150910.048000",
    "150912.048000",
    "150914.049000",
    "150916.050000",
    "150918.049000",
    "150920.049000",
    "150922.048000",
    "150924.048000",
    "150926.049000",
    "150928.048000",
    "150930.048000",
    "150932.050000",
    "150934.050000",
    "150936.048000",
    "150938.048000",
    "150940.048000",
    "150942.049000",
    "150944.049000",
    "150946.049000",
    "150948.049000",
    "150950.050000",
    "150952.050000",
    "150954.049000",
    "150956.048000",
    "150958.048000",
    "151000.049000",
    "151002.049000",
    "151004.049000",
    "151006.049000",
    "151008.050000",
    "151010.048000",
    "151012.049000",
    "151014.048000",
    "151016.048000",
    "151018.048000",
    "151020.049000",
    "151022.049000",
    "151024.050000",
    "151026.049000",
    "151028.049000",
    "151030.048000",
    "151032.049000",
    "151034.048000",
    "151036.048000",
    "151038.048000",
    "151040.048000",
    "151042.049000",
    "151044.050000",
    "151046.048000",
    "151048.048000",
    "151050.048000",
    "151052.049000",
    "151054.049000",
    "151056.048000",
    "151058.050000",
    "151100.049000",
    "151102.049000",
    "151104.048000",
    "151106.049000",
    "151108.049000",
    "151110.049000",
    "151112.049000",
    "151114.049000",
    "151116.050000",
    "151118.050000",
    "151120.048000",
    "151122.048000",
    "151124.049000",
    "151126.048000",
    "151128.049000",
    "151130.049000",
    "151132.048000",
    "151134.049000",
    "151136.049000",
    "151138.049000",
    "151140.048000",
    "151142.048000",
    "151144.049000",
    "151146.048000",
    "151148.049000",
    "151150.049000",
    "151152.049000",
    "151154.050000",
    "151156.049000",
    "151158.049000",
    "151200.049000",
    "151202.049000",
    "151204.048000",
    "151206.049000",
    "151208.050000",
    "151210.050000",
    "151212.049000",
    "151214.048000",
    "151216.048000",
    "151218.048000",
    "151220.048000",
    "151221.928000"
   ],
   "InstanceNumber": [
    1,
    2,
    3,
    4,
    5,
    6,
    7,
    8,
    9,
    10,
    11,
    12,
    13,
    14,
    15,
    16,
    17,
    18,
    19,
    20,
    21,
    22,
    23,
    24,
    25,
    26,
    27,
    28,
    29,
    30,
    31,
    32,
    33,
    34,
    35,
    36,
    37,
    38,
    39,
    40,
    41,
    42,
    43,
    44,
    45,
    46,
    47,
    48,
    49,
    50,
    51,
    52,
    53,
    54,
    55,
    56,
    57,
    58,
    59,
    60,
    61,
    62,
    63,
    64,
    65,
    66,
    67,
    68,
    69,
    70,
    71,
    72,
    73,
    74,
    75,
    76,
    77,
    78,
    79,
    80,
    81,
    82,
    83,
    84,
    85,
    86,
    87,
    88,
    89,
    90,
    91,
    92,
    93,
    94,
    95,
    96,
    97,
    98,
    99,
    100,
    101,
    102,
    103,
    104,
    105,
    106,
    107,
    108,
    109,
    110,
    111,
    112,
    113,
    114,
    115,
    116,
    117,
    118,
    119,
    120,
    121,
    122,
    123,
    124,
    125,
    126,
    127,
    128,
    129,
    130,
    131,
    132,
    133,
    134,
    135,
    136,
    137,
    138,
    139,
    140,
    141,
    142,
    143,
    144,
    145,
    146,
    147,
    148,
    149,
    150
   ],
   "LargestImagePixelValue": [
    2340,
    2307,
    2274,
    2298,
    2331,
    2264,
    2417,
    2348,
    2383,
    2382,
    2379,
    2295,
    2237,
    2254,
    2291,
    2236,
    2229,
    2242,
    2255,
    2271,
    2351,
    2247,
    2246,
    2279,
    2260,
    2267,
    2291,
    2247,
    2260,
    2311,
    2325,
    2313,
    2282,
    2314,
    2260,
    2262,
    2280,
    2310,
    2275,
    2294,
    2321,
    2305,
    2317,
    2221,
    2296,
    2296,
    2257,
    2282,
    2281,
    2251,
    2386,
    2254,
    2324,
    2218,
    2264,
    2279,
    2395,
    2236,
    2270,
    2258,
    2275,
    2251,
    2298,
    2274,
    2258,
    2455,
    2240,
    2261,
    2277,
    2337,
    2457,
    2392,
    2317,
    2302,
    2408,
    2261,
    2363,
    2262,
    2360,
    2316,
    2305,
    2353,
    2291,
    2580,
    2443,
    2395,
    2355,
    2394,
    2288,
    2264,
    2428,
    2364,
    2276,
    2262,
    2262,
    2350,
    2362,
    2237,
    2294,
    2262,
    2334,
    2264,
    2454,
    2275,
    2285,
    2378,
    2325,
    2254,
    2652,
    2288,
    2457,
    2384,
    2363,
    2357,
    2267,
    2399,
    2263,
    2288,
    2219,
    2261,
    2335,
    2354,
    2331,
    2292,
    2352,
    2393,
    2383,
    2397,
    2294,
    2322,
    2263,
    2373,
    2348,
    2286,
    2318,
    2317,
    2276,
    2261,
    2665,
    2313,
    2249,
    2601,
    2329,
    2312,
    2269,
    2257,
    2832,
    2445,
    2441,
    2269
   ],
   "WindowCenter": [
    722.0,
    721.0,
    720.0,
    721.0,
    722.0,
    720.0,
    721.0,
    719.0,
    721.0,
    722.0,
    721.0,
    720.0,
    718.0,
    718.0,
    719.0,
    718.0,
    717.0,
    718.0,
    719.0,
    720.0,
    720.0,
    718.0,
    718.0,
    719.0,
    718.0,
    718.0,
    719.0,
    718.0,
    718.0,
    719.0,
    720.0,
    720.0,
    719.0,
    719.0,
    717.0,
    718.0,
    718.0,
    719.0,
    718.0,
    718.0,
    720.0,
    720.0,
    719.0,
    718.0,
    719.0,
    720.0,
    719.0,
    719.0,
    720.0,
    720.0,
    722.0,
    720.0,
    720.0,
    718.0,
    719.0,
    720.0,
    721.0,
    719.0,
    719.0,
    719.0,
    720.0,
    719.0,
    719.0,
    719.0,
    718.0,
    721.0,
    719.0,
    720.0,
    720.0,
    720.0,
    721.0,
    721.0,
    721.0,
    720.0,
    721.0,
    720.0,
    721.0,
    719.0,
    721.0,
    721.0,
    721.0,
    722.0,
    721.0,
    723.0,
    721.0,
    721.0,
    720.0,
    721.0,
    720.0,
    721.0,
    723.0,
    722.0,
    720.0,
    719.0,
    719.0,
    721.0,
    722.0,
    721.0,
    720.0,
    719.0,
    721.0,
    721.0,
    723.0,
    720.0,
    720.0,
    722.0,
    721.0,
    720.0,
    725.0,
    721.0,
    723.0,
    721.0,
    721.0,
    721.0,
    720.0,
    722.0,
    721.0,
    721.0,
    719.0,
    720.0,
    721.0,
    722.0,
    721.0,
    720.0,
    721.0,
    722.0,
    722.0,
    721.0,
    721.0,
    721.0,
    720.0,
    720.0,
    720.0,
    720.0,
    721.0,
    721.0,
    721.0,
    721.0,
    726.0,
    721.0,
    719.0,
    724.0,
    721.0,
    721.0,
    720.0,
    719.0,
    726.0,
    722.0,
    722.0,
    720.0
   ],
   "WindowWidth": [
    1536.0,
    1533.0,
    1532.0,
    1535.0,
    1536.0,
    1530.0,
    1532.0,
    1529.0,
    1533.0,
    1535.0,
    1534.0,
    1530.0,
    1526.0,
    1527.0,
    1528.0,
    1525.0,
    1524.0,
    1527.0,
    1530.0,
    1530.0,
    1530.0,
    1525.0,
    1526.0,
    1527.0,
    1526.0,
    1525.0,
    1528.0,
    1526.0,
    1526.0,
    1528.0,
    1530.0,
    1531.0,
    1527.0,
    1527.0,
    1524.0,
    1526.0,
    1526.0,
    1528.0,
    1525.0,
    1527.0,
    1530.0,
    1530.0,
    1529.0,
    1525.0,
    1529.0,
    1530.0,
    1529.0,
    1529.0,
    1530.0,
    1531.0,
    1536.0,
    1531.0,
    1530.0,
    1527.0,
    1530.0,
    1530.0,
    1533.0,
    1528.0,
    1529.0,
    1530.0,
    1531.0,
    1529.0,
    1529.0,
    1528.0,
    1526.0,
    1533.0,
    1528.0,
    1531.0,
    1531.0,
    1532.0,
    1534.0,
    1534.0,
    1533.0,
    1531.0,
    1534.0,
    1531.0,
    1533.0,
    1529.0,
    1532.0,
    1532.0,
    1534.0,
    1536.0,
    1532.0,
    1537.0,
    1534.0,
    1533.0,
    1531.0,
    1533.0,
    1531.0,
    1533.0,
    1539.0,
    1535.0,
    1530.0,
    1528.0,
    1528.0,
    1532.0,
    1535.0,
    1533.0,
    1532.0,
    1529.0,
    1533.0,
    1533.0,
    1538.0,
    1532.0,
    1532.0,
    1535.0,
    1533.0,
    1531.0,
    1542.0,
    1533.0,
    1537.0,
    1534.0,
    1533.0,
    1534.0,
    1532.0,
    1537.0,
    1534.0,
    1532.0,
    1529.0,
    1530.0,
    1534.0,
    1535.0,
    1533.0,
    1531.0,
    1533.0,
    1536.0,
    1535.0,
    1534.0,
    1534.0,
    1533.0,
    1530.0,
    1531.0,
    1530.0,
    1530.0,
    1533.0,
    1534.0,
    1533.0,
    1534.0,
    1544.0,
    1534.0,
    1529.0,
    1539.0,
    1533.0,
    1533.0,
    1530.0,
    1530.0,
    1544.0,
    1535.0,
    1534.0,
    1530.0
   ]
  },
  "slices": {}
 }
}