{
 "AcquisitionMatrixPE": 100,
 "AcquisitionNumber": 1,
 "AcquisitionTime": "14:34:54.857500",
 "BandwidthPerPixelPhaseEncode": 18.519,
 "BaseResolution": 100,
 "BodyPartExamined": "BRAIN",
 "ConsistencyInfo": "N4_VE11C_LATEST_20160120",
 "ConversionSoftware": "dcm2niix",
 "ConversionSoftwareVersion": "v1.0.20180622 GCC4.9.2",
 "DerivedVendorReportedEchoSpacing": 0.000539986,
 "DeviceSerialNumber": "166078",
 "DwellTime": 2.1e-06,
 "EchoTime": 0.034,
 "EchoTrainLength": 100,
 "EffectiveEchoSpacing": 0.000539986,
 "FlipAngle": 90,
 "ImageOrientationPatientDICOM": [
  0.999354,
  0.0153282,
  0.0325131,
  -0.0104656,
  0.989409,
  -0.144776
 ],
 "ImageType": [
  "ORIGINAL",
  "PRIMARY",
  "M",
  "ND",
  "MOSAIC"
 ],
 "InPlanePhaseEncodingDirectionDICOM": "COL",
 "InstitutionAddress": "Street_StreetNo_Bei_Jing_District_CN_ZIP",
 "InstitutionName": "BeiJing_Normal_University",
 "InstitutionalDepartmentName": "Department",
 "MRAcquisitionType": "2D",
 "MagneticFieldStrength": 3,
 "Manufacturer": "Siemens",
 "ManufacturersModelName": "Prisma",
 "Modality": "MR",
 "MultibandAccelerationFactor": 3,
 "PartialFourier": 1,
 "PatientPosition": "HFS",
 "PercentPhaseFOV": 100,
 "PhaseEncodingDirection": "j-",
 "PhaseEncodingSteps": 100,
 "PhaseResolution": 1,
 "PixelBandwidth": 2380,
 "ProcedureStepDescription": "BNU_P2018_64CH_Zhen.ZongLei",
 "ProtocolName": "bold_100x100_s3_2x2x2_static_test_241",
 "PulseSequenceDetails": "%SiemensSeq%_ep2d_bold",
 "ReceiveCoilActiveElements": "HC1-7;NC1",
 "ReceiveCoilName": "HeadNeck_64",
 "ReconMatrixPE": 100,
 "RepetitionTime": 2,
 "SAR": 0.0665423,
 "ScanOptions": "FS",
 "ScanningSequence": "EP",
 "SequenceName": "_epfid2d1_100",
 "SequenceVariant": "SK",
 "SeriesDescription": "bold_100x100_s3_2x2x2_static_test_241",
 "SeriesNumber": 14,
 "ShimSetting": [
  -5453,
  -11492,
  -1261,
  271,
  -19,
  -147,
  -206,
  46
 ],
 "SliceThickness": 2,
 "SliceTiming": [
  1.485,
  0,
  0.99,
  0.0825,
  1.0725,
  0.165,
  1.155,
  0.2475,
  1.2375,
  0.33,
  1.32,
  0.4125,
  1.4025,
  0.5775,
  1.5675,
  0.66,
  1.65,
  0.7425,
  1.7325,
  0.825,
  1.815,
  0.9075,
  1.8975,
  0.495,
  1.485,
  0,
  0.99,
  0.0825,
  1.0725,
  0.165,
  1.155,
  0.2475,
  1.2375,
  0.33,
  1.32,
  0.4125,
  1.4025,
  0.5775,
  1.5675,
  0.66,
  1.65,
  0.7425,
  1.7325,
  0.825,
  1.815,
  0.9075,
  1.8975,
  0.495,
  1.485,
  0,
  0.99,
  0.0825,
  1.0725,
  0.165,
  1.155,
  0.2475,
  1.2375,
  0.33,
  1.32,
  0.4125,
  1.4025,
  0.5775,
  1.5675,
  0.66,
  1.65,
  0.7425,
  1.7325,
  0.825,
  1.815,
  0.9075,
  1.8975,
  0.495
 ],
 "SoftwareVersions": "syngo_MR_E11",
 "SpacingBetweenSlices": 2,
 "StationName": "AWP166078",
 "TaskName": "coco",
 "TotalReadoutTime": 0.0534586,
 "TxRefAmp": 217.351,
 "dcmmeta_affine": [
  [
   -1.9987075328826904,
   -0.020931115373969078,
   0.06877576559782028,
   99.7071533203125
  ],
  [
   -0.030656486749649048,
   1.9788181781768799,
   -0.28868424892425537,
   -80.1117172241211
  ],
  [
   0.06502612680196762,
   0.28955191373825073,
   1.9778602123260498,
   -97.1391830444336
  ],
  [
   0.0,
   0.0,
   0.0,
   1.0
  ]
 ],
 "dcmmeta_reorient_transform": [
  [
   0.0,
   -1.0,
   0.0,
   99.0
  ],
  [
   1.0,
   0.0,
   0.0,
   0.0
  ],
  [
   0.0,
   0.0,
   1.0,
   0.0
  ],
  [
   0.0,
   0.0,
   0.0,
   1.0
  ]
 ],
 "dcmmeta_shape": [
  100,
  100,
  72,
  241
 ],
 "dcmmeta_slice_dim": 2,
 "dcmmeta_version": 0.6,
 "global": {
  "const": {
   "AcquisitionMatrix": [
    100,
    0,
    0,
    100
   ],
   "AngioFlag": "N",
   "BitsAllocated": 16,
   "BitsStored": 12,
   "BodyPartExamined": "BRAIN",
   "Columns": 900,
   "EchoNumbers": 1,
   "EchoTime": 34.0,
   "EchoTrainLength": 100,
   "FlipAngle": 90.0,
   "HighBit": 11,
   "ImageOrientationPatient": [
    0.99935376397286,
    0.01532824374509,
    0.03251306471194,
    -0.0104655573422,
    0.98940911426748,
    -0.1447759535073
   ],
   "ImagePositionPatient": [
    -888.74554039513,
    -919.58117477784,
    21.336763184887
   ],
   "ImageType": [
    "ORIGINAL",
    "PRIMARY",
    "M",
    "ND",
    "MOSAIC"
   ],
   "ImagedNucleus": "1H",
   "ImagingFrequency": 123.257783,
   "InPlanePhaseEncodingDirection": "COL",
   "MRAcquisitionType": "2D",
   "MagneticFieldStrength": 3.0,
   "Manufacturer": "SIEMENS",
   "ManufacturerModelName": "Prisma",
   "Modality": "MR",
   "NumberOfAverages": 1.0,
   "NumberOfPhaseEncodingSteps": 100,
   "PercentPhaseFieldOfView": 100.0,
   "PercentSampling": 100.0,
   "PerformedProcedureStepStartTime": "130045.791000",
   "PhotometricInterpretation": "MONOCHROME2",
   "PixelBandwidth": 2380.0,
   "PixelRepresentation": 0,
   "PixelSpacing": [
    2.0,
    2.0
   ],
   "ProtocolName": "bold_100x100_s3_2x2x2_static_test_241",
   "RepetitionTime": 2000.0,
   "Rows": 900,
   "SAR": 0.066542340542,
   "SamplesPerPixel": 1,
   "ScanOptions": "FS",
   "ScanningSequence": "EP",
   "SequenceName": "*epfid2d1_100",
   "SequenceVariant": "SK",
   "SeriesDescription": "bold_100x100_s3_2x2x2_static_test_241",
   "SeriesNumber": 14,
   "SeriesTime": "143457.721000",
   "SliceLocation": -81.071655990678,
   "SliceThickness": 2.0,
   "SmallestImagePixelValue": 0,
   "SoftwareVersions": "syngo MR E11",
   "SpacingBetweenSlices": 1.9999999686196,
   "SpecificCharacterSet": "ISO_IR 100",
   "StudyID": "1",
   "StudyTime": "130045.697000",
   "TransmitCoilName": "Body",
   "VariableFlipAngleFlag": "N",
   "WindowCenterWidthExplanation": "Algo1",
   "dBdt": 0.0
  },
  "slices": {}
 },
 "time": {
  "samples": {
   "AcquisitionNumber": [
    1,
    2,
    3,
    4,
    5,
    6,
    7,
    8,
    9,
    10,
    11,
    12,
    13,
    14,
    15,
    16,
    17,
    18,
    19,
    20,
    21,
    22,
    23,
    24,
    25,
    26,
    27,
    28,
    29,
    30,
    31,
    32,
    33,
    34,
    35,
    36,
    37,
    38,
    39,
    40,
    41,
    42,
    43,
    44,
    45,
    46,
    47,
    48,
    49,
    50,
    51,
    52,
    53,
    54,
    55,
    56,
    57,
    58,
    59,
    60,
    61,
    62,
    63,
    64,
    65,
    66,
    67,
    68,
    69,
    70,
    71,
    72,
    73,
    74,
    75,
    76,
    77,
    78,
    79,
    80,
    81,
    82,
    83,
    84,
    85,
    86,
    87,
    88,
    89,
    90,
    91,
    92,
    93,
    94,
    95,
    96,
    97,
    98,
    99,
    100,
    101,
    102,
    103,
    104,
    105,
    106,
    107,
    108,
    109,
    110,
    111,
    112,
    113,
    114,
    115,
    116,
    117,
    118,
    119,
    120,
    121,
    122,
    123,
    124,
    125,
    126,
    127,
    128,
    129,
    130,
    131,
    132,
    133,
    134,
    135,
    136,
    137,
    138,
    139,
    140,
    141,
    142,
    143,
    144,
    145,
    146,
    147,
    148,
    149,
    150,
    151,
    152,
    153,
    154,
    155,
    156,
    157,
    158,
    159,
    160,
    161,
    162,
    163,
    164,
    165,
    166,
    167,
    168,
    169,
    170,
    171,
    172,
    173,
    174,
    175,
    176,
    177,
    178,
    179,
    180,
    181,
    182,
    183,
    184,
    185,
    186,
    187,
    188,
    189,
    190,
    191,
    192,
    193,
    194,
    195,
    196,
    197,
    198,
    199,
    200,
    201,
    202,
    203,
    204,
    205,
    206,
    207,
    208,
    209,
    210,
    211,
    212,
    213,
    214,
    215,
    216,
    217,
    218,
    219,
    220,
    221,
    222,
    223,
    224,
    225,
    226,
    227,
    228,
    229,
    230,
    231,
    232,
    233,
    234,
    235,
    236,
    237,
    238,
    239,
    240,
    241
   ],
   "AcquisitionTime": [
    "143454.857500",
    "143456.857500",
    "143458.857500",
    "143500.857500",
    "143502.857500",
    "143504.857500",
    "143506.857500",
    "143508.857500",
    "143510.857500",
    "143512.857500",
    "143514.857500",
    "143516.857500",
    "143518.857500",
    "143520.857500",
    "143522.857500",
    "143524.857500",
    "143526.857500",
    "143528.857500",
    "143530.857500",
    "143532.857500",
    "143534.857500",
    "143536.857500",
    "143538.857500",
    "143540.857500",
    "143542.857500",
    "143544.857500",
    "143546.857500",
    "143548.857500",
    "143550.857500",
    "143552.857500",
    "143554.857500",
    "143556.857500",
    "143558.857500",
    "143600.857500",
    "143602.857500",
    "143604.857500",
    "143606.857500",
    "143608.857500",
    "143610.857500",
    "143612.857500",
    "143614.857500",
    "143616.857500",
    "143618.857500",
    "143620.857500",
    "143622.857500",
    "143624.857500",
    "143626.857500",
    "143628.857500",
    "143630.857500",
    "143632.857500",
    "143634.857500",
    "143636.857500",
    "143638.857500",
    "143640.857500",
    "143642.857500",
    "143644.857500",
    "143646.857500",
    "143648.857500",
    "143650.857500",
    "143652.857500",
    "143654.857500",
    "143656.857500",
    "143658.857500",
    "143700.857500",
    "143702.857500",
    "143704.857500",
    "143706.857500",
    "143708.857500",
    "143710.857500",
    "143712.857500",
    "143714.857500",
    "143716.857500",
    "143718.857500",
    "143720.857500",
    "143722.857500",
    "143724.857500",
    "143726.857500",
    "143728.857500",
    "143730.857500",
    "143732.857500",
    "143734.857500",
    "143736.857500",
    "143738.857500",
    "143740.857500",
    "143742.857500",
    "143744.857500",
    "143746.857500",
    "143748.857500",
    "143750.857500",
    "143752.857500",
    "143754.857500",
    "143756.857500",
    "143758.857500",
    "143800.857500",
    "143802.857500",
    "143804.857500",
    "143806.857500",
    "143808.857500",
    "143810.857500",
    "143812.857500",
    "143814.857500",
    "143816.857500",
    "143818.857500",
    "143820.857500",
    "143822.857500",
    "143824.857500",
    "143826.857500",
    "143828.857500",
    "143830.857500",
    "143832.857500",
    "143834.857500",
    "143836.857500",
    "143838.857500",
    "143840.857500",
    "143842.857500",
    "143844.857500",
    "143846.857500",
    "143848.857500",
    "143850.857500",
    "143852.857500",
    "143854.857500",
    "143856.857500",
    "143858.857500",
    "143900.857500",
    "143902.857500",
    "143904.857500",
    "143906.857500",
    "143908.857500",
    "143910.857500",
    "143912.857500",
    "143914.857500",
    "143916.857500",
    "143918.857500",
    "143920.857500",
    "143922.857500",
    "143924.857500",
    "143926.857500",
    "143928.857500",
    "143930.857500",
    "143932.857500",
    "143934.857500",
    "143936.857500",
    "143938.857500",
    "143940.857500",
    "143942.857500",
    "143944.857500",
    "143946.857500",
    "143948.857500",
    "143950.857500",
    "143952.857500",
    "143954.857500",
    "143956.857500",
    "143958.857500",
    "144000.857500",
    "144002.857500",
    "144004.857500",
    "144006.857500",
    "144008.857500",
    "144010.857500",
    "144012.857500",
    "144014.857500",
    "144016.857500",
    "144018.857500",
    "144020.857500",
    "144022.857500",
    "144024.857500",
    "144026.857500",
    "144028.857500",
    "144030.857500",
    "144032.857500",
    "144034.857500",
    "144036.857500",
    "144038.857500",
    "144040.857500",
    "144042.857500",
    "144044.857500",
    "144046.857500",
    "144048.857500",
    "144050.857500",
    "144052.857500",
    "144054.857500",
    "144056.857500",
    "144058.857500",
    "144100.857500",
    "144102.857500",
    "144104.857500",
    "144106.857500",
    "144108.857500",
    "144110.857500",
    "144112.857500",
    "144114.857500",
    "144116.857500",
    "144118.857500",
    "144120.857500",
    "144122.857500",
    "144124.857500",
    "144126.857500",
    "144128.857500",
    "144130.857500",
    "144132.857500",
    "144134.857500",
    "144136.857500",
    "144138.857500",
    "144140.857500",
    "144142.857500",
    "144144.857500",
    "144146.857500",
    "144148.857500",
    "144150.857500",
    "144152.857500",
    "144154.857500",
    "144156.857500",
    "144158.857500",
    "144200.857500",
    "144202.857500",
    "144204.857500",
    "144206.857500",
    "144208.857500",
    "144210.857500",
    "144212.857500",
    "144214.857500",
    "144216.857500",
    "144218.857500",
    "144220.857500",
    "144222.857500",
    "144224.857500",
    "144226.857500",
    "144228.857500",
    "144230.857500",
    "144232.857500",
    "144234.857500",
    "144236.857500",
    "144238.857500",
    "144240.857500",
    "144242.857500",
    "144244.857500",
    "144246.857500",
    "144248.857500",
    "144250.857500",
    "144252.857500",
    "144254.857500"
   ],
   "ContentTime": [
    "143457.725000",
    "143459.220000",
    "143501.220000",
    "143503.221000",
    "143505.221000",
    "143507.221000",
    "143509.221000",
    "143511.221000",
    "143513.221000",
    "143515.221000",
    "143517.221000",
    "143519.221000",
    "143521.221000",
    "143523.222000",
    "143525.221000",
    "143527.220000",
    "143529.221000",
    "143531.221000",
    "143533.221000",
    "143535.220000",
    "143537.221000",
    "143539.222000",
    "143541.222000",
    "143543.222000",
    "143545.221000",
    "143547.221000",
    "143549.220000",
    "143551.220000",
    "143553.221000",
    "143555.220000",
    "143557.222000",
    "143559.221000",
    "143601.220000",
    "143603.220000",
    "143605.220000",
    "143607.220000",
    "143609.221000",
    "143611.221000",
    "143613.221000",
    "143615.222000",
    "143617.221000",
    "143619.220000",
    "143621.220000",
    "143623.220000",
    "143625.220000",
    "143627.220000",
    "143629.221000",
    "143631.221000",
    "143633.221000",
    "143635.222000",
    "143637.220000",
    "143639.221000",
    "143641.221000",
    "143643.220000",
    "143645.221000",
    "143647.221000",
    "143649.222000",
    "143651.221000",
    "143653.221000",
    "143655.221000",
    "143657.221000",
    "143659.220000",
    "143701.221000",
    "143703.220000",
    "143705.220000",
    "143707.222000",
    "143709.222000",
    "143711.221000",
    "143713.220000",
    "143715.220000",
    "143717.221000",
    "143719.221000",
    "143721.221000",
    "143723.222000",
    "143725.222000",
    "143727.222000",
    "143729.220000",
    "143731.221000",
    "143733.221000",
    "143735.221000",
    "143737.221000",
    "143739.220000",
    "143741.221000",
    "143743.221000",
    "143745.222000",
    "143747.220000",
    "143749.220000",
    "143751.221000",
    "143753.221000",
    "143755.220000",
    "143757.221000",
    "143759.221000",
    "143801.222000",
    "143803.221000",
    "143805.220000",
    "143807.221000",
    "143809.220000",
    "143811.221000",
    "143813.221000",
    "143815.221000",
    "143817.222000",
    "143819.222000",
    "143821.221000",
    "143823.221000",
    "143825.221000",
    "143827.221000",
    "143829.221000",
    "143831.220000",
    "143833.222000",
    "143835.221000",
    "143837.221000",
    "143839.220000",
    "143841.220000",
    "143843.221000",
    "143845.221000",
    "143847.220000",
    "143849.220000",
    "143851.222000",
    "143853.221000",
    "143855.222000",
    "143857.220000",
    "143859.249000",
    "143901.221000",
    "143903.220000",
    "143905.220000",
    "143907.221000",
    "143909.222000",
    "143911.222000",
    "143913.222000",
    "143915.221000",
    "143917.220000",
    "143919.221000",
    "143921.221000",
    "143923.221000",
    "143925.221000",
    "143927.222000",
    "143929.222000",
    "143931.221000",
    "143933.221000",
    "143935.221000",
    "143937.221000",
    "143939.220000",
    "143941.220000",
    "143943.222000",
    "143945.222000",
    "143947.221000",
    "143949.220000",
    "143951.220000",
    "143953.220000",
    "143955.221000",
    "143957.221000",
    "143959.221000",
    "144001.221000",
    "144003.222000",
    "144005.222000",
    "144007.221000",
    "144009.221000",
    "144011.220000",
    "144013.221000",
    "144015.220000",
    "144017.220000",
    "144019.221000",
    "144021.221000",
    "144023.221000",
    "144025.220000",
    "144027.220000",
    "144029.220000",
    "144031.220000",
    "144033.220000",
    "144035.221000",
    "144037.221000",
    "144039.221000",
    "144041.221000",
    "144043.221000",
    "144045.220000",
    "144047.221000",
    "144049.221000",
    "144051.221000",
    "144053.222000",
    "144055.222000",
    "144057.221000",
    "144059.220000",
    "144101.221000",
    "144103.220000",
    "144105.220000",
    "144107.220000",
    "144109.221000",
    "144111.222000",
    "144113.222000",
    "144115.221000",
    "144117.220000",
    "144119.220000",
    "144121.220000",
    "144123.220000",
    "144125.221000",
    "144127.220000",
    "144129.222000",
    "144131.222000",
    "144133.222000",
    "144135.221000",
    "144137.221000",
    "144139.221000",
    "144141.221000",
    "144143.221000",
    "144145.220000",
    "144147.221000",
    "144149.221000",
    "144151.222000",
    "144153.221000",
    "144155.220000",
    "144157.220000",
    "144159.220000",
    "144201.220000",
    "144203.221000",
    "144205.221000",
    "144207.222000",
    "144209.221000",
    "144211.221000",
    "144213.221000",
    "144215.221000",
    "144217.221000",
    "144219.221000",
    "144221.222000",
    "144223.222000",
    "144225.222000",
    "144227.221000",
    "144229.221000",
    "144231.221000",
    "144233.221000",
    "144235.220000",
    "144237.221000",
    "144239.222000",
    "144241.222000",
    "144243.221000",
    "144245.221000",
    "144247.220000",
    "144249.221000",
    "144251.221000",
    "144253.221000",
    "144255.221000",
    "144257.056000"
   ],
   "InstanceCreationTime": [
    "143457.725000",
    "143459.220000",
    "143501.220000",
    "143503.221000",
    "143505.221000",
    "143507.221000",
    "143509.221000",
    "143511.221000",
    "143513.221000",
    "143515.221000",
    "143517.221000",
    "143519.221000",
    "143521.221000",
    "143523.222000",
    "143525.221000",
    "143527.220000",
    "143529.221000",
    "143531.221000",
    "143533.221000",
    "143535.220000",
    "143537.221000",
    "143539.222000",
    "143541.222000",
    "143543.222000",
    "143545.221000",
    "143547.221000",
    "143549.220000",
    "143551.220000",
    "143553.221000",
    "143555.220000",
    "143557.222000",
    "143559.221000",
    "143601.220000",
    "143603.220000",
    "143605.220000",
    "143607.220000",
    "143609.221000",
    "143611.221000",
    "143613.221000",
    "143615.222000",
    "143617.221000",
    "143619.220000",
    "143621.220000",
    "143623.220000",
    "143625.220000",
    "143627.220000",
    "143629.221000",
    "143631.221000",
    "143633.221000",
    "143635.222000",
    "143637.220000",
    "143639.221000",
    "143641.221000",
    "143643.220000",
    "143645.221000",
    "143647.221000",
    "143649.222000",
    "143651.221000",
    "143653.221000",
    "143655.221000",
    "143657.221000",
    "143659.220000",
    "143701.221000",
    "143703.220000",
    "143705.220000",
    "143707.222000",
    "143709.222000",
    "143711.221000",
    "143713.220000",
    "143715.220000",
    "143717.221000",
    "143719.221000",
    "143721.221000",
    "143723.222000",
    "143725.222000",
    "143727.222000",
    "143729.220000",
    "143731.221000",
    "143733.221000",
    "143735.221000",
    "143737.221000",
    "143739.220000",
    "143741.221000",
    "143743.221000",
    "143745.222000",
    "143747.220000",
    "143749.220000",
    "143751.221000",
    "143753.221000",
    "143755.220000",
    "143757.221000",
    "143759.221000",
    "143801.222000",
    "143803.221000",
    "143805.220000",
    "143807.221000",
    "143809.220000",
    "143811.221000",
    "143813.221000",
    "143815.221000",
    "143817.222000",
    "143819.222000",
    "143821.221000",
    "143823.221000",
    "143825.221000",
    "143827.221000",
    "143829.221000",
    "143831.220000",
    "143833.222000",
    "143835.221000",
    "143837.221000",
    "143839.220000",
    "143841.220000",
    "143843.221000",
    "143845.221000",
    "143847.220000",
    "143849.220000",
    "143851.222000",
    "143853.221000",
    "143855.222000",
    "143857.220000",
    "143859.249000",
    "143901.221000",
    "143903.220000",
    "143905.220000",
    "143907.221000",
    "143909.222000",
    "143911.222000",
    "143913.222000",
    "143915.221000",
    "143917.220000",
    "143919.221000",
    "143921.221000",
    "143923.221000",
    "143925.221000",
    "143927.222000",
    "143929.222000",
    "143931.221000",
    "143933.221000",
    "143935.221000",
    "143937.221000",
    "143939.220000",
    "143941.220000",
    "143943.222000",
    "143945.222000",
    "143947.221000",
    "143949.220000",
    "143951.220000",
    "143953.220000",
    "143955.221000",
    "143957.221000",
    "143959.221000",
    "144001.221000",
    "144003.222000",
    "144005.222000",
    "144007.221000",
    "144009.221000",
    "144011.220000",
    "144013.221000",
    "144015.220000",
    "144017.220000",
    "144019.221000",
    "144021.221000",
    "144023.221000",
    "144025.220000",
    "144027.220000",
    "144029.220000",
    "144031.220000",
    "144033.220000",
    "144035.221000",
    "144037.221000",
    "144039.221000",
    "144041.221000",
    "144043.221000",
    "144045.220000",
    "144047.221000",
    "144049.221000",
    "144051.221000",
    "144053.222000",
    "144055.222000",
    "144057.221000",
    "144059.220000",
    "144101.221000",
    "144103.220000",
    "144105.220000",
    "144107.220000",
    "144109.221000",
    "144111.222000",
    "144113.222000",
    "144115.221000",
    "144117.220000",
    "144119.220000",
    "144121.220000",
    "144123.220000",
    "144125.221000",
    "144127.220000",
    "144129.222000",
    "144131.222000",
    "144133.222000",
    "144135.221000",
    "144137.221000",
    "144139.221000",
    "144141.221000",
    "144143.221000",
    "144145.220000",
    "144147.221000",
    "144149.221000",
    "144151.222000",
    "144153.221000",
    "144155.220000",
    "144157.220000",
    "144159.220000",
    "144201.220000",
    "144203.221000",
    "144205.221000",
    "144207.222000",
    "144209.221000",
    "144211.221000",
    "144213.221000",
    "144215.221000",
    "144217.221000",
    "144219.221000",
    "144221.222000",
    "144223.222000",
    "144225.222000",
    "144227.221000",
    "144229.221000",
    "144231.221000",
    "144233.221000",
    "144235.220000",
    "144237.221000",
    "144239.222000",
    "144241.222000",
    "144243.221000",
    "144245.221000",
    "144247.220000",
    "144249.221000",
    "144251.221000",
    "144253.221000",
    "144255.221000",
    "144257.056000"
   ],
   "InstanceNumber": [
    1,
    2,
    3,
    4,
    5,
    6,
    7,
    8,
    9,
    10,
    11,
    12,
    13,
    14,
    15,
    16,
    17,
    18,
    19,
    20,
    21,
    22,
    23,
    24,
    25,
    26,
    27,
    28,
    29,
    30,
    31,
    32,
    33,
    34,
    35,
    36,
    37,
    38,
    39,
    40,
    41,
    42,
    43,
    44,
    45,
    46,
    47,
    48,
    49,
    50,
    51,
    52,
    53,
    54,
    55,
    56,
    57,
    58,
    59,
    60,
    61,
    62,
    63,
    64,
    65,
    66,
    67,
    68,
    69,
    70,
    71,
    72,
    73,
    74,
    75,
    76,
    77,
    78,
    79,
    80,
    81,
    82,
    83,
    84,
    85,
    86,
    87,
    88,
    89,
    90,
    91,
    92,
    93,
    94,
    95,
    96,
    97,
    98,
    99,
    100,
    101,
    102,
    103,
    104,
    105,
    106,
    107,
    108,
    109,
    110,
    111,
    112,
    113,
    114,
    115,
    116,
    117,
    118,
    119,
    120,
    121,
    122,
    123,
    124,
    125,
    126,
    127,
    128,
    129,
    130,
    131,
    132,
    133,
    134,
    135,
    136,
    137,
    138,
    139,
    140,
    141,
    142,
    143,
    144,
    145,
    146,
    147,
    148,
    149,
    150,
    151,
    152,
    153,
    154,
    155,
    156,
    157,
    158,
    159,
    160,
    161,
    162,
    163,
    164,
    165,
    166,
    167,
    168,
    169,
    170,
    171,
    172,
    173,
    174,
    175,
    176,
    177,
    178,
    179,
    180,
    181,
    182,
    183,
    184,
    185,
    186,
    187,
    188,
    189,
    190,
    191,
    192,
    193,
    194,
    195,
    196,
    197,
    198,
    199,
    200,
    201,
    202,
    203,
    204,
    205,
    206,
    207,
    208,
    209,
    210,
    211,
    212,
    213,
    214,
    215,
    216,
    217,
    218,
    219,
    220,
    221,
    222,
    223,
    224,
    225,
    226,
    227,
    228,
    229,
    230,
    231,
    232,
    233,
    234,
    235,
    236,
    237,
    238,
    239,
    240,
    241
   ],
   "LargestImagePixelValue": [
    3660,
    3580,
    3572,
    3577,
    3602,
    3608,
    3617,
    3615,
    3629,
    3630,
    3695,
    3653,
    3632,
    3627,
    3674,
    3657,
    3637,
    3667,
    3656,
    3647,
    3651,
    3651,
    3677,
    3651,
    3567,
    3571,
    3620,
    3625,
    3571,
    3605,
    3633,
    3644,
    3627,
    3592,
    3613,
    3645,
    3642,
    3673,
    3605,
    3608,
    3603,
    3647,
    3633,
    3623,
    3566,
    3614,
    3648,
    3654,
    3640,
    3675,
    3628,
    3674,
    3660,
    3671,
    3665,
    3662,
    3702,
    3668,
    3612,
    3584,
    3615,
    3604,
    3650,
    3659,
    3653,
    3620,
    3648,
    3624,
    3668,
    3636,
    3630,
    3602,
    3624,
    3631,
    3651,
    3629,
    3603,
    3632,
    3626,
    3588,
    3601,
    3623,
    3611,
    3615,
    3621,
    3621,
    3591,
    3579,
    3604,
    3631,
    3602,
    3575,
    3577,
    3601,
    3643,
    3633,
    3662,
    3625,
    3644,
    3650,
    3660,
    3616,
    3650,
    3627,
    3683,
    3627,
    3578,
    3611,
    3622,
    3612,
    3640,
    3653,
    3644,
    3624,
    3610,
    3593,
    3595,
    3604,
    3592,
    3626,
    3615,
    3632,
    3627,
    3613,
    3604,
    3609,
    3611,
    3576,
    3627,
    3671,
    3668,
    3687,
    3679,
    3708,
    3664,
    3655,
    3583,
    3596,
    3608,
    3596,
    3627,
    3607,
    3629,
    3610,
    3591,
    3625,
    3652,
    3654,
    3663,
    3646,
    3650,
    3656,
    3670,
    3636,
    3633,
    3647,
    3620,
    3608,
    3587,
    3664,
    3619,
    3597,
    3584,
    3591,
    3590,
    3580,
    3568,
    3537,
    3564,
    3582,
    3552,
    3572,
    3585,
    3593,
    3570,
    3638,
    3636,
    3639,
    3631,
    3646,
    3669,
    3659,
    3628,
    3612,
    3627,
    3622,
    3599,
    3601,
    3604,
    3624,
    3600,
    3601,
    3604,
    3615,
    3594,
    3573,
    3571,
    3600,
    3583,
    3573,
    3564,
    3607,
    3600,
    3581,
    3600,
    3645,
    3627,
    3593,
    3610,
    3602,
    3637,
    3642,
    3595,
    3626,
    3636,
    3634,
    3629,
    3614,
    3623,
    3619,
    3625,
    3652,
    3633,
    3617,
    3600,
    3612,
    3623,
    3609,
    3608,
    3608,
    3590,
    3603,
    3593,
    3614,
    3603,
    3598,
    3616,
    3600,
    3571,
    3588,
    3583
   ],
   "WindowCenter": [
    805.0,
    803.0,
    803.0,
    802.0,
    803.0,
    803.0,
    803.0,
    803.0,
    803.0,
    803.0,
    804.0,
    802.0,
    803.0,
    803.0,
    803.0,
    802.0,
    803.0,
    803.0,
    803.0,
    802.0,
    802.0,
    802.0,
    802.0,
    802.0,
    801.0,
    801.0,
    801.0,
    800.0,
    800.0,
    800.0,
    801.0,
    802.0,
    802.0,
    801.0,
    801.0,
    801.0,
    801.0,
    801.0,
    801.0,
    800.0,
    800.0,
    800.0,
    800.0,
    800.0,
    800.0,
    800.0,
    801.0,
    801.0,
    801.0,
    801.0,
    801.0,
    801.0,
    801.0,
    802.0,
    802.0,
    802.0,
    802.0,
    802.0,
    801.0,
    801.0,
    801.0,
    801.0,
    802.0,
    801.0,
    801.0,
    802.0,
    802.0,
    802.0,
    802.0,
    802.0,
    802.0,
    802.0,
    801.0,
    801.0,
    801.0,
    801.0,
    802.0,
    802.0,
    801.0,
    801.0,
    801.0,
    802.0,
    803.0,
    804.0,
    805.0,
    805.0,
    804.0,
    803.0,
    802.0,
    801.0,
    801.0,
    801.0,
    801.0,
    802.0,
    801.0,
    801.0,
    800.0,
    801.0,
    801.0,
    802.0,
    803.0,
    802.0,
    803.0,
    803.0,
    803.0,
    803.0,
    803.0,
    803.0,
    802.0,
    802.0,
    802.0,
    803.0,
    803.0,
    803.0,
    803.0,
    804.0,
    804.0,
    804.0,
    804.0,
    803.0,
    803.0,
    803.0,
    803.0,
    803.0,
    803.0,
    802.0,
    802.0,
    802.0,
    803.0,
    803.0,
    802.0,
    804.0,
    805.0,
    804.0,
    803.0,
    802.0,
    801.0,
    801.0,
    801.0,
    802.0,
    802.0,
    801.0,
    801.0,
    802.0,
    802.0,
    802.0,
    802.0,
    801.0,
    802.0,
    803.0,
    804.0,
    802.0,
    802.0,
    801.0,
    801.0,
    802.0,
    802.0,
    801.0,
    801.0,
    802.0,
    802.0,
    802.0,
    802.0,
    801.0,
    801.0,
    801.0,
    801.0,
    801.0,
    801.0,
    801.0,
    801.0,
    801.0,
    801.0,
    801.0,
    803.0,
    804.0,
    805.0,
    804.0,
    802.0,
    802.0,
    803.0,
    803.0,
    803.0,
    804.0,
    805.0,
    804.0,
    803.0,
    802.0,
    802.0,
    801.0,
    801.0,
    802.0,
    804.0,
    804.0,
    803.0,
    802.0,
    802.0,
    801.0,
    801.0,
    801.0,
    801.0,
    803.0,
    803.0,
    804.0,
    805.0,
    805.0,
    803.0,
    802.0,
    803.0,
    803.0,
    803.0,
    803.0,
    803.0,
    803.0,
    803.0,
    803.0,
    803.0,
    802.0,
    803.0,
    803.0,
    803.0,
    804.0,
    804.0,
    804.0,
    803.0,
    802.0,
    803.0,
    803.0,
    803.0,
    802.0,
    803.0,
    804.0,
