{
  "AcquisitionMatrixPE": 100,
  "AcquisitionNumber": 1,
  "AcquisitionTime": "13:56:18.245000",
  "BandwidthPerPixelPhaseEncode": 18.519,
  "BaseResolution": 100,
  "BodyPartExamined": "BRAIN",
  "ConsistencyInfo": "N4_VE11C_LATEST_20160120",
  "ConversionSoftware": "dcm2niix",
  "ConversionSoftwareVersion": "v1.0.20180622 GCC4.9.2",
  "DerivedVendorReportedEchoSpacing": 0.000539986,
  "DeviceSerialNumber": "166078",
  "DwellTime": 2.1e-06,
  "EchoTime": 0.034,
  "EchoTrainLength": 100,
  "EffectiveEchoSpacing": 0.000539986,
  "FlipAngle": 90,
  "ImageOrientationPatientDICOM": [0.999354, 0.0153282, 0.0325131, -0.0104656, 0.989409, -0.144776],
  "ImageType": [
    "ORIGINAL",
    "PRIMARY",
    "M",
    "ND",
    "MOSAIC"
],
  "InPlanePhaseEncodingDirectionDICOM": "COL",
  "InstitutionAddress": "Street_StreetNo_Bei_Jing_District_CN_ZIP",
  "InstitutionName": "BeiJing_Normal_University",
  "InstitutionalDepartmentName": "Department",
  "MRAcquisitionType": "2D",
  "MagneticFieldStrength": 3,
  "Manufacturer": "Siemens",
  "ManufacturersModelName": "Prisma",
  "Modality": "MR",
  "MultibandAccelerationFactor": 3,
  "PartialFourier": 1,
  "PatientPosition": "HFS",
  "PercentPhaseFOV": 100,
  "PhaseEncodingDirection": "j-",
  "PhaseEncodingSteps": 100,
  "PhaseResolution": 1,
  "PixelBandwidth": 2380,
  "ProcedureStepDescription": "BNU_P2018_64CH_Zhen.ZongLei",
  "ProtocolName": "bold_100x100_s3_2x2x2_static_test_241",
  "PulseSequenceDetails": "%SiemensSeq%_ep2d_bold",
  "ReceiveCoilActiveElements": "HC1-7;NC1",
  "ReceiveCoilName": "HeadNeck_64",
  "ReconMatrixPE": 100,
  "RepetitionTime": 2,
  "SAR": 0.0665423,
  "ScanOptions": "FS",
  "ScanningSequence": "EP",
  "SequenceName": "_epfid2d1_100",
  "SequenceVariant": "SK",
  "SeriesDescription": "bold_100x100_s3_2x2x2_static_test_241",
  "SeriesNumber": 10,
  "ShimSetting": [-5453, -11492, -1261, 271, -19, -147, -206, 46],
  "SliceThickness": 2,
  "SliceTiming": [1.485, 0, 0.99, 0.0825, 1.0725, 0.165, 1.155, 0.2475, 1.2375, 0.33, 1.32, 0.4125, 1.4025, 0.5775, 1.5675, 0.66, 1.65, 0.7425, 1.7325, 0.825, 1.815, 0.9075, 1.8975, 0.495, 1.485, 0, 0.99, 0.0825, 1.0725, 0.165, 1.155, 0.2475, 1.2375, 0.33, 1.32, 0.4125, 1.4025, 0.5775, 1.5675, 0.66, 1.65, 0.7425, 1.7325, 0.825, 1.815, 0.9075, 1.8975, 0.495, 1.485, 0, 0.99, 0.0825, 1.0725, 0.165, 1.155, 0.2475, 1.2375, 0.33, 1.32, 0.4125, 1.4025, 0.5775, 1.5675, 0.66, 1.65, 0.7425, 1.7325, 0.825, 1.815, 0.9075, 1.8975, 0.495],
  "SoftwareVersions": "syngo_MR_E11",
  "SpacingBetweenSlices": 2,
  "StationName": "AWP166078",
  "TaskName": "naturalvision2",
  "TotalReadoutTime": 0.0534586,
  "TxRefAmp": 217.351,
  "dcmmeta_affine": [
    [-1.9987075328826904, -0.020931115373969078, 0.06877576559782028, 99.7071533203125],
    [-0.030656486749649048, 1.9788181781768799, -0.28868424892425537, -80.1117172241211],
    [0.06502612680196762, 0.28955191373825073, 1.9778602123260498, -97.1391830444336],
    [0.0, 0.0, 0.0, 1.0]
],
  "dcmmeta_reorient_transform": [
    [0.0, -1.0, 0.0, 99.0],
    [1.0, 0.0, 0.0, 0.0],
    [0.0, 0.0, 1.0, 0.0],
    [0.0, 0.0, 0.0, 1.0]
],
  "dcmmeta_shape": [100, 100, 72, 241],
  "dcmmeta_slice_dim": 2,
  "dcmmeta_version": 0.6,
  "global": {
    "const": {
      "AcquisitionMatrix": [100, 0, 0, 100],
      "AngioFlag": "N",
      "BitsAllocated": 16,
      "BitsStored": 12,
      "BodyPartExamined": "BRAIN",
      "Columns": 900,
      "EchoNumbers": 1,
      "EchoTime": 34.0,
      "EchoTrainLength": 100,
      "FlipAngle": 90.0,
      "HighBit": 11,
      "ImageOrientationPatient": [0.99935376397286, 0.01532824374509, 0.03251306471194, -0.0104655573422, 0.98940911426748, -0.1447759535073],
      "ImagePositionPatient": [-888.74554039513, -919.58117477784, 21.336763184887],
      "ImageType": [
        "ORIGINAL",
        "PRIMARY",
        "M",
        "ND",
        "MOSAIC"
],
      "ImagedNucleus": "1H",
      "ImagingFrequency": 123.257767,
      "InPlanePhaseEncodingDirection": "COL",
      "MRAcquisitionType": "2D",
      "MagneticFieldStrength": 3.0,
      "Manufacturer": "SIEMENS",
      "ManufacturerModelName": "Prisma",
      "Modality": "MR",
      "NumberOfAverages": 1.0,
      "NumberOfPhaseEncodingSteps": 100,
      "PercentPhaseFieldOfView": 100.0,
      "PercentSampling": 100.0,
      "PerformedProcedureStepStartTime": "130045.791000",
      "PhotometricInterpretation": "MONOCHROME2",
      "PixelBandwidth": 2380.0,
      "PixelRepresentation": 0,
      "PixelSpacing": [2.0, 2.0],
      "ProtocolName": "bold_100x100_s3_2x2x2_static_test_241",
      "RepetitionTime": 2000.0,
      "Rows": 900,
      "SAR": 0.066542340542,
      "SamplesPerPixel": 1,
      "ScanOptions": "FS",
      "ScanningSequence": "EP",
      "SequenceName": "*epfid2d1_100",
      "SequenceVariant": "SK",
      "SeriesDescription": "bold_100x100_s3_2x2x2_static_test_241",
      "SeriesNumber": 10,
      "SeriesTime": "135620.412000",
      "SliceLocation": -81.071655990678,
      "SliceThickness": 2.0,
      "SmallestImagePixelValue": 0,
      "SoftwareVersions": "syngo MR E11",
      "SpacingBetweenSlices": 1.9999999686196,
      "SpecificCharacterSet": "ISO_IR 100",
      "StudyID": "1",
      "StudyTime": "130045.697000",
      "TransmitCoilName": "Body",
      "VariableFlipAngleFlag": "N",
      "WindowCenterWidthExplanation": "Algo1",
      "dBdt": 0.0},
    "slices": {}
  },
  "time": {
    "samples": {
      "AcquisitionNumber": [1, 2, 3, 4, 5, 6, 7, 8, 9, 10, 11, 12, 13, 14, 15, 16, 17, 18, 19, 20, 21, 22, 23, 24, 25, 26, 27, 28, 29, 30, 31, 32, 33, 34, 35, 36, 37, 38, 39, 40, 41, 42, 43, 44, 45, 46, 47, 48, 49, 50, 51, 52, 53, 54, 55, 56, 57, 58, 59, 60, 61, 62, 63, 64, 65, 66, 67, 68, 69, 70, 71, 72, 73, 74, 75, 76, 77, 78, 79, 80, 81, 82, 83, 84, 85, 86, 87, 88, 89, 90, 91, 92, 93, 94, 95, 96, 97, 98, 99, 100, 101, 102, 103, 104, 105, 106, 107, 108, 109, 110, 111, 112, 113, 114, 115, 116, 117, 118, 119, 120, 121, 122, 123, 124, 125, 126, 127, 128, 129, 130, 131, 132, 133, 134, 135, 136, 137, 138, 139, 140, 141, 142, 143, 144, 145, 146, 147, 148, 149, 150, 151, 152, 153, 154, 155, 156, 157, 158, 159, 160, 161, 162, 163, 164, 165, 166, 167, 168, 169, 170, 171, 172, 173, 174, 175, 176, 177, 178, 179, 180, 181, 182, 183, 184, 185, 186, 187, 188, 189, 190, 191, 192, 193, 194, 195, 196, 197, 198, 199, 200, 201, 202, 203, 204, 205, 206, 207, 208, 209, 210, 211, 212, 213, 214, 215, 216, 217, 218, 219, 220, 221, 222, 223, 224, 225, 226, 227, 228, 229, 230, 231, 232, 233, 234, 235, 236, 237, 238, 239, 240, 241],
      "AcquisitionTime": ["135618.245000", "135620.245000", "135622.245000", "135624.245000", "135626.245000", "135628.245000", "135630.245000", "135632.245000", "135634.245000", "135636.245000", "135638.245000", "135640.245000", "135642.245000", "135644.245000", "135646.245000", "135648.245000", "135650.245000", "135652.245000", "135654.245000", "135656.245000", "135658.245000", "135700.245000", "135702.245000", "135704.245000", "135706.245000", "135708.245000", "135710.245000", "135712.245000", "135714.245000", "135716.245000", "135718.245000", "135720.245000", "135722.245000", "135724.245000", "135726.245000", "135728.245000", "135730.245000", "135732.245000", "135734.245000", "135736.245000", "135738.245000", "135740.245000", "135742.245000", "135744.245000", "135746.245000", "135748.245000", "135750.245000", "135752.245000", "135754.245000", "135756.245000", "135758.245000", "135800.245000", "135802.245000", "135804.245000", "135806.245000", "135808.245000", "135810.245000", "135812.245000", "135814.245000", "135816.245000", "135818.245000", "135820.245000", "135822.245000", "135824.245000", "135826.245000", "135828.245000", "135830.245000", "135832.245000", "135834.245000", "135836.245000", "135838.245000", "135840.245000", "135842.245000", "135844.245000", "135846.245000", "135848.245000", "135850.245000", "135852.245000", "135854.245000", "135856.245000", "135858.245000", "135900.245000", "135902.245000", "135904.245000", "135906.245000", "135908.245000", "135910.245000", "135912.245000", "135914.245000", "135916.245000", "135918.245000", "135920.245000", "135922.245000", "135924.245000", "135926.245000", "135928.245000", "135930.245000", "135932.245000", "135934.245000", "135936.245000", "135938.245000", "135940.245000", "135942.245000", "135944.245000", "135946.245000", "135948.245000", "135950.245000", "135952.245000", "135954.245000", "135956.245000", "135958.245000", "140000.245000", "140002.245000", "140004.245000", "140006.245000", "140008.245000", "140010.245000", "140012.245000", "140014.245000", "140016.245000", "140018.245000", "140020.245000", "140022.245000", "140024.245000", "140026.245000", "140028.245000", "140030.245000", "140032.245000", "140034.245000", "140036.245000", "140038.245000", "140040.245000", "140042.245000", "140044.245000", "140046.245000", "140048.245000", "140050.245000", "140052.245000", "140054.245000", "140056.245000", "140058.245000", "140100.245000", "140102.245000", "140104.245000", "140106.245000", "140108.245000", "140110.245000", "140112.245000", "140114.245000", "140116.245000", "140118.245000", "140120.245000", "140122.245000", "140124.245000", "140126.245000", "140128.245000", "140130.245000", "140132.245000", "140134.245000", "140136.245000", "140138.245000", "140140.245000", "140142.245000", "140144.245000", "140146.245000", "140148.245000", "140150.245000", "140152.245000", "140154.245000", "140156.245000", "140158.245000", "140200.245000", "140202.245000", "140204.245000", "140206.245000", "140208.245000", "140210.245000", "140212.245000", "140214.245000", "140216.245000", "140218.245000", "140220.245000", "140222.245000", "140224.245000", "140226.245000", "140228.245000", "140230.245000", "140232.245000", "140234.245000", "140236.245000", "140238.245000", "140240.245000", "140242.245000", "140244.245000", "140246.245000", "140248.245000", "140250.245000", "140252.245000", "140254.245000", "140256.245000", "140258.245000", "140300.245000", "140302.245000", "140304.245000", "140306.245000", "140308.245000", "140310.245000", "140312.245000", "140314.245000", "140316.245000", "140318.245000", "140320.245000", "140322.245000", "140324.245000", "140326.245000", "140328.245000", "140330.245000", "140332.245000", "140334.245000", "140336.245000", "140338.245000", "140340.245000", "140342.245000", "140344.245000", "140346.245000", "140348.245000", "140350.245000", "140352.245000", "140354.245000", "140356.245000", "140358.245000", "140400.245000", "140402.245000", "140404.245000", "140406.245000", "140408.245000", "140410.245000", "140412.245000", "140414.245000", "140416.245000", "140418.245000"],
      "ContentTime": ["135620.416000", "135621.912000", "135623.911000", "135625.911000", "135627.912000", "135629.912000", "135631.912000", "135633.912000", "135635.912000", "135637.912000", "135639.911000", "135641.912000", "135643.912000", "135645.911000", "135647.911000", "135649.911000", "135651.912000", "135653.913000", "135655.911000", "135657.911000", "135659.911000", "135701.912000", "135703.911000", "135705.911000", "135707.912000", "135709.912000", "135711.913000", "135713.911000", "135715.911000", "135717.911000", "135719.911000", "135721.911000", "135723.912000", "135725.912000", "135727.913000", "135729.912000", "135731.912000", "135733.912000", "135735.911000", "135737.911000", "135739.911000", "135741.911000", "135743.912000", "135745.913000", "135747.911000", "135749.912000", "135751.912000", "135753.912000", "135755.911000", "135757.912000", "135759.911000", "135801.912000", "135803.912000", "135805.911000", "135807.911000", "135809.912000", "135811.912000", "135813.912000", "135815.912000", "135817.912000", "135819.912000", "135821.913000", "135823.912000", "135825.911000", "135827.911000", "135829.912000", "135831.912000", "135833.912000", "135835.911000", "135837.913000", "135839.912000", "135841.912000", "135843.911000", "135845.912000", "135847.912000", "135849.911000", "135851.911000", "135853.912000", "135855.913000", "135857.912000", "135859.911000", "135901.912000", "135903.912000", "135905.911000", "135907.911000", "135909.911000", "135911.911000", "135913.913000", "135915.912000", "135917.911000", "135919.911000", "135921.912000", "135923.912000", "135925.912000", "135927.912000", "135929.912000", "135931.913000", "135933.912000", "135935.911000", "135937.911000", "135939.911000", "135941.912000", "135943.912000", "135945.911000", "135947.913000", "135949.911000", "135951.912000", "135953.917000", "135955.911000", "135957.911000", "135959.911000", "140001.911000", "140003.911000", "140005.913000", "140007.912000", "140009.912000", "140011.911000", "140013.911000", "140015.911000", "140017.911000", "140019.912000", "140021.911000", "140023.913000", "140025.911000", "140027.911000", "140029.912000", "140031.912000", "140033.911000", "140035.911000", "140037.912000", "140039.911000", "140041.913000", "140043.924000", "140045.911000", "140047.912000", "140049.912000", "140051.912000", "140053.911000", "140055.911000", "140057.912000", "140059.912000", "140101.912000", "140103.912000", "140105.912000", "140107.911000", "140109.912000", "140111.912000", "140113.912000", "140115.913000", "140117.912000", "140119.912000", "140121.911000", "140123.912000", "140125.912000", "140127.912000", "140129.912000", "140131.912000", "140133.913000", "140135.912000", "140137.911000", "140139.912000", "140141.911000", "140143.911000", "140145.911000", "140147.912000", "140149.912000", "140151.912000", "140153.912000", "140155.912000", "140157.912000", "140159.911000", "140201.912000", "140203.912000", "140205.912000", "140207.912000", "140209.912000", "140211.912000", "140213.912000", "140215.912000", "140217.912000", "140219.912000", "140221.912000", "140223.912000", "140225.913000", "140227.912000", "140229.912000", "140231.911000", "140233.912000", "140235.912000", "140237.912000", "140239.912000", "140241.912000", "140243.913000", "140245.912000", "140247.912000", "140249.912000", "140251.911000", "140253.912000", "140255.912000", "140257.912000", "140259.912000", "140301.913000", "140303.912000", "140305.911000", "140307.911000", "140309.912000", "140311.911000", "140313.912000", "140315.912000", "140317.913000", "140319.912000", "140321.911000", "140323.912000", "140325.912000", "140327.911000", "140329.912000", "140331.911000", "140333.911000", "140335.912000", "140337.912000", "140339.912000", "140341.912000", "140343.912000", "140345.912000", "140347.911000", "140349.912000", "140351.912000", "140353.912000", "140355.911000", "140357.912000", "140359.911000", "140401.912000", "140403.911000", "140405.912000", "140407.912000", "140409.913000", "140411.913000", "140413.912000", "140415.912000", "140417.912000", "140419.642000"],
      "InstanceCreationTime": ["135620.416000", "135621.912000", "135623.911000", "135625.911000", "135627.912000", "135629.912000", "135631.912000", "135633.912000", "135635.912000", "135637.912000", "135639.911000", "135641.912000", "135643.912000", "135645.911000", "135647.911000", "135649.911000", "135651.912000", "135653.913000", "135655.911000", "135657.911000", "135659.911000", "135701.912000", "135703.911000", "135705.911000", "135707.912000", "135709.912000", "135711.913000", "135713.911000", "135715.911000", "135717.911000", "135719.911000", "135721.911000", "135723.912000", "135725.912000", "135727.913000", "135729.912000", "135731.912000", "135733.912000", "135735.911000", "135737.911000", "135739.911000", "135741.911000", "135743.912000", "135745.913000", "135747.911000", "135749.912000", "135751.912000", "135753.912000", "135755.911000", "135757.912000", "135759.911000", "135801.912000", "135803.912000", "135805.911000", "135807.911000", "135809.912000", "135811.912000", "135813.912000", "135815.912000", "135817.912000", "135819.912000", "135821.913000", "135823.912000", "135825.911000", "135827.911000", "135829.912000", "135831.912000", "135833.912000", "135835.911000", "135837.913000", "135839.912000", "135841.912000", "135843.911000", "135845.912000", "135847.912000", "135849.911000", "135851.911000", "135853.912000", "135855.913000", "135857.912000", "135859.911000", "135901.912000", "135903.912000", "135905.911000", "135907.911000", "135909.911000", "135911.911000", "135913.913000", "135915.912000", "135917.911000", "135919.911000", "135921.912000", "135923.912000", "135925.912000", "135927.912000", "135929.912000", "135931.913000", "135933.912000", "135935.911000", "135937.911000", "135939.911000", "135941.912000", "135943.912000", "135945.911000", "135947.913000", "135949.911000", "135951.912000", "135953.917000", "135955.911000", "135957.911000", "135959.911000", "140001.911000", "140003.911000", "140005.913000", "140007.912000", "140009.912000", "140011.911000", "140013.911000", "140015.911000", "140017.911000", "140019.912000", "140021.911000", "140023.913000", "140025.911000", "140027.911000", "140029.912000", "140031.912000", "140033.911000", "140035.911000", "140037.912000", "140039.911000", "140041.913000", "140043.924000", "140045.911000", "140047.912000", "140049.912000", "140051.912000", "140053.911000", "140055.911000", "140057.912000", "140059.912000", "140101.912000", "140103.912000", "140105.912000", "140107.911000", "140109.912000", "140111.912000", "140113.912000", "140115.913000", "140117.912000", "140119.912000", "140121.911000", "140123.912000", "140125.912000", "140127.912000", "140129.912000", "140131.912000", "140133.913000", "140135.912000", "140137.911000", "140139.912000", "140141.911000", "140143.911000", "140145.911000", "140147.912000", "140149.912000", "140151.912000", "140153.912000", "140155.912000", "140157.912000", "140159.911000", "140201.912000", "140203.912000", "140205.912000", "140207.912000", "140209.912000", "140211.912000", "140213.912000", "140215.912000", "140217.912000", "140219.912000", "140221.912000", "140223.912000", "140225.913000", "140227.912000", "140229.912000", "140231.911000", "140233.912000", "140235.912000", "140237.912000", "140239.912000", "140241.912000", "140243.913000", "140245.912000", "140247.912000", "140249.912000", "140251.911000", "140253.912000", "140255.912000", "140257.912000", "140259.912000", "140301.913000", "140303.912000", "140305.911000", "140307.911000", "140309.912000", "140311.911000", "140313.912000", "140315.912000", "140317.913000", "140319.912000", "140321.911000", "140323.912000", "140325.912000", "140327.911000", "140329.912000", "140331.911000", "140333.911000", "140335.912000", "140337.912000", "140339.912000", "140341.912000", "140343.912000", "140345.912000", "140347.911000", "140349.912000", "140351.912000", "140353.912000", "140355.911000", "140357.912000", "140359.911000", "140401.912000", "140403.911000", "140405.912000", "140407.912000", "140409.913000", "140411.913000", "140413.912000", "140415.912000", "140417.912000", "140419.642000"],
      "InstanceNumber": [1, 2, 3, 4, 5, 6, 7, 8, 9, 10, 11, 12, 13, 14, 15, 16, 17, 18, 19, 20, 21, 22, 23, 24, 25, 26, 27, 28, 29, 30, 31, 32, 33, 34, 35, 36, 37, 38, 39, 40, 41, 42, 43, 44, 45, 46, 47, 48, 49, 50, 51, 52, 53, 54, 55, 56, 57, 58, 59, 60, 61, 62, 63, 64, 65, 66, 67, 68, 69, 70, 71, 72, 73, 74, 75, 76, 77, 78, 79, 80, 81, 82, 83, 84, 85, 86, 87, 88, 89, 90, 91, 92, 93, 94, 95, 96, 97, 98, 99, 100, 101, 102, 103, 104, 105, 106, 107, 108, 109, 110, 111, 112, 113, 114, 115, 116, 117, 118, 119, 120, 121, 122, 123, 124, 125, 126, 127, 128, 129, 130, 131, 132, 133, 134, 135, 136, 137, 138, 139, 140, 141, 142, 143, 144, 145, 146, 147, 148, 149, 150, 151, 152, 153, 154, 155, 156, 157, 158, 159, 160, 161, 162, 163, 164, 165, 166, 167, 168, 169, 170, 171, 172, 173, 174, 175, 176, 177, 178, 179, 180, 181, 182, 183, 184, 185, 186, 187, 188, 189, 190, 191, 192, 193, 194, 195, 196, 197, 198, 199, 200, 201, 202, 203, 204, 205, 206, 207, 208, 209, 210, 211, 212, 213, 214, 215, 216, 217, 218, 219, 220, 221, 222, 223, 224, 225, 226, 227, 228, 229, 230, 231, 232, 233, 234, 235, 236, 237, 238, 239, 240, 241],
      "LargestImagePixelValue": [3968, 3899, 3933, 3900, 3869, 3891, 3879, 3873, 3866, 3912, 3879, 3908, 3900, 3894, 3876, 3898, 3915, 3932, 3877, 3922, 3867, 3888, 3875, 3931, 3889, 3894, 3884, 3905, 3895, 3918, 3905, 3891, 3915, 3910, 3943, 3897, 3911, 3932, 3886, 3915, 3938, 3890, 3888, 3898, 3885, 3885, 3912, 3904, 3918, 3903, 3911, 3909, 3909, 3886, 3924, 3917, 3905, 3901, 3883, 3893, 3871, 3894, 3884, 3932, 3886, 3909, 3890, 3915, 3895, 3888, 3878, 3889, 3896, 3932, 3860, 3884, 3910, 3891, 3894, 3889, 3880, 3926, 3907, 3912, 3885, 3936, 3911, 3904, 3899, 3884, 3877, 3902, 3889, 3886, 3903, 3923, 3909, 3906, 3899, 3905, 3897, 3867, 3903, 3898, 3911, 3889, 3877, 3914, 3888, 3891, 3849, 3895, 3908, 3901, 3871, 3890, 3861, 3893, 3883, 3928, 3896, 3912, 3918, 3890, 3938, 3909, 3890, 3871, 3895, 3900, 3923, 3888, 3867, 3885, 3868, 3889, 3899, 3865, 3901, 3878, 3899, 3871, 3877, 3881, 3948, 3902, 3890, 3874, 3916, 3895, 3919, 3897, 3894, 3904, 3885, 3909, 3870, 3905, 3872, 3924, 3898, 3924, 3896, 3951, 3910, 3896, 3920, 3894, 3906, 3910, 3883, 3879, 3905, 3909, 3899, 3919, 3912, 3932, 3872, 3918, 3890, 3918, 3885, 3896, 3889, 3915, 3890, 3913, 3884, 3912, 3895, 3933, 3899, 3899, 3888, 3923, 3905, 3899, 3905, 3934, 3895, 3912, 3920, 3903, 3929, 3910, 3904, 3863, 3911, 3885, 3905, 3846, 3870, 3875, 3890, 3896, 3879, 3895, 3935, 3919, 3921, 3879, 3886, 3871, 3897, 3900, 3907, 3886, 3901, 3870, 3867, 3880, 3891, 3900, 3892, 3901, 3864, 3926, 3889, 3912, 3890],
      "WindowCenter": [817.0, 815.0, 815.0, 816.0, 815.0, 816.0, 815.0, 815.0, 815.0, 815.0, 816.0, 816.0, 816.0, 816.0, 816.0, 815.0, 816.0, 816.0, 816.0, 816.0, 815.0, 813.0, 812.0, 813.0, 813.0, 812.0, 812.0, 813.0, 814.0, 814.0, 816.0, 815.0, 815.0, 814.0, 814.0, 815.0, 816.0, 815.0, 815.0, 814.0, 815.0, 815.0, 816.0, 816.0, 817.0, 816.0, 816.0, 816.0, 814.0, 814.0, 815.0, 815.0, 814.0, 813.0, 812.0, 812.0, 812.0, 813.0, 813.0, 814.0, 813.0, 813.0, 812.0, 813.0, 813.0, 813.0, 814.0, 814.0, 814.0, 814.0, 815.0, 814.0, 814.0, 814.0, 815.0, 815.0, 815.0, 815.0, 815.0, 817.0, 818.0, 819.0, 817.0, 815.0, 814.0, 814.0, 816.0, 815.0, 814.0, 813.0, 814.0, 814.0, 815.0, 814.0, 814.0, 813.0, 813.0, 812.0, 813.0, 812.0, 813.0, 814.0, 815.0, 815.0, 815.0, 816.0, 815.0, 815.0, 814.0, 815.0, 814.0, 816.0, 816.0, 815.0, 815.0, 814.0, 814.0, 815.0, 816.0, 816.0, 815.0, 813.0, 814.0, 815.0, 816.0, 816.0, 815.0, 814.0, 814.0, 814.0, 815.0, 815.0, 813.0, 814.0, 814.0, 814.0, 814.0, 813.0, 812.0, 812.0, 813.0, 812.0, 812.0, 813.0, 814.0, 814.0, 814.0, 814.0, 814.0, 814.0, 812.0, 813.0, 815.0, 816.0, 816.0, 816.0, 817.0, 816.0, 815.0, 815.0, 814.0, 813.0, 813.0, 813.0, 813.0, 813.0, 813.0, 814.0, 814.0, 816.0, 816.0, 814.0, 814.0, 812.0, 813.0, 813.0, 813.0, 814.0, 813.0, 813.0, 813.0, 814.0, 813.0, 813.0, 813.0, 814.0, 814.0, 813.0, 814.0, 815.0, 814.0, 814.0, 814.0, 814.0, 814.0, 814.0, 814.0, 813.0, 814.0, 813.0, 814.0, 814.0, 814.0, 813.0, 813.0, 814.0, 814.0, 814.0, 815.0, 816.0, 816.0, 815.0, 814.0, 813.0, 813.0, 813.0, 814.0, 814.0, 815.0, 814.0, 814.0, 813.0, 813.0, 812.0, 812.0, 812.0, 812.0, 813.0, 813.0, 814.0, 814.0, 814.0, 814.0, 814.0, 813.0, 813.0, 814.0, 815.0, 815.0, 815.0, 815.0],
      "WindowWidth": [1776.0, 1769.0, 1768.0, 1771.0, 1770.0, 1771.0, 1769.0, 1769.0, 1770.0, 1771.0, 1774.0, 1773.0, 1772.0, 1772.0, 1771.0, 1770.0, 1773.0, 1774.0, 1774.0, 1773.0, 1770.0, 1765.0, 1762.0, 1765.0, 1764.0, 1762.0, 1762.0, 1765.0, 1766.0, 1767.0, 1772.0, 1771.0, 1770.0, 1767.0, 1766.0, 1769.0, 1772.0, 1771.0, 1769.0, 1767.0, 1769.0, 1769.0, 1772.0, 1773.0, 1774.0, 1773.0, 1773.0, 1771.0, 1768.0, 1767.0, 1768.0, 1769.0, 1766.0, 1764.0, 1761.0, 1762.0, 1761.0, 1763.0, 1764.0, 1766.0, 1764.0, 1763.0, 1762.0, 1764.0, 1764.0, 1765.0, 1767.0, 1766.0, 1767.0, 1766.0, 1768.0, 1767.0, 1768.0, 1767.0, 1768.0, 1769.0, 1769.0, 1769.0, 1770.0, 1774.0, 1778.0, 1780.0, 1773.0, 1767.0, 1765.0, 1765.0, 1771.0, 1769.0, 1766.0, 1764.0, 1765.0, 1766.0, 1768.0, 1766.0, 1766.0, 1765.0, 1763.0, 1761.0, 1762.0, 1761.0, 1763.0, 1766.0, 1768.0, 1769.0, 1769.0, 1770.0, 1768.0, 1768.0, 1766.0, 1768.0, 1767.0, 1770.0, 1772.0, 1770.0, 1768.0, 1767.0, 1766.0, 1768.0, 1771.0, 1770.0, 1767.0, 1763.0, 1765.0, 1767.0, 1771.0, 1770.0, 1768.0, 1766.0, 1766.0, 1766.0, 1768.0, 1767.0, 1764.0, 1766.0, 1766.0, 1766.0, 1765.0, 1762.0, 1761.0, 1761.0, 1762.0, 1762.0, 1761.0, 1763.0, 1765.0, 1765.0, 1765.0, 1765.0, 1766.0, 1765.0, 1762.0, 1764.0, 1768.0, 1771.0, 1771.0, 1772.0, 1774.0, 1771.0, 1769.0, 1767.0, 1767.0, 1764.0, 1765.0, 1764.0, 1765.0, 1765.0, 1765.0, 1765.0, 1766.0, 1771.0, 1771.0, 1767.0, 1764.0, 1762.0, 1763.0, 1764.0, 1764.0, 1765.0, 1764.0, 1763.0, 1763.0, 1765.0, 1763.0, 1764.0, 1763.0, 1766.0, 1765.0, 1765.0, 1767.0, 1767.0, 1767.0, 1766.0, 1767.0, 1767.0, 1768.0, 1766.0, 1765.0, 1763.0, 1765.0, 1765.0, 1765.0, 1766.0, 1765.0, 1762.0, 1764.0, 1766.0, 1765.0, 1766.0, 1768.0, 1772.0, 1770.0, 1768.0, 1764.0, 1763.0, 1762.0, 1764.0, 1767.0, 1766.0, 1767.0, 1766.0, 1766.0, 1762.0, 1761.0, 1760.0, 1761.0, 1761.0, 1761.0, 1763.0, 1764.0, 1766.0, 1765.0, 1765.0, 1765.0, 1767.0, 1762.0, 1762.0, 1764.0, 1767.0, 1767.0, 1769.0, 1769.0]
    },
    "slices": {}
  }
}