{
  "AcquisitionMatrixPE": 100,
  "AcquisitionNumber": 1,
  "AcquisitionTime": "14:06:7.362500",
  "BandwidthPerPixelPhaseEncode": 18.519,
  "BaseResolution": 100,
  "BodyPartExamined": "BRAIN",
  "ConsistencyInfo": "N4_VE11C_LATEST_20160120",
  "ConversionSoftware": "dcm2niix",
  "ConversionSoftwareVersion": "v1.0.20180622 GCC4.9.2",
  "DerivedVendorReportedEchoSpacing": 0.000539986,
  "DeviceSerialNumber": "166078",
  "DwellTime": 2.1e-06,
  "EchoTime": 0.034,
  "EchoTrainLength": 100,
  "EffectiveEchoSpacing": 0.000539986,
  "FlipAngle": 90,
  "ImageOrientationPatientDICOM": [0.999354, 0.0153282, 0.0325131, -0.0104656, 0.989409, -0.144776],
  "ImageType": [
    "ORIGINAL",
    "PRIMARY",
    "M",
    "ND",
    "MOSAIC"
],
  "InPlanePhaseEncodingDirectionDICOM": "COL",
  "InstitutionAddress": "Street_StreetNo_Bei_Jing_District_CN_ZIP",
  "InstitutionName": "BeiJing_Normal_University",
  "InstitutionalDepartmentName": "Department",
  "MRAcquisitionType": "2D",
  "MagneticFieldStrength": 3,
  "Manufacturer": "Siemens",
  "ManufacturersModelName": "Prisma",
  "Modality": "MR",
  "MultibandAccelerationFactor": 3,
  "PartialFourier": 1,
  "PatientPosition": "HFS",
  "PercentPhaseFOV": 100,
  "PhaseEncodingDirection": "j-",
  "PhaseEncodingSteps": 100,
  "PhaseResolution": 1,
  "PixelBandwidth": 2380,
  "ProcedureStepDescription": "BNU_P2018_64CH_Zhen.ZongLei",
  "ProtocolName": "bold_100x100_s3_2x2x2_static_test_241",
  "PulseSequenceDetails": "%SiemensSeq%_ep2d_bold",
  "ReceiveCoilActiveElements": "HC1-7;NC1",
  "ReceiveCoilName": "HeadNeck_64",
  "ReconMatrixPE": 100,
  "RepetitionTime": 2,
  "SAR": 0.0665423,
  "ScanOptions": "FS",
  "ScanningSequence": "EP",
  "SequenceName": "_epfid2d1_100",
  "SequenceVariant": "SK",
  "SeriesDescription": "bold_100x100_s3_2x2x2_static_test_241",
  "SeriesNumber": 11,
  "ShimSetting": [-5453, -11492, -1261, 271, -19, -147, -206, 46],
  "SliceThickness": 2,
  "SliceTiming": [1.485, 0, 0.99, 0.0825, 1.0725, 0.165, 1.155, 0.2475, 1.2375, 0.33, 1.32, 0.4125, 1.4025, 0.5775, 1.5675, 0.66, 1.65, 0.7425, 1.7325, 0.825, 1.815, 0.9075, 1.8975, 0.495, 1.485, 0, 0.99, 0.0825, 1.0725, 0.165, 1.155, 0.2475, 1.2375, 0.33, 1.32, 0.4125, 1.4025, 0.5775, 1.5675, 0.66, 1.65, 0.7425, 1.7325, 0.825, 1.815, 0.9075, 1.8975, 0.495, 1.485, 0, 0.99, 0.0825, 1.0725, 0.165, 1.155, 0.2475, 1.2375, 0.33, 1.32, 0.4125, 1.4025, 0.5775, 1.5675, 0.66, 1.65, 0.7425, 1.7325, 0.825, 1.815, 0.9075, 1.8975, 0.495],
  "SoftwareVersions": "syngo_MR_E11",
  "SpacingBetweenSlices": 2,
  "StationName": "AWP166078",
  "TaskName": "naturalvision2",
  "TotalReadoutTime": 0.0534586,
  "TxRefAmp": 217.351,
  "dcmmeta_affine": [
    [-1.9987075328826904, -0.020931115373969078, 0.06877576559782028, 99.7071533203125],
    [-0.030656486749649048, 1.9788181781768799, -0.28868424892425537, -80.1117172241211],
    [0.06502612680196762, 0.28955191373825073, 1.9778602123260498, -97.1391830444336],
    [0.0, 0.0, 0.0, 1.0]
],
  "dcmmeta_reorient_transform": [
    [0.0, -1.0, 0.0, 99.0],
    [1.0, 0.0, 0.0, 0.0],
    [0.0, 0.0, 1.0, 0.0],
    [0.0, 0.0, 0.0, 1.0]
],
  "dcmmeta_shape": [100, 100, 72, 241],
  "dcmmeta_slice_dim": 2,
  "dcmmeta_version": 0.6,
  "global": {
    "const": {
      "AcquisitionMatrix": [100, 0, 0, 100],
      "AngioFlag": "N",
      "BitsAllocated": 16,
      "BitsStored": 12,
      "BodyPartExamined": "BRAIN",
      "Columns": 900,
      "EchoNumbers": 1,
      "EchoTime": 34.0,
      "EchoTrainLength": 100,
      "FlipAngle": 90.0,
      "HighBit": 11,
      "ImageOrientationPatient": [0.99935376397286, 0.01532824374509, 0.03251306471194, -0.0104655573422, 0.98940911426748, -0.1447759535073],
      "ImagePositionPatient": [-888.74554039513, -919.58117477784, 21.336763184887],
      "ImageType": [
        "ORIGINAL",
        "PRIMARY",
        "M",
        "ND",
        "MOSAIC"
],
      "ImagedNucleus": "1H",
      "ImagingFrequency": 123.257774,
      "InPlanePhaseEncodingDirection": "COL",
      "MRAcquisitionType": "2D",
      "MagneticFieldStrength": 3.0,
      "Manufacturer": "SIEMENS",
      "ManufacturerModelName": "Prisma",
      "Modality": "MR",
      "NumberOfAverages": 1.0,
      "NumberOfPhaseEncodingSteps": 100,
      "PercentPhaseFieldOfView": 100.0,
      "PercentSampling": 100.0,
      "PerformedProcedureStepStartTime": "130045.791000",
      "PhotometricInterpretation": "MONOCHROME2",
      "PixelBandwidth": 2380.0,
      "PixelRepresentation": 0,
      "PixelSpacing": [2.0, 2.0],
      "ProtocolName": "bold_100x100_s3_2x2x2_static_test_241",
      "RepetitionTime": 2000.0,
      "Rows": 900,
      "SAR": 0.066542340542,
      "SamplesPerPixel": 1,
      "ScanOptions": "FS",
      "ScanningSequence": "EP",
      "SequenceName": "*epfid2d1_100",
      "SequenceVariant": "SK",
      "SeriesDescription": "bold_100x100_s3_2x2x2_static_test_241",
      "SeriesNumber": 11,
      "SeriesTime": "140610.038000",
      "SliceLocation": -81.071655990678,
      "SliceThickness": 2.0,
      "SmallestImagePixelValue": 0,
      "SoftwareVersions": "syngo MR E11",
      "SpacingBetweenSlices": 1.9999999686196,
      "SpecificCharacterSet": "ISO_IR 100",
      "StudyID": "1",
      "StudyTime": "130045.697000",
      "TransmitCoilName": "Body",
      "VariableFlipAngleFlag": "N",
      "WindowCenterWidthExplanation": "Algo1",
      "dBdt": 0.0},
    "slices": {}
  },
  "time": {
    "samples": {
      "AcquisitionNumber": [1, 2, 3, 4, 5, 6, 7, 8, 9, 10, 11, 12, 13, 14, 15, 16, 17, 18, 19, 20, 21, 22, 23, 24, 25, 26, 27, 28, 29, 30, 31, 32, 33, 34, 35, 36, 37, 38, 39, 40, 41, 42, 43, 44, 45, 46, 47, 48, 49, 50, 51, 52, 53, 54, 55, 56, 57, 58, 59, 60, 61, 62, 63, 64, 65, 66, 67, 68, 69, 70, 71, 72, 73, 74, 75, 76, 77, 78, 79, 80, 81, 82, 83, 84, 85, 86, 87, 88, 89, 90, 91, 92, 93, 94, 95, 96, 97, 98, 99, 100, 101, 102, 103, 104, 105, 106, 107, 108, 109, 110, 111, 112, 113, 114, 115, 116, 117, 118, 119, 120, 121, 122, 123, 124, 125, 126, 127, 128, 129, 130, 131, 132, 133, 134, 135, 136, 137, 138, 139, 140, 141, 142, 143, 144, 145, 146, 147, 148, 149, 150, 151, 152, 153, 154, 155, 156, 157, 158, 159, 160, 161, 162, 163, 164, 165, 166, 167, 168, 169, 170, 171, 172, 173, 174, 175, 176, 177, 178, 179, 180, 181, 182, 183, 184, 185, 186, 187, 188, 189, 190, 191, 192, 193, 194, 195, 196, 197, 198, 199, 200, 201, 202, 203, 204, 205, 206, 207, 208, 209, 210, 211, 212, 213, 214, 215, 216, 217, 218, 219, 220, 221, 222, 223, 224, 225, 226, 227, 228, 229, 230, 231, 232, 233, 234, 235, 236, 237, 238, 239, 240, 241],
      "AcquisitionTime": ["140607.362500", "140609.362500", "140611.362500", "140613.362500", "140615.362500", "140617.362500", "140619.362500", "140621.362500", "140623.362500", "140625.362500", "140627.362500", "140629.362500", "140631.362500", "140633.362500", "140635.362500", "140637.362500", "140639.362500", "140641.362500", "140643.362500", "140645.362500", "140647.362500", "140649.362500", "140651.362500", "140653.362500", "140655.362500", "140657.362500", "140659.362500", "140701.362500", "140703.362500", "140705.362500", "140707.362500", "140709.362500", "140711.362500", "140713.362500", "140715.362500", "140717.362500", "140719.362500", "140721.362500", "140723.362500", "140725.362500", "140727.362500", "140729.362500", "140731.362500", "140733.362500", "140735.362500", "140737.362500", "140739.362500", "140741.362500", "140743.362500", "140745.362500", "140747.362500", "140749.362500", "140751.362500", "140753.362500", "140755.362500", "140757.362500", "140759.362500", "140801.362500", "140803.362500", "140805.362500", "140807.362500", "140809.362500", "140811.362500", "140813.362500", "140815.362500", "140817.362500", "140819.362500", "140821.362500", "140823.362500", "140825.362500", "140827.362500", "140829.362500", "140831.362500", "140833.362500", "140835.362500", "140837.362500", "140839.362500", "140841.362500", "140843.362500", "140845.362500", "140847.362500", "140849.362500", "140851.362500", "140853.362500", "140855.362500", "140857.362500", "140859.362500", "140901.362500", "140903.362500", "140905.362500", "140907.362500", "140909.362500", "140911.362500", "140913.362500", "140915.362500", "140917.362500", "140919.362500", "140921.362500", "140923.362500", "140925.362500", "140927.362500", "140929.362500", "140931.362500", "140933.362500", "140935.362500", "140937.362500", "140939.362500", "140941.362500", "140943.362500", "140945.362500", "140947.362500", "140949.362500", "140951.362500", "140953.362500", "140955.362500", "140957.362500", "140959.362500", "141001.362500", "141003.362500", "141005.362500", "141007.362500", "141009.362500", "141011.362500", "141013.362500", "141015.362500", "141017.362500", "141019.362500", "141021.362500", "141023.362500", "141025.362500", "141027.362500", "141029.362500", "141031.362500", "141033.362500", "141035.362500", "141037.362500", "141039.362500", "141041.362500", "141043.362500", "141045.362500", "141047.362500", "141049.362500", "141051.362500", "141053.362500", "141055.362500", "141057.362500", "141059.362500", "141101.362500", "141103.362500", "141105.362500", "141107.362500", "141109.362500", "141111.362500", "141113.362500", "141115.362500", "141117.362500", "141119.362500", "141121.362500", "141123.362500", "141125.362500", "141127.362500", "141129.362500", "141131.362500", "141133.362500", "141135.362500", "141137.362500", "141139.362500", "141141.362500", "141143.362500", "141145.362500", "141147.362500", "141149.362500", "141151.362500", "141153.362500", "141155.362500", "141157.362500", "141159.362500", "141201.362500", "141203.362500", "141205.362500", "141207.362500", "141209.362500", "141211.362500", "141213.362500", "141215.362500", "141217.362500", "141219.362500", "141221.362500", "141223.362500", "141225.362500", "141227.362500", "141229.362500", "141231.362500", "141233.362500", "141235.362500", "141237.362500", "141239.362500", "141241.362500", "141243.362500", "141245.362500", "141247.362500", "141249.362500", "141251.362500", "141253.362500", "141255.362500", "141257.362500", "141259.362500", "141301.362500", "141303.362500", "141305.362500", "141307.362500", "141309.362500", "141311.362500", "141313.362500", "141315.362500", "141317.362500", "141319.362500", "141321.362500", "141323.362500", "141325.362500", "141327.362500", "141329.362500", "141331.362500", "141333.362500", "141335.362500", "141337.362500", "141339.362500", "141341.362500", "141343.362500", "141345.362500", "141347.362500", "141349.362500", "141351.362500", "141353.362500", "141355.362500", "141357.362500", "141359.362500", "141401.362500", "141403.362500", "141405.362500", "141407.362500"],
      "ContentTime": ["140610.041000", "140611.516000", "140613.518000", "140615.518000", "140617.517000", "140619.517000", "140621.518000", "140623.517000", "140625.517000", "140627.516000", "140629.516000", "140631.518000", "140633.518000", "140635.517000", "140637.518000", "140639.517000", "140641.517000", "140643.516000", "140645.516000", "140647.517000", "140649.518000", "140651.518000", "140653.518000", "140655.518000", "140657.518000", "140659.516000", "140701.516000", "140703.516000", "140705.518000", "140707.518000", "140709.517000", "140711.517000", "140713.518000", "140715.517000", "140717.516000", "140719.517000", "140721.516000", "140723.517000", "140725.517000", "140727.517000", "140729.518000", "140731.518000", "140733.517000", "140735.517000", "140737.516000", "140739.517000", "140741.517000", "140743.517000", "140745.517000", "140747.517000", "140749.517000", "140751.517000", "140753.516000", "140755.516000", "140757.517000", "140759.518000", "140801.518000", "140803.518000", "140805.517000", "140807.518000", "140809.516000", "140811.516000", "140813.517000", "140815.517000", "140817.518000", "140819.517000", "140821.518000", "140823.517000", "140825.517000", "140827.517000", "140829.516000", "140831.516000", "140833.517000", "140835.517000", "140837.518000", "140839.518000", "140841.518000", "140843.518000", "140845.517000", "140847.516000", "140849.516000", "140851.517000", "140853.518000", "140855.517000", "140857.518000", "140859.518000", "140901.517000", "140903.517000", "140905.517000", "140907.518000", "140909.517000", "140911.518000", "140913.518000", "140915.517000", "140917.518000", "140919.516000", "140921.516000", "140923.517000", "140925.517000", "140927.517000", "140929.518000", "140931.517000", "140933.518000", "140935.518000", "140937.516000", "140939.517000", "140941.517000", "140943.517000", "140945.517000", "140947.517000", "140949.518000", "140951.518000", "140953.517000", "140955.516000", "140957.516000", "140959.517000", "141001.517000", "141003.517000", "141005.517000", "141007.518000", "141009.517000", "141011.518000", "141013.516000", "141015.516000", "141017.517000", "141019.517000", "141021.518000", "141023.517000", "141025.517000", "141027.518000", "141029.517000", "141031.517000", "141033.516000", "141035.517000", "141037.517000", "141039.518000", "141041.518000", "141043.517000", "141045.518000", "141047.517000", "141049.516000", "141051.517000", "141053.518000", "141055.518000", "141057.517000", "141059.518000", "141101.517000", "141103.518000", "141105.516000", "141107.517000", "141109.517000", "141111.518000", "141113.517000", "141115.517000", "141117.518000", "141119.518000", "141121.518000", "141123.516000", "141125.517000", "141127.518000", "141129.518000", "141131.517000", "141133.518000", "141135.518000", "141137.518000", "141139.530000", "141141.517000", "141143.517000", "141145.518000", "141147.518000", "141149.518000", "141151.517000", "141153.518000", "141155.518000", "141157.516000", "141159.517000", "141201.516000", "141203.518000", "141205.517000", "141207.517000", "141209.518000", "141211.517000", "141213.517000", "141215.516000", "141217.517000", "141219.518000", "141221.517000", "141223.518000", "141225.518000", "141227.518000", "141229.517000", "141231.518000", "141233.516000", "141235.517000", "141237.518000", "141239.517000", "141241.518000", "141243.518000", "141245.518000", "141247.518000", "141249.516000", "141251.517000", "141253.516000", "141255.517000", "141257.517000", "141259.518000", "141301.518000", "141303.518000", "141305.517000", "141307.517000", "141309.517000", "141311.517000", "141313.517000", "141315.518000", "141317.518000", "141319.518000", "141321.517000", "141323.518000", "141325.517000", "141327.516000", "141329.518000", "141331.518000", "141333.517000", "141335.518000", "141337.517000", "141339.517000", "141341.516000", "141343.517000", "141345.517000", "141347.517000", "141349.518000", "141351.518000", "141353.518000", "141355.518000", "141357.517000", "141359.516000", "141401.517000", "141403.517000", "141405.517000", "141407.517000", "141409.510000"],
      "InstanceCreationTime": ["140610.041000", "140611.516000", "140613.518000", "140615.518000", "140617.517000", "140619.517000", "140621.518000", "140623.517000", "140625.517000", "140627.516000", "140629.516000", "140631.518000", "140633.518000", "140635.517000", "140637.518000", "140639.517000", "140641.517000", "140643.516000", "140645.516000", "140647.517000", "140649.518000", "140651.518000", "140653.518000", "140655.518000", "140657.518000", "140659.516000", "140701.516000", "140703.516000", "140705.518000", "140707.518000", "140709.517000", "140711.517000", "140713.518000", "140715.517000", "140717.516000", "140719.517000", "140721.516000", "140723.517000", "140725.517000", "140727.517000", "140729.518000", "140731.518000", "140733.517000", "140735.517000", "140737.516000", "140739.517000", "140741.517000", "140743.517000", "140745.517000", "140747.517000", "140749.517000", "140751.517000", "140753.516000", "140755.516000", "140757.517000", "140759.518000", "140801.518000", "140803.518000", "140805.517000", "140807.518000", "140809.516000", "140811.516000", "140813.517000", "140815.517000", "140817.518000", "140819.517000", "140821.518000", "140823.517000", "140825.517000", "140827.517000", "140829.516000", "140831.516000", "140833.517000", "140835.517000", "140837.518000", "140839.518000", "140841.518000", "140843.518000", "140845.517000", "140847.516000", "140849.516000", "140851.517000", "140853.518000", "140855.517000", "140857.518000", "140859.518000", "140901.517000", "140903.517000", "140905.517000", "140907.518000", "140909.517000", "140911.518000", "140913.518000", "140915.517000", "140917.518000", "140919.516000", "140921.516000", "140923.517000", "140925.517000", "140927.517000", "140929.518000", "140931.517000", "140933.518000", "140935.518000", "140937.516000", "140939.517000", "140941.517000", "140943.517000", "140945.517000", "140947.517000", "140949.518000", "140951.518000", "140953.517000", "140955.516000", "140957.516000", "140959.517000", "141001.517000", "141003.517000", "141005.517000", "141007.518000", "141009.517000", "141011.518000", "141013.516000", "141015.516000", "141017.517000", "141019.517000", "141021.518000", "141023.517000", "141025.517000", "141027.518000", "141029.517000", "141031.517000", "141033.516000", "141035.517000", "141037.517000", "141039.518000", "141041.518000", "141043.517000", "141045.518000", "141047.517000", "141049.516000", "141051.517000", "141053.518000", "141055.518000", "141057.517000", "141059.518000", "141101.517000", "141103.518000", "141105.516000", "141107.517000", "141109.517000", "141111.518000", "141113.517000", "141115.517000", "141117.518000", "141119.518000", "141121.518000", "141123.516000", "141125.517000", "141127.518000", "141129.518000", "141131.517000", "141133.518000", "141135.518000", "141137.518000", "141139.530000", "141141.517000", "141143.517000", "141145.518000", "141147.518000", "141149.518000", "141151.517000", "141153.518000", "141155.518000", "141157.516000", "141159.517000", "141201.516000", "141203.518000", "141205.517000", "141207.517000", "141209.518000", "141211.517000", "141213.517000", "141215.516000", "141217.517000", "141219.518000", "141221.517000", "141223.518000", "141225.518000", "141227.518000", "141229.517000", "141231.518000", "141233.516000", "141235.517000", "141237.518000", "141239.517000", "141241.518000", "141243.518000", "141245.518000", "141247.518000", "141249.516000", "141251.517000", "141253.516000", "141255.517000", "141257.517000", "141259.518000", "141301.518000", "141303.518000", "141305.517000", "141307.517000", "141309.517000", "141311.517000", "141313.517000", "141315.518000", "141317.518000", "141319.518000", "141321.517000", "141323.518000", "141325.517000", "141327.516000", "141329.518000", "141331.518000", "141333.517000", "141335.518000", "141337.517000", "141339.517000", "141341.516000", "141343.517000", "141345.517000", "141347.517000", "141349.518000", "141351.518000", "141353.518000", "141355.518000", "141357.517000", "141359.516000", "141401.517000", "141403.517000", "141405.517000", "141407.517000", "141409.510000"],
      "InstanceNumber": [1, 2, 3, 4, 5, 6, 7, 8, 9, 10, 11, 12, 13, 14, 15, 16, 17, 18, 19, 20, 21, 22, 23, 24, 25, 26, 27, 28, 29, 30, 31, 32, 33, 34, 35, 36, 37, 38, 39, 40, 41, 42, 43, 44, 45, 46, 47, 48, 49, 50, 51, 52, 53, 54, 55, 56, 57, 58, 59, 60, 61, 62, 63, 64, 65, 66, 67, 68, 69, 70, 71, 72, 73, 74, 75, 76, 77, 78, 79, 80, 81, 82, 83, 84, 85, 86, 87, 88, 89, 90, 91, 92, 93, 94, 95, 96, 97, 98, 99, 100, 101, 102, 103, 104, 105, 106, 107, 108, 109, 110, 111, 112, 113, 114, 115, 116, 117, 118, 119, 120, 121, 122, 123, 124, 125, 126, 127, 128, 129, 130, 131, 132, 133, 134, 135, 136, 137, 138, 139, 140, 141, 142, 143, 144, 145, 146, 147, 148, 149, 150, 151, 152, 153, 154, 155, 156, 157, 158, 159, 160, 161, 162, 163, 164, 165, 166, 167, 168, 169, 170, 171, 172, 173, 174, 175, 176, 177, 178, 179, 180, 181, 182, 183, 184, 185, 186, 187, 188, 189, 190, 191, 192, 193, 194, 195, 196, 197, 198, 199, 200, 201, 202, 203, 204, 205, 206, 207, 208, 209, 210, 211, 212, 213, 214, 215, 216, 217, 218, 219, 220, 221, 222, 223, 224, 225, 226, 227, 228, 229, 230, 231, 232, 233, 234, 235, 236, 237, 238, 239, 240, 241],
      "LargestImagePixelValue": [3738, 3661, 3669, 3667, 3679, 3689, 3687, 3673, 3655, 3648, 3652, 3699, 3686, 3688, 3679, 3681, 3686, 3649, 3625, 3635, 3669, 3654, 3669, 3689, 3665, 3663, 3646, 3664, 3690, 3677, 3662, 3685, 3667, 3678, 3686, 3684, 3692, 3657, 3665, 3647, 3691, 3712, 3707, 3690, 3705, 3668, 3680, 3680, 3688, 3670, 3687, 3719, 3686, 3682, 3698, 3683, 3678, 3689, 3670, 3684, 3682, 3667, 3661, 3697, 3665, 3662, 3680, 3669, 3662, 3685, 3679, 3683, 3699, 3698, 3678, 3664, 3715, 3679, 3683, 3673, 3695, 3684, 3697, 3696, 3670, 3690, 3673, 3662, 3685, 3670, 3662, 3666, 3651, 3650, 3690, 3658, 3677, 3663, 3662, 3675, 3692, 3649, 3649, 3666, 3667, 3679, 3665, 3676, 3683, 3717, 3649, 3706, 3658, 3685, 3671, 3685, 3657, 3665, 3665, 3672, 3697, 3722, 3678, 3675, 3667, 3705, 3683, 3667, 3659, 3652, 3654, 3656, 3681, 3673, 3677, 3668, 3672, 3654, 3654, 3656, 3665, 3654, 3688, 3668, 3653, 3691, 3655, 3639, 3644, 3619, 3673, 3645, 3668, 3658, 3635, 3655, 3664, 3645, 3684, 3651, 3638, 3664, 3658, 3661, 3677, 3651, 3631, 3627, 3671, 3665, 3667, 3687, 3673, 3653, 3669, 3672, 3668, 3650, 3627, 3649, 3653, 3674, 3651, 3657, 3679, 3669, 3666, 3689, 3696, 3671, 3680, 3688, 3680, 3652, 3697, 3676, 3673, 3664, 3630, 3661, 3653, 3682, 3699, 3670, 3675, 3665, 3662, 3642, 3672, 3665, 3664, 3687, 3653, 3668, 3651, 3677, 3642, 3652, 3661, 3656, 3635, 3715, 3669, 3682, 3658, 3672, 3701, 3671, 3677, 3667, 3687, 3684, 3689, 3650, 3679, 3670, 3668, 3670, 3673, 3690, 3681],
      "WindowCenter": [814.0, 812.0, 810.0, 809.0, 809.0, 808.0, 807.0, 806.0, 806.0, 806.0, 805.0, 805.0, 806.0, 808.0, 808.0, 809.0, 811.0, 810.0, 811.0, 809.0, 808.0, 809.0, 808.0, 808.0, 807.0, 808.0, 808.0, 808.0, 808.0, 808.0, 807.0, 807.0, 807.0, 807.0, 807.0, 806.0, 806.0, 805.0, 806.0, 807.0, 806.0, 807.0, 806.0, 806.0, 807.0, 806.0, 808.0, 808.0, 808.0, 806.0, 807.0, 807.0, 808.0, 806.0, 806.0, 805.0, 806.0, 806.0, 807.0, 807.0, 807.0, 807.0, 807.0, 808.0, 808.0, 807.0, 807.0, 807.0, 807.0, 808.0, 808.0, 807.0, 807.0, 807.0, 807.0, 807.0, 808.0, 808.0, 808.0, 807.0, 807.0, 807.0, 808.0, 808.0, 807.0, 808.0, 808.0, 808.0, 808.0, 809.0, 807.0, 808.0, 809.0, 811.0, 810.0, 809.0, 808.0, 807.0, 807.0, 807.0, 807.0, 808.0, 808.0, 808.0, 807.0, 808.0, 807.0, 807.0, 807.0, 807.0, 808.0, 808.0, 808.0, 808.0, 808.0, 808.0, 807.0, 807.0, 807.0, 807.0, 807.0, 808.0, 808.0, 807.0, 808.0, 807.0, 808.0, 807.0, 808.0, 807.0, 807.0, 807.0, 808.0, 808.0, 808.0, 808.0, 808.0, 807.0, 808.0, 809.0, 809.0, 808.0, 808.0, 807.0, 807.0, 808.0, 808.0, 808.0, 810.0, 809.0, 808.0, 806.0, 807.0, 806.0, 806.0, 806.0, 806.0, 806.0, 806.0, 806.0, 806.0, 807.0, 808.0, 808.0, 808.0, 808.0, 808.0, 807.0, 808.0, 808.0, 808.0, 808.0, 807.0, 807.0, 809.0, 811.0, 811.0, 809.0, 808.0, 808.0, 807.0, 808.0, 808.0, 808.0, 808.0, 807.0, 806.0, 806.0, 806.0, 806.0, 806.0, 807.0, 807.0, 807.0, 807.0, 807.0, 807.0, 807.0, 807.0, 807.0, 807.0, 807.0, 808.0, 808.0, 808.0, 808.0, 808.0, 808.0, 807.0, 808.0, 807.0, 807.0, 807.0, 807.0, 807.0, 808.0, 809.0, 809.0, 807.0, 806.0, 805.0, 806.0, 806.0, 805.0, 804.0, 804.0, 803.0, 802.0, 803.0, 804.0, 805.0, 806.0, 806.0, 806.0, 806.0, 807.0, 808.0, 807.0, 808.0, 809.0, 809.0],
      "WindowWidth": [1765.0, 1760.0, 1753.0, 1751.0, 1750.0, 1748.0, 1747.0, 1745.0, 1745.0, 1743.0, 1741.0, 1742.0, 1743.0, 1749.0, 1749.0, 1751.0, 1757.0, 1756.0, 1756.0, 1753.0, 1750.0, 1751.0, 1749.0, 1750.0, 1747.0, 1749.0, 1749.0, 1750.0, 1751.0, 1750.0, 1747.0, 1747.0, 1746.0, 1746.0, 1746.0, 1743.0, 1745.0, 1742.0, 1745.0, 1747.0, 1745.0, 1746.0, 1744.0, 1745.0, 1747.0, 1745.0, 1749.0, 1750.0, 1748.0, 1745.0, 1746.0, 1748.0, 1748.0, 1744.0, 1743.0, 1741.0, 1742.0, 1744.0, 1746.0, 1745.0, 1747.0, 1745.0, 1748.0, 1749.0, 1750.0, 1748.0, 1748.0, 1747.0, 1748.0, 1749.0, 1750.0, 1747.0, 1747.0, 1747.0, 1748.0, 1748.0, 1749.0, 1750.0, 1750.0, 1748.0, 1747.0, 1746.0, 1748.0, 1749.0, 1746.0, 1748.0, 1748.0, 1749.0, 1750.0, 1752.0, 1747.0, 1748.0, 1752.0, 1756.0, 1755.0, 1753.0, 1750.0, 1747.0, 1747.0, 1746.0, 1747.0, 1749.0, 1750.0, 1748.0, 1747.0, 1748.0, 1747.0, 1747.0, 1747.0, 1748.0, 1748.0, 1750.0, 1749.0, 1748.0, 1748.0, 1748.0, 1746.0, 1746.0, 1747.0, 1745.0, 1747.0, 1748.0, 1748.0, 1748.0, 1749.0, 1748.0, 1749.0, 1747.0, 1750.0, 1746.0, 1747.0, 1747.0, 1748.0, 1750.0, 1749.0, 1750.0, 1748.0, 1747.0, 1749.0, 1752.0, 1752.0, 1750.0, 1748.0, 1745.0, 1748.0, 1751.0, 1751.0, 1751.0, 1754.0, 1750.0, 1747.0, 1744.0, 1746.0, 1744.0, 1744.0, 1744.0, 1745.0, 1744.0, 1745.0, 1743.0, 1744.0, 1745.0, 1747.0, 1748.0, 1749.0, 1748.0, 1747.0, 1746.0, 1749.0, 1749.0, 1749.0, 1748.0, 1747.0, 1745.0, 1751.0, 1757.0, 1756.0, 1750.0, 1748.0, 1748.0, 1745.0, 1750.0, 1749.0, 1750.0, 1748.0, 1747.0, 1744.0, 1744.0, 1743.0, 1745.0, 1744.0, 1746.0, 1747.0, 1747.0, 1746.0, 1746.0, 1747.0, 1747.0, 1747.0, 1746.0, 1747.0, 1746.0, 1748.0, 1749.0, 1748.0, 1748.0, 1748.0, 1748.0, 1747.0, 1748.0, 1746.0, 1746.0, 1746.0, 1747.0, 1745.0, 1749.0, 1751.0, 1752.0, 1745.0, 1743.0, 1742.0, 1742.0, 1744.0, 1740.0, 1738.0, 1737.0, 1735.0, 1733.0, 1737.0, 1738.0, 1740.0, 1743.0, 1743.0, 1744.0, 1744.0, 1747.0, 1747.0, 1747.0, 1748.0, 1751.0, 1752.0]
    },
    "slices": {}
  }
}