{
  "AcquisitionMatrixPE": 100,
  "AcquisitionNumber": 1,
  "AcquisitionTime": "16:16:34.125000",
  "BandwidthPerPixelPhaseEncode": 18.519,
  "BaseResolution": 100,
  "BodyPartExamined": "BRAIN",
  "ConsistencyInfo": "N4_VE11C_LATEST_20160120",
  "ConversionSoftware": "dcm2niix",
  "ConversionSoftwareVersion": "v1.0.20180622 GCC4.9.2",
  "DerivedVendorReportedEchoSpacing": 0.000539986,
  "DeviceSerialNumber": "166078",
  "DwellTime": 2.1e-06,
  "EchoTime": 0.034,
  "EchoTrainLength": 100,
  "EffectiveEchoSpacing": 0.000539986,
  "FlipAngle": 90,
  "ImageOrientationPatientDICOM": [1, -2.20537e-05, -9.6027e-05, 5.89682e-08, 0.974761, -0.223251],
  "ImageType": [
    "ORIGINAL",
    "PRIMARY",
    "M",
    "ND",
    "MOSAIC"
],
  "InPlanePhaseEncodingDirectionDICOM": "COL",
  "InstitutionAddress": "Street_StreetNo_Bei_Jing_District_CN_ZIP",
  "InstitutionName": "BeiJing_Normal_University",
  "InstitutionalDepartmentName": "Department",
  "MRAcquisitionType": "2D",
  "MagneticFieldStrength": 3,
  "Manufacturer": "Siemens",
  "ManufacturersModelName": "Prisma",
  "Modality": "MR",
  "MultibandAccelerationFactor": 3,
  "PartialFourier": 1,
  "PatientPosition": "HFS",
  "PercentPhaseFOV": 100,
  "PhaseEncodingDirection": "j-",
  "PhaseEncodingSteps": 100,
  "PhaseResolution": 1,
  "PixelBandwidth": 2380,
  "ProcedureStepDescription": "BNU_P2018_64CH_Zhen.ZongLei",
  "ProtocolName": "bold_100x100_s3_2x2x2_static_256",
  "PulseSequenceDetails": "%SiemensSeq%_ep2d_bold",
  "ReceiveCoilActiveElements": "HC1-7;NC1",
  "ReceiveCoilName": "HeadNeck_64",
  "ReconMatrixPE": 100,
  "RepetitionTime": 2,
  "SAR": 0.0692818,
  "ScanOptions": "FS",
  "ScanningSequence": "EP",
  "SequenceName": "_epfid2d1_100",
  "SequenceVariant": "SK",
  "SeriesDescription": "bold_100x100_s3_2x2x2_static_256",
  "SeriesNumber": 12,
  "ShimSetting": [-5452, -11499, -1275, 438, -63, -222, -167, 16],
  "SliceThickness": 2,
  "SliceTiming": [1.485, 0, 0.99, 0.0825, 1.0725, 0.165, 1.155, 0.2475, 1.2375, 0.33, 1.32, 0.4125, 1.4025, 0.5775, 1.5675, 0.66, 1.65, 0.7425, 1.7325, 0.825, 1.815, 0.9075, 1.8975, 0.495, 1.485, 0, 0.99, 0.0825, 1.0725, 0.165, 1.155, 0.2475, 1.2375, 0.33, 1.32, 0.4125, 1.4025, 0.5775, 1.5675, 0.66, 1.65, 0.7425, 1.7325, 0.825, 1.815, 0.9075, 1.8975, 0.495, 1.485, 0, 0.99, 0.0825, 1.0725, 0.165, 1.155, 0.2475, 1.2375, 0.33, 1.32, 0.4125, 1.4025, 0.5775, 1.5675, 0.66, 1.65, 0.7425, 1.7325, 0.825, 1.815, 0.9075, 1.8975, 0.495],
  "SoftwareVersions": "syngo_MR_E11",
  "SpacingBetweenSlices": 2,
  "StationName": "AWP166078",
  "TaskName": "naturalvision",
  "TotalReadoutTime": 0.0534586,
  "TxRefAmp": 214.03,
  "dcmmeta_affine": [
    [-2.0, 1.1793635934509439e-07, -0.00019705374143086374, 98.65758514404297],
    [4.410741530591622e-05, 1.9495218992233276, -0.44650211930274963, -77.9476089477539],
    [-0.000192053965292871, 0.44650211930274963, 1.9495220184326172, -104.4168701171875],
    [0.0, 0.0, 0.0, 1.0]
],
  "dcmmeta_reorient_transform": [
    [0.0, -1.0, 0.0, 99.0],
    [1.0, 0.0, 0.0, 0.0],
    [0.0, 0.0, 1.0, 0.0],
    [0.0, 0.0, 0.0, 1.0]
],
  "dcmmeta_shape": [100, 100, 72, 256],
  "dcmmeta_slice_dim": 2,
  "dcmmeta_version": 0.6,
  "global": {
    "const": {
      "AcquisitionMatrix": [100, 0, 0, 100],
      "AngioFlag": "N",
      "BitsAllocated": 16,
      "BitsStored": 12,
      "BodyPartExamined": "BRAIN",
      "Columns": 900,
      "EchoNumbers": 1,
      "EchoTime": 34.0,
      "EchoTrainLength": 100,
      "FlipAngle": 90.0,
      "HighBit": 11,
      "ImageOrientationPatient": [0.99999999514623, -2.20537079e-05, -9.60269853e-05, 5.896818e-08, 0.97476097934362, -0.2232510540828],
      "ImagePositionPatient": [-898.65764350296, -894.8462060153, 118.46450613998],
      "ImageType": [
        "ORIGINAL",
        "PRIMARY",
        "M",
        "ND",
        "MOSAIC"
],
      "ImagedNucleus": "1H",
      "ImagingFrequency": 123.257799,
      "InPlanePhaseEncodingDirection": "COL",
      "MRAcquisitionType": "2D",
      "MagneticFieldStrength": 3.0,
      "Manufacturer": "SIEMENS",
      "ManufacturerModelName": "Prisma",
      "Modality": "MR",
      "NumberOfAverages": 1.0,
      "NumberOfPhaseEncodingSteps": 100,
      "PercentPhaseFieldOfView": 100.0,
      "PercentSampling": 100.0,
      "PerformedProcedureStepStartTime": "150249.728000",
      "PhotometricInterpretation": "MONOCHROME2",
      "PixelBandwidth": 2380.0,
      "PixelRepresentation": 0,
      "PixelSpacing": [2.0, 2.0],
      "ProtocolName": "bold_100x100_s3_2x2x2_static_256",
      "RepetitionTime": 2000.0,
      "Rows": 900,
      "SAR": 0.06928182660357,
      "SamplesPerPixel": 1,
      "ScanOptions": "FS",
      "ScanningSequence": "EP",
      "SequenceName": "*epfid2d1_100",
      "SequenceVariant": "SK",
      "SeriesDescription": "bold_100x100_s3_2x2x2_static_256",
      "SeriesNumber": 12,
      "SeriesTime": "161636.553000",
      "SliceLocation": -84.389322224424,
      "SliceThickness": 2.0,
      "SmallestImagePixelValue": 0,
      "SoftwareVersions": "syngo MR E11",
      "SpacingBetweenSlices": 2.0000000387146,
      "SpecificCharacterSet": "ISO_IR 100",
      "StudyID": "1",
      "StudyTime": "150249.679000",
      "TransmitCoilName": "Body",
      "VariableFlipAngleFlag": "N",
      "WindowCenterWidthExplanation": "Algo1",
      "dBdt": 0.0},
    "slices": {}
  },
  "time": {
    "samples": {
      "AcquisitionNumber": [1, 2, 3, 4, 5, 6, 7, 8, 9, 10, 11, 12, 13, 14, 15, 16, 17, 18, 19, 20, 21, 22, 23, 24, 25, 26, 27, 28, 29, 30, 31, 32, 33, 34, 35, 36, 37, 38, 39, 40, 41, 42, 43, 44, 45, 46, 47, 48, 49, 50, 51, 52, 53, 54, 55, 56, 57, 58, 59, 60, 61, 62, 63, 64, 65, 66, 67, 68, 69, 70, 71, 72, 73, 74, 75, 76, 77, 78, 79, 80, 81, 82, 83, 84, 85, 86, 87, 88, 89, 90, 91, 92, 93, 94, 95, 96, 97, 98, 99, 100, 101, 102, 103, 104, 105, 106, 107, 108, 109, 110, 111, 112, 113, 114, 115, 116, 117, 118, 119, 120, 121, 122, 123, 124, 125, 126, 127, 128, 129, 130, 131, 132, 133, 134, 135, 136, 137, 138, 139, 140, 141, 142, 143, 144, 145, 146, 147, 148, 149, 150, 151, 152, 153, 154, 155, 156, 157, 158, 159, 160, 161, 162, 163, 164, 165, 166, 167, 168, 169, 170, 171, 172, 173, 174, 175, 176, 177, 178, 179, 180, 181, 182, 183, 184, 185, 186, 187, 188, 189, 190, 191, 192, 193, 194, 195, 196, 197, 198, 199, 200, 201, 202, 203, 204, 205, 206, 207, 208, 209, 210, 211, 212, 213, 214, 215, 216, 217, 218, 219, 220, 221, 222, 223, 224, 225, 226, 227, 228, 229, 230, 231, 232, 233, 234, 235, 236, 237, 238, 239, 240, 241, 242, 243, 244, 245, 246, 247, 248, 249, 250, 251, 252, 253, 254, 255, 256],
      "AcquisitionTime": ["161634.125000", "161636.125000", "161638.125000", "161640.125000", "161642.125000", "161644.125000", "161646.125000", "161648.125000", "161650.125000", "161652.125000", "161654.125000", "161656.125000", "161658.125000", "161700.125000", "161702.125000", "161704.125000", "161706.125000", "161708.125000", "161710.125000", "161712.125000", "161714.125000", "161716.125000", "161718.125000", "161720.125000", "161722.125000", "161724.125000", "161726.125000", "161728.125000", "161730.125000", "161732.125000", "161734.125000", "161736.125000", "161738.125000", "161740.125000", "161742.125000", "161744.125000", "161746.125000", "161748.125000", "161750.125000", "161752.125000", "161754.125000", "161756.125000", "161758.125000", "161800.125000", "161802.125000", "161804.125000", "161806.125000", "161808.125000", "161810.125000", "161812.125000", "161814.125000", "161816.125000", "161818.125000", "161820.125000", "161822.125000", "161824.125000", "161826.125000", "161828.125000", "161830.125000", "161832.125000", "161834.125000", "161836.125000", "161838.125000", "161840.125000", "161842.125000", "161844.125000", "161846.125000", "161848.125000", "161850.125000", "161852.125000", "161854.125000", "161856.125000", "161858.125000", "161900.125000", "161902.125000", "161904.125000", "161906.125000", "161908.125000", "161910.125000", "161912.125000", "161914.125000", "161916.125000", "161918.125000", "161920.125000", "161922.125000", "161924.125000", "161926.125000", "161928.125000", "161930.125000", "161932.125000", "161934.125000", "161936.125000", "161938.125000", "161940.125000", "161942.125000", "161944.125000", "161946.125000", "161948.125000", "161950.125000", "161952.125000", "161954.125000", "161956.125000", "161958.125000", "162000.125000", "162002.125000", "162004.125000", "162006.125000", "162008.125000", "162010.125000", "162012.125000", "162014.125000", "162016.125000", "162018.125000", "162020.125000", "162022.125000", "162024.125000", "162026.125000", "162028.125000", "162030.125000", "162032.125000", "162034.125000", "162036.125000", "162038.125000", "162040.125000", "162042.125000", "162044.125000", "162046.125000", "162048.125000", "162050.125000", "162052.125000", "162054.125000", "162056.125000", "162058.125000", "162100.125000", "162102.125000", "162104.125000", "162106.125000", "162108.125000", "162110.125000", "162112.125000", "162114.125000", "162116.125000", "162118.125000", "162120.125000", "162122.125000", "162124.125000", "162126.125000", "162128.125000", "162130.125000", "162132.125000", "162134.125000", "162136.125000", "162138.125000", "162140.125000", "162142.125000", "162144.125000", "162146.125000", "162148.125000", "162150.125000", "162152.125000", "162154.125000", "162156.125000", "162158.125000", "162200.125000", "162202.125000", "162204.125000", "162206.125000", "162208.125000", "162210.125000", "162212.125000", "162214.125000", "162216.125000", "162218.125000", "162220.125000", "162222.125000", "162224.125000", "162226.125000", "162228.125000", "162230.125000", "162232.125000", "162234.125000", "162236.125000", "162238.125000", "162240.125000", "162242.125000", "162244.125000", "162246.125000", "162248.125000", "162250.125000", "162252.125000", "162254.125000", "162256.125000", "162258.125000", "162300.125000", "162302.125000", "162304.125000", "162306.125000", "162308.125000", "162310.125000", "162312.125000", "162314.125000", "162316.125000", "162318.125000", "162320.125000", "162322.125000", "162324.125000", "162326.125000", "162328.125000", "162330.125000", "162332.125000", "162334.125000", "162336.125000", "162338.125000", "162340.125000", "162342.125000", "162344.125000", "162346.125000", "162348.125000", "162350.125000", "162352.125000", "162354.125000", "162356.125000", "162358.125000", "162400.125000", "162402.125000", "162404.125000", "162406.125000", "162408.125000", "162410.125000", "162412.125000", "162414.125000", "162416.125000", "162418.125000", "162420.125000", "162422.125000", "162424.125000", "162426.125000", "162428.125000", "162430.125000", "162432.125000", "162434.125000", "162436.125000", "162438.125000", "162440.125000", "162442.125000", "162444.125000", "162446.125000", "162448.125000", "162450.125000", "162452.125000", "162454.125000", "162456.125000", "162458.125000", "162500.125000", "162502.125000", "162504.125000"],
      "ContentTime": ["161636.557000", "161638.054000", "161640.054000", "161642.054000", "161644.053000", "161646.053000", "161648.054000", "161650.053000", "161652.054000", "161654.053000", "161656.053000", "161658.053000", "161700.054000", "161702.054000", "161704.054000", "161706.054000", "161708.054000", "161710.053000", "161712.052000", "161714.053000", "161716.054000", "161718.053000", "161720.054000", "161722.054000", "161724.053000", "161726.054000", "161728.053000", "161730.053000", "161732.054000", "161734.054000", "161736.054000", "161738.053000", "161740.054000", "161742.054000", "161744.054000", "161746.053000", "161748.054000", "161750.054000", "161752.054000", "161754.054000", "161756.054000", "161758.053000", "161800.054000", "161802.054000", "161804.053000", "161806.053000", "161808.054000", "161810.053000", "161812.054000", "161814.053000", "161816.054000", "161818.054000", "161820.053000", "161822.052000", "161824.054000", "161826.054000", "161828.053000", "161830.054000", "161832.053000", "161834.053000", "161836.054000", "161838.053000", "161840.053000", "161842.053000", "161844.054000", "161846.054000", "161848.054000", "161850.053000", "161852.054000", "161854.054000", "161856.052000", "161858.053000", "161900.053000", "161902.054000", "161904.053000", "161906.054000", "161908.054000", "161910.054000", "161912.053000", "161914.052000", "161916.054000", "161918.054000", "161920.054000", "161922.054000", "161924.053000", "161926.054000", "161928.053000", "161930.053000", "161932.052000", "161934.053000", "161936.054000", "161938.054000", "161940.053000", "161942.054000", "161944.053000", "161946.054000", "161948.053000", "161950.053000", "161952.054000", "161954.053000", "161956.054000", "161958.053000", "162000.054000", "162002.054000", "162004.054000", "162006.052000", "162008.053000", "162010.054000", "162012.053000", "162014.054000", "162016.054000", "162018.053000", "162020.054000", "162022.054000", "162024.053000", "162026.054000", "162028.053000", "162030.054000", "162032.054000", "162034.054000", "162036.054000", "162038.053000", "162040.052000", "162042.052000", "162044.054000", "162046.053000", "162048.054000", "162050.054000", "162052.054000", "162054.054000", "162056.054000", "162058.053000", "162100.053000", "162102.053000", "162104.054000", "162106.053000", "162108.054000", "162110.054000", "162112.054000", "162114.054000", "162116.053000", "162118.054000", "162120.054000", "162122.061000", "162124.054000", "162126.053000", "162128.054000", "162130.053000", "162132.054000", "162134.053000", "162136.054000", "162138.054000", "162140.054000", "162142.054000", "162144.054000", "162146.054000", "162148.054000", "162150.052000", "162152.053000", "162154.053000", "162156.053000", "162158.054000", "162200.053000", "162202.053000", "162204.054000", "162206.054000", "162208.053000", "162210.053000", "162212.053000", "162214.054000", "162216.054000", "162218.053000", "162220.054000", "162222.053000", "162224.054000", "162226.053000", "162228.054000", "162230.054000", "162232.053000", "162234.054000", "162236.054000", "162238.053000", "162240.054000", "162242.054000", "162244.053000", "162246.054000", "162248.054000", "162250.054000", "162252.053000", "162254.054000", "162256.054000", "162258.055000", "162300.052000", "162302.053000", "162304.054000", "162306.054000", "162308.054000", "162310.054000", "162312.054000", "162314.054000", "162316.053000", "162318.053000", "162320.053000", "162322.054000", "162324.054000", "162326.054000", "162328.054000", "162330.053000", "162332.053000", "162334.054000", "162336.053000", "162338.054000", "162340.054000", "162342.054000", "162344.053000", "162346.054000", "162348.054000", "162350.054000", "162352.053000", "162354.053000", "162356.054000", "162358.054000", "162400.053000", "162402.054000", "162404.054000", "162406.054000", "162408.054000", "162410.053000", "162412.052000", "162414.054000", "162416.054000", "162418.054000", "162420.053000", "162422.054000", "162424.054000", "162426.054000", "162428.052000", "162430.053000", "162432.054000", "162434.054000", "162436.054000", "162438.054000", "162440.054000", "162442.053000", "162444.054000", "162446.052000", "162448.054000", "162450.054000", "162452.053000", "162454.054000", "162456.054000", "162458.054000", "162500.054000", "162502.053000", "162504.053000", "162505.704000"],
      "InstanceCreationTime": ["161636.557000", "161638.054000", "161640.054000", "161642.054000", "161644.053000", "161646.053000", "161648.054000", "161650.053000", "161652.054000", "161654.053000", "161656.053000", "161658.053000", "161700.054000", "161702.054000", "161704.054000", "161706.054000", "161708.054000", "161710.053000", "161712.052000", "161714.053000", "161716.054000", "161718.053000", "161720.054000", "161722.054000", "161724.053000", "161726.054000", "161728.053000", "161730.053000", "161732.054000", "161734.054000", "161736.054000", "161738.053000", "161740.054000", "161742.054000", "161744.054000", "161746.053000", "161748.054000", "161750.054000", "161752.054000", "161754.054000", "161756.054000", "161758.053000", "161800.054000", "161802.054000", "161804.053000", "161806.053000", "161808.054000", "161810.053000", "161812.054000", "161814.053000", "161816.054000", "161818.054000", "161820.053000", "161822.052000", "161824.054000", "161826.054000", "161828.053000", "161830.054000", "161832.053000", "161834.053000", "161836.054000", "161838.053000", "161840.053000", "161842.053000", "161844.054000", "161846.054000", "161848.054000", "161850.053000", "161852.054000", "161854.054000", "161856.052000", "161858.053000", "161900.053000", "161902.054000", "161904.053000", "161906.054000", "161908.054000", "161910.054000", "161912.053000", "161914.052000", "161916.054000", "161918.054000", "161920.054000", "161922.054000", "161924.053000", "161926.054000", "161928.053000", "161930.053000", "161932.052000", "161934.053000", "161936.054000", "161938.054000", "161940.053000", "161942.054000", "161944.053000", "161946.054000", "161948.053000", "161950.053000", "161952.054000", "161954.053000", "161956.054000", "161958.053000", "162000.054000", "162002.054000", "162004.054000", "162006.052000", "162008.053000", "162010.054000", "162012.053000", "162014.054000", "162016.054000", "162018.053000", "162020.054000", "162022.054000", "162024.053000", "162026.054000", "162028.053000", "162030.054000", "162032.054000", "162034.054000", "162036.054000", "162038.053000", "162040.052000", "162042.052000", "162044.054000", "162046.053000", "162048.054000", "162050.054000", "162052.054000", "162054.054000", "162056.054000", "162058.053000", "162100.053000", "162102.053000", "162104.054000", "162106.053000", "162108.054000", "162110.054000", "162112.054000", "162114.054000", "162116.053000", "162118.054000", "162120.054000", "162122.061000", "162124.054000", "162126.053000", "162128.054000", "162130.053000", "162132.054000", "162134.053000", "162136.054000", "162138.054000", "162140.054000", "162142.054000", "162144.054000", "162146.054000", "162148.054000", "162150.052000", "162152.053000", "162154.053000", "162156.053000", "162158.054000", "162200.053000", "162202.053000", "162204.054000", "162206.054000", "162208.053000", "162210.053000", "162212.053000", "162214.054000", "162216.054000", "162218.053000", "162220.054000", "162222.053000", "162224.054000", "162226.053000", "162228.054000", "162230.054000", "162232.053000", "162234.054000", "162236.054000", "162238.053000", "162240.054000", "162242.054000", "162244.053000", "162246.054000", "162248.054000", "162250.054000", "162252.053000", "162254.054000", "162256.054000", "162258.055000", "162300.052000", "162302.053000", "162304.054000", "162306.054000", "162308.054000", "162310.054000", "162312.054000", "162314.054000", "162316.053000", "162318.053000", "162320.053000", "162322.054000", "162324.054000", "162326.054000", "162328.054000", "162330.053000", "162332.053000", "162334.054000", "162336.053000", "162338.054000", "162340.054000", "162342.054000", "162344.053000", "162346.054000", "162348.054000", "162350.054000", "162352.053000", "162354.053000", "162356.054000", "162358.054000", "162400.053000", "162402.054000", "162404.054000", "162406.054000", "162408.054000", "162410.053000", "162412.052000", "162414.054000", "162416.054000", "162418.054000", "162420.053000", "162422.054000", "162424.054000", "162426.054000", "162428.052000", "162430.053000", "162432.054000", "162434.054000", "162436.054000", "162438.054000", "162440.054000", "162442.053000", "162444.054000", "162446.052000", "162448.054000", "162450.054000", "162452.053000", "162454.054000", "162456.054000", "162458.054000", "162500.054000", "162502.053000", "162504.053000", "162505.704000"],
      "InstanceNumber": [1, 2, 3, 4, 5, 6, 7, 8, 9, 10, 11, 12, 13, 14, 15, 16, 17, 18, 19, 20, 21, 22, 23, 24, 25, 26, 27, 28, 29, 30, 31, 32, 33, 34, 35, 36, 37, 38, 39, 40, 41, 42, 43, 44, 45, 46, 47, 48, 49, 50, 51, 52, 53, 54, 55, 56, 57, 58, 59, 60, 61, 62, 63, 64, 65, 66, 67, 68, 69, 70, 71, 72, 73, 74, 75, 76, 77, 78, 79, 80, 81, 82, 83, 84, 85, 86, 87, 88, 89, 90, 91, 92, 93, 94, 95, 96, 97, 98, 99, 100, 101, 102, 103, 104, 105, 106, 107, 108, 109, 110, 111, 112, 113, 114, 115, 116, 117, 118, 119, 120, 121, 122, 123, 124, 125, 126, 127, 128, 129, 130, 131, 132, 133, 134, 135, 136, 137, 138, 139, 140, 141, 142, 143, 144, 145, 146, 147, 148, 149, 150, 151, 152, 153, 154, 155, 156, 157, 158, 159, 160, 161, 162, 163, 164, 165, 166, 167, 168, 169, 170, 171, 172, 173, 174, 175, 176, 177, 178, 179, 180, 181, 182, 183, 184, 185, 186, 187, 188, 189, 190, 191, 192, 193, 194, 195, 196, 197, 198, 199, 200, 201, 202, 203, 204, 205, 206, 207, 208, 209, 210, 211, 212, 213, 214, 215, 216, 217, 218, 219, 220, 221, 222, 223, 224, 225, 226, 227, 228, 229, 230, 231, 232, 233, 234, 235, 236, 237, 238, 239, 240, 241, 242, 243, 244, 245, 246, 247, 248, 249, 250, 251, 252, 253, 254, 255, 256],
      "LargestImagePixelValue": [2722, 2711, 2697, 2717, 2693, 2739, 2715, 2721, 2704, 2728, 2706, 2705, 2735, 2717, 2708, 2713, 2739, 2733, 2719, 2727, 2735, 2738, 2728, 2771, 2741, 2707, 2729, 2768, 2755, 2726, 2729, 2763, 2747, 2725, 2759, 2747, 2742, 2714, 2717, 2726, 2726, 2737, 2714, 2724, 2743, 2742, 2764, 2763, 2739, 2743, 2742, 2733, 2752, 2700, 2702, 2693, 2708, 2749, 2762, 2747, 2752, 2728, 2752, 2763, 2744, 2794, 2767, 2756, 2719, 2716, 2700, 2738, 2724, 2741, 2762, 2757, 2767, 2763, 2750, 2763, 2724, 2840, 2734, 2746, 2757, 2736, 2762, 2767, 2735, 2702, 2710, 2743, 2727, 2744, 2752, 2720, 2762, 2762, 2739, 2737, 2729, 2768, 2791, 2738, 2735, 2786, 2734, 2732, 2763, 2759, 2726, 2729, 2766, 2756, 2754, 2762, 2719, 2718, 2737, 2742, 2754, 2756, 2730, 2769, 2767, 2775, 2753, 2762, 2743, 2765, 2739, 2697, 2699, 2687, 2712, 2716, 2732, 2741, 2705, 2713, 2710, 2706, 2726, 2751, 2717, 2677, 2697, 2717, 2704, 2700, 2690, 2715, 2716, 2679, 2699, 2710, 2700, 2729, 2719, 2665, 2649, 2658, 2674, 2673, 2625, 2649, 2623, 2653, 2661, 2620, 2624, 2680, 2674, 2608, 2648, 2652, 2668, 2631, 2643, 2724, 2668, 2646, 2649, 2663, 2655, 2669, 2639, 2631, 2656, 2654, 2651, 2672, 2659, 2674, 2711, 2664, 2686, 2670, 2664, 2715, 2697, 2642, 2728, 2716, 2695, 2692, 2693, 2744, 2692, 2707, 2707, 2701, 2670, 2747, 2719, 2756, 2736, 2718, 2729, 2734, 2700, 2707, 2713, 2715, 2707, 2744, 2712, 2713, 2700, 2687, 2702, 2663, 2712, 2716, 2700, 2706, 2673, 2707, 2686, 2694, 2694, 2699, 2674, 2691, 2692, 2636, 2692, 2668, 2659, 2657, 2752, 2706, 2819, 2653, 2697, 2664],
      "WindowCenter": [755.0, 754.0, 752.0, 751.0, 753.0, 753.0, 754.0, 754.0, 753.0, 752.0, 752.0, 753.0, 754.0, 753.0, 752.0, 752.0, 753.0, 753.0, 752.0, 751.0, 751.0, 752.0, 753.0, 753.0, 752.0, 752.0, 752.0, 752.0, 752.0, 751.0, 752.0, 752.0, 751.0, 751.0, 752.0, 752.0, 752.0, 753.0, 754.0, 753.0, 752.0, 751.0, 752.0, 752.0, 751.0, 752.0, 753.0, 754.0, 754.0, 754.0, 755.0, 753.0, 755.0, 754.0, 755.0, 756.0, 755.0, 755.0, 755.0, 755.0, 756.0, 755.0, 755.0, 756.0, 754.0, 754.0, 754.0, 754.0, 753.0, 754.0, 754.0, 753.0, 752.0, 752.0, 752.0, 751.0, 752.0, 752.0, 751.0, 752.0, 752.0, 753.0, 755.0, 755.0, 755.0, 754.0, 754.0, 754.0, 754.0, 754.0, 755.0, 754.0, 753.0, 752.0, 754.0, 754.0, 754.0, 754.0, 754.0, 753.0, 753.0, 753.0, 754.0, 752.0, 751.0, 752.0, 754.0, 754.0, 753.0, 752.0, 752.0, 753.0, 755.0, 756.0, 756.0, 754.0, 753.0, 754.0, 754.0, 754.0, 753.0, 753.0, 753.0, 754.0, 754.0, 754.0, 753.0, 753.0, 753.0, 753.0, 754.0, 755.0, 756.0, 755.0, 755.0, 754.0, 754.0, 754.0, 753.0, 753.0, 752.0, 753.0, 754.0, 755.0, 755.0, 755.0, 754.0, 755.0, 754.0, 753.0, 752.0, 752.0, 753.0, 754.0, 755.0, 754.0, 755.0, 754.0, 754.0, 753.0, 755.0, 756.0, 755.0, 752.0, 749.0, 749.0, 748.0, 747.0, 747.0, 745.0, 745.0, 746.0, 746.0, 745.0, 746.0, 746.0, 745.0, 745.0, 746.0, 747.0, 747.0, 747.0, 747.0, 747.0, 747.0, 747.0, 747.0, 746.0, 746.0, 745.0, 748.0, 750.0, 750.0, 748.0, 749.0, 748.0, 748.0, 748.0, 748.0, 747.0, 745.0, 745.0, 747.0, 747.0, 746.0, 745.0, 746.0, 746.0, 745.0, 745.0, 747.0, 747.0, 747.0, 748.0, 750.0, 753.0, 751.0, 750.0, 749.0, 749.0, 750.0, 752.0, 754.0, 753.0, 751.0, 752.0, 752.0, 753.0, 753.0, 752.0, 753.0, 752.0, 752.0, 753.0, 753.0, 753.0, 752.0, 751.0, 753.0, 753.0, 754.0, 753.0, 752.0, 752.0, 752.0, 752.0, 752.0, 750.0, 748.0, 749.0, 751.0, 750.0, 751.0, 750.0, 751.0, 752.0],
      "WindowWidth": [1625.0, 1621.0, 1616.0, 1615.0, 1619.0, 1620.0, 1622.0, 1621.0, 1619.0, 1616.0, 1617.0, 1618.0, 1622.0, 1620.0, 1618.0, 1615.0, 1619.0, 1618.0, 1616.0, 1613.0, 1612.0, 1615.0, 1619.0, 1620.0, 1618.0, 1616.0, 1617.0, 1618.0, 1616.0, 1614.0, 1616.0, 1616.0, 1614.0, 1613.0, 1616.0, 1617.0, 1618.0, 1619.0, 1621.0, 1619.0, 1615.0, 1614.0, 1617.0, 1616.0, 1615.0, 1615.0, 1619.0, 1622.0, 1621.0, 1622.0, 1623.0, 1620.0, 1623.0, 1622.0, 1623.0, 1626.0, 1623.0, 1624.0, 1625.0, 1626.0, 1627.0, 1623.0, 1624.0, 1625.0, 1623.0, 1621.0, 1621.0, 1620.0, 1620.0, 1621.0, 1621.0, 1618.0, 1616.0, 1615.0, 1616.0, 1615.0, 1617.0, 1615.0, 1615.0, 1615.0, 1617.0, 1619.0, 1623.0, 1625.0, 1624.0, 1621.0, 1621.0, 1621.0, 1622.0, 1622.0, 1623.0, 1622.0, 1618.0, 1617.0, 1621.0, 1620.0, 1622.0, 1621.0, 1621.0, 1619.0, 1618.0, 1620.0, 1621.0, 1616.0, 1614.0, 1616.0, 1621.0, 1622.0, 1620.0, 1617.0, 1617.0, 1619.0, 1625.0, 1628.0, 1626.0, 1622.0, 1619.0, 1620.0, 1621.0, 1620.0, 1619.0, 1618.0, 1618.0, 1621.0, 1622.0, 1622.0, 1619.0, 1619.0, 1617.0, 1617.0, 1622.0, 1624.0, 1626.0, 1625.0, 1624.0, 1621.0, 1620.0, 1620.0, 1619.0, 1618.0, 1617.0, 1617.0, 1620.0, 1624.0, 1625.0, 1625.0, 1622.0, 1623.0, 1622.0, 1619.0, 1617.0, 1617.0, 1620.0, 1620.0, 1623.0, 1623.0, 1623.0, 1622.0, 1622.0, 1619.0, 1626.0, 1628.0, 1625.0, 1616.0, 1608.0, 1608.0, 1607.0, 1604.0, 1603.0, 1599.0, 1600.0, 1601.0, 1603.0, 1600.0, 1603.0, 1601.0, 1599.0, 1600.0, 1602.0, 1605.0, 1605.0, 1603.0, 1603.0, 1604.0, 1604.0, 1603.0, 1604.0, 1602.0, 1601.0, 1600.0, 1608.0, 1613.0, 1611.0, 1608.0, 1608.0, 1606.0, 1607.0, 1606.0, 1606.0, 1604.0, 1600.0, 1599.0, 1604.0, 1605.0, 1603.0, 1600.0, 1602.0, 1602.0, 1599.0, 1598.0, 1603.0, 1605.0, 1603.0, 1605.0, 1611.0, 1619.0, 1615.0, 1611.0, 1609.0, 1610.0, 1613.0, 1617.0, 1621.0, 1619.0, 1614.0, 1615.0, 1617.0, 1619.0, 1618.0, 1616.0, 1618.0, 1617.0, 1618.0, 1620.0, 1619.0, 1620.0, 1616.0, 1614.0, 1620.0, 1620.0, 1622.0, 1620.0, 1618.0, 1618.0, 1617.0, 1618.0, 1616.0, 1612.0, 1606.0, 1608.0, 1613.0, 1612.0, 1613.0, 1611.0, 1614.0, 1615.0]
    },
    "slices": {}
  }
}