{
  "AcquisitionMatrixPE": 100,
  "AcquisitionNumber": 1,
  "AcquisitionTime": "15:57:50.410000",
  "BandwidthPerPixelPhaseEncode": 18.519,
  "BaseResolution": 100,
  "BodyPartExamined": "BRAIN",
  "ConsistencyInfo": "N4_VE11C_LATEST_20160120",
  "ConversionSoftware": "dcm2niix",
  "ConversionSoftwareVersion": "v1.0.20180622 GCC4.9.2",
  "DerivedVendorReportedEchoSpacing": 0.000539986,
  "DeviceSerialNumber": "166078",
  "DwellTime": 2.1e-06,
  "EchoTime": 0.034,
  "EchoTrainLength": 100,
  "EffectiveEchoSpacing": 0.000539986,
  "FlipAngle": 90,
  "ImageOrientationPatientDICOM": [1, -2.20537e-05, -9.6027e-05, 5.89682e-08, 0.974761, -0.223251],
  "ImageType": [
    "ORIGINAL",
    "PRIMARY",
    "M",
    "ND",
    "MOSAIC"
],
  "InPlanePhaseEncodingDirectionDICOM": "COL",
  "InstitutionAddress": "Street_StreetNo_Bei_Jing_District_CN_ZIP",
  "InstitutionName": "BeiJing_Normal_University",
  "InstitutionalDepartmentName": "Department",
  "MRAcquisitionType": "2D",
  "MagneticFieldStrength": 3,
  "Manufacturer": "Siemens",
  "ManufacturersModelName": "Prisma",
  "Modality": "MR",
  "MultibandAccelerationFactor": 3,
  "PartialFourier": 1,
  "PatientPosition": "HFS",
  "PercentPhaseFOV": 100,
  "PhaseEncodingDirection": "j-",
  "PhaseEncodingSteps": 100,
  "PhaseResolution": 1,
  "PixelBandwidth": 2380,
  "ProcedureStepDescription": "BNU_P2018_64CH_Zhen.ZongLei",
  "ProtocolName": "bold_100x100_s3_2x2x2_static_256",
  "PulseSequenceDetails": "%SiemensSeq%_ep2d_bold",
  "ReceiveCoilActiveElements": "HC1-7;NC1",
  "ReceiveCoilName": "HeadNeck_64",
  "ReconMatrixPE": 100,
  "RepetitionTime": 2,
  "SAR": 0.0692818,
  "ScanOptions": "FS",
  "ScanningSequence": "EP",
  "SequenceName": "_epfid2d1_100",
  "SequenceVariant": "SK",
  "SeriesDescription": "bold_100x100_s3_2x2x2_static_256",
  "SeriesNumber": 10,
  "ShimSetting": [-5452, -11499, -1275, 438, -63, -222, -167, 16],
  "SliceThickness": 2,
  "SliceTiming": [1.485, 0, 0.99, 0.0825, 1.0725, 0.165, 1.155, 0.2475, 1.2375, 0.33, 1.32, 0.4125, 1.4025, 0.5775, 1.5675, 0.66, 1.65, 0.7425, 1.7325, 0.825, 1.815, 0.9075, 1.8975, 0.495, 1.485, 0, 0.99, 0.0825, 1.0725, 0.165, 1.155, 0.2475, 1.2375, 0.33, 1.32, 0.4125, 1.4025, 0.5775, 1.5675, 0.66, 1.65, 0.7425, 1.7325, 0.825, 1.815, 0.9075, 1.8975, 0.495, 1.485, 0, 0.99, 0.0825, 1.0725, 0.165, 1.155, 0.2475, 1.2375, 0.33, 1.32, 0.4125, 1.4025, 0.5775, 1.5675, 0.66, 1.65, 0.7425, 1.7325, 0.825, 1.815, 0.9075, 1.8975, 0.495],
  "SoftwareVersions": "syngo_MR_E11",
  "SpacingBetweenSlices": 2,
  "StationName": "AWP166078",
  "TaskName": "naturalvision",
  "TotalReadoutTime": 0.0534586,
  "TxRefAmp": 214.03,
  "dcmmeta_affine": [
    [-2.0, 1.1793635934509439e-07, -0.00019705374143086374, 98.65758514404297],
    [4.410741530591622e-05, 1.9495218992233276, -0.44650211930274963, -77.9476089477539],
    [-0.000192053965292871, 0.44650211930274963, 1.9495220184326172, -104.4168701171875],
    [0.0, 0.0, 0.0, 1.0]
],
  "dcmmeta_reorient_transform": [
    [0.0, -1.0, 0.0, 99.0],
    [1.0, 0.0, 0.0, 0.0],
    [0.0, 0.0, 1.0, 0.0],
    [0.0, 0.0, 0.0, 1.0]
],
  "dcmmeta_shape": [100, 100, 72, 256],
  "dcmmeta_slice_dim": 2,
  "dcmmeta_version": 0.6,
  "global": {
    "const": {
      "AcquisitionMatrix": [100, 0, 0, 100],
      "AngioFlag": "N",
      "BitsAllocated": 16,
      "BitsStored": 12,
      "BodyPartExamined": "BRAIN",
      "Columns": 900,
      "EchoNumbers": 1,
      "EchoTime": 34.0,
      "EchoTrainLength": 100,
      "FlipAngle": 90.0,
      "HighBit": 11,
      "ImageOrientationPatient": [0.99999999514623, -2.20537079e-05, -9.60269853e-05, 5.896818e-08, 0.97476097934362, -0.2232510540828],
      "ImagePositionPatient": [-898.65764350296, -894.8462060153, 118.46450613998],
      "ImageType": [
        "ORIGINAL",
        "PRIMARY",
        "M",
        "ND",
        "MOSAIC"
],
      "ImagedNucleus": "1H",
      "ImagingFrequency": 123.257792,
      "InPlanePhaseEncodingDirection": "COL",
      "MRAcquisitionType": "2D",
      "MagneticFieldStrength": 3.0,
      "Manufacturer": "SIEMENS",
      "ManufacturerModelName": "Prisma",
      "Modality": "MR",
      "NumberOfAverages": 1.0,
      "NumberOfPhaseEncodingSteps": 100,
      "PercentPhaseFieldOfView": 100.0,
      "PercentSampling": 100.0,
      "PerformedProcedureStepStartTime": "150249.728000",
      "PhotometricInterpretation": "MONOCHROME2",
      "PixelBandwidth": 2380.0,
      "PixelRepresentation": 0,
      "PixelSpacing": [2.0, 2.0],
      "ProtocolName": "bold_100x100_s3_2x2x2_static_256",
      "RepetitionTime": 2000.0,
      "Rows": 900,
      "SAR": 0.06928182660357,
      "SamplesPerPixel": 1,
      "ScanOptions": "FS",
      "ScanningSequence": "EP",
      "SequenceName": "*epfid2d1_100",
      "SequenceVariant": "SK",
      "SeriesDescription": "bold_100x100_s3_2x2x2_static_256",
      "SeriesNumber": 10,
      "SeriesTime": "155752.686000",
      "SliceLocation": -84.389322224424,
      "SliceThickness": 2.0,
      "SmallestImagePixelValue": 0,
      "SoftwareVersions": "syngo MR E11",
      "SpacingBetweenSlices": 2.0000000387146,
      "SpecificCharacterSet": "ISO_IR 100",
      "StudyID": "1",
      "StudyTime": "150249.679000",
      "TransmitCoilName": "Body",
      "VariableFlipAngleFlag": "N",
      "WindowCenterWidthExplanation": "Algo1",
      "dBdt": 0.0},
    "slices": {}
  },
  "time": {
    "samples": {
      "AcquisitionNumber": [1, 2, 3, 4, 5, 6, 7, 8, 9, 10, 11, 12, 13, 14, 15, 16, 17, 18, 19, 20, 21, 22, 23, 24, 25, 26, 27, 28, 29, 30, 31, 32, 33, 34, 35, 36, 37, 38, 39, 40, 41, 42, 43, 44, 45, 46, 47, 48, 49, 50, 51, 52, 53, 54, 55, 56, 57, 58, 59, 60, 61, 62, 63, 64, 65, 66, 67, 68, 69, 70, 71, 72, 73, 74, 75, 76, 77, 78, 79, 80, 81, 82, 83, 84, 85, 86, 87, 88, 89, 90, 91, 92, 93, 94, 95, 96, 97, 98, 99, 100, 101, 102, 103, 104, 105, 106, 107, 108, 109, 110, 111, 112, 113, 114, 115, 116, 117, 118, 119, 120, 121, 122, 123, 124, 125, 126, 127, 128, 129, 130, 131, 132, 133, 134, 135, 136, 137, 138, 139, 140, 141, 142, 143, 144, 145, 146, 147, 148, 149, 150, 151, 152, 153, 154, 155, 156, 157, 158, 159, 160, 161, 162, 163, 164, 165, 166, 167, 168, 169, 170, 171, 172, 173, 174, 175, 176, 177, 178, 179, 180, 181, 182, 183, 184, 185, 186, 187, 188, 189, 190, 191, 192, 193, 194, 195, 196, 197, 198, 199, 200, 201, 202, 203, 204, 205, 206, 207, 208, 209, 210, 211, 212, 213, 214, 215, 216, 217, 218, 219, 220, 221, 222, 223, 224, 225, 226, 227, 228, 229, 230, 231, 232, 233, 234, 235, 236, 237, 238, 239, 240, 241, 242, 243, 244, 245, 246, 247, 248, 249, 250, 251, 252, 253, 254, 255, 256],
      "AcquisitionTime": ["155750.410000", "155752.410000", "155754.410000", "155756.410000", "155758.410000", "155800.410000", "155802.410000", "155804.410000", "155806.410000", "155808.410000", "155810.410000", "155812.410000", "155814.410000", "155816.410000", "155818.410000", "155820.410000", "155822.410000", "155824.410000", "155826.410000", "155828.410000", "155830.410000", "155832.410000", "155834.410000", "155836.410000", "155838.410000", "155840.410000", "155842.410000", "155844.410000", "155846.410000", "155848.410000", "155850.410000", "155852.410000", "155854.410000", "155856.410000", "155858.410000", "155900.410000", "155902.410000", "155904.410000", "155906.410000", "155908.410000", "155910.410000", "155912.410000", "155914.410000", "155916.410000", "155918.410000", "155920.410000", "155922.410000", "155924.410000", "155926.410000", "155928.410000", "155930.410000", "155932.410000", "155934.410000", "155936.410000", "155938.410000", "155940.410000", "155942.410000", "155944.410000", "155946.410000", "155948.410000", "155950.410000", "155952.410000", "155954.410000", "155956.410000", "155958.410000", "160000.410000", "160002.410000", "160004.410000", "160006.410000", "160008.410000", "160010.410000", "160012.410000", "160014.410000", "160016.410000", "160018.410000", "160020.410000", "160022.410000", "160024.410000", "160026.410000", "160028.410000", "160030.410000", "160032.410000", "160034.410000", "160036.410000", "160038.410000", "160040.410000", "160042.410000", "160044.410000", "160046.410000", "160048.410000", "160050.410000", "160052.410000", "160054.410000", "160056.410000", "160058.410000", "160100.410000", "160102.410000", "160104.410000", "160106.410000", "160108.410000", "160110.410000", "160112.410000", "160114.410000", "160116.410000", "160118.410000", "160120.410000", "160122.410000", "160124.410000", "160126.410000", "160128.410000", "160130.410000", "160132.410000", "160134.410000", "160136.410000", "160138.410000", "160140.410000", "160142.410000", "160144.410000", "160146.410000", "160148.410000", "160150.410000", "160152.410000", "160154.410000", "160156.410000", "160158.410000", "160200.410000", "160202.410000", "160204.410000", "160206.410000", "160208.410000", "160210.410000", "160212.410000", "160214.410000", "160216.410000", "160218.410000", "160220.410000", "160222.410000", "160224.410000", "160226.410000", "160228.410000", "160230.410000", "160232.410000", "160234.410000", "160236.410000", "160238.410000", "160240.410000", "160242.410000", "160244.410000", "160246.410000", "160248.410000", "160250.410000", "160252.410000", "160254.410000", "160256.410000", "160258.410000", "160300.410000", "160302.410000", "160304.410000", "160306.410000", "160308.410000", "160310.410000", "160312.410000", "160314.410000", "160316.410000", "160318.410000", "160320.410000", "160322.410000", "160324.410000", "160326.410000", "160328.410000", "160330.410000", "160332.410000", "160334.410000", "160336.410000", "160338.410000", "160340.410000", "160342.410000", "160344.410000", "160346.410000", "160348.410000", "160350.410000", "160352.410000", "160354.410000", "160356.410000", "160358.410000", "160400.410000", "160402.410000", "160404.410000", "160406.410000", "160408.410000", "160410.410000", "160412.410000", "160414.410000", "160416.410000", "160418.410000", "160420.410000", "160422.410000", "160424.410000", "160426.410000", "160428.410000", "160430.410000", "160432.410000", "160434.410000", "160436.410000", "160438.410000", "160440.410000", "160442.410000", "160444.410000", "160446.410000", "160448.410000", "160450.410000", "160452.410000", "160454.410000", "160456.410000", "160458.410000", "160500.410000", "160502.410000", "160504.410000", "160506.410000", "160508.410000", "160510.410000", "160512.410000", "160514.410000", "160516.410000", "160518.410000", "160520.410000", "160522.410000", "160524.410000", "160526.410000", "160528.410000", "160530.410000", "160532.410000", "160534.410000", "160536.410000", "160538.410000", "160540.410000", "160542.410000", "160544.410000", "160546.410000", "160548.410000", "160550.410000", "160552.410000", "160554.410000", "160556.410000", "160558.410000", "160600.410000", "160602.410000", "160604.410000", "160606.410000", "160608.410000", "160610.410000", "160612.410000", "160614.410000", "160616.410000", "160618.410000", "160620.410000"],
      "ContentTime": ["155752.690000", "155754.185000", "155756.185000", "155758.185000", "155800.185000", "155802.185000", "155804.185000", "155806.185000", "155808.185000", "155810.185000", "155812.186000", "155814.185000", "155816.186000", "155818.185000", "155820.185000", "155822.186000", "155824.186000", "155826.185000", "155828.185000", "155830.185000", "155832.185000", "155834.187000", "155836.185000", "155838.186000", "155840.186000", "155842.185000", "155844.185000", "155846.186000", "155848.685000", "155850.186000", "155852.186000", "155854.185000", "155856.186000", "155858.185000", "155900.185000", "155902.186000", "155904.185000", "155906.185000", "155908.186000", "155910.186000", "155912.185000", "155914.186000", "155916.185000", "155918.185000", "155920.186000", "155922.185000", "155924.186000", "155926.185000", "155928.185000", "155930.185000", "155932.185000", "155934.185000", "155936.186000", "155938.186000", "155940.185000", "155942.185000", "155944.187000", "155946.185000", "155948.185000", "155950.185000", "155952.185000", "155954.186000", "155956.186000", "155958.185000", "160000.185000", "160002.186000", "160004.185000", "160006.185000", "160008.185000", "160010.185000", "160012.185000", "160014.186000", "160016.185000", "160018.685000", "160020.185000", "160022.186000", "160024.185000", "160026.185000", "160028.185000", "160030.186000", "160032.185000", "160034.185000", "160036.185000", "160038.186000", "160040.186000", "160042.185000", "160044.186000", "160046.185000", "160048.185000", "160050.186000", "160052.186000", "160054.186000", "160056.185000", "160058.186000", "160100.186000", "160102.185000", "160104.686000", "160106.186000", "160108.185000", "160110.186000", "160112.185000", "160114.186000", "160116.185000", "160118.186000", "160120.185000", "160122.186000", "160124.186000", "160126.185000", "160128.186000", "160130.185000", "160132.185000", "160134.185000", "160136.186000", "160138.185000", "160140.186000", "160142.185000", "160144.186000", "160146.185000", "160148.185000", "160150.185000", "160152.185000", "160154.685000", "160156.185000", "160158.185000", "160200.186000", "160202.186000", "160204.187000", "160206.185000", "160208.186000", "160210.185000", "160212.185000", "160214.185000", "160216.186000", "160218.185000", "160220.185000", "160222.185000", "160224.185000", "160226.185000", "160228.186000", "160230.185000", "160232.185000", "160234.186000", "160236.186000", "160238.186000", "160240.186000", "160242.185000", "160244.186000", "160246.186000", "160248.186000", "160250.185000", "160252.185000", "160254.186000", "160256.185000", "160258.185000", "160300.185000", "160302.185000", "160304.185000", "160306.185000", "160308.186000", "160310.185000", "160312.186000", "160314.187000", "160316.185000", "160318.185000", "160320.185000", "160322.185000", "160324.186000", "160326.185000", "160328.186000", "160330.185000", "160332.185000", "160334.185000", "160336.185000", "160338.185000", "160340.185000", "160342.185000", "160344.185000", "160346.185000", "160348.185000", "160350.186000", "160352.185000", "160354.185000", "160356.185000", "160358.186000", "160400.186000", "160402.186000", "160404.185000", "160406.185000", "160408.185000", "160410.185000", "160412.186000", "160414.186000", "160416.186000", "160418.185000", "160420.185000", "160422.185000", "160424.187000", "160426.185000", "160428.185000", "160430.186000", "160432.185000", "160434.185000", "160436.185000", "160438.185000", "160440.186000", "160442.185000", "160444.186000", "160446.186000", "160448.185000", "160450.185000", "160452.185000", "160454.185000", "160456.186000", "160458.185000", "160500.186000", "160502.186000", "160504.185000", "160506.185000", "160508.185000", "160510.185000", "160512.186000", "160514.186000", "160516.686000", "160518.186000", "160520.186000", "160522.186000", "160524.186000", "160526.186000", "160528.186000", "160530.185000", "160532.186000", "160534.187000", "160536.185000", "160538.185000", "160540.186000", "160542.185000", "160544.185000", "160546.185000", "160548.186000", "160550.185000", "160552.186000", "160554.185000", "160556.185000", "160558.186000", "160600.186000", "160602.186000", "160604.186000", "160606.186000", "160608.185000", "160610.185000", "160612.185000", "160614.186000", "160616.185000", "160618.185000", "160620.185000", "160622.005000"],
      "InstanceCreationTime": ["155752.690000", "155754.185000", "155756.185000", "155758.185000", "155800.185000", "155802.185000", "155804.185000", "155806.185000", "155808.185000", "155810.185000", "155812.186000", "155814.185000", "155816.186000", "155818.185000", "155820.185000", "155822.186000", "155824.186000", "155826.185000", "155828.185000", "155830.185000", "155832.185000", "155834.187000", "155836.185000", "155838.186000", "155840.186000", "155842.185000", "155844.185000", "155846.186000", "155848.685000", "155850.186000", "155852.186000", "155854.185000", "155856.186000", "155858.185000", "155900.185000", "155902.186000", "155904.185000", "155906.185000", "155908.186000", "155910.186000", "155912.185000", "155914.186000", "155916.185000", "155918.185000", "155920.186000", "155922.185000", "155924.186000", "155926.185000", "155928.185000", "155930.185000", "155932.185000", "155934.185000", "155936.186000", "155938.186000", "155940.185000", "155942.185000", "155944.187000", "155946.185000", "155948.185000", "155950.185000", "155952.185000", "155954.186000", "155956.186000", "155958.185000", "160000.185000", "160002.186000", "160004.185000", "160006.185000", "160008.185000", "160010.185000", "160012.185000", "160014.186000", "160016.185000", "160018.685000", "160020.185000", "160022.186000", "160024.185000", "160026.185000", "160028.185000", "160030.186000", "160032.185000", "160034.185000", "160036.185000", "160038.186000", "160040.186000", "160042.185000", "160044.186000", "160046.185000", "160048.185000", "160050.186000", "160052.186000", "160054.186000", "160056.185000", "160058.186000", "160100.186000", "160102.185000", "160104.686000", "160106.186000", "160108.185000", "160110.186000", "160112.185000", "160114.186000", "160116.185000", "160118.186000", "160120.185000", "160122.186000", "160124.186000", "160126.185000", "160128.186000", "160130.185000", "160132.185000", "160134.185000", "160136.186000", "160138.185000", "160140.186000", "160142.185000", "160144.186000", "160146.185000", "160148.185000", "160150.185000", "160152.185000", "160154.685000", "160156.185000", "160158.185000", "160200.186000", "160202.186000", "160204.187000", "160206.185000", "160208.186000", "160210.185000", "160212.185000", "160214.185000", "160216.186000", "160218.185000", "160220.185000", "160222.185000", "160224.185000", "160226.185000", "160228.186000", "160230.185000", "160232.185000", "160234.186000", "160236.186000", "160238.186000", "160240.186000", "160242.185000", "160244.186000", "160246.186000", "160248.186000", "160250.185000", "160252.185000", "160254.186000", "160256.185000", "160258.185000", "160300.185000", "160302.185000", "160304.185000", "160306.185000", "160308.186000", "160310.185000", "160312.186000", "160314.187000", "160316.185000", "160318.185000", "160320.185000", "160322.185000", "160324.186000", "160326.185000", "160328.186000", "160330.185000", "160332.185000", "160334.185000", "160336.185000", "160338.185000", "160340.185000", "160342.185000", "160344.185000", "160346.185000", "160348.185000", "160350.186000", "160352.185000", "160354.185000", "160356.185000", "160358.186000", "160400.186000", "160402.186000", "160404.185000", "160406.185000", "160408.185000", "160410.185000", "160412.186000", "160414.186000", "160416.186000", "160418.185000", "160420.185000", "160422.185000", "160424.187000", "160426.185000", "160428.185000", "160430.186000", "160432.185000", "160434.185000", "160436.185000", "160438.185000", "160440.186000", "160442.185000", "160444.186000", "160446.186000", "160448.185000", "160450.185000", "160452.185000", "160454.185000", "160456.186000", "160458.185000", "160500.186000", "160502.186000", "160504.185000", "160506.185000", "160508.185000", "160510.185000", "160512.186000", "160514.186000", "160516.686000", "160518.186000", "160520.186000", "160522.186000", "160524.186000", "160526.186000", "160528.186000", "160530.185000", "160532.186000", "160534.187000", "160536.185000", "160538.185000", "160540.186000", "160542.185000", "160544.185000", "160546.185000", "160548.186000", "160550.185000", "160552.186000", "160554.185000", "160556.185000", "160558.186000", "160600.186000", "160602.186000", "160604.186000", "160606.186000", "160608.185000", "160610.185000", "160612.185000", "160614.186000", "160616.185000", "160618.185000", "160620.185000", "160622.005000"],
      "InstanceNumber": [1, 2, 3, 4, 5, 6, 7, 8, 9, 10, 11, 12, 13, 14, 15, 16, 17, 18, 19, 20, 21, 22, 23, 24, 25, 26, 27, 28, 29, 30, 31, 32, 33, 34, 35, 36, 37, 38, 39, 40, 41, 42, 43, 44, 45, 46, 47, 48, 49, 50, 51, 52, 53, 54, 55, 56, 57, 58, 59, 60, 61, 62, 63, 64, 65, 66, 67, 68, 69, 70, 71, 72, 73, 74, 75, 76, 77, 78, 79, 80, 81, 82, 83, 84, 85, 86, 87, 88, 89, 90, 91, 92, 93, 94, 95, 96, 97, 98, 99, 100, 101, 102, 103, 104, 105, 106, 107, 108, 109, 110, 111, 112, 113, 114, 115, 116, 117, 118, 119, 120, 121, 122, 123, 124, 125, 126, 127, 128, 129, 130, 131, 132, 133, 134, 135, 136, 137, 138, 139, 140, 141, 142, 143, 144, 145, 146, 147, 148, 149, 150, 151, 152, 153, 154, 155, 156, 157, 158, 159, 160, 161, 162, 163, 164, 165, 166, 167, 168, 169, 170, 171, 172, 173, 174, 175, 176, 177, 178, 179, 180, 181, 182, 183, 184, 185, 186, 187, 188, 189, 190, 191, 192, 193, 194, 195, 196, 197, 198, 199, 200, 201, 202, 203, 204, 205, 206, 207, 208, 209, 210, 211, 212, 213, 214, 215, 216, 217, 218, 219, 220, 221, 222, 223, 224, 225, 226, 227, 228, 229, 230, 231, 232, 233, 234, 235, 236, 237, 238, 239, 240, 241, 242, 243, 244, 245, 246, 247, 248, 249, 250, 251, 252, 253, 254, 255, 256],
      "LargestImagePixelValue": [2751, 2625, 2643, 2676, 2652, 2653, 2648, 2620, 2646, 2663, 2663, 2664, 2674, 2661, 2682, 2665, 2651, 2638, 2646, 2646, 2634, 2631, 2672, 2689, 2677, 2653, 2653, 2659, 2643, 2632, 2690, 2652, 2608, 2636, 2665, 2654, 2633, 2653, 2655, 2663, 2680, 2668, 2686, 2656, 2684, 2657, 2666, 2690, 2673, 3043, 2663, 2678, 2676, 2635, 2674, 2685, 2690, 2699, 2683, 2660, 2651, 2678, 2682, 2676, 2690, 2675, 2673, 2724, 2667, 2653, 2652, 2686, 2675, 2671, 2660, 2645, 2680, 2669, 2682, 2660, 2656, 2696, 2677, 2665, 2692, 2691, 2685, 2657, 2671, 2676, 2652, 2663, 2667, 2652, 2666, 2671, 2683, 2667, 2662, 2688, 2711, 2667, 2692, 2702, 2708, 2657, 2645, 2686, 2685, 2703, 2675, 2664, 2720, 2693, 2685, 2673, 2659, 2661, 2667, 2712, 2674, 2707, 2670, 2867, 2698, 2672, 2689, 2694, 2643, 2667, 2712, 2707, 2720, 2692, 2704, 2726, 2705, 2715, 2702, 2683, 2686, 2698, 2691, 2706, 2703, 2703, 2713, 2700, 2737, 2701, 2723, 2692, 2678, 2704, 2695, 2691, 2699, 2753, 2724, 2703, 2738, 2682, 2691, 2704, 2676, 2675, 2667, 2710, 2687, 2714, 2722, 2692, 2703, 2679, 2690, 2700, 2716, 2716, 2711, 2696, 2692, 2727, 2713, 2704, 2704, 2666, 2657, 2686, 2678, 2692, 2667, 2697, 2697, 2685, 2688, 2667, 2664, 2667, 2686, 2713, 2699, 2692, 2737, 2746, 2716, 2692, 2676, 2720, 2712, 2668, 2673, 2912, 2664, 2646, 2664, 2680, 2674, 2654, 2672, 2678, 2687, 2656, 2698, 2700, 2681, 2679, 2675, 2657, 2661, 2688, 2710, 2675, 2673, 2685, 2690, 2678, 2687, 2709, 2688, 2686, 2702, 2858, 2680, 2699, 2682, 2664, 2656, 2703, 2695, 2671, 2645, 2719, 2703, 2727, 2686, 2784],
      "WindowCenter": [755.0, 749.0, 750.0, 752.0, 750.0, 750.0, 749.0, 749.0, 749.0, 750.0, 751.0, 752.0, 753.0, 752.0, 751.0, 749.0, 749.0, 749.0, 750.0, 750.0, 751.0, 750.0, 752.0, 752.0, 752.0, 751.0, 751.0, 750.0, 749.0, 749.0, 751.0, 752.0, 751.0, 751.0, 752.0, 752.0, 753.0, 754.0, 754.0, 754.0, 754.0, 754.0, 754.0, 754.0, 755.0, 754.0, 755.0, 756.0, 756.0, 758.0, 754.0, 754.0, 754.0, 754.0, 754.0, 755.0, 756.0, 755.0, 754.0, 754.0, 753.0, 753.0, 753.0, 753.0, 754.0, 755.0, 755.0, 756.0, 755.0, 755.0, 753.0, 755.0, 755.0, 754.0, 753.0, 752.0, 753.0, 753.0, 753.0, 753.0, 753.0, 754.0, 755.0, 755.0, 755.0, 754.0, 754.0, 753.0, 754.0, 754.0, 754.0, 753.0, 753.0, 754.0, 755.0, 756.0, 755.0, 753.0, 753.0, 753.0, 752.0, 753.0, 754.0, 754.0, 753.0, 751.0, 751.0, 751.0, 753.0, 754.0, 753.0, 753.0, 756.0, 756.0, 754.0, 753.0, 752.0, 752.0, 753.0, 754.0, 755.0, 754.0, 755.0, 757.0, 755.0, 755.0, 756.0, 756.0, 754.0, 754.0, 755.0, 754.0, 755.0, 755.0, 756.0, 756.0, 756.0, 755.0, 756.0, 755.0, 754.0, 754.0, 754.0, 754.0, 754.0, 754.0, 755.0, 754.0, 755.0, 755.0, 756.0, 756.0, 754.0, 754.0, 754.0, 755.0, 755.0, 755.0, 755.0, 756.0, 756.0, 755.0, 755.0, 754.0, 753.0, 753.0, 754.0, 755.0, 754.0, 755.0, 755.0, 754.0, 755.0, 755.0, 755.0, 755.0, 755.0, 754.0, 755.0, 754.0, 755.0, 756.0, 756.0, 755.0, 755.0, 753.0, 753.0, 754.0, 754.0, 754.0, 754.0, 755.0, 755.0, 755.0, 754.0, 754.0, 753.0, 753.0, 753.0, 754.0, 754.0, 754.0, 756.0, 755.0, 755.0, 755.0, 755.0, 755.0, 755.0, 753.0, 754.0, 756.0, 754.0, 753.0, 752.0, 752.0, 752.0, 753.0, 754.0, 754.0, 754.0, 752.0, 751.0, 750.0, 749.0, 750.0, 751.0, 752.0, 753.0, 753.0, 755.0, 753.0, 753.0, 754.0, 755.0, 754.0, 753.0, 753.0, 754.0, 753.0, 754.0, 756.0, 754.0, 754.0, 755.0, 756.0, 755.0, 754.0, 752.0, 752.0, 752.0, 754.0, 754.0, 755.0, 754.0, 755.0],
      "WindowWidth": [1626.0, 1610.0, 1612.0, 1616.0, 1613.0, 1612.0, 1610.0, 1610.0, 1610.0, 1611.0, 1616.0, 1619.0, 1620.0, 1617.0, 1616.0, 1611.0, 1611.0, 1610.0, 1611.0, 1612.0, 1613.0, 1613.0, 1616.0, 1618.0, 1619.0, 1615.0, 1614.0, 1611.0, 1611.0, 1610.0, 1614.0, 1616.0, 1614.0, 1614.0, 1617.0, 1618.0, 1620.0, 1623.0, 1622.0, 1622.0, 1622.0, 1622.0, 1621.0, 1622.0, 1623.0, 1622.0, 1624.0, 1628.0, 1628.0, 1633.0, 1623.0, 1621.0, 1623.0, 1622.0, 1623.0, 1625.0, 1626.0, 1624.0, 1623.0, 1622.0, 1621.0, 1620.0, 1621.0, 1621.0, 1624.0, 1625.0, 1626.0, 1628.0, 1624.0, 1624.0, 1620.0, 1624.0, 1624.0, 1621.0, 1620.0, 1617.0, 1620.0, 1620.0, 1620.0, 1620.0, 1620.0, 1622.0, 1624.0, 1625.0, 1625.0, 1623.0, 1622.0, 1621.0, 1622.0, 1623.0, 1621.0, 1620.0, 1618.0, 1622.0, 1626.0, 1628.0, 1626.0, 1621.0, 1621.0, 1621.0, 1618.0, 1619.0, 1623.0, 1623.0, 1618.0, 1614.0, 1614.0, 1616.0, 1619.0, 1621.0, 1620.0, 1621.0, 1626.0, 1626.0, 1622.0, 1619.0, 1618.0, 1617.0, 1618.0, 1621.0, 1624.0, 1622.0, 1625.0, 1630.0, 1626.0, 1624.0, 1627.0, 1627.0, 1621.0, 1621.0, 1624.0, 1623.0, 1624.0, 1625.0, 1628.0, 1627.0, 1627.0, 1626.0, 1626.0, 1625.0, 1622.0, 1621.0, 1623.0, 1623.0, 1623.0, 1622.0, 1624.0, 1621.0, 1624.0, 1624.0, 1627.0, 1626.0, 1623.0, 1622.0, 1623.0, 1624.0, 1624.0, 1624.0, 1626.0, 1627.0, 1628.0, 1625.0, 1624.0, 1621.0, 1618.0, 1620.0, 1622.0, 1625.0, 1623.0, 1625.0, 1623.0, 1623.0, 1623.0, 1624.0, 1625.0, 1625.0, 1623.0, 1622.0, 1623.0, 1623.0, 1626.0, 1627.0, 1628.0, 1626.0, 1624.0, 1620.0, 1620.0, 1622.0, 1622.0, 1621.0, 1623.0, 1624.0, 1625.0, 1624.0, 1623.0, 1621.0, 1620.0, 1619.0, 1620.0, 1620.0, 1620.0, 1622.0, 1627.0, 1625.0, 1625.0, 1624.0, 1625.0, 1624.0, 1624.0, 1619.0, 1622.0, 1626.0, 1621.0, 1619.0, 1618.0, 1616.0, 1617.0, 1618.0, 1622.0, 1622.0, 1621.0, 1616.0, 1614.0, 1612.0, 1609.0, 1610.0, 1615.0, 1617.0, 1619.0, 1621.0, 1624.0, 1620.0, 1621.0, 1621.0, 1624.0, 1622.0, 1619.0, 1620.0, 1621.0, 1620.0, 1623.0, 1626.0, 1622.0, 1622.0, 1625.0, 1626.0, 1625.0, 1620.0, 1617.0, 1616.0, 1616.0, 1621.0, 1622.0, 1624.0, 1622.0, 1624.0]
    },
    "slices": {}
  }
}