{
  "AcquisitionMatrixPE": 100,
  "AcquisitionNumber": 1,
  "AcquisitionTime": "15:16:19.532500",
  "BandwidthPerPixelPhaseEncode": 18.519,
  "BaseResolution": 100,
  "BodyPartExamined": "BRAIN",
  "ConsistencyInfo": "N4_VE11C_LATEST_20160120",
  "ConversionSoftware": "dcm2niix",
  "ConversionSoftwareVersion": "v1.0.20180622 GCC4.9.2",
  "DerivedVendorReportedEchoSpacing": 0.000539986,
  "DeviceSerialNumber": "166078",
  "DwellTime": 2.1e-06,
  "EchoTime": 0.034,
  "EchoTrainLength": 100,
  "EffectiveEchoSpacing": 0.000539986,
  "FlipAngle": 90,
  "ImageOrientationPatientDICOM": [1, -2.20537e-05, -9.6027e-05, 5.89682e-08, 0.974761, -0.223251],
  "ImageType": [
    "ORIGINAL",
    "PRIMARY",
    "M",
    "ND",
    "MOSAIC"
],
  "InPlanePhaseEncodingDirectionDICOM": "COL",
  "InstitutionAddress": "Street_StreetNo_Bei_Jing_District_CN_ZIP",
  "InstitutionName": "BeiJing_Normal_University",
  "InstitutionalDepartmentName": "Department",
  "MRAcquisitionType": "2D",
  "MagneticFieldStrength": 3,
  "Manufacturer": "Siemens",
  "ManufacturersModelName": "Prisma",
  "Modality": "MR",
  "MultibandAccelerationFactor": 3,
  "PartialFourier": 1,
  "PatientPosition": "HFS",
  "PercentPhaseFOV": 100,
  "PhaseEncodingDirection": "j-",
  "PhaseEncodingSteps": 100,
  "PhaseResolution": 1,
  "PixelBandwidth": 2380,
  "ProcedureStepDescription": "BNU_P2018_64CH_Zhen.ZongLei",
  "ProtocolName": "bold_100x100_s3_2x2x2_static_256",
  "PulseSequenceDetails": "%SiemensSeq%_ep2d_bold",
  "ReceiveCoilActiveElements": "HC1-7;NC1",
  "ReceiveCoilName": "HeadNeck_64",
  "ReconMatrixPE": 100,
  "RepetitionTime": 2,
  "SAR": 0.0692818,
  "ScanOptions": "FS",
  "ScanningSequence": "EP",
  "SequenceName": "_epfid2d1_100",
  "SequenceVariant": "SK",
  "SeriesDescription": "bold_100x100_s3_2x2x2_static_256",
  "SeriesNumber": 4,
  "ShimSetting": [-5452, -11499, -1275, 438, -63, -222, -167, 16],
  "SliceThickness": 2,
  "SliceTiming": [1.485, 0, 0.99, 0.0825, 1.0725, 0.165, 1.155, 0.2475, 1.2375, 0.33, 1.32, 0.4125, 1.4025, 0.5775, 1.5675, 0.66, 1.65, 0.7425, 1.7325, 0.825, 1.815, 0.9075, 1.8975, 0.495, 1.485, 0, 0.99, 0.0825, 1.0725, 0.165, 1.155, 0.2475, 1.2375, 0.33, 1.32, 0.4125, 1.4025, 0.5775, 1.5675, 0.66, 1.65, 0.7425, 1.7325, 0.825, 1.815, 0.9075, 1.8975, 0.495, 1.485, 0, 0.99, 0.0825, 1.0725, 0.165, 1.155, 0.2475, 1.2375, 0.33, 1.32, 0.4125, 1.4025, 0.5775, 1.5675, 0.66, 1.65, 0.7425, 1.7325, 0.825, 1.815, 0.9075, 1.8975, 0.495],
  "SoftwareVersions": "syngo_MR_E11",
  "SpacingBetweenSlices": 2,
  "StationName": "AWP166078",
  "TaskName": "naturalvision",
  "TotalReadoutTime": 0.0534586,
  "TxRefAmp": 214.03,
  "dcmmeta_affine": [
    [-2.0, 1.1793635934509439e-07, -0.00019705374143086374, 98.65758514404297],
    [4.410741530591622e-05, 1.9495218992233276, -0.44650211930274963, -77.9476089477539],
    [-0.000192053965292871, 0.44650211930274963, 1.9495220184326172, -104.4168701171875],
    [0.0, 0.0, 0.0, 1.0]
],
  "dcmmeta_reorient_transform": [
    [0.0, -1.0, 0.0, 99.0],
    [1.0, 0.0, 0.0, 0.0],
    [0.0, 0.0, 1.0, 0.0],
    [0.0, 0.0, 0.0, 1.0]
],
  "dcmmeta_shape": [100, 100, 72, 256],
  "dcmmeta_slice_dim": 2,
  "dcmmeta_version": 0.6,
  "global": {
    "const": {
      "AcquisitionMatrix": [100, 0, 0, 100],
      "AngioFlag": "N",
      "BitsAllocated": 16,
      "BitsStored": 12,
      "BodyPartExamined": "BRAIN",
      "Columns": 900,
      "EchoNumbers": 1,
      "EchoTime": 34.0,
      "EchoTrainLength": 100,
      "FlipAngle": 90.0,
      "HighBit": 11,
      "ImageOrientationPatient": [0.99999999514623, -2.20537079e-05, -9.60269853e-05, 5.896818e-08, 0.97476097934362, -0.2232510540828],
      "ImagePositionPatient": [-898.65764350296, -894.8462060153, 118.46450613998],
      "ImageType": [
        "ORIGINAL",
        "PRIMARY",
        "M",
        "ND",
        "MOSAIC"
],
      "ImagedNucleus": "1H",
      "ImagingFrequency": 123.257789,
      "InPlanePhaseEncodingDirection": "COL",
      "MRAcquisitionType": "2D",
      "MagneticFieldStrength": 3.0,
      "Manufacturer": "SIEMENS",
      "ManufacturerModelName": "Prisma",
      "Modality": "MR",
      "NumberOfAverages": 1.0,
      "NumberOfPhaseEncodingSteps": 100,
      "PercentPhaseFieldOfView": 100.0,
      "PercentSampling": 100.0,
      "PerformedProcedureStepStartTime": "150249.728000",
      "PhotometricInterpretation": "MONOCHROME2",
      "PixelBandwidth": 2380.0,
      "PixelRepresentation": 0,
      "PixelSpacing": [2.0, 2.0],
      "ProtocolName": "bold_100x100_s3_2x2x2_static_256",
      "RepetitionTime": 2000.0,
      "Rows": 900,
      "SAR": 0.06928182660357,
      "SamplesPerPixel": 1,
      "ScanOptions": "FS",
      "ScanningSequence": "EP",
      "SequenceName": "*epfid2d1_100",
      "SequenceVariant": "SK",
      "SeriesDescription": "bold_100x100_s3_2x2x2_static_256",
      "SeriesNumber": 4,
      "SeriesTime": "151621.650000",
      "SliceLocation": -84.389322224424,
      "SliceThickness": 2.0,
      "SmallestImagePixelValue": 0,
      "SoftwareVersions": "syngo MR E11",
      "SpacingBetweenSlices": 2.0000000387146,
      "SpecificCharacterSet": "ISO_IR 100",
      "StudyID": "1",
      "StudyTime": "150249.679000",
      "TransmitCoilName": "Body",
      "VariableFlipAngleFlag": "N",
      "WindowCenterWidthExplanation": "Algo1",
      "dBdt": 0.0},
    "slices": {}
  },
  "time": {
    "samples": {
      "AcquisitionNumber": [1, 2, 3, 4, 5, 6, 7, 8, 9, 10, 11, 12, 13, 14, 15, 16, 17, 18, 19, 20, 21, 22, 23, 24, 25, 26, 27, 28, 29, 30, 31, 32, 33, 34, 35, 36, 37, 38, 39, 40, 41, 42, 43, 44, 45, 46, 47, 48, 49, 50, 51, 52, 53, 54, 55, 56, 57, 58, 59, 60, 61, 62, 63, 64, 65, 66, 67, 68, 69, 70, 71, 72, 73, 74, 75, 76, 77, 78, 79, 80, 81, 82, 83, 84, 85, 86, 87, 88, 89, 90, 91, 92, 93, 94, 95, 96, 97, 98, 99, 100, 101, 102, 103, 104, 105, 106, 107, 108, 109, 110, 111, 112, 113, 114, 115, 116, 117, 118, 119, 120, 121, 122, 123, 124, 125, 126, 127, 128, 129, 130, 131, 132, 133, 134, 135, 136, 137, 138, 139, 140, 141, 142, 143, 144, 145, 146, 147, 148, 149, 150, 151, 152, 153, 154, 155, 156, 157, 158, 159, 160, 161, 162, 163, 164, 165, 166, 167, 168, 169, 170, 171, 172, 173, 174, 175, 176, 177, 178, 179, 180, 181, 182, 183, 184, 185, 186, 187, 188, 189, 190, 191, 192, 193, 194, 195, 196, 197, 198, 199, 200, 201, 202, 203, 204, 205, 206, 207, 208, 209, 210, 211, 212, 213, 214, 215, 216, 217, 218, 219, 220, 221, 222, 223, 224, 225, 226, 227, 228, 229, 230, 231, 232, 233, 234, 235, 236, 237, 238, 239, 240, 241, 242, 243, 244, 245, 246, 247, 248, 249, 250, 251, 252, 253, 254, 255, 256],
      "AcquisitionTime": ["151619.532500", "151621.532500", "151623.532500", "151625.532500", "151627.532500", "151629.532500", "151631.532500", "151633.532500", "151635.532500", "151637.532500", "151639.532500", "151641.532500", "151643.532500", "151645.532500", "151647.532500", "151649.532500", "151651.532500", "151653.532500", "151655.532500", "151657.532500", "151659.532500", "151701.532500", "151703.532500", "151705.532500", "151707.532500", "151709.532500", "151711.532500", "151713.532500", "151715.532500", "151717.532500", "151719.532500", "151721.532500", "151723.532500", "151725.532500", "151727.532500", "151729.532500", "151731.532500", "151733.532500", "151735.532500", "151737.532500", "151739.532500", "151741.532500", "151743.532500", "151745.532500", "151747.532500", "151749.532500", "151751.532500", "151753.532500", "151755.532500", "151757.532500", "151759.532500", "151801.532500", "151803.532500", "151805.532500", "151807.532500", "151809.532500", "151811.532500", "151813.532500", "151815.532500", "151817.532500", "151819.532500", "151821.532500", "151823.532500", "151825.532500", "151827.532500", "151829.532500", "151831.532500", "151833.532500", "151835.532500", "151837.532500", "151839.532500", "151841.532500", "151843.532500", "151845.532500", "151847.532500", "151849.532500", "151851.532500", "151853.532500", "151855.532500", "151857.532500", "151859.532500", "151901.532500", "151903.532500", "151905.532500", "151907.532500", "151909.532500", "151911.532500", "151913.532500", "151915.532500", "151917.532500", "151919.532500", "151921.532500", "151923.532500", "151925.532500", "151927.532500", "151929.532500", "151931.532500", "151933.532500", "151935.532500", "151937.532500", "151939.532500", "151941.532500", "151943.532500", "151945.532500", "151947.532500", "151949.532500", "151951.532500", "151953.532500", "151955.532500", "151957.532500", "151959.532500", "152001.532500", "152003.532500", "152005.532500", "152007.532500", "152009.532500", "152011.532500", "152013.532500", "152015.532500", "152017.532500", "152019.532500", "152021.532500", "152023.532500", "152025.532500", "152027.532500", "152029.532500", "152031.532500", "152033.532500", "152035.532500", "152037.532500", "152039.532500", "152041.532500", "152043.532500", "152045.532500", "152047.532500", "152049.532500", "152051.532500", "152053.532500", "152055.532500", "152057.532500", "152059.532500", "152101.532500", "152103.532500", "152105.532500", "152107.532500", "152109.532500", "152111.532500", "152113.532500", "152115.532500", "152117.532500", "152119.532500", "152121.532500", "152123.532500", "152125.532500", "152127.532500", "152129.532500", "152131.532500", "152133.532500", "152135.532500", "152137.532500", "152139.532500", "152141.532500", "152143.532500", "152145.532500", "152147.532500", "152149.532500", "152151.532500", "152153.532500", "152155.532500", "152157.532500", "152159.532500", "152201.532500", "152203.532500", "152205.532500", "152207.532500", "152209.532500", "152211.532500", "152213.532500", "152215.532500", "152217.532500", "152219.532500", "152221.532500", "152223.532500", "152225.532500", "152227.532500", "152229.532500", "152231.532500", "152233.532500", "152235.532500", "152237.532500", "152239.532500", "152241.532500", "152243.532500", "152245.532500", "152247.532500", "152249.532500", "152251.532500", "152253.532500", "152255.532500", "152257.532500", "152259.532500", "152301.532500", "152303.532500", "152305.532500", "152307.532500", "152309.532500", "152311.532500", "152313.532500", "152315.532500", "152317.532500", "152319.532500", "152321.532500", "152323.532500", "152325.532500", "152327.532500", "152329.532500", "152331.532500", "152333.532500", "152335.532500", "152337.532500", "152339.532500", "152341.532500", "152343.532500", "152345.532500", "152347.532500", "152349.532500", "152351.532500", "152353.532500", "152355.532500", "152357.532500", "152359.532500", "152401.532500", "152403.532500", "152405.532500", "152407.532500", "152409.532500", "152411.532500", "152413.532500", "152415.532500", "152417.532500", "152419.532500", "152421.532500", "152423.532500", "152425.532500", "152427.532500", "152429.532500", "152431.532500", "152433.532500", "152435.532500", "152437.532500", "152439.532500", "152441.532500", "152443.532500", "152445.532500", "152447.532500", "152449.532500"],
      "ContentTime": ["151621.654000", "151623.650000", "151625.649000", "151627.650000", "151629.150000", "151631.149000", "151633.650000", "151635.650000", "151637.651000", "151639.649000", "151641.149000", "151643.149000", "151645.149000", "151647.650000", "151649.650000", "151651.650000", "151653.649000", "151655.650000", "151657.650000", "151659.650000", "151701.650000", "151703.150000", "151705.650000", "151707.149000", "151709.650000", "151711.149000", "151713.150000", "151715.150000", "151717.650000", "151719.650000", "151721.649000", "151723.650000", "151725.650000", "151727.650000", "151729.650000", "151731.649000", "151733.650000", "151735.650000", "151737.650000", "151739.650000", "151741.650000", "151743.650000", "151745.149000", "151747.150000", "151749.650000", "151751.650000", "151753.649000", "151755.650000", "151757.149000", "151759.649000", "151801.149000", "151803.649000", "151805.650000", "151807.650000", "151809.649000", "151811.150000", "151813.650000", "151815.649000", "151817.650000", "151819.150000", "151821.651000", "151823.151000", "151825.149000", "151827.650000", "151829.650000", "151831.650000", "151833.149000", "151835.149000", "151837.650000", "151839.150000", "151841.650000", "151843.649000", "151845.650000", "151847.649000", "151849.649000", "151851.650000", "151853.149000", "151855.650000", "151857.651000", "151859.650000", "151901.149000", "151903.649000", "151905.150000", "151907.149000", "151909.649000", "151911.649000", "151913.149000", "151915.650000", "151917.649000", "151919.650000", "151921.650000", "151923.149000", "151925.649000", "151927.650000", "151929.649000", "151931.149000", "151933.650000", "151935.649000", "151937.150000", "151939.649000", "151941.650000", "151943.650000", "151945.650000", "151947.650000", "151949.651000", "151951.650000", "151953.650000", "151955.650000", "151957.650000", "151959.650000", "152001.149000", "152003.649000", "152005.649000", "152007.151000", "152009.149000", "152011.649000", "152013.650000", "152015.650000", "152017.149000", "152019.650000", "152021.150000", "152023.650000", "152025.651000", "152027.650000", "152029.649000", "152031.650000", "152033.150000", "152035.650000", "152037.150000", "152039.650000", "152041.651000", "152043.650000", "152045.650000", "152047.149000", "152049.649000", "152051.650000", "152053.649000", "152055.650000", "152057.650000", "152059.650000", "152101.149000", "152103.650000", "152105.650000", "152107.650000", "152109.150000", "152111.150000", "152113.649000", "152115.150000", "152117.651000", "152119.650000", "152121.649000", "152123.650000", "152125.650000", "152127.649000", "152129.649000", "152131.650000", "152133.651000", "152135.650000", "152137.650000", "152139.650000", "152141.650000", "152143.650000", "152145.650000", "152147.649000", "152149.650000", "152151.150000", "152153.150000", "152155.650000", "152157.650000", "152159.149000", "152201.650000", "152203.650000", "152205.150000", "152207.650000", "152209.150000", "152211.650000", "152213.150000", "152215.650000", "152217.649000", "152219.149000", "152221.649000", "152223.649000", "152225.149000", "152227.151000", "152229.650000", "152231.650000", "152233.650000", "152235.650000", "152237.650000", "152239.650000", "152241.650000", "152243.651000", "152245.151000", "152247.649000", "152249.649000", "152251.150000", "152253.649000", "152255.650000", "152257.649000", "152259.149000", "152301.650000", "152303.649000", "152305.150000", "152307.650000", "152309.150000", "152311.650000", "152313.649000", "152315.650000", "152317.649000", "152319.651000", "152321.650000", "152323.650000", "152325.650000", "152327.649000", "152329.650000", "152331.149000", "152333.650000", "152335.650000", "152337.651000", "152339.650000", "152341.650000", "152343.650000", "152345.650000", "152347.650000", "152349.650000", "152351.649000", "152353.651000", "152355.650000", "152357.150000", "152359.149000", "152401.650000", "152403.650000", "152405.150000", "152407.650000", "152409.650000", "152411.151000", "152413.649000", "152415.650000", "152417.150000", "152419.650000", "152421.650000", "152423.650000", "152425.666000", "152427.650000", "152429.650000", "152431.650000", "152433.650000", "152435.650000", "152437.650000", "152439.150000", "152441.149000", "152443.650000", "152445.650000", "152447.651000", "152449.650000", "152451.168000"],
      "InstanceCreationTime": ["151621.654000", "151623.650000", "151625.649000", "151627.650000", "151629.150000", "151631.149000", "151633.650000", "151635.650000", "151637.651000", "151639.649000", "151641.149000", "151643.149000", "151645.149000", "151647.650000", "151649.650000", "151651.650000", "151653.649000", "151655.650000", "151657.650000", "151659.650000", "151701.650000", "151703.150000", "151705.650000", "151707.149000", "151709.650000", "151711.149000", "151713.150000", "151715.150000", "151717.650000", "151719.650000", "151721.649000", "151723.650000", "151725.650000", "151727.650000", "151729.650000", "151731.649000", "151733.650000", "151735.650000", "151737.650000", "151739.650000", "151741.650000", "151743.650000", "151745.149000", "151747.150000", "151749.650000", "151751.650000", "151753.649000", "151755.650000", "151757.149000", "151759.649000", "151801.149000", "151803.649000", "151805.650000", "151807.650000", "151809.649000", "151811.150000", "151813.650000", "151815.649000", "151817.650000", "151819.150000", "151821.651000", "151823.151000", "151825.149000", "151827.650000", "151829.650000", "151831.650000", "151833.149000", "151835.149000", "151837.650000", "151839.150000", "151841.650000", "151843.649000", "151845.650000", "151847.649000", "151849.649000", "151851.650000", "151853.149000", "151855.650000", "151857.651000", "151859.650000", "151901.149000", "151903.649000", "151905.150000", "151907.149000", "151909.649000", "151911.649000", "151913.149000", "151915.650000", "151917.649000", "151919.650000", "151921.650000", "151923.149000", "151925.649000", "151927.650000", "151929.649000", "151931.149000", "151933.650000", "151935.649000", "151937.150000", "151939.649000", "151941.650000", "151943.650000", "151945.650000", "151947.650000", "151949.651000", "151951.650000", "151953.650000", "151955.650000", "151957.650000", "151959.650000", "152001.149000", "152003.649000", "152005.649000", "152007.151000", "152009.149000", "152011.649000", "152013.650000", "152015.650000", "152017.149000", "152019.650000", "152021.150000", "152023.650000", "152025.651000", "152027.650000", "152029.649000", "152031.650000", "152033.150000", "152035.650000", "152037.150000", "152039.650000", "152041.651000", "152043.650000", "152045.650000", "152047.149000", "152049.649000", "152051.650000", "152053.649000", "152055.650000", "152057.650000", "152059.650000", "152101.149000", "152103.650000", "152105.650000", "152107.650000", "152109.150000", "152111.150000", "152113.649000", "152115.150000", "152117.651000", "152119.650000", "152121.649000", "152123.650000", "152125.650000", "152127.649000", "152129.649000", "152131.650000", "152133.651000", "152135.650000", "152137.650000", "152139.650000", "152141.650000", "152143.650000", "152145.650000", "152147.649000", "152149.650000", "152151.150000", "152153.150000", "152155.650000", "152157.650000", "152159.149000", "152201.650000", "152203.650000", "152205.150000", "152207.650000", "152209.150000", "152211.650000", "152213.150000", "152215.650000", "152217.649000", "152219.149000", "152221.649000", "152223.649000", "152225.149000", "152227.151000", "152229.650000", "152231.650000", "152233.650000", "152235.650000", "152237.650000", "152239.650000", "152241.650000", "152243.651000", "152245.151000", "152247.649000", "152249.649000", "152251.150000", "152253.649000", "152255.650000", "152257.649000", "152259.149000", "152301.650000", "152303.649000", "152305.150000", "152307.650000", "152309.150000", "152311.650000", "152313.649000", "152315.650000", "152317.649000", "152319.651000", "152321.650000", "152323.650000", "152325.650000", "152327.649000", "152329.650000", "152331.149000", "152333.650000", "152335.650000", "152337.651000", "152339.650000", "152341.650000", "152343.650000", "152345.650000", "152347.650000", "152349.650000", "152351.649000", "152353.651000", "152355.650000", "152357.150000", "152359.149000", "152401.650000", "152403.650000", "152405.150000", "152407.650000", "152409.650000", "152411.151000", "152413.649000", "152415.650000", "152417.150000", "152419.650000", "152421.650000", "152423.650000", "152425.666000", "152427.650000", "152429.650000", "152431.650000", "152433.650000", "152435.650000", "152437.650000", "152439.150000", "152441.149000", "152443.650000", "152445.650000", "152447.651000", "152449.650000", "152451.168000"],
      "InstanceNumber": [1, 2, 3, 4, 5, 6, 7, 8, 9, 10, 11, 12, 13, 14, 15, 16, 17, 18, 19, 20, 21, 22, 23, 24, 25, 26, 27, 28, 29, 30, 31, 32, 33, 34, 35, 36, 37, 38, 39, 40, 41, 42, 43, 44, 45, 46, 47, 48, 49, 50, 51, 52, 53, 54, 55, 56, 57, 58, 59, 60, 61, 62, 63, 64, 65, 66, 67, 68, 69, 70, 71, 72, 73, 74, 75, 76, 77, 78, 79, 80, 81, 82, 83, 84, 85, 86, 87, 88, 89, 90, 91, 92, 93, 94, 95, 96, 97, 98, 99, 100, 101, 102, 103, 104, 105, 106, 107, 108, 109, 110, 111, 112, 113, 114, 115, 116, 117, 118, 119, 120, 121, 122, 123, 124, 125, 126, 127, 128, 129, 130, 131, 132, 133, 134, 135, 136, 137, 138, 139, 140, 141, 142, 143, 144, 145, 146, 147, 148, 149, 150, 151, 152, 153, 154, 155, 156, 157, 158, 159, 160, 161, 162, 163, 164, 165, 166, 167, 168, 169, 170, 171, 172, 173, 174, 175, 176, 177, 178, 179, 180, 181, 182, 183, 184, 185, 186, 187, 188, 189, 190, 191, 192, 193, 194, 195, 196, 197, 198, 199, 200, 201, 202, 203, 204, 205, 206, 207, 208, 209, 210, 211, 212, 213, 214, 215, 216, 217, 218, 219, 220, 221, 222, 223, 224, 225, 226, 227, 228, 229, 230, 231, 232, 233, 234, 235, 236, 237, 238, 239, 240, 241, 242, 243, 244, 245, 246, 247, 248, 249, 250, 251, 252, 253, 254, 255, 256],
      "LargestImagePixelValue": [2819, 2760, 2754, 2765, 2711, 2745, 2758, 2792, 2756, 2748, 2741, 2752, 2777, 2732, 2773, 2753, 2796, 2791, 2751, 2762, 2767, 2744, 2753, 2744, 2747, 2756, 2747, 2740, 2725, 2765, 2767, 2752, 2712, 2725, 2740, 2764, 2730, 2736, 2761, 2790, 2772, 2900, 2798, 2804, 2752, 2757, 2744, 2738, 2760, 2778, 2760, 2734, 2749, 2758, 2750, 2744, 2754, 2787, 2783, 2772, 2743, 2742, 2733, 2748, 2755, 2764, 2755, 2740, 2771, 2785, 2766, 2795, 2783, 2784, 2772, 2758, 2760, 2735, 2773, 2760, 2780, 2788, 2776, 2768, 2768, 2731, 2776, 2787, 2746, 2770, 2763, 2759, 2762, 2773, 2776, 2753, 2737, 2723, 2732, 2771, 2774, 2761, 2779, 2748, 2744, 2776, 2748, 2763, 2747, 2781, 2762, 2746, 2744, 3138, 2732, 2769, 2750, 2732, 2748, 3104, 2736, 2735, 2756, 2781, 2759, 2721, 2742, 2740, 2721, 2735, 2729, 2757, 2741, 2737, 2738, 2936, 2720, 2751, 2745, 2772, 2738, 2751, 2727, 2924, 2737, 2761, 2776, 2710, 2739, 2738, 2746, 2735, 2718, 2732, 2748, 2766, 2757, 2755, 2742, 3066, 2740, 2761, 2718, 2746, 2739, 2723, 2711, 2787, 2718, 2737, 2691, 2740, 2737, 2739, 2728, 2736, 2716, 2720, 2752, 2754, 2749, 2858, 2768, 2766, 2711, 2713, 2709, 2757, 2749, 2745, 2753, 2725, 2728, 2747, 2750, 2779, 2739, 2735, 2761, 2809, 2757, 2850, 2729, 2881, 2758, 2735, 2740, 2742, 2737, 2738, 2719, 2762, 2804, 2785, 2728, 2732, 2756, 2771, 2779, 2937, 2743, 2758, 2728, 2788, 2764, 3285, 2755, 2732, 2772, 2760, 2988, 2734, 2762, 2749, 2741, 2740, 2771, 3035, 2750, 2755, 2755, 2745, 2734, 2758, 2742, 2749, 2771, 2759, 2742, 2758, 2762, 2811, 2780, 2900, 2909, 2763],
      "WindowCenter": [752.0, 751.0, 752.0, 752.0, 751.0, 750.0, 750.0, 749.0, 749.0, 749.0, 750.0, 750.0, 751.0, 750.0, 750.0, 751.0, 751.0, 750.0, 750.0, 749.0, 748.0, 748.0, 749.0, 749.0, 750.0, 750.0, 750.0, 749.0, 750.0, 750.0, 750.0, 749.0, 748.0, 748.0, 749.0, 748.0, 749.0, 749.0, 750.0, 750.0, 750.0, 752.0, 751.0, 751.0, 749.0, 749.0, 749.0, 750.0, 750.0, 751.0, 751.0, 751.0, 751.0, 751.0, 751.0, 750.0, 750.0, 751.0, 751.0, 750.0, 750.0, 750.0, 750.0, 751.0, 751.0, 751.0, 752.0, 751.0, 750.0, 750.0, 750.0, 751.0, 751.0, 751.0, 751.0, 751.0, 751.0, 752.0, 752.0, 751.0, 750.0, 750.0, 750.0, 750.0, 750.0, 750.0, 749.0, 752.0, 752.0, 752.0, 750.0, 747.0, 746.0, 747.0, 748.0, 748.0, 749.0, 749.0, 750.0, 751.0, 751.0, 750.0, 750.0, 750.0, 750.0, 750.0, 749.0, 749.0, 749.0, 751.0, 752.0, 752.0, 752.0, 755.0, 751.0, 751.0, 751.0, 750.0, 751.0, 755.0, 750.0, 750.0, 752.0, 753.0, 751.0, 750.0, 749.0, 750.0, 749.0, 750.0, 750.0, 751.0, 751.0, 750.0, 750.0, 752.0, 750.0, 751.0, 751.0, 751.0, 749.0, 749.0, 750.0, 753.0, 751.0, 752.0, 753.0, 753.0, 752.0, 752.0, 751.0, 751.0, 750.0, 749.0, 751.0, 752.0, 752.0, 752.0, 752.0, 755.0, 752.0, 753.0, 752.0, 751.0, 750.0, 749.0, 749.0, 751.0, 751.0, 751.0, 750.0, 750.0, 750.0, 751.0, 751.0, 751.0, 750.0, 751.0, 752.0, 753.0, 752.0, 753.0, 752.0, 751.0, 750.0, 750.0, 750.0, 752.0, 752.0, 752.0, 752.0, 752.0, 751.0, 751.0, 751.0, 753.0, 753.0, 753.0, 751.0, 751.0, 750.0, 752.0, 750.0, 753.0, 752.0, 752.0, 753.0, 753.0, 753.0, 752.0, 752.0, 751.0, 751.0, 750.0, 751.0, 752.0, 751.0, 751.0, 751.0, 752.0, 750.0, 751.0, 750.0, 751.0, 750.0, 756.0, 752.0, 752.0, 751.0, 751.0, 754.0, 753.0, 753.0, 754.0, 753.0, 752.0, 752.0, 755.0, 752.0, 752.0, 752.0, 752.0, 752.0, 753.0, 753.0, 753.0, 753.0, 753.0, 751.0, 751.0, 752.0, 754.0, 754.0, 756.0, 756.0, 754.0],
      "WindowWidth": [1619.0, 1617.0, 1617.0, 1617.0, 1615.0, 1613.0, 1613.0, 1611.0, 1612.0, 1611.0, 1613.0, 1614.0, 1615.0, 1614.0, 1614.0, 1616.0, 1617.0, 1615.0, 1613.0, 1612.0, 1609.0, 1608.0, 1611.0, 1611.0, 1613.0, 1614.0, 1613.0, 1612.0, 1613.0, 1613.0, 1613.0, 1612.0, 1609.0, 1609.0, 1610.0, 1610.0, 1611.0, 1612.0, 1612.0, 1613.0, 1613.0, 1618.0, 1617.0, 1615.0, 1610.0, 1611.0, 1613.0, 1614.0, 1615.0, 1615.0, 1616.0, 1616.0, 1616.0, 1617.0, 1617.0, 1614.0, 1614.0, 1616.0, 1615.0, 1615.0, 1615.0, 1614.0, 1614.0, 1615.0, 1617.0, 1618.0, 1619.0, 1616.0, 1614.0, 1612.0, 1614.0, 1616.0, 1616.0, 1616.0, 1616.0, 1618.0, 1618.0, 1618.0, 1619.0, 1617.0, 1614.0, 1614.0, 1615.0, 1613.0, 1613.0, 1613.0, 1612.0, 1618.0, 1620.0, 1619.0, 1614.0, 1606.0, 1603.0, 1606.0, 1607.0, 1607.0, 1610.0, 1612.0, 1613.0, 1616.0, 1615.0, 1614.0, 1614.0, 1612.0, 1613.0, 1615.0, 1612.0, 1612.0, 1612.0, 1615.0, 1620.0, 1620.0, 1619.0, 1626.0, 1616.0, 1616.0, 1615.0, 1614.0, 1616.0, 1626.0, 1613.0, 1613.0, 1620.0, 1622.0, 1617.0, 1612.0, 1612.0, 1614.0, 1611.0, 1613.0, 1615.0, 1616.0, 1615.0, 1614.0, 1614.0, 1618.0, 1615.0, 1615.0, 1616.0, 1615.0, 1611.0, 1611.0, 1613.0, 1620.0, 1618.0, 1619.0, 1621.0, 1620.0, 1620.0, 1619.0, 1617.0, 1616.0, 1613.0, 1612.0, 1616.0, 1618.0, 1619.0, 1619.0, 1619.0, 1627.0, 1619.0, 1621.0, 1620.0, 1617.0, 1612.0, 1611.0, 1611.0, 1617.0, 1616.0, 1617.0, 1615.0, 1615.0, 1614.0, 1615.0, 1615.0, 1615.0, 1614.0, 1615.0, 1619.0, 1620.0, 1619.0, 1622.0, 1618.0, 1617.0, 1613.0, 1614.0, 1614.0, 1618.0, 1618.0, 1618.0, 1618.0, 1618.0, 1616.0, 1617.0, 1617.0, 1621.0, 1621.0, 1620.0, 1617.0, 1615.0, 1613.0, 1619.0, 1614.0, 1621.0, 1618.0, 1619.0, 1622.0, 1621.0, 1620.0, 1619.0, 1618.0, 1617.0, 1615.0, 1614.0, 1615.0, 1618.0, 1617.0, 1616.0, 1615.0, 1619.0, 1614.0, 1615.0, 1615.0, 1614.0, 1613.0, 1627.0, 1619.0, 1619.0, 1616.0, 1616.0, 1622.0, 1620.0, 1622.0, 1623.0, 1621.0, 1620.0, 1618.0, 1626.0, 1617.0, 1618.0, 1618.0, 1618.0, 1620.0, 1621.0, 1620.0, 1621.0, 1622.0, 1620.0, 1616.0, 1616.0, 1617.0, 1622.0, 1623.0, 1627.0, 1627.0, 1622.0]
    },
    "slices": {}
  }
}