{
  "AcquisitionMatrixPE": 100,
  "AcquisitionNumber": 1,
  "AcquisitionTime": "15:45:47.770000",
  "BandwidthPerPixelPhaseEncode": 18.519,
  "BaseResolution": 100,
  "BodyPartExamined": "BRAIN",
  "ConsistencyInfo": "N4_VE11C_LATEST_20160120",
  "ConversionSoftware": "dcm2niix",
  "ConversionSoftwareVersion": "v1.0.20180622 GCC4.9.2",
  "DerivedVendorReportedEchoSpacing": 0.000539986,
  "DeviceSerialNumber": "166078",
  "DwellTime": 2.1e-06,
  "EchoTime": 0.034,
  "EchoTrainLength": 100,
  "EffectiveEchoSpacing": 0.000539986,
  "FlipAngle": 90,
  "ImageOrientationPatientDICOM": [1, -2.20537e-05, -9.6027e-05, 5.89682e-08, 0.974761, -0.223251],
  "ImageType": [
    "ORIGINAL",
    "PRIMARY",
    "M",
    "ND",
    "MOSAIC"
],
  "InPlanePhaseEncodingDirectionDICOM": "COL",
  "InstitutionAddress": "Street_StreetNo_Bei_Jing_District_CN_ZIP",
  "InstitutionName": "BeiJing_Normal_University",
  "InstitutionalDepartmentName": "Department",
  "MRAcquisitionType": "2D",
  "MagneticFieldStrength": 3,
  "Manufacturer": "Siemens",
  "ManufacturersModelName": "Prisma",
  "Modality": "MR",
  "MultibandAccelerationFactor": 3,
  "PartialFourier": 1,
  "PatientPosition": "HFS",
  "PercentPhaseFOV": 100,
  "PhaseEncodingDirection": "j-",
  "PhaseEncodingSteps": 100,
  "PhaseResolution": 1,
  "PixelBandwidth": 2380,
  "ProcedureStepDescription": "BNU_P2018_64CH_Zhen.ZongLei",
  "ProtocolName": "bold_100x100_s3_2x2x2_static_256",
  "PulseSequenceDetails": "%SiemensSeq%_ep2d_bold",
  "ReceiveCoilActiveElements": "HC1-7;NC1",
  "ReceiveCoilName": "HeadNeck_64",
  "ReconMatrixPE": 100,
  "RepetitionTime": 2,
  "SAR": 0.0692818,
  "ScanOptions": "FS",
  "ScanningSequence": "EP",
  "SequenceName": "_epfid2d1_100",
  "SequenceVariant": "SK",
  "SeriesDescription": "bold_100x100_s3_2x2x2_static_256",
  "SeriesNumber": 7,
  "ShimSetting": [-5452, -11499, -1275, 438, -63, -222, -167, 16],
  "SliceThickness": 2,
  "SliceTiming": [1.485, 0, 0.99, 0.0825, 1.0725, 0.165, 1.155, 0.2475, 1.2375, 0.33, 1.32, 0.4125, 1.4025, 0.5775, 1.5675, 0.66, 1.65, 0.7425, 1.7325, 0.825, 1.815, 0.9075, 1.8975, 0.495, 1.485, 0, 0.99, 0.0825, 1.0725, 0.165, 1.155, 0.2475, 1.2375, 0.33, 1.32, 0.4125, 1.4025, 0.5775, 1.5675, 0.66, 1.65, 0.7425, 1.7325, 0.825, 1.815, 0.9075, 1.8975, 0.495, 1.485, 0, 0.99, 0.0825, 1.0725, 0.165, 1.155, 0.2475, 1.2375, 0.33, 1.32, 0.4125, 1.4025, 0.5775, 1.5675, 0.66, 1.65, 0.7425, 1.7325, 0.825, 1.815, 0.9075, 1.8975, 0.495],
  "SoftwareVersions": "syngo_MR_E11",
  "SpacingBetweenSlices": 2,
  "StationName": "AWP166078",
  "TaskName": "naturalvision",
  "TotalReadoutTime": 0.0534586,
  "TxRefAmp": 214.03,
  "dcmmeta_affine": [
    [-2.0, 1.1793635934509439e-07, -0.00019705374143086374, 98.65758514404297],
    [4.410741530591622e-05, 1.9495218992233276, -0.44650211930274963, -77.9476089477539],
    [-0.000192053965292871, 0.44650211930274963, 1.9495220184326172, -104.4168701171875],
    [0.0, 0.0, 0.0, 1.0]
],
  "dcmmeta_reorient_transform": [
    [0.0, -1.0, 0.0, 99.0],
    [1.0, 0.0, 0.0, 0.0],
    [0.0, 0.0, 1.0, 0.0],
    [0.0, 0.0, 0.0, 1.0]
],
  "dcmmeta_shape": [100, 100, 72, 256],
  "dcmmeta_slice_dim": 2,
  "dcmmeta_version": 0.6,
  "global": {
    "const": {
      "AcquisitionMatrix": [100, 0, 0, 100],
      "AngioFlag": "N",
      "BitsAllocated": 16,
      "BitsStored": 12,
      "BodyPartExamined": "BRAIN",
      "Columns": 900,
      "EchoNumbers": 1,
      "EchoTime": 34.0,
      "EchoTrainLength": 100,
      "FlipAngle": 90.0,
      "HighBit": 11,
      "ImageOrientationPatient": [0.99999999514623, -2.20537079e-05, -9.60269853e-05, 5.896818e-08, 0.97476097934362, -0.2232510540828],
      "ImagePositionPatient": [-898.65764350296, -894.8462060153, 118.46450613998],
      "ImageType": [
        "ORIGINAL",
        "PRIMARY",
        "M",
        "ND",
        "MOSAIC"
],
      "ImagedNucleus": "1H",
      "ImagingFrequency": 123.257798,
      "InPlanePhaseEncodingDirection": "COL",
      "MRAcquisitionType": "2D",
      "MagneticFieldStrength": 3.0,
      "Manufacturer": "SIEMENS",
      "ManufacturerModelName": "Prisma",
      "Modality": "MR",
      "NumberOfAverages": 1.0,
      "NumberOfPhaseEncodingSteps": 100,
      "PercentPhaseFieldOfView": 100.0,
      "PercentSampling": 100.0,
      "PerformedProcedureStepStartTime": "150249.728000",
      "PhotometricInterpretation": "MONOCHROME2",
      "PixelBandwidth": 2380.0,
      "PixelRepresentation": 0,
      "PixelSpacing": [2.0, 2.0],
      "ProtocolName": "bold_100x100_s3_2x2x2_static_256",
      "RepetitionTime": 2000.0,
      "Rows": 900,
      "SAR": 0.06928182660357,
      "SamplesPerPixel": 1,
      "ScanOptions": "FS",
      "ScanningSequence": "EP",
      "SequenceName": "*epfid2d1_100",
      "SequenceVariant": "SK",
      "SeriesDescription": "bold_100x100_s3_2x2x2_static_256",
      "SeriesNumber": 7,
      "SeriesTime": "154550.507000",
      "SliceLocation": -84.389322224424,
      "SliceThickness": 2.0,
      "SmallestImagePixelValue": 0,
      "SoftwareVersions": "syngo MR E11",
      "SpacingBetweenSlices": 2.0000000387146,
      "SpecificCharacterSet": "ISO_IR 100",
      "StudyID": "1",
      "StudyTime": "150249.679000",
      "TransmitCoilName": "Body",
      "VariableFlipAngleFlag": "N",
      "WindowCenterWidthExplanation": "Algo1",
      "dBdt": 0.0},
    "slices": {}
  },
  "time": {
    "samples": {
      "AcquisitionNumber": [1, 2, 3, 4, 5, 6, 7, 8, 9, 10, 11, 12, 13, 14, 15, 16, 17, 18, 19, 20, 21, 22, 23, 24, 25, 26, 27, 28, 29, 30, 31, 32, 33, 34, 35, 36, 37, 38, 39, 40, 41, 42, 43, 44, 45, 46, 47, 48, 49, 50, 51, 52, 53, 54, 55, 56, 57, 58, 59, 60, 61, 62, 63, 64, 65, 66, 67, 68, 69, 70, 71, 72, 73, 74, 75, 76, 77, 78, 79, 80, 81, 82, 83, 84, 85, 86, 87, 88, 89, 90, 91, 92, 93, 94, 95, 96, 97, 98, 99, 100, 101, 102, 103, 104, 105, 106, 107, 108, 109, 110, 111, 112, 113, 114, 115, 116, 117, 118, 119, 120, 121, 122, 123, 124, 125, 126, 127, 128, 129, 130, 131, 132, 133, 134, 135, 136, 137, 138, 139, 140, 141, 142, 143, 144, 145, 146, 147, 148, 149, 150, 151, 152, 153, 154, 155, 156, 157, 158, 159, 160, 161, 162, 163, 164, 165, 166, 167, 168, 169, 170, 171, 172, 173, 174, 175, 176, 177, 178, 179, 180, 181, 182, 183, 184, 185, 186, 187, 188, 189, 190, 191, 192, 193, 194, 195, 196, 197, 198, 199, 200, 201, 202, 203, 204, 205, 206, 207, 208, 209, 210, 211, 212, 213, 214, 215, 216, 217, 218, 219, 220, 221, 222, 223, 224, 225, 226, 227, 228, 229, 230, 231, 232, 233, 234, 235, 236, 237, 238, 239, 240, 241, 242, 243, 244, 245, 246, 247, 248, 249, 250, 251, 252, 253, 254, 255, 256],
      "AcquisitionTime": ["154547.770000", "154549.770000", "154551.770000", "154553.770000", "154555.770000", "154557.770000", "154559.770000", "154601.770000", "154603.770000", "154605.770000", "154607.770000", "154609.770000", "154611.770000", "154613.770000", "154615.770000", "154617.770000", "154619.770000", "154621.770000", "154623.770000", "154625.770000", "154627.770000", "154629.770000", "154631.770000", "154633.770000", "154635.770000", "154637.770000", "154639.770000", "154641.770000", "154643.770000", "154645.770000", "154647.770000", "154649.770000", "154651.770000", "154653.770000", "154655.770000", "154657.770000", "154659.770000", "154701.770000", "154703.770000", "154705.770000", "154707.770000", "154709.770000", "154711.770000", "154713.770000", "154715.770000", "154717.770000", "154719.770000", "154721.770000", "154723.770000", "154725.770000", "154727.770000", "154729.770000", "154731.770000", "154733.770000", "154735.770000", "154737.770000", "154739.770000", "154741.770000", "154743.770000", "154745.770000", "154747.770000", "154749.770000", "154751.770000", "154753.770000", "154755.770000", "154757.770000", "154759.770000", "154801.770000", "154803.770000", "154805.770000", "154807.770000", "154809.770000", "154811.770000", "154813.770000", "154815.770000", "154817.770000", "154819.770000", "154821.770000", "154823.770000", "154825.770000", "154827.770000", "154829.770000", "154831.770000", "154833.770000", "154835.770000", "154837.770000", "154839.770000", "154841.770000", "154843.770000", "154845.770000", "154847.770000", "154849.770000", "154851.770000", "154853.770000", "154855.770000", "154857.770000", "154859.770000", "154901.770000", "154903.770000", "154905.770000", "154907.770000", "154909.770000", "154911.770000", "154913.770000", "154915.770000", "154917.770000", "154919.770000", "154921.770000", "154923.770000", "154925.770000", "154927.770000", "154929.770000", "154931.770000", "154933.770000", "154935.770000", "154937.770000", "154939.770000", "154941.770000", "154943.770000", "154945.770000", "154947.770000", "154949.770000", "154951.770000", "154953.770000", "154955.770000", "154957.770000", "154959.770000", "155001.770000", "155003.770000", "155005.770000", "155007.770000", "155009.770000", "155011.770000", "155013.770000", "155015.770000", "155017.770000", "155019.770000", "155021.770000", "155023.770000", "155025.770000", "155027.770000", "155029.770000", "155031.770000", "155033.770000", "155035.770000", "155037.770000", "155039.770000", "155041.770000", "155043.770000", "155045.770000", "155047.770000", "155049.770000", "155051.770000", "155053.770000", "155055.770000", "155057.770000", "155059.770000", "155101.770000", "155103.770000", "155105.770000", "155107.770000", "155109.770000", "155111.770000", "155113.770000", "155115.770000", "155117.770000", "155119.770000", "155121.770000", "155123.770000", "155125.770000", "155127.770000", "155129.770000", "155131.770000", "155133.770000", "155135.770000", "155137.770000", "155139.770000", "155141.770000", "155143.770000", "155145.770000", "155147.770000", "155149.770000", "155151.770000", "155153.770000", "155155.770000", "155157.770000", "155159.770000", "155201.770000", "155203.770000", "155205.770000", "155207.770000", "155209.770000", "155211.770000", "155213.770000", "155215.770000", "155217.770000", "155219.770000", "155221.770000", "155223.770000", "155225.770000", "155227.770000", "155229.770000", "155231.770000", "155233.770000", "155235.770000", "155237.770000", "155239.770000", "155241.770000", "155243.770000", "155245.770000", "155247.770000", "155249.770000", "155251.770000", "155253.770000", "155255.770000", "155257.770000", "155259.770000", "155301.770000", "155303.770000", "155305.770000", "155307.770000", "155309.770000", "155311.770000", "155313.770000", "155315.770000", "155317.770000", "155319.770000", "155321.770000", "155323.770000", "155325.770000", "155327.770000", "155329.770000", "155331.770000", "155333.770000", "155335.770000", "155337.770000", "155339.770000", "155341.770000", "155343.770000", "155345.770000", "155347.770000", "155349.770000", "155351.770000", "155353.770000", "155355.770000", "155357.770000", "155359.770000", "155401.770000", "155403.770000", "155405.770000", "155407.770000", "155409.770000", "155411.770000", "155413.770000", "155415.770000", "155417.770000"],
      "ContentTime": ["154550.510000", "154552.006000", "154554.005000", "154556.005000", "154558.005000", "154600.005000", "154602.006000", "154604.006000", "154606.005000", "154608.005000", "154610.005000", "154612.006000", "154614.005000", "154616.005000", "154618.005000", "154620.006000", "154622.006000", "154624.005000", "154626.006000", "154628.005000", "154630.005000", "154632.006000", "154634.005000", "154636.005000", "154638.005000", "154640.005000", "154642.006000", "154644.007000", "154646.026000", "154648.006000", "154650.006000", "154652.005000", "154654.006000", "154656.006000", "154658.006000", "154700.006000", "154702.006000", "154704.006000", "154706.006000", "154708.006000", "154710.006000", "154712.006000", "154714.005000", "154716.006000", "154718.006000", "154720.005000", "154722.006000", "154724.005000", "154726.006000", "154728.005000", "154730.005000", "154732.006000", "154734.005000", "154736.006000", "154738.005000", "154740.005000", "154742.005000", "154744.005000", "154746.005000", "154748.005000", "154750.005000", "154752.005000", "154754.006000", "154756.006000", "154758.006000", "154800.005000", "154802.006000", "154804.005000", "154806.005000", "154808.006000", "154810.005000", "154812.005000", "154814.005000", "154816.005000", "154818.005000", "154820.006000", "154822.005000", "154824.005000", "154826.005000", "154828.005000", "154830.005000", "154832.005000", "154834.005000", "154836.005000", "154838.005000", "154840.005000", "154842.005000", "154844.005000", "154846.006000", "154848.005000", "154850.005000", "154852.006000", "154854.005000", "154856.006000", "154858.006000", "154900.005000", "154902.006000", "154904.005000", "154906.005000", "154908.005000", "154910.006000", "154912.006000", "154914.005000", "154916.005000", "154918.005000", "154920.005000", "154922.005000", "154924.005000", "154926.005000", "154928.006000", "154930.005000", "154932.005000", "154934.006000", "154936.005000", "154938.005000", "154940.005000", "154942.005000", "154944.006000", "154946.006000", "154948.005000", "154950.006000", "154952.005000", "154954.005000", "154956.006000", "154958.005000", "155000.005000", "155002.006000", "155004.005000", "155006.005000", "155008.005000", "155010.006000", "155012.006000", "155014.006000", "155016.005000", "155018.006000", "155020.005000", "155022.005000", "155024.005000", "155026.005000", "155028.005000", "155030.005000", "155032.006000", "155034.005000", "155036.005000", "155038.005000", "155040.005000", "155042.006000", "155044.005000", "155046.005000", "155048.005000", "155050.005000", "155052.005000", "155054.005000", "155056.006000", "155058.006000", "155100.006000", "155102.006000", "155104.005000", "155106.006000", "155108.005000", "155110.006000", "155112.005000", "155114.006000", "155116.006000", "155118.006000", "155120.006000", "155122.005000", "155124.005000", "155126.006000", "155128.006000", "155130.006000", "155132.006000", "155134.006000", "155136.006000", "155138.006000", "155140.005000", "155142.006000", "155144.006000", "155146.005000", "155148.005000", "155150.005000", "155152.006000", "155154.006000", "155156.006000", "155158.005000", "155200.005000", "155202.006000", "155204.006000", "155206.005000", "155208.005000", "155210.005000", "155212.006000", "155214.005000", "155216.006000", "155218.006000", "155220.005000", "155222.006000", "155224.006000", "155226.015000", "155228.005000", "155230.006000", "155232.006000", "155234.006000", "155236.006000", "155238.006000", "155240.006000", "155242.005000", "155244.005000", "155246.005000", "155248.006000", "155250.006000", "155252.005000", "155254.006000", "155256.006000", "155258.006000", "155300.006000", "155302.006000", "155304.005000", "155306.006000", "155308.006000", "155310.006000", "155312.006000", "155314.006000", "155316.006000", "155318.006000", "155320.006000", "155322.006000", "155324.005000", "155326.006000", "155328.006000", "155330.006000", "155332.006000", "155334.006000", "155336.006000", "155338.006000", "155340.005000", "155342.006000", "155344.006000", "155346.006000", "155348.005000", "155350.005000", "155352.006000", "155354.006000", "155356.005000", "155358.006000", "155400.006000", "155402.006000", "155404.006000", "155406.006000", "155408.006000", "155410.006000", "155412.005000", "155414.006000", "155416.006000", "155418.006000", "155419.735000"],
      "InstanceCreationTime": ["154550.510000", "154552.006000", "154554.005000", "154556.005000", "154558.005000", "154600.005000", "154602.006000", "154604.006000", "154606.005000", "154608.005000", "154610.005000", "154612.006000", "154614.005000", "154616.005000", "154618.005000", "154620.006000", "154622.006000", "154624.005000", "154626.006000", "154628.005000", "154630.005000", "154632.006000", "154634.005000", "154636.005000", "154638.005000", "154640.005000", "154642.006000", "154644.007000", "154646.026000", "154648.006000", "154650.006000", "154652.005000", "154654.006000", "154656.006000", "154658.006000", "154700.006000", "154702.006000", "154704.006000", "154706.006000", "154708.006000", "154710.006000", "154712.006000", "154714.005000", "154716.006000", "154718.006000", "154720.005000", "154722.006000", "154724.005000", "154726.006000", "154728.005000", "154730.005000", "154732.006000", "154734.005000", "154736.006000", "154738.005000", "154740.005000", "154742.005000", "154744.005000", "154746.005000", "154748.005000", "154750.005000", "154752.005000", "154754.006000", "154756.006000", "154758.006000", "154800.005000", "154802.006000", "154804.005000", "154806.005000", "154808.006000", "154810.005000", "154812.005000", "154814.005000", "154816.005000", "154818.005000", "154820.006000", "154822.005000", "154824.005000", "154826.005000", "154828.005000", "154830.005000", "154832.005000", "154834.005000", "154836.005000", "154838.005000", "154840.005000", "154842.005000", "154844.005000", "154846.006000", "154848.005000", "154850.005000", "154852.006000", "154854.005000", "154856.006000", "154858.006000", "154900.005000", "154902.006000", "154904.005000", "154906.005000", "154908.005000", "154910.006000", "154912.006000", "154914.005000", "154916.005000", "154918.005000", "154920.005000", "154922.005000", "154924.005000", "154926.005000", "154928.006000", "154930.005000", "154932.005000", "154934.006000", "154936.005000", "154938.005000", "154940.005000", "154942.005000", "154944.006000", "154946.006000", "154948.005000", "154950.006000", "154952.005000", "154954.005000", "154956.006000", "154958.005000", "155000.005000", "155002.006000", "155004.005000", "155006.005000", "155008.005000", "155010.006000", "155012.006000", "155014.006000", "155016.005000", "155018.006000", "155020.005000", "155022.005000", "155024.005000", "155026.005000", "155028.005000", "155030.005000", "155032.006000", "155034.005000", "155036.005000", "155038.005000", "155040.005000", "155042.006000", "155044.005000", "155046.005000", "155048.005000", "155050.005000", "155052.005000", "155054.005000", "155056.006000", "155058.006000", "155100.006000", "155102.006000", "155104.005000", "155106.006000", "155108.005000", "155110.006000", "155112.005000", "155114.006000", "155116.006000", "155118.006000", "155120.006000", "155122.005000", "155124.005000", "155126.006000", "155128.006000", "155130.006000", "155132.006000", "155134.006000", "155136.006000", "155138.006000", "155140.005000", "155142.006000", "155144.006000", "155146.005000", "155148.005000", "155150.005000", "155152.006000", "155154.006000", "155156.006000", "155158.005000", "155200.005000", "155202.006000", "155204.006000", "155206.005000", "155208.005000", "155210.005000", "155212.006000", "155214.005000", "155216.006000", "155218.006000", "155220.005000", "155222.006000", "155224.006000", "155226.015000", "155228.005000", "155230.006000", "155232.006000", "155234.006000", "155236.006000", "155238.006000", "155240.006000", "155242.005000", "155244.005000", "155246.005000", "155248.006000", "155250.006000", "155252.005000", "155254.006000", "155256.006000", "155258.006000", "155300.006000", "155302.006000", "155304.005000", "155306.006000", "155308.006000", "155310.006000", "155312.006000", "155314.006000", "155316.006000", "155318.006000", "155320.006000", "155322.006000", "155324.005000", "155326.006000", "155328.006000", "155330.006000", "155332.006000", "155334.006000", "155336.006000", "155338.006000", "155340.005000", "155342.006000", "155344.006000", "155346.006000", "155348.005000", "155350.005000", "155352.006000", "155354.006000", "155356.005000", "155358.006000", "155400.006000", "155402.006000", "155404.006000", "155406.006000", "155408.006000", "155410.006000", "155412.005000", "155414.006000", "155416.006000", "155418.006000", "155419.735000"],
      "InstanceNumber": [1, 2, 3, 4, 5, 6, 7, 8, 9, 10, 11, 12, 13, 14, 15, 16, 17, 18, 19, 20, 21, 22, 23, 24, 25, 26, 27, 28, 29, 30, 31, 32, 33, 34, 35, 36, 37, 38, 39, 40, 41, 42, 43, 44, 45, 46, 47, 48, 49, 50, 51, 52, 53, 54, 55, 56, 57, 58, 59, 60, 61, 62, 63, 64, 65, 66, 67, 68, 69, 70, 71, 72, 73, 74, 75, 76, 77, 78, 79, 80, 81, 82, 83, 84, 85, 86, 87, 88, 89, 90, 91, 92, 93, 94, 95, 96, 97, 98, 99, 100, 101, 102, 103, 104, 105, 106, 107, 108, 109, 110, 111, 112, 113, 114, 115, 116, 117, 118, 119, 120, 121, 122, 123, 124, 125, 126, 127, 128, 129, 130, 131, 132, 133, 134, 135, 136, 137, 138, 139, 140, 141, 142, 143, 144, 145, 146, 147, 148, 149, 150, 151, 152, 153, 154, 155, 156, 157, 158, 159, 160, 161, 162, 163, 164, 165, 166, 167, 168, 169, 170, 171, 172, 173, 174, 175, 176, 177, 178, 179, 180, 181, 182, 183, 184, 185, 186, 187, 188, 189, 190, 191, 192, 193, 194, 195, 196, 197, 198, 199, 200, 201, 202, 203, 204, 205, 206, 207, 208, 209, 210, 211, 212, 213, 214, 215, 216, 217, 218, 219, 220, 221, 222, 223, 224, 225, 226, 227, 228, 229, 230, 231, 232, 233, 234, 235, 236, 237, 238, 239, 240, 241, 242, 243, 244, 245, 246, 247, 248, 249, 250, 251, 252, 253, 254, 255, 256],
      "LargestImagePixelValue": [2766, 2725, 2762, 2710, 2699, 2704, 2720, 2773, 2749, 2692, 2710, 2775, 2745, 2715, 2734, 2706, 2763, 2742, 2727, 2759, 2748, 2738, 2777, 2788, 2776, 2740, 2723, 2766, 2799, 2799, 2806, 2806, 2737, 2781, 2787, 2813, 2763, 2801, 2845, 2785, 2756, 2681, 2755, 2738, 2761, 2756, 2758, 2721, 2792, 2770, 2777, 2775, 2811, 2769, 2744, 2806, 2781, 2759, 2796, 2807, 2808, 2782, 2777, 2747, 2784, 2781, 2769, 2815, 2780, 2758, 2762, 2700, 2702, 2696, 2738, 2765, 2784, 2757, 2770, 2824, 2822, 2763, 2758, 2747, 2765, 2811, 2765, 2763, 2807, 2780, 2822, 2851, 2855, 2781, 2792, 2786, 2789, 2784, 2776, 2762, 2796, 2750, 2784, 2759, 2743, 2720, 2762, 2747, 2816, 2766, 2779, 2786, 2795, 2758, 2783, 2814, 2766, 2751, 2809, 2799, 2769, 2742, 2775, 2729, 2754, 2728, 2793, 2802, 2776, 2705, 2781, 2767, 2788, 2741, 2762, 2715, 2714, 2745, 2736, 2779, 2760, 2754, 2730, 2742, 2770, 2766, 2725, 2705, 2749, 2728, 2728, 2677, 2710, 2703, 2770, 2715, 2714, 2716, 2735, 2760, 2756, 2701, 2686, 2706, 2702, 2819, 2684, 2723, 2716, 2726, 2702, 2664, 2718, 2696, 2703, 2671, 2679, 2697, 2781, 2738, 2735, 2717, 2705, 2669, 2714, 2662, 2706, 2759, 2779, 2743, 2735, 2657, 2662, 2668, 2667, 2678, 2672, 2711, 2713, 2685, 2696, 2718, 2678, 2650, 2631, 2657, 2657, 2688, 2703, 2749, 2745, 2757, 2714, 2706, 2751, 2752, 2749, 2651, 2684, 2680, 2679, 2669, 2662, 2704, 2659, 2693, 2694, 2709, 2714, 2736, 2749, 2763, 2716, 2675, 2674, 2635, 2643, 2659, 2628, 2656, 2687, 2669, 2621, 2619, 2650, 2628, 2619, 2660, 2668, 2640, 2846, 2913, 2637, 2960, 2658, 2825],
      "WindowCenter": [751.0, 749.0, 749.0, 748.0, 748.0, 748.0, 749.0, 749.0, 749.0, 749.0, 749.0, 750.0, 750.0, 749.0, 749.0, 748.0, 749.0, 750.0, 749.0, 748.0, 747.0, 748.0, 750.0, 750.0, 750.0, 749.0, 750.0, 749.0, 750.0, 750.0, 751.0, 750.0, 749.0, 748.0, 749.0, 750.0, 750.0, 749.0, 750.0, 749.0, 750.0, 747.0, 749.0, 748.0, 747.0, 748.0, 749.0, 749.0, 750.0, 748.0, 748.0, 749.0, 749.0, 748.0, 748.0, 748.0, 747.0, 748.0, 750.0, 750.0, 750.0, 749.0, 748.0, 747.0, 747.0, 748.0, 748.0, 749.0, 748.0, 748.0, 747.0, 747.0, 748.0, 749.0, 751.0, 752.0, 753.0, 753.0, 753.0, 753.0, 753.0, 751.0, 752.0, 752.0, 752.0, 753.0, 752.0, 752.0, 753.0, 752.0, 753.0, 752.0, 751.0, 750.0, 751.0, 753.0, 753.0, 750.0, 749.0, 748.0, 749.0, 749.0, 749.0, 749.0, 747.0, 747.0, 749.0, 750.0, 751.0, 750.0, 750.0, 751.0, 752.0, 751.0, 751.0, 751.0, 749.0, 748.0, 748.0, 749.0, 749.0, 750.0, 751.0, 750.0, 751.0, 750.0, 751.0, 750.0, 748.0, 747.0, 750.0, 749.0, 749.0, 750.0, 750.0, 750.0, 750.0, 750.0, 749.0, 750.0, 749.0, 749.0, 750.0, 751.0, 752.0, 750.0, 750.0, 749.0, 749.0, 750.0, 750.0, 750.0, 751.0, 752.0, 754.0, 753.0, 753.0, 752.0, 754.0, 754.0, 753.0, 751.0, 749.0, 749.0, 749.0, 750.0, 750.0, 752.0, 754.0, 752.0, 751.0, 749.0, 751.0, 751.0, 751.0, 751.0, 750.0, 750.0, 753.0, 754.0, 754.0, 751.0, 751.0, 749.0, 750.0, 750.0, 751.0, 752.0, 752.0, 752.0, 753.0, 752.0, 752.0, 751.0, 751.0, 751.0, 754.0, 755.0, 754.0, 753.0, 752.0, 751.0, 751.0, 751.0, 750.0, 751.0, 751.0, 752.0, 753.0, 754.0, 756.0, 756.0, 755.0, 754.0, 756.0, 757.0, 757.0, 754.0, 752.0, 751.0, 751.0, 751.0, 751.0, 752.0, 752.0, 753.0, 754.0, 754.0, 754.0, 754.0, 753.0, 752.0, 751.0, 750.0, 751.0, 750.0, 749.0, 749.0, 749.0, 749.0, 749.0, 748.0, 747.0, 747.0, 747.0, 746.0, 746.0, 747.0, 748.0, 746.0, 748.0, 750.0, 746.0, 750.0, 747.0, 749.0],
      "WindowWidth": [1613.0, 1610.0, 1609.0, 1607.0, 1606.0, 1607.0, 1609.0, 1609.0, 1610.0, 1610.0, 1611.0, 1613.0, 1611.0, 1610.0, 1609.0, 1606.0, 1610.0, 1612.0, 1611.0, 1606.0, 1603.0, 1607.0, 1611.0, 1612.0, 1612.0, 1610.0, 1611.0, 1610.0, 1611.0, 1611.0, 1614.0, 1612.0, 1608.0, 1608.0, 1611.0, 1611.0, 1612.0, 1610.0, 1612.0, 1610.0, 1611.0, 1605.0, 1608.0, 1606.0, 1605.0, 1605.0, 1610.0, 1610.0, 1611.0, 1608.0, 1608.0, 1609.0, 1610.0, 1607.0, 1607.0, 1607.0, 1605.0, 1607.0, 1611.0, 1612.0, 1612.0, 1609.0, 1607.0, 1604.0, 1605.0, 1608.0, 1607.0, 1609.0, 1608.0, 1607.0, 1606.0, 1605.0, 1608.0, 1611.0, 1616.0, 1618.0, 1620.0, 1620.0, 1620.0, 1620.0, 1618.0, 1615.0, 1616.0, 1617.0, 1619.0, 1619.0, 1618.0, 1618.0, 1620.0, 1618.0, 1619.0, 1617.0, 1613.0, 1612.0, 1615.0, 1620.0, 1620.0, 1613.0, 1610.0, 1607.0, 1609.0, 1609.0, 1610.0, 1609.0, 1606.0, 1605.0, 1610.0, 1612.0, 1615.0, 1612.0, 1613.0, 1616.0, 1616.0, 1616.0, 1616.0, 1614.0, 1609.0, 1607.0, 1608.0, 1609.0, 1609.0, 1613.0, 1615.0, 1611.0, 1614.0, 1611.0, 1614.0, 1612.0, 1606.0, 1605.0, 1611.0, 1611.0, 1610.0, 1611.0, 1613.0, 1612.0, 1613.0, 1611.0, 1610.0, 1611.0, 1609.0, 1610.0, 1612.0, 1616.0, 1617.0, 1613.0, 1611.0, 1609.0, 1610.0, 1611.0, 1613.0, 1613.0, 1615.0, 1617.0, 1622.0, 1621.0, 1619.0, 1618.0, 1624.0, 1623.0, 1621.0, 1614.0, 1610.0, 1609.0, 1609.0, 1612.0, 1613.0, 1617.0, 1622.0, 1618.0, 1615.0, 1611.0, 1615.0, 1614.0, 1615.0, 1614.0, 1612.0, 1613.0, 1619.0, 1622.0, 1622.0, 1615.0, 1614.0, 1610.0, 1613.0, 1613.0, 1616.0, 1617.0, 1617.0, 1617.0, 1620.0, 1619.0, 1618.0, 1616.0, 1614.0, 1616.0, 1621.0, 1624.0, 1621.0, 1618.0, 1615.0, 1614.0, 1615.0, 1614.0, 1612.0, 1614.0, 1615.0, 1618.0, 1619.0, 1622.0, 1626.0, 1627.0, 1625.0, 1622.0, 1628.0, 1630.0, 1629.0, 1622.0, 1616.0, 1614.0, 1615.0, 1616.0, 1616.0, 1618.0, 1618.0, 1621.0, 1621.0, 1622.0, 1623.0, 1621.0, 1619.0, 1617.0, 1615.0, 1611.0, 1613.0, 1611.0, 1608.0, 1608.0, 1610.0, 1610.0, 1611.0, 1608.0, 1605.0, 1604.0, 1604.0, 1601.0, 1602.0, 1603.0, 1605.0, 1601.0, 1606.0, 1611.0, 1602.0, 1610.0, 1602.0, 1610.0]
    },
    "slices": {}
  }
}