{
 "AcquisitionMatrixPE": 100,
 "AcquisitionNumber": 1,
 "AcquisitionTime": "10:28:53.702500",
 "BandwidthPerPixelPhaseEncode": 18.519,
 "BaseResolution": 100,
 "BodyPartExamined": "BRAIN",
 "ConsistencyInfo": "N4_VE11C_LATEST_20160120",
 "ConversionSoftware": "dcm2niix",
 "ConversionSoftwareVersion": "v1.0.20180622 GCC4.9.2",
 "DerivedVendorReportedEchoSpacing": 0.000539986,
 "DeviceSerialNumber": "166078",
 "DwellTime": 2.1e-06,
 "EchoTime": 0.034,
 "EchoTrainLength": 100,
 "EffectiveEchoSpacing": 0.000539986,
 "FlipAngle": 90,
 "ImageOrientationPatientDICOM": [
  1,
  0,
  0,
  0,
  0.995396,
  -0.0958458
 ],
 "ImageType": [
  "ORIGINAL",
  "PRIMARY",
  "M",
  "ND",
  "MOSAIC"
 ],
 "InPlanePhaseEncodingDirectionDICOM": "COL",
 "InstitutionAddress": "Street_StreetNo_Bei_Jing_District_CN_ZIP",
 "InstitutionName": "BeiJing_Normal_University",
 "InstitutionalDepartmentName": "Department",
 "MRAcquisitionType": "2D",
 "MagneticFieldStrength": 3,
 "Manufacturer": "Siemens",
 "ManufacturersModelName": "Prisma",
 "Modality": "MR",
 "MultibandAccelerationFactor": 3,
 "PartialFourier": 1,
 "PatientPosition": "HFS",
 "PercentPhaseFOV": 100,
 "PhaseEncodingDirection": "j-",
 "PhaseEncodingSteps": 100,
 "PhaseResolution": 1,
 "PixelBandwidth": 2380,
 "ProcedureStepDescription": "BNU_P2018_64CH_Zhen.ZongLei",
 "ProtocolName": "bold_100x100_s3_2x2x2_static_256",
 "PulseSequenceDetails": "%SiemensSeq%_ep2d_bold",
 "ReceiveCoilActiveElements": "HC1-7;NC1",
 "ReceiveCoilName": "HeadNeck_64",
 "ReconMatrixPE": 100,
 "RepetitionTime": 2,
 "SAR": 0.0785448,
 "ScanOptions": "FS",
 "ScanningSequence": "EP",
 "SequenceName": "_epfid2d1_100",
 "SequenceVariant": "SK",
 "SeriesDescription": "bold_100x100_s3_2x2x2_static_256",
 "SeriesNumber": 13,
 "ShimSetting": [
  -5454,
  -11495,
  -1248,
  141,
  -61,
  -307,
  -206,
  57
 ],
 "SliceThickness": 2,
 "SliceTiming": [
  1.485,
  0,
  0.99,
  0.0825,
  1.0725,
  0.165,
  1.155,
  0.2475,
  1.2375,
  0.33,
  1.32,
  0.4125,
  1.4025,
  0.5775,
  1.5675,
  0.66,
  1.65,
  0.7425,
  1.7325,
  0.825,
  1.815,
  0.9075,
  1.8975,
  0.495,
  1.485,
  0,
  0.99,
  0.0825,
  1.0725,
  0.165,
  1.155,
  0.2475,
  1.2375,
  0.33,
  1.32,
  0.4125,
  1.4025,
  0.5775,
  1.5675,
  0.66,
  1.65,
  0.7425,
  1.7325,
  0.825,
  1.815,
  0.9075,
  1.8975,
  0.495,
  1.485,
  0,
  0.99,
  0.0825,
  1.0725,
  0.165,
  1.155,
  0.2475,
  1.2375,
  0.33,
  1.32,
  0.4125,
  1.4025,
  0.5775,
  1.5675,
  0.66,
  1.65,
  0.7425,
  1.7325,
  0.825,
  1.815,
  0.9075,
  1.8975,
  0.495
 ],
 "SoftwareVersions": "syngo_MR_E11",
 "SpacingBetweenSlices": 2,
 "StationName": "AWP166078",
 "TaskName": "imagenet",
 "TotalReadoutTime": 0.0534586,
 "TxRefAmp": 245.379,
 "dcmmeta_affine": [
  [
   -2.0,
   0.0,
   0.0,
   102.02409362792969
  ],
  [
   0.0,
   1.9907923936843872,
   -0.19169150292873383,
   -88.43534851074219
  ],
  [
   0.0,
   0.19169150292873383,
   1.9907923936843872,
   -78.96721649169922
  ],
  [
   0.0,
   0.0,
   0.0,
   1.0
  ]
 ],
 "dcmmeta_reorient_transform": [
  [
   0.0,
   -1.0,
   0.0,
   99.0
  ],
  [
   1.0,
   0.0,
   0.0,
   0.0
  ],
  [
   0.0,
   0.0,
   1.0,
   0.0
  ],
  [
   0.0,
   0.0,
   0.0,
   1.0
  ]
 ],
 "dcmmeta_shape": [
  100,
  100,
  72,
  256
 ],
 "dcmmeta_slice_dim": 2,
 "dcmmeta_version": 0.6,
 "global": {
  "const": {
   "AcquisitionMatrix": [
    100,
    0,
    0,
    100
   ],
   "AngioFlag": "N",
   "BitsAllocated": 16,
   "BitsStored": 12,
   "BodyPartExamined": "BRAIN",
   "Columns": 900,
   "EchoNumbers": 1,
   "EchoTime": 34.0,
   "EchoTrainLength": 100,
   "FlipAngle": 90.0,
   "HighBit": 11,
   "ImageOrientationPatient": [
    1.0,
    0.0,
    0.0,
    0.0,
    0.99539619816501,
    -0.0958457546198
   ],
   "ImagePositionPatient": [
    -902.02409648895,
    -904.97006082379,
    16.686845966907
   ],
   "ImageType": [
    "ORIGINAL",
    "PRIMARY",
    "M",
    "ND",
    "MOSAIC"
   ],
   "ImagedNucleus": "1H",
   "ImagingFrequency": 123.257779,
   "InPlanePhaseEncodingDirection": "COL",
   "MRAcquisitionType": "2D",
   "MagneticFieldStrength": 3.0,
   "Manufacturer": "SIEMENS",
   "ManufacturerModelName": "Prisma",
   "Modality": "MR",
   "NumberOfAverages": 1.0,
   "NumberOfPhaseEncodingSteps": 100,
   "PercentPhaseFieldOfView": 100.0,
   "PercentSampling": 100.0,
   "PerformedProcedureStepStartTime": "085838.769000",
   "PhotometricInterpretation": "MONOCHROME2",
   "PixelBandwidth": 2380.0,
   "PixelRepresentation": 0,
   "PixelSpacing": [
    2.0,
    2.0
   ],
   "ProtocolName": "bold_100x100_s3_2x2x2_static_256",
   "RepetitionTime": 2000.0,
   "Rows": 900,
   "SAR": 0.07854475701914,
   "SamplesPerPixel": 1,
   "ScanOptions": "FS",
   "ScanningSequence": "EP",
   "SequenceName": "*epfid2d1_100",
   "SequenceVariant": "SK",
   "SeriesDescription": "bold_100x100_s3_2x2x2_static_256",
   "SeriesNumber": 13,
   "SeriesTime": "102855.939000",
   "SliceLocation": -70.127515353163,
   "SliceThickness": 2.0,
   "SmallestImagePixelValue": 0,
   "SoftwareVersions": "syngo MR E11",
   "SpacingBetweenSlices": 1.9999999987347,
   "SpecificCharacterSet": "ISO_IR 100",
   "StudyID": "1",
   "StudyTime": "085838.642000",
   "TransmitCoilName": "Body",
   "VariableFlipAngleFlag": "N",
   "WindowCenterWidthExplanation": "Algo1",
   "dBdt": 0.0
  },
  "slices": {}
 },
 "time": {
  "samples": {
   "AcquisitionNumber": [
    1,
    2,
    3,
    4,
    5,
    6,
    7,
    8,
    9,
    10,
    11,
    12,
    13,
    14,
    15,
    16,
    17,
    18,
    19,
    20,
    21,
    22,
    23,
    24,
    25,
    26,
    27,
    28,
    29,
    30,
    31,
    32,
    33,
    34,
    35,
    36,
    37,
    38,
    39,
    40,
    41,
    42,
    43,
    44,
    45,
    46,
    47,
    48,
    49,
    50,
    51,
    52,
    53,
    54,
    55,
    56,
    57,
    58,
    59,
    60,
    61,
    62,
    63,
    64,
    65,
    66,
    67,
    68,
    69,
    70,
    71,
    72,
    73,
    74,
    75,
    76,
    77,
    78,
    79,
    80,
    81,
    82,
    83,
    84,
    85,
    86,
    87,
    88,
    89,
    90,
    91,
    92,
    93,
    94,
    95,
    96,
    97,
    98,
    99,
    100,
    101,
    102,
    103,
    104,
    105,
    106,
    107,
    108,
    109,
    110,
    111,
    112,
    113,
    114,
    115,
    116,
    117,
    118,
    119,
    120,
    121,
    122,
    123,
    124,
    125,
    126,
    127,
    128,
    129,
    130,
    131,
    132,
    133,
    134,
    135,
    136,
    137,
    138,
    139,
    140,
    141,
    142,
    143,
    144,
    145,
    146,
    147,
    148,
    149,
    150,
    151,
    152,
    153,
    154,
    155,
    156,
    157,
    158,
    159,
    160,
    161,
    162,
    163,
    164,
    165,
    166,
    167,
    168,
    169,
    170,
    171,
    172,
    173,
    174,
    175,
    176,
    177,
    178,
    179,
    180,
    181,
    182,
    183,
    184,
    185,
    186,
    187,
    188,
    189,
    190,
    191,
    192,
    193,
    194,
    195,
    196,
    197,
    198,
    199,
    200,
    201,
    202,
    203,
    204,
    205,
    206,
    207,
    208,
    209,
    210,
    211,
    212,
    213,
    214,
    215,
    216,
    217,
    218,
    219,
    220,
    221,
    222,
    223,
    224,
    225,
    226,
    227,
    228,
    229,
    230,
    231,
    232,
    233,
    234,
    235,
    236,
    237,
    238,
    239,
    240,
    241,
    242,
    243,
    244,
    245,
    246,
    247,
    248,
    249,
    250,
    251,
    252,
    253,
    254,
    255,
    256
   ],
   "AcquisitionTime": [
    "102853.702500",
    "102855.702500",
    "102857.702500",
    "102859.702500",
    "102901.702500",
    "102903.702500",
    "102905.702500",
    "102907.702500",
    "102909.702500",
    "102911.702500",
    "102913.702500",
    "102915.702500",
    "102917.702500",
    "102919.702500",
    "102921.702500",
    "102923.702500",
    "102925.702500",
    "102927.702500",
    "102929.702500",
    "102931.702500",
    "102933.702500",
    "102935.702500",
    "102937.702500",
    "102939.702500",
    "102941.702500",
    "102943.702500",
    "102945.702500",
    "102947.702500",
    "102949.702500",
    "102951.702500",
    "102953.702500",
    "102955.702500",
    "102957.702500",
    "102959.702500",
    "103001.702500",
    "103003.702500",
    "103005.702500",
    "103007.702500",
    "103009.702500",
    "103011.702500",
    "103013.702500",
    "103015.702500",
    "103017.702500",
    "103019.702500",
    "103021.702500",
    "103023.702500",
    "103025.702500",
    "103027.702500",
    "103029.702500",
    "103031.702500",
    "103033.702500",
    "103035.702500",
    "103037.702500",
    "103039.702500",
    "103041.702500",
    "103043.702500",
    "103045.702500",
    "103047.702500",
    "103049.702500",
    "103051.702500",
    "103053.702500",
    "103055.702500",
    "103057.702500",
    "103059.702500",
    "103101.702500",
    "103103.702500",
    "103105.702500",
    "103107.702500",
    "103109.702500",
    "103111.702500",
    "103113.702500",
    "103115.702500",
    "103117.702500",
    "103119.702500",
    "103121.702500",
    "103123.702500",
    "103125.702500",
    "103127.702500",
    "103129.702500",
    "103131.702500",
    "103133.702500",
    "103135.702500",
    "103137.702500",
    "103139.702500",
    "103141.702500",
    "103143.702500",
    "103145.702500",
    "103147.702500",
    "103149.702500",
    "103151.702500",
    "103153.702500",
    "103155.702500",
    "103157.702500",
    "103159.702500",
    "103201.702500",
    "103203.702500",
    "103205.702500",
    "103207.702500",
    "103209.702500",
    "103211.702500",
    "103213.702500",
    "103215.702500",
    "103217.702500",
    "103219.702500",
    "103221.702500",
    "103223.702500",
    "103225.702500",
    "103227.702500",
    "103229.702500",
    "103231.702500",
    "103233.702500",
    "103235.702500",
    "103237.702500",
    "103239.702500",
    "103241.702500",
    "103243.702500",
    "103245.702500",
    "103247.702500",
    "103249.702500",
    "103251.702500",
    "103253.702500",
    "103255.702500",
    "103257.702500",
    "103259.702500",
    "103301.702500",
    "103303.702500",
    "103305.702500",
    "103307.702500",
    "103309.702500",
    "103311.702500",
    "103313.702500",
    "103315.702500",
    "103317.702500",
    "103319.702500",
    "103321.702500",
    "103323.702500",
    "103325.702500",
    "103327.702500",
    "103329.702500",
    "103331.702500",
    "103333.702500",
    "103335.702500",
    "103337.702500",
    "103339.702500",
    "103341.702500",
    "103343.702500",
    "103345.702500",
    "103347.702500",
    "103349.702500",
    "103351.702500",
    "103353.702500",
    "103355.702500",
    "103357.702500",
    "103359.702500",
    "103401.702500",
    "103403.702500",
    "103405.702500",
    "103407.702500",
    "103409.702500",
    "103411.702500",
    "103413.702500",
    "103415.702500",
    "103417.702500",
    "103419.702500",
    "103421.702500",
    "103423.702500",
    "103425.702500",
    "103427.702500",
    "103429.702500",
    "103431.702500",
    "103433.702500",
    "103435.702500",
    "103437.702500",
    "103439.702500",
    "103441.702500",
    "103443.702500",
    "103445.702500",
    "103447.702500",
    "103449.702500",
    "103451.702500",
    "103453.702500",
    "103455.702500",
    "103457.702500",
    "103459.702500",
    "103501.702500",
    "103503.702500",
    "103505.702500",
    "103507.702500",
    "103509.702500",
    "103511.702500",
    "103513.702500",
    "103515.702500",
    "103517.702500",
    "103519.702500",
    "103521.702500",
    "103523.702500",
    "103525.702500",
    "103527.702500",
    "103529.702500",
    "103531.702500",
    "103533.702500",
    "103535.702500",
    "103537.702500",
    "103539.702500",
    "103541.702500",
    "103543.702500",
    "103545.702500",
    "103547.702500",
    "103549.702500",
    "103551.702500",
    "103553.702500",
    "103555.702500",
    "103557.702500",
    "103559.702500",
    "103601.702500",
    "103603.702500",
    "103605.702500",
    "103607.702500",
    "103609.702500",
    "103611.702500",
    "103613.702500",
    "103615.702500",
    "103617.702500",
    "103619.702500",
    "103621.702500",
    "103623.702500",
    "103625.702500",
    "103627.702500",
    "103629.702500",
    "103631.702500",
    "103633.702500",
    "103635.702500",
    "103637.702500",
    "103639.702500",
    "103641.702500",
    "103643.702500",
    "103645.702500",
    "103647.702500",
    "103649.702500",
    "103651.702500",
    "103653.702500",
    "103655.702500",
    "103657.702500",
    "103659.702500",
    "103701.702500",
    "103703.702500",
    "103705.702500",
    "103707.702500",
    "103709.702500",
    "103711.702500",
    "103713.702500",
    "103715.702500",
    "103717.702500",
    "103719.702500",
    "103721.702500",
    "103723.702500"
   ],
   "ContentTime": [
    "102855.943000",
    "102857.439000",
    "102859.440000",
    "102901.459000",
    "102903.439000",
    "102905.439000",
    "102907.439000",
    "102909.439000",
    "102911.438000",
    "102913.439000",
    "102915.440000",
    "102917.439000",
    "102919.440000",
    "102921.439000",
    "102923.440000",
    "102925.439000",
    "102927.440000",
    "102929.439000",
    "102931.439000",
    "102933.439000",
    "102935.440000",
    "102937.439000",
    "102939.439000",
    "102941.440000",
    "102943.439000",
    "102945.439000",
    "102947.439000",
    "102949.439000",
    "102951.440000",
    "102953.439000",
    "102955.440000",
    "102957.440000",
    "102959.440000",
    "103001.439000",
    "103003.439000",
    "103005.439000",
    "103007.440000",
    "103009.440000",
    "103011.440000",
    "103013.440000",
    "103015.440000",
    "103017.440000",
    "103019.439000",
    "103021.439000",
    "103023.439000",
    "103025.440000",
    "103027.440000",
    "103029.439000",
    "103031.440000",
    "103033.440000",
    "103035.440000",
    "103037.440000",
    "103039.439000",
    "103041.439000",
    "103043.440000",
    "103045.440000",
    "103047.440000",
    "103049.440000",
    "103051.440000",
    "103053.439000",
    "103055.439000",
    "103057.439000",
    "103059.439000",
    "103101.439000",
    "103103.440000",
    "103105.440000",
    "103107.439000",
    "103109.440000",
    "103111.439000",
    "103113.439000",
    "103115.439000",
    "103117.439000",
    "103119.439000",
    "103121.440000",
    "103123.440000",
    "103125.440000",
    "103127.439000",
    "103129.440000",
    "103131.439000",
    "103133.438000",
    "103135.439000",
    "103137.439000",
    "103139.440000",
    "103141.440000",
    "103143.440000",
    "103145.440000",
    "103147.439000",
    "103149.439000",
    "103151.440000",
    "103153.440000",
    "103155.439000",
    "103157.440000",
    "103159.440000",
    "103201.440000",
    "103203.439000",
    "103205.439000",
    "103207.438000",
    "103209.440000",
    "103211.440000",
    "103213.439000",
    "103215.440000",
    "103217.440000",
    "103219.440000",
    "103221.440000",
    "103223.439000",
    "103225.439000",
    "103227.439000",
    "103229.439000",
    "103231.440000",
    "103233.440000",
    "103235.439000",
    "103237.440000",
    "103239.440000",
    "103241.439000",
    "103243.439000",
    "103245.440000",
    "103247.439000",
    "103249.440000",
    "103251.439000",
    "103253.440000",
    "103255.439000",
    "103257.440000",
    "103259.439000",
    "103301.439000",
    "103303.440000",
    "103305.440000",
    "103307.440000",
    "103309.439000",
    "103311.439000",
    "103313.440000",
    "103315.440000",
    "103317.439000",
    "103319.440000",
    "103321.440000",
    "103323.440000",
    "103325.439000",
    "103327.439000",
    "103329.440000",
    "103331.440000",
    "103333.439000",
    "103335.438000",
    "103337.440000",
    "103339.440000",
    "103341.440000",
    "103343.440000",
    "103345.440000",
    "103347.440000",
    "103349.440000",
    "103351.439000",
    "103353.439000",
    "103355.440000",
    "103357.440000",
    "103359.439000",
    "103401.440000",
    "103403.440000",
    "103405.440000",
    "103407.440000",
    "103409.439000",
    "103411.440000",
    "103413.459000",
    "103415.440000",
    "103417.440000",
    "103419.440000",
    "103421.439000",
    "103423.440000",
    "103425.450000",
    "103427.439000",
    "103429.439000",
    "103431.439000",
    "103433.439000",
    "103435.439000",
    "103437.439000",
    "103439.439000",
    "103441.440000",
    "103443.439000",
    "103445.439000",
    "103447.440000",
    "103449.440000",
    "103451.439000",
    "103453.440000",
    "103455.440000",
    "103457.440000",
    "103459.439000",
    "103501.438000",
    "103503.439000",
    "103505.440000",
    "103507.440000",
    "103509.439000",
    "103511.440000",
    "103513.440000",
    "103515.440000",
    "103517.440000",
    "103519.439000",
    "103521.439000",
    "103523.440000",
    "103525.439000",
    "103527.440000",
    "103529.440000",
    "103531.440000",
    "103533.440000",
    "103535.440000",
    "103537.439000",
    "103539.440000",
    "103541.440000",
    "103543.439000",
    "103545.439000",
    "103547.440000",
    "103549.440000",
    "103551.440000",
    "103553.439000",
    "103555.439000",
    "103557.440000",
    "103559.439000",
    "103601.439000",
    "103603.439000",
    "103605.440000",
    "103607.440000",
    "103609.440000",
    "103611.438000",
    "103613.439000",
    "103615.440000",
    "103617.439000",
    "103619.440000",
    "103621.440000",
    "103623.439000",
    "103625.439000",
    "103627.440000",
    "103629.439000",
    "103631.440000",
    "103633.440000",
    "103635.440000",
    "103637.439000",
    "103639.439000",
    "103641.439000",
    "103643.440000",
    "103645.440000",
    "103647.459000",
    "103649.440000",
    "103651.440000",
    "103653.439000",
    "103655.440000",
    "103657.440000",
    "103659.440000",
    "103701.439000",
    "103703.439000",
    "103705.438000",
    "103707.439000",
    "103709.440000",
    "103711.440000",
    "103713.440000",
    "103715.439000",
    "103717.439000",
    "103719.440000",
    "103721.439000",
    "103723.439000",
    "103725.159000"
   ],
   "InstanceCreationTime": [
    "102855.943000",
    "102857.439000",
    "102859.440000",
    "102901.459000",
    "102903.439000",
    "102905.439000",
    "102907.439000",
    "102909.439000",
    "102911.438000",
    "102913.439000",
    "102915.440000",
    "102917.439000",
    "102919.440000",
    "102921.439000",
    "102923.440000",
    "102925.439000",
    "102927.440000",
    "102929.439000",
    "102931.439000",
    "102933.439000",
    "102935.440000",
    "102937.439000",
    "102939.439000",
    "102941.440000",
    "102943.439000",
    "102945.439000",
    "102947.439000",
    "102949.439000",
    "102951.440000",
    "102953.439000",
    "102955.440000",
    "102957.440000",
    "102959.440000",
    "103001.439000",
    "103003.439000",
    "103005.439000",
    "103007.440000",
    "103009.440000",
    "103011.440000",
    "103013.440000",
    "103015.440000",
    "103017.440000",
    "103019.439000",
    "103021.439000",
    "103023.439000",
    "103025.440000",
    "103027.440000",
    "103029.439000",
    "103031.440000",
    "103033.440000",
    "103035.440000",
    "103037.440000",
    "103039.439000",
    "103041.439000",
    "103043.440000",
    "103045.440000",
    "103047.440000",
    "103049.440000",
    "103051.440000",
    "103053.439000",
    "103055.439000",
    "103057.439000",
    "103059.439000",
    "103101.439000",
    "103103.440000",
    "103105.440000",
    "103107.439000",
    "103109.440000",
    "103111.439000",
    "103113.439000",
    "103115.439000",
    "103117.439000",
    "103119.439000",
    "103121.440000",
    "103123.440000",
    "103125.440000",
    "103127.439000",
    "103129.440000",
    "103131.439000",
    "103133.438000",
    "103135.439000",
    "103137.439000",
    "103139.440000",
    "103141.440000",
    "103143.440000",
    "103145.440000",
    "103147.439000",
    "103149.439000",
    "103151.440000",
    "103153.440000",
    "103155.439000",
    "103157.440000",
    "103159.440000",
    "103201.440000",
    "103203.439000",
    "103205.439000",
    "103207.438000",
    "103209.440000",
    "103211.440000",
    "103213.439000",
    "103215.440000",
    "103217.440000",
    "103219.440000",
    "103221.440000",
    "103223.439000",
    "103225.439000",
    "103227.439000",
    "103229.439000",
    "103231.440000",
    "103233.440000",
    "103235.439000",
    "103237.440000",
    "103239.440000",
    "103241.439000",
    "103243.439000",
    "103245.440000",
    "103247.439000",
    "103249.440000",
    "103251.439000",
    "103253.440000",
    "103255.439000",
    "103257.440000",
    "103259.439000",
    "103301.439000",
    "103303.440000",
    "103305.440000",
    "103307.440000",
    "103309.439000",
    "103311.439000",
    "103313.440000",
    "103315.440000",
    "103317.439000",
    "103319.440000",
    "103321.440000",
    "103323.440000",
    "103325.439000",
    "103327.439000",
    "103329.440000",
    "103331.440000",
    "103333.439000",
    "103335.438000",
    "103337.440000",
    "103339.440000",
    "103341.440000",
    "103343.440000",
    "103345.440000",
    "103347.440000",
    "103349.440000",
    "103351.439000",
    "103353.439000",
    "103355.440000",
    "103357.440000",
    "103359.439000",
    "103401.440000",
    "103403.440000",
    "103405.440000",
    "103407.440000",
    "103409.439000",
    "103411.440000",
    "103413.459000",
    "103415.440000",
    "103417.440000",
    "103419.440000",
    "103421.439000",
    "103423.440000",
    "103425.450000",
    "103427.439000",
    "103429.439000",
    "103431.439000",
    "103433.439000",
    "103435.439000",
    "103437.439000",
    "103439.439000",
    "103441.440000",
    "103443.439000",
    "103445.439000",
    "103447.440000",
    "103449.440000",
    "103451.439000",
    "103453.440000",
    "103455.440000",
    "103457.440000",
    "103459.439000",
    "103501.438000",
    "103503.439000",
    "103505.440000",
    "103507.440000",
    "103509.439000",
    "103511.440000",
    "103513.440000",
    "103515.440000",
    "103517.440000",
    "103519.439000",
    "103521.439000",
    "103523.440000",
    "103525.439000",
    "103527.440000",
    "103529.440000",
    "103531.440000",
    "103533.440000",
    "103535.440000",
    "103537.439000",
    "103539.440000",
    "103541.440000",
    "103543.439000",
    "103545.439000",
    "103547.440000",
    "103549.440000",
    "103551.440000",
    "103553.439000",
    "103555.439000",
    "103557.440000",
    "103559.439000",
    "103601.439000",
    "103603.439000",
    "103605.440000",
    "103607.440000",
    "103609.440000",
    "103611.438000",
    "103613.439000",
    "103615.440000",
    "103617.439000",
    "103619.440000",
    "103621.440000",
    "103623.439000",
    "103625.439000",
    "103627.440000",
    "103629.439000",
    "103631.440000",
    "103633.440000",
    "103635.440000",
    "103637.439000",
    "103639.439000",
    "103641.439000",
    "103643.440000",
    "103645.440000",
    "103647.459000",
    "103649.440000",
    "103651.440000",
    "103653.439000",
    "103655.440000",
    "103657.440000",
    "103659.440000",
    "103701.439000",
    "103703.439000",
    "103705.438000",
    "103707.439000",
    "103709.440000",
    "103711.440000",
    "103713.440000",
    "103715.439000",
    "103717.439000",
    "103719.440000",
    "103721.439000",
    "103723.439000",
    "103725.159000"
   ],
   "InstanceNumber": [
    1,
    2,
    3,
    4,
    5,
    6,
    7,
    8,
    9,
    10,
    11,
    12,
    13,
    14,
    15,
    16,
    17,
    18,
    19,
    20,
    21,
    22,
    23,
    24,
    25,
    26,
    27,
    28,
    29,
    30,
    31,
    32,
    33,
    34,
    35,
    36,
    37,
    38,
    39,
    40,
    41,
    42,
    43,
    44,
    45,
    46,
    47,
    48,
    49,
    50,
    51,
    52,
    53,
    54,
    55,
    56,
    57,
    58,
    59,
    60,
    61,
    62,
    63,
    64,
    65,
    66,
    67,
    68,
    69,
    70,
    71,
    72,
    73,
    74,
    75,
    76,
    77,
    78,
    79,
    80,
    81,
    82,
    83,
    84,
    85,
    86,
    87,
    88,
    89,
    90,
    91,
    92,
    93,
    94,
    95,
    96,
    97,
    98,
    99,
    100,
    101,
    102,
    103,
    104,
    105,
    106,
    107,
    108,
    109,
    110,
    111,
    112,
    113,
    114,
    115,
    116,
    117,
    118,
    119,
    120,
    121,
    122,
    123,
    124,
    125,
    126,
    127,
    128,
    129,
    130,
    131,
    132,
    133,
    134,
    135,
    136,
    137,
    138,
    139,
    140,
    141,
    142,
    143,
    144,
    145,
    146,
    147,
    148,
    149,
    150,
    151,
    152,
    153,
    154,
    155,
    156,
    157,
    158,
    159,
    160,
    161,
    162,
    163,
    164,
    165,
    166,
    167,
    168,
    169,
    170,
    171,
    172,
    173,
    174,
    175,
    176,
    177,
    178,
    179,
    180,
    181,
    182,
    183,
    184,
    185,
    186,
    187,
    188,
    189,
    190,
    191,
    192,
    193,
    194,
    195,
    196,
    197,
    198,
    199,
    200,
    201,
    202,
    203,
    204,
    205,
    206,
    207,
    208,
    209,
    210,
    211,
    212,
    213,
    214,
    215,
    216,
    217,
    218,
    219,
    220,
    221,
    222,
    223,
    224,
    225,
    226,
    227,
    228,
    229,
    230,
    231,
    232,
    233,
    234,
    235,
    236,
    237,
    238,
    239,
    240,
    241,
    242,
    243,
    244,
    245,
    246,
    247,
    248,
    249,
    250,
    251,
    252,
    253,
    254,
    255,
    256
   ],
   "LargestImagePixelValue": [
    3193,
    3076,
    3033,
    3037,
    3071,
    3062,
    3055,
    3054,
    3097,
    3072,
    3077,
    3098,
    3060,
    3069,
    3188,
    3082,
    3146,
    3142,
    3039,
    3097,
    3153,
    3075,
    3099,
    3168,
    3095,
    3106,
    3137,
    3171,
    3140,
    3153,
    3132,
    3229,
    3193,
    3134,
    3210,
    3218,
    3083,
    3068,
    3140,
    3145,
    3202,
    3062,
    3181,
    3082,
    3166,
    3215,
    3087,
    3166,
    3208,
    3062,
    3279,
    3089,
    3241,
    3071,
    3230,
    3218,
    3229,
    3221,
    3081,
    3229,
    3169,
    3235,
    3169,
    3241,
    3112,
    3203,
    3291,
    3167,
    3331,
    3072,
    3266,
    3289,
    3179,
    3198,
    3141,
    3216,
    3204,
    3164,
    3195,
    3234,
    3158,
    3340,
    3068,
    3339,
    3338,
    3392,
    3147,
    3135,
    3302,
    3505,
    3361,
    3056,
    3271,
    3294,
    3071,
    3276,
    3125,
    3175,
    3229,
    3248,
    3169,
    3211,
    3178,
    3262,
    3137,
    3292,
    3187,
    3237,
    3047,
    3220,
    3277,
    3210,
    3135,
    3223,
    3176,
    3177,
    3054,
    3122,
    3252,
    3180,
    3192,
    3224,
    3187,
    3123,
    3159,
    3235,
    3121,
    3204,
    3160,
    3215,
    3253,
    3104,
    3218,
    3259,
    3117,
    3045,
    3229,
    3184,
    3201,
    3153,
    3258,
    3106,
    3165,
    3146,
    3245,
    3112,
    3346,
    3191,
    3262,
    3066,
    3065,
    3042,
    3068,
    3055,
    3054,
    3045,
    3055,
    3114,
    3217,
    3042,
    3029,
    3165,
    3034,
    3043,
    3047,
    3085,
    3067,
    3171,
    3204,
    3157,
    3068,
    3267,
    3281,
    3264,
    3233,
    3220,
    3211,
    3162,
    3057,
    3322,
    3127,
    3240,
    3071,
    3092,
    3241,
    3058,
    3177,
    3341,
    3318,
    3025,
    3209,
    3293,
    3343,
    3274,
    3211,
    3175,
    3084,
    3183,
    3104,
    3104,
    3106,
    3081,
    3217,
    3140,
    3059,
    3241,
    3299,
    3280,
    3249,
    3259,
    3130,
    3290,
    3250,
    3060,
    3161,
    3325,
    3172,
    3355,
    3256,
    3364,
    3423,
    3285,
    3343,
    3374,
    3300,
    3331,
    3404,
    3303,
    3318,
    3354,
    3339,
    3377,
    3499,
    3158,
    3417,
    3372,
    3383,
    3209,
    3192,
    3270,
    3320,
    3324,
    3375,
    3195,
    3264,
    3323,
    3145,
    3241,
    3110,
    3230,
    3249,
    3156,
    3289,
    3087,
    3225,
    3291
   ],
   "WindowCenter": [
    844.0,
    841.0,
    838.0,
    837.0,
    837.0,
    839.0,
    839.0,
    839.0,
    839.0,
    838.0,
    839.0,
    840.0,
    840.0,
    838.0,
    838.0,
    836.0,
    835.0,
    835.0,
    834.0,
    834.0,
    834.0,
    835.0,
    836.0,
    837.0,
    837.0,
    835.0,
    837.0,
    837.0,
    836.0,
    836.0,
    836.0,
    836.0,
    835.0,
    834.0,
    835.0,
    836.0,
    834.0,
    834.0,
    835.0,
    836.0,
    837.0,
    836.0,
    837.0,
    835.0,
    837.0,
    839.0,
    837.0,
    837.0,
    836.0,
    835.0,
    838.0,
    836.0,
    837.0,
    834.0,
    834.0,
    834.0,
    834.0,
    835.0,
    834.0,
    835.0,
    836.0,
    837.0,
    837.0,
    836.0,
    835.0,
    837.0,
    838.0,
    837.0,
    837.0,
    834.0,
    835.0,
    835.0,
    833.0,
    833.0,
    834.0,
    836.0,
    835.0,
    835.0,
    836.0,
    836.0,
    836.0,
    838.0,
    837.0,
    838.0,
    838.0,
    839.0,
    836.0,
    834.0,
    835.0,
    837.0,
    837.0,
    834.0,
    835.0,
    834.0,
    833.0,
    835.0,
    834.0,
    835.0,
    836.0,
    837.0,
    837.0,
    838.0,
    838.0,
    838.0,
    837.0,
    839.0,
    840.0,
    840.0,
    837.0,
    838.0,
    838.0,
    837.0,
    835.0,
    836.0,
    835.0,
    835.0,
    833.0,
    835.0,
    838.0,
    838.0,
    837.0,
    836.0,
    837.0,
    838.0,
