{
  "AcquisitionMatrixPE": 100,
  "AcquisitionNumber": 1,
  "AcquisitionTime": "10:38:18.672500",
  "BandwidthPerPixelPhaseEncode": 18.519,
  "BaseResolution": 100,
  "BodyPartExamined": "BRAIN",
  "ConsistencyInfo": "N4_VE11C_LATEST_20160120",
  "ConversionSoftware": "dcm2niix",
  "ConversionSoftwareVersion": "v1.0.20180622 GCC4.9.2",
  "DerivedVendorReportedEchoSpacing": 0.000539986,
  "DeviceSerialNumber": "166078",
  "DwellTime": 2.1e-06,
  "EchoTime": 0.034,
  "EchoTrainLength": 100,
  "EffectiveEchoSpacing": 0.000539986,
  "FlipAngle": 90,
  "ImageOrientationPatientDICOM": [1, 0, 0, 0, 0.995396, -0.0958458],
  "ImageType": [
    "ORIGINAL",
    "PRIMARY",
    "M",
    "ND",
    "MOSAIC"
],
  "InPlanePhaseEncodingDirectionDICOM": "COL",
  "InstitutionAddress": "Street_StreetNo_Bei_Jing_District_CN_ZIP",
  "InstitutionName": "BeiJing_Normal_University",
  "InstitutionalDepartmentName": "Department",
  "MRAcquisitionType": "2D",
  "MagneticFieldStrength": 3,
  "Manufacturer": "Siemens",
  "ManufacturersModelName": "Prisma",
  "Modality": "MR",
  "MultibandAccelerationFactor": 3,
  "PartialFourier": 1,
  "PatientPosition": "HFS",
  "PercentPhaseFOV": 100,
  "PhaseEncodingDirection": "j-",
  "PhaseEncodingSteps": 100,
  "PhaseResolution": 1,
  "PixelBandwidth": 2380,
  "ProcedureStepDescription": "BNU_P2018_64CH_Zhen.ZongLei",
  "ProtocolName": "bold_100x100_s3_2x2x2_static_256",
  "PulseSequenceDetails": "%SiemensSeq%_ep2d_bold",
  "ReceiveCoilActiveElements": "HC1-7;NC1",
  "ReceiveCoilName": "HeadNeck_64",
  "ReconMatrixPE": 100,
  "RepetitionTime": 2,
  "SAR": 0.0785448,
  "ScanOptions": "FS",
  "ScanningSequence": "EP",
  "SequenceName": "_epfid2d1_100",
  "SequenceVariant": "SK",
  "SeriesDescription": "bold_100x100_s3_2x2x2_static_256",
  "SeriesNumber": 14,
  "ShimSetting": [-5454, -11495, -1248, 141, -61, -307, -206, 57],
  "SliceThickness": 2,
  "SliceTiming": [1.4825, 0, 0.9875, 0.0825, 1.07, 0.165, 1.1525, 0.2475, 1.235, 0.33, 1.3175, 0.4125, 1.4, 0.575, 1.565, 0.6575, 1.6475, 0.74, 1.73, 0.8225, 1.8125, 0.905, 1.895, 0.495, 1.4825, 0, 0.9875, 0.0825, 1.07, 0.165, 1.1525, 0.2475, 1.235, 0.33, 1.3175, 0.4125, 1.4, 0.575, 1.565, 0.6575, 1.6475, 0.74, 1.73, 0.8225, 1.8125, 0.905, 1.895, 0.495, 1.4825, 0, 0.9875, 0.0825, 1.07, 0.165, 1.1525, 0.2475, 1.235, 0.33, 1.3175, 0.4125, 1.4, 0.575, 1.565, 0.6575, 1.6475, 0.74, 1.73, 0.8225, 1.8125, 0.905, 1.895, 0.495],
  "SoftwareVersions": "syngo_MR_E11",
  "SpacingBetweenSlices": 2,
  "StationName": "AWP166078",
  "TaskName": "naturalvision",
  "TotalReadoutTime": 0.0534586,
  "TxRefAmp": 245.379,
  "dcmmeta_affine": [
    [-2.0, 0.0, 0.0, 102.02409362792969],
    [0.0, 1.9907923936843872, -0.19169150292873383, -88.43534851074219],
    [0.0, 0.19169150292873383, 1.9907923936843872, -78.96721649169922],
    [0.0, 0.0, 0.0, 1.0]
],
  "dcmmeta_reorient_transform": [
    [0.0, -1.0, 0.0, 99.0],
    [1.0, 0.0, 0.0, 0.0],
    [0.0, 0.0, 1.0, 0.0],
    [0.0, 0.0, 0.0, 1.0]
],
  "dcmmeta_shape": [100, 100, 72, 256],
  "dcmmeta_slice_dim": 2,
  "dcmmeta_version": 0.6,
  "global": {
    "const": {
      "AcquisitionMatrix": [100, 0, 0, 100],
      "AngioFlag": "N",
      "BitsAllocated": 16,
      "BitsStored": 12,
      "BodyPartExamined": "BRAIN",
      "Columns": 900,
      "EchoNumbers": 1,
      "EchoTime": 34.0,
      "EchoTrainLength": 100,
      "FlipAngle": 90.0,
      "HighBit": 11,
      "ImageOrientationPatient": [1.0, 0.0, 0.0, 0.0, 0.99539619816501, -0.0958457546198],
      "ImagePositionPatient": [-902.02409648895, -904.97006082379, 16.686845966907],
      "ImageType": [
        "ORIGINAL",
        "PRIMARY",
        "M",
        "ND",
        "MOSAIC"
],
      "ImagedNucleus": "1H",
      "ImagingFrequency": 123.257779,
      "InPlanePhaseEncodingDirection": "COL",
      "MRAcquisitionType": "2D",
      "MagneticFieldStrength": 3.0,
      "Manufacturer": "SIEMENS",
      "ManufacturerModelName": "Prisma",
      "Modality": "MR",
      "NumberOfAverages": 1.0,
      "NumberOfPhaseEncodingSteps": 100,
      "PercentPhaseFieldOfView": 100.0,
      "PercentSampling": 100.0,
      "PerformedProcedureStepStartTime": "085838.769000",
      "PhotometricInterpretation": "MONOCHROME2",
      "PixelBandwidth": 2380.0,
      "PixelRepresentation": 0,
      "PixelSpacing": [2.0, 2.0],
      "ProtocolName": "bold_100x100_s3_2x2x2_static_256",
      "RepetitionTime": 2000.0,
      "Rows": 900,
      "SAR": 0.07854475701914,
      "SamplesPerPixel": 1,
      "ScanOptions": "FS",
      "ScanningSequence": "EP",
      "SequenceName": "*epfid2d1_100",
      "SequenceVariant": "SK",
      "SeriesDescription": "bold_100x100_s3_2x2x2_static_256",
      "SeriesNumber": 14,
      "SeriesTime": "103821.040000",
      "SliceLocation": -70.127515353163,
      "SliceThickness": 2.0,
      "SmallestImagePixelValue": 0,
      "SoftwareVersions": "syngo MR E11",
      "SpacingBetweenSlices": 1.9999999987347,
      "SpecificCharacterSet": "ISO_IR 100",
      "StudyID": "1",
      "StudyTime": "085838.642000",
      "TransmitCoilName": "Body",
      "VariableFlipAngleFlag": "N",
      "WindowCenterWidthExplanation": "Algo1",
      "dBdt": 0.0},
    "slices": {}
  },
  "time": {
    "samples": {
      "AcquisitionNumber": [1, 2, 3, 4, 5, 6, 7, 8, 9, 10, 11, 12, 13, 14, 15, 16, 17, 18, 19, 20, 21, 22, 23, 24, 25, 26, 27, 28, 29, 30, 31, 32, 33, 34, 35, 36, 37, 38, 39, 40, 41, 42, 43, 44, 45, 46, 47, 48, 49, 50, 51, 52, 53, 54, 55, 56, 57, 58, 59, 60, 61, 62, 63, 64, 65, 66, 67, 68, 69, 70, 71, 72, 73, 74, 75, 76, 77, 78, 79, 80, 81, 82, 83, 84, 85, 86, 87, 88, 89, 90, 91, 92, 93, 94, 95, 96, 97, 98, 99, 100, 101, 102, 103, 104, 105, 106, 107, 108, 109, 110, 111, 112, 113, 114, 115, 116, 117, 118, 119, 120, 121, 122, 123, 124, 125, 126, 127, 128, 129, 130, 131, 132, 133, 134, 135, 136, 137, 138, 139, 140, 141, 142, 143, 144, 145, 146, 147, 148, 149, 150, 151, 152, 153, 154, 155, 156, 157, 158, 159, 160, 161, 162, 163, 164, 165, 166, 167, 168, 169, 170, 171, 172, 173, 174, 175, 176, 177, 178, 179, 180, 181, 182, 183, 184, 185, 186, 187, 188, 189, 190, 191, 192, 193, 194, 195, 196, 197, 198, 199, 200, 201, 202, 203, 204, 205, 206, 207, 208, 209, 210, 211, 212, 213, 214, 215, 216, 217, 218, 219, 220, 221, 222, 223, 224, 225, 226, 227, 228, 229, 230, 231, 232, 233, 234, 235, 236, 237, 238, 239, 240, 241, 242, 243, 244, 245, 246, 247, 248, 249, 250, 251, 252, 253, 254, 255, 256],
      "AcquisitionTime": ["103818.672500", "103820.672500", "103822.672500", "103824.672500", "103826.672500", "103828.672500", "103830.672500", "103832.672500", "103834.672500", "103836.672500", "103838.672500", "103840.672500", "103842.672500", "103844.672500", "103846.672500", "103848.672500", "103850.672500", "103852.672500", "103854.672500", "103856.672500", "103858.672500", "103900.672500", "103902.672500", "103904.672500", "103906.672500", "103908.672500", "103910.672500", "103912.672500", "103914.672500", "103916.672500", "103918.672500", "103920.672500", "103922.672500", "103924.672500", "103926.672500", "103928.672500", "103930.672500", "103932.672500", "103934.672500", "103936.672500", "103938.672500", "103940.672500", "103942.672500", "103944.672500", "103946.672500", "103948.672500", "103950.672500", "103952.672500", "103954.672500", "103956.672500", "103958.672500", "104000.672500", "104002.672500", "104004.672500", "104006.672500", "104008.672500", "104010.672500", "104012.672500", "104014.672500", "104016.672500", "104018.672500", "104020.672500", "104022.672500", "104024.672500", "104026.672500", "104028.672500", "104030.672500", "104032.672500", "104034.672500", "104036.672500", "104038.672500", "104040.672500", "104042.672500", "104044.672500", "104046.672500", "104048.672500", "104050.672500", "104052.672500", "104054.672500", "104056.672500", "104058.672500", "104100.672500", "104102.672500", "104104.672500", "104106.672500", "104108.672500", "104110.672500", "104112.672500", "104114.672500", "104116.672500", "104118.672500", "104120.672500", "104122.672500", "104124.672500", "104126.672500", "104128.672500", "104130.672500", "104132.672500", "104134.672500", "104136.672500", "104138.672500", "104140.672500", "104142.672500", "104144.672500", "104146.672500", "104148.672500", "104150.672500", "104152.672500", "104154.672500", "104156.672500", "104158.672500", "104200.672500", "104202.672500", "104204.672500", "104206.672500", "104208.672500", "104210.672500", "104212.672500", "104214.672500", "104216.672500", "104218.672500", "104220.672500", "104222.672500", "104224.672500", "104226.672500", "104228.672500", "104230.672500", "104232.672500", "104234.672500", "104236.672500", "104238.672500", "104240.672500", "104242.672500", "104244.672500", "104246.672500", "104248.672500", "104250.672500", "104252.672500", "104254.672500", "104256.672500", "104258.672500", "104300.672500", "104302.672500", "104304.672500", "104306.672500", "104308.672500", "104310.672500", "104312.672500", "104314.672500", "104316.672500", "104318.672500", "104320.672500", "104322.672500", "104324.672500", "104326.672500", "104328.672500", "104330.672500", "104332.672500", "104334.672500", "104336.672500", "104338.672500", "104340.672500", "104342.672500", "104344.672500", "104346.672500", "104348.672500", "104350.672500", "104352.672500", "104354.672500", "104356.672500", "104358.672500", "104400.672500", "104402.672500", "104404.672500", "104406.672500", "104408.672500", "104410.672500", "104412.672500", "104414.672500", "104416.672500", "104418.672500", "104420.672500", "104422.672500", "104424.672500", "104426.672500", "104428.672500", "104430.672500", "104432.672500", "104434.672500", "104436.672500", "104438.672500", "104440.672500", "104442.672500", "104444.672500", "104446.672500", "104448.672500", "104450.672500", "104452.672500", "104454.672500", "104456.672500", "104458.672500", "104500.672500", "104502.672500", "104504.672500", "104506.672500", "104508.672500", "104510.672500", "104512.672500", "104514.672500", "104516.672500", "104518.672500", "104520.672500", "104522.672500", "104524.672500", "104526.672500", "104528.672500", "104530.672500", "104532.672500", "104534.672500", "104536.672500", "104538.672500", "104540.672500", "104542.672500", "104544.672500", "104546.672500", "104548.672500", "104550.672500", "104552.672500", "104554.672500", "104556.672500", "104558.672500", "104600.672500", "104602.672500", "104604.672500", "104606.672500", "104608.672500", "104610.672500", "104612.672500", "104614.672500", "104616.672500", "104618.672500", "104620.672500", "104622.672500", "104624.672500", "104626.672500", "104628.672500", "104630.672500", "104632.672500", "104634.672500", "104636.672500", "104638.672500", "104640.672500", "104642.672500", "104644.672500", "104646.672500", "104648.672500"],
      "ContentTime": ["103821.044000", "103822.539000", "103824.539000", "103826.539000", "103828.539000", "103830.540000", "103832.539000", "103834.540000", "103836.540000", "103838.539000", "103840.540000", "103842.539000", "103844.540000", "103846.540000", "103848.540000", "103850.539000", "103852.540000", "103854.539000", "103856.539000", "103858.540000", "103900.539000", "103902.539000", "103904.540000", "103906.540000", "103908.540000", "103910.541000", "103912.540000", "103914.540000", "103916.539000", "103918.540000", "103920.540000", "103922.540000", "103924.540000", "103926.541000", "103928.541000", "103930.539000", "103932.540000", "103934.539000", "103936.540000", "103938.540000", "103940.540000", "103942.539000", "103944.540000", "103946.539000", "103948.540000", "103950.540000", "103952.539000", "103954.539000", "103956.540000", "103958.539000", "104000.539000", "104002.540000", "104004.539000", "104006.540000", "104008.539000", "104010.539000", "104012.539000", "104014.540000", "104016.539000", "104018.540000", "104020.541000", "104022.540000", "104024.540000", "104026.540000", "104028.540000", "104030.539000", "104032.540000", "104034.540000", "104036.540000", "104038.540000", "104040.540000", "104042.539000", "104044.540000", "104046.540000", "104048.540000", "104050.540000", "104052.540000", "104054.541000", "104056.539000", "104058.539000", "104100.540000", "104102.539000", "104104.540000", "104106.540000", "104108.540000", "104110.539000", "104112.541000", "104114.539000", "104116.539000", "104118.539000", "104120.539000", "104122.539000", "104124.540000", "104126.540000", "104128.540000", "104130.540000", "104132.540000", "104134.539000", "104136.540000", "104138.539000", "104140.539000", "104142.540000", "104144.540000", "104146.540000", "104148.541000", "104150.540000", "104152.539000", "104154.540000", "104156.540000", "104158.539000", "104200.540000", "104202.539000", "104204.540000", "104206.540000", "104208.540000", "104210.540000", "104212.540000", "104214.539000", "104216.540000", "104218.540000", "104220.539000", "104222.540000", "104224.540000", "104226.540000", "104228.539000", "104230.539000", "104232.539000", "104234.539000", "104236.540000", "104238.540000", "104240.541000", "104242.540000", "104244.539000", "104246.540000", "104248.539000", "104250.540000", "104252.540000", "104254.540000", "104256.540000", "104258.540000", "104300.539000", "104302.540000", "104304.540000", "104306.539000", "104308.539000", "104310.539000", "104312.540000", "104314.540000", "104316.539000", "104318.540000", "104320.539000", "104322.540000", "104324.540000", "104326.540000", "104328.539000", "104330.540000", "104332.541000", "104334.540000", "104336.539000", "104338.539000", "104340.540000", "104342.540000", "104344.539000", "104346.540000", "104348.540000", "104350.541000", "104352.540000", "104354.540000", "104356.540000", "104358.539000", "104400.540000", "104402.539000", "104404.540000", "104406.541000", "104408.541000", "104410.540000", "104412.539000", "104414.540000", "104416.539000", "104418.540000", "104420.540000", "104422.540000", "104424.541000", "104426.539000", "104428.540000", "104430.539000", "104432.539000", "104434.540000", "104436.540000", "104438.539000", "104440.539000", "104442.540000", "104444.540000", "104446.540000", "104448.540000", "104450.539000", "104452.540000", "104454.539000", "104456.559000", "104458.541000", "104500.541000", "104502.540000", "104504.540000", "104506.540000", "104508.540000", "104510.539000", "104512.540000", "104514.540000", "104516.540000", "104518.541000", "104520.540000", "104522.540000", "104524.539000", "104526.539000", "104528.540000", "104530.540000", "104532.540000", "104534.540000", "104536.540000", "104538.540000", "104540.540000", "104542.540000", "104544.540000", "104546.540000", "104548.539000", "104550.540000", "104552.541000", "104554.540000", "104556.540000", "104558.539000", "104600.540000", "104602.540000", "104604.539000", "104606.540000", "104608.541000", "104610.541000", "104612.540000", "104614.540000", "104616.540000", "104618.540000", "104620.540000", "104622.540000", "104624.540000", "104626.540000", "104628.540000", "104630.540000", "104632.540000", "104634.540000", "104636.540000", "104638.539000", "104640.540000", "104642.540000", "104644.541000", "104646.540000", "104648.540000", "104650.203000"],
      "InstanceCreationTime": ["103821.044000", "103822.539000", "103824.539000", "103826.539000", "103828.539000", "103830.540000", "103832.539000", "103834.540000", "103836.540000", "103838.539000", "103840.540000", "103842.539000", "103844.540000", "103846.540000", "103848.540000", "103850.539000", "103852.540000", "103854.539000", "103856.539000", "103858.540000", "103900.539000", "103902.539000", "103904.540000", "103906.540000", "103908.540000", "103910.541000", "103912.540000", "103914.540000", "103916.539000", "103918.540000", "103920.540000", "103922.540000", "103924.540000", "103926.541000", "103928.541000", "103930.539000", "103932.540000", "103934.539000", "103936.540000", "103938.540000", "103940.540000", "103942.539000", "103944.540000", "103946.539000", "103948.540000", "103950.540000", "103952.539000", "103954.539000", "103956.540000", "103958.539000", "104000.539000", "104002.540000", "104004.539000", "104006.540000", "104008.539000", "104010.539000", "104012.539000", "104014.540000", "104016.539000", "104018.540000", "104020.541000", "104022.540000", "104024.540000", "104026.540000", "104028.540000", "104030.539000", "104032.540000", "104034.540000", "104036.540000", "104038.540000", "104040.540000", "104042.539000", "104044.540000", "104046.540000", "104048.540000", "104050.540000", "104052.540000", "104054.541000", "104056.539000", "104058.539000", "104100.540000", "104102.539000", "104104.540000", "104106.540000", "104108.540000", "104110.539000", "104112.541000", "104114.539000", "104116.539000", "104118.539000", "104120.539000", "104122.539000", "104124.540000", "104126.540000", "104128.540000", "104130.540000", "104132.540000", "104134.539000", "104136.540000", "104138.539000", "104140.539000", "104142.540000", "104144.540000", "104146.540000", "104148.541000", "104150.540000", "104152.539000", "104154.540000", "104156.540000", "104158.539000", "104200.540000", "104202.539000", "104204.540000", "104206.540000", "104208.540000", "104210.540000", "104212.540000", "104214.539000", "104216.540000", "104218.540000", "104220.539000", "104222.540000", "104224.540000", "104226.540000", "104228.539000", "104230.539000", "104232.539000", "104234.539000", "104236.540000", "104238.540000", "104240.541000", "104242.540000", "104244.539000", "104246.540000", "104248.539000", "104250.540000", "104252.540000", "104254.540000", "104256.540000", "104258.540000", "104300.539000", "104302.540000", "104304.540000", "104306.539000", "104308.539000", "104310.539000", "104312.540000", "104314.540000", "104316.539000", "104318.540000", "104320.539000", "104322.540000", "104324.540000", "104326.540000", "104328.539000", "104330.540000", "104332.541000", "104334.540000", "104336.539000", "104338.539000", "104340.540000", "104342.540000", "104344.539000", "104346.540000", "104348.540000", "104350.541000", "104352.540000", "104354.540000", "104356.540000", "104358.539000", "104400.540000", "104402.539000", "104404.540000", "104406.541000", "104408.541000", "104410.540000", "104412.539000", "104414.540000", "104416.539000", "104418.540000", "104420.540000", "104422.540000", "104424.541000", "104426.539000", "104428.540000", "104430.539000", "104432.539000", "104434.540000", "104436.540000", "104438.539000", "104440.539000", "104442.540000", "104444.540000", "104446.540000", "104448.540000", "104450.539000", "104452.540000", "104454.539000", "104456.559000", "104458.541000", "104500.541000", "104502.540000", "104504.540000", "104506.540000", "104508.540000", "104510.539000", "104512.540000", "104514.540000", "104516.540000", "104518.541000", "104520.540000", "104522.540000", "104524.539000", "104526.539000", "104528.540000", "104530.540000", "104532.540000", "104534.540000", "104536.540000", "104538.540000", "104540.540000", "104542.540000", "104544.540000", "104546.540000", "104548.539000", "104550.540000", "104552.541000", "104554.540000", "104556.540000", "104558.539000", "104600.540000", "104602.540000", "104604.539000", "104606.540000", "104608.541000", "104610.541000", "104612.540000", "104614.540000", "104616.540000", "104618.540000", "104620.540000", "104622.540000", "104624.540000", "104626.540000", "104628.540000", "104630.540000", "104632.540000", "104634.540000", "104636.540000", "104638.539000", "104640.540000", "104642.540000", "104644.541000", "104646.540000", "104648.540000", "104650.203000"],
      "InstanceNumber": [1, 2, 3, 4, 5, 6, 7, 8, 9, 10, 11, 12, 13, 14, 15, 16, 17, 18, 19, 20, 21, 22, 23, 24, 25, 26, 27, 28, 29, 30, 31, 32, 33, 34, 35, 36, 37, 38, 39, 40, 41, 42, 43, 44, 45, 46, 47, 48, 49, 50, 51, 52, 53, 54, 55, 56, 57, 58, 59, 60, 61, 62, 63, 64, 65, 66, 67, 68, 69, 70, 71, 72, 73, 74, 75, 76, 77, 78, 79, 80, 81, 82, 83, 84, 85, 86, 87, 88, 89, 90, 91, 92, 93, 94, 95, 96, 97, 98, 99, 100, 101, 102, 103, 104, 105, 106, 107, 108, 109, 110, 111, 112, 113, 114, 115, 116, 117, 118, 119, 120, 121, 122, 123, 124, 125, 126, 127, 128, 129, 130, 131, 132, 133, 134, 135, 136, 137, 138, 139, 140, 141, 142, 143, 144, 145, 146, 147, 148, 149, 150, 151, 152, 153, 154, 155, 156, 157, 158, 159, 160, 161, 162, 163, 164, 165, 166, 167, 168, 169, 170, 171, 172, 173, 174, 175, 176, 177, 178, 179, 180, 181, 182, 183, 184, 185, 186, 187, 188, 189, 190, 191, 192, 193, 194, 195, 196, 197, 198, 199, 200, 201, 202, 203, 204, 205, 206, 207, 208, 209, 210, 211, 212, 213, 214, 215, 216, 217, 218, 219, 220, 221, 222, 223, 224, 225, 226, 227, 228, 229, 230, 231, 232, 233, 234, 235, 236, 237, 238, 239, 240, 241, 242, 243, 244, 245, 246, 247, 248, 249, 250, 251, 252, 253, 254, 255, 256],
      "LargestImagePixelValue": [3078, 3059, 3003, 2989, 3008, 3038, 3003, 2999, 2992, 2991, 3021, 2996, 2997, 2997, 2997, 3003, 3078, 3017, 2983, 3028, 2994, 2996, 2986, 3003, 2993, 3002, 3015, 2984, 2996, 3015, 3005, 2998, 3013, 3014, 2994, 3010, 3004, 3022, 3018, 3033, 3016, 3051, 3014, 3033, 3029, 3036, 3018, 3007, 3024, 3030, 3014, 3031, 3016, 3020, 3039, 3036, 3019, 3051, 3029, 3037, 3038, 3082, 3040, 3060, 3062, 3040, 3016, 3053, 3008, 3026, 3031, 3068, 3054, 3012, 3012, 3028, 3079, 3048, 3022, 3006, 3068, 3072, 3025, 3016, 3019, 3020, 3023, 3055, 3043, 3052, 3035, 3032, 3047, 3061, 3061, 3000, 3014, 3005, 3066, 3059, 3037, 3035, 3044, 3033, 3043, 3017, 3056, 3026, 3089, 3010, 3012, 3015, 3041, 3034, 3050, 3048, 3017, 3052, 3033, 3039, 3024, 3019, 3028, 3033, 3018, 3084, 3006, 3037, 3021, 3014, 3020, 3018, 3019, 3038, 3012, 3014, 3022, 3028, 3022, 3032, 3019, 3016, 3040, 3003, 3034, 3010, 3005, 3024, 3018, 3008, 2995, 3011, 3007, 3036, 3096, 3026, 3025, 3000, 3001, 2989, 3010, 3026, 3012, 2996, 3006, 3002, 3015, 3006, 3025, 3014, 3010, 3019, 3092, 3025, 3033, 3035, 3154, 3043, 3039, 3161, 3042, 3066, 3028, 3017, 3037, 3028, 3014, 3037, 3022, 3039, 3054, 3046, 3029, 3039, 3021, 3046, 3027, 3075, 3003, 3034, 3039, 3047, 3015, 3038, 3025, 3054, 3313, 3044, 3026, 3050, 3034, 3026, 3045, 3075, 3043, 3030, 3030, 3042, 3045, 3019, 3020, 3023, 3069, 3046, 3044, 3024, 3065, 3025, 3331, 3014, 3032, 3030, 3028, 3024, 3058, 3034, 3051, 3049, 3043, 3020, 3050, 3056, 3046, 3051, 3025, 3103, 3072, 3058, 3067, 3036, 3033, 3054, 3037, 3057, 3045, 3062],
      "WindowCenter": [839.0, 838.0, 837.0, 837.0, 836.0, 837.0, 836.0, 835.0, 834.0, 835.0, 835.0, 835.0, 834.0, 834.0, 835.0, 833.0, 834.0, 834.0, 834.0, 833.0, 832.0, 833.0, 834.0, 833.0, 833.0, 832.0, 833.0, 833.0, 834.0, 834.0, 833.0, 833.0, 832.0, 832.0, 832.0, 832.0, 834.0, 833.0, 833.0, 833.0, 834.0, 835.0, 835.0, 834.0, 833.0, 834.0, 834.0, 834.0, 833.0, 834.0, 833.0, 834.0, 833.0, 834.0, 835.0, 834.0, 832.0, 833.0, 835.0, 836.0, 835.0, 836.0, 835.0, 835.0, 836.0, 836.0, 834.0, 834.0, 834.0, 832.0, 834.0, 835.0, 834.0, 833.0, 832.0, 833.0, 834.0, 833.0, 833.0, 832.0, 834.0, 834.0, 835.0, 836.0, 836.0, 834.0, 833.0, 833.0, 832.0, 833.0, 833.0, 833.0, 832.0, 832.0, 833.0, 834.0, 833.0, 833.0, 834.0, 835.0, 834.0, 832.0, 831.0, 832.0, 833.0, 835.0, 835.0, 834.0, 835.0, 836.0, 836.0, 835.0, 835.0, 835.0, 835.0, 835.0, 834.0, 833.0, 834.0, 835.0, 834.0, 834.0, 835.0, 836.0, 836.0, 835.0, 835.0, 836.0, 834.0, 832.0, 833.0, 833.0, 832.0, 833.0, 833.0, 834.0, 836.0, 835.0, 834.0, 835.0, 836.0, 836.0, 834.0, 833.0, 834.0, 834.0, 835.0, 836.0, 834.0, 833.0, 832.0, 831.0, 832.0, 834.0, 835.0, 833.0, 833.0, 831.0, 829.0, 827.0, 829.0, 831.0, 832.0, 831.0, 832.0, 831.0, 834.0, 835.0, 836.0, 835.0, 836.0, 835.0, 835.0, 835.0, 837.0, 836.0, 836.0, 835.0, 836.0, 837.0, 835.0, 834.0, 835.0, 835.0, 835.0, 835.0, 835.0, 835.0, 834.0, 834.0, 836.0, 836.0, 835.0, 834.0, 835.0, 836.0, 837.0, 835.0, 834.0, 834.0, 835.0, 836.0, 836.0, 835.0, 836.0, 835.0, 838.0, 835.0, 835.0, 834.0, 834.0, 834.0, 835.0, 836.0, 837.0, 836.0, 835.0, 835.0, 835.0, 834.0, 834.0, 835.0, 836.0, 835.0, 833.0, 833.0, 835.0, 834.0, 836.0, 833.0, 832.0, 832.0, 833.0, 833.0, 834.0, 834.0, 834.0, 833.0, 834.0, 834.0, 835.0, 835.0, 835.0, 835.0, 834.0, 834.0, 836.0, 836.0, 836.0, 835.0, 836.0, 837.0, 837.0, 837.0, 837.0, 837.0],
      "WindowWidth": [1771.0, 1767.0, 1765.0, 1763.0, 1763.0, 1764.0, 1762.0, 1760.0, 1758.0, 1758.0, 1760.0, 1760.0, 1758.0, 1757.0, 1759.0, 1755.0, 1759.0, 1758.0, 1757.0, 1755.0, 1752.0, 1754.0, 1756.0, 1755.0, 1754.0, 1753.0, 1754.0, 1755.0, 1757.0, 1758.0, 1756.0, 1754.0, 1752.0, 1753.0, 1753.0, 1752.0, 1756.0, 1756.0, 1755.0, 1755.0, 1758.0, 1760.0, 1761.0, 1757.0, 1755.0, 1757.0, 1758.0, 1758.0, 1756.0, 1757.0, 1756.0, 1757.0, 1756.0, 1757.0, 1761.0, 1758.0, 1752.0, 1756.0, 1760.0, 1762.0, 1761.0, 1763.0, 1761.0, 1761.0, 1761.0, 1761.0, 1758.0, 1758.0, 1757.0, 1754.0, 1759.0, 1760.0, 1759.0, 1755.0, 1754.0, 1756.0, 1759.0, 1756.0, 1755.0, 1753.0, 1759.0, 1759.0, 1760.0, 1763.0, 1761.0, 1758.0, 1754.0, 1755.0, 1753.0, 1755.0, 1756.0, 1755.0, 1752.0, 1753.0, 1756.0, 1757.0, 1754.0, 1754.0, 1757.0, 1759.0, 1756.0, 1752.0, 1751.0, 1753.0, 1756.0, 1759.0, 1759.0, 1758.0, 1762.0, 1762.0, 1761.0, 1761.0, 1760.0, 1759.0, 1761.0, 1759.0, 1756.0, 1755.0, 1757.0, 1759.0, 1757.0, 1758.0, 1759.0, 1762.0, 1762.0, 1761.0, 1760.0, 1761.0, 1757.0, 1753.0, 1754.0, 1754.0, 1753.0, 1754.0, 1755.0, 1757.0, 1761.0, 1759.0, 1757.0, 1761.0, 1763.0, 1761.0, 1758.0, 1756.0, 1757.0, 1758.0, 1760.0, 1761.0, 1757.0, 1754.0, 1752.0, 1750.0, 1752.0, 1757.0, 1759.0, 1756.0, 1754.0, 1750.0, 1745.0, 1740.0, 1745.0, 1750.0, 1753.0, 1751.0, 1752.0, 1751.0, 1758.0, 1760.0, 1762.0, 1760.0, 1761.0, 1758.0, 1761.0, 1759.0, 1764.0, 1761.0, 1762.0, 1760.0, 1762.0, 1766.0, 1761.0, 1758.0, 1760.0, 1760.0, 1761.0, 1759.0, 1761.0, 1761.0, 1758.0, 1757.0, 1762.0, 1761.0, 1759.0, 1757.0, 1760.0, 1762.0, 1763.0, 1760.0, 1757.0, 1758.0, 1760.0, 1761.0, 1761.0, 1760.0, 1761.0, 1761.0, 1766.0, 1760.0, 1759.0, 1758.0, 1757.0, 1757.0, 1759.0, 1762.0, 1765.0, 1761.0, 1759.0, 1759.0, 1758.0, 1758.0, 1757.0, 1760.0, 1763.0, 1759.0, 1754.0, 1755.0, 1759.0, 1757.0, 1763.0, 1753.0, 1752.0, 1751.0, 1754.0, 1755.0, 1758.0, 1756.0, 1757.0, 1754.0, 1756.0, 1756.0, 1759.0, 1760.0, 1761.0, 1760.0, 1758.0, 1758.0, 1762.0, 1763.0, 1762.0, 1760.0, 1762.0, 1764.0, 1766.0, 1765.0, 1764.0, 1766.0]
    },
    "slices": {}
  }
}