{
 "AcquisitionMatrixPE": 100,
 "AcquisitionNumber": 1,
 "AcquisitionTime": "09:19:19.577500",
 "BandwidthPerPixelPhaseEncode": 18.519,
 "BaseResolution": 100,
 "BodyPartExamined": "BRAIN",
 "ConsistencyInfo": "N4_VE11C_LATEST_20160120",
 "ConversionSoftware": "dcm2niix",
 "ConversionSoftwareVersion": "v1.0.20180622 GCC4.9.2",
 "DerivedVendorReportedEchoSpacing": 0.000539986,
 "DeviceSerialNumber": "166078",
 "DwellTime": 2.1e-06,
 "EchoTime": 0.034,
 "EchoTrainLength": 100,
 "EffectiveEchoSpacing": 0.000539986,
 "FlipAngle": 90,
 "ImageOrientationPatientDICOM": [
  1,
  0,
  0,
  0,
  0.995396,
  -0.0958458
 ],
 "ImageType": [
  "ORIGINAL",
  "PRIMARY",
  "M",
  "ND",
  "MOSAIC"
 ],
 "InPlanePhaseEncodingDirectionDICOM": "COL",
 "InstitutionAddress": "Street_StreetNo_Bei_Jing_District_CN_ZIP",
 "InstitutionName": "BeiJing_Normal_University",
 "InstitutionalDepartmentName": "Department",
 "MRAcquisitionType": "2D",
 "MagneticFieldStrength": 3,
 "Manufacturer": "Siemens",
 "ManufacturersModelName": "Prisma",
 "Modality": "MR",
 "MultibandAccelerationFactor": 3,
 "PartialFourier": 1,
 "PatientPosition": "HFS",
 "PercentPhaseFOV": 100,
 "PhaseEncodingDirection": "j-",
 "PhaseEncodingSteps": 100,
 "PhaseResolution": 1,
 "PixelBandwidth": 2380,
 "ProcedureStepDescription": "BNU_P2018_64CH_Zhen.ZongLei",
 "ProtocolName": "bold_100x100_s3_2x2x2_static_256",
 "PulseSequenceDetails": "%SiemensSeq%_ep2d_bold",
 "ReceiveCoilActiveElements": "HC1-7;NC1",
 "ReceiveCoilName": "HeadNeck_64",
 "ReconMatrixPE": 100,
 "RepetitionTime": 2,
 "SAR": 0.0785448,
 "ScanOptions": "FS",
 "ScanningSequence": "EP",
 "SequenceName": "_epfid2d1_100",
 "SequenceVariant": "SK",
 "SeriesDescription": "bold_100x100_s3_2x2x2_static_256",
 "SeriesNumber": 4,
 "ShimSetting": [
  -5454,
  -11495,
  -1248,
  141,
  -61,
  -307,
  -206,
  57
 ],
 "SliceThickness": 2,
 "SliceTiming": [
  1.485,
  0,
  0.99,
  0.0825,
  1.0725,
  0.165,
  1.155,
  0.2475,
  1.2375,
  0.33,
  1.32,
  0.4125,
  1.4025,
  0.5775,
  1.5675,
  0.66,
  1.65,
  0.7425,
  1.7325,
  0.825,
  1.815,
  0.9075,
  1.8975,
  0.495,
  1.485,
  0,
  0.99,
  0.0825,
  1.0725,
  0.165,
  1.155,
  0.2475,
  1.2375,
  0.33,
  1.32,
  0.4125,
  1.4025,
  0.5775,
  1.5675,
  0.66,
  1.65,
  0.7425,
  1.7325,
  0.825,
  1.815,
  0.9075,
  1.8975,
  0.495,
  1.485,
  0,
  0.99,
  0.0825,
  1.0725,
  0.165,
  1.155,
  0.2475,
  1.2375,
  0.33,
  1.32,
  0.4125,
  1.4025,
  0.5775,
  1.5675,
  0.66,
  1.65,
  0.7425,
  1.7325,
  0.825,
  1.815,
  0.9075,
  1.8975,
  0.495
 ],
 "SoftwareVersions": "syngo_MR_E11",
 "SpacingBetweenSlices": 2,
 "StationName": "AWP166078",
 "TaskName": "imagenet",
 "TotalReadoutTime": 0.0534586,
 "TxRefAmp": 245.379,
 "dcmmeta_affine": [
  [
   -2.0,
   0.0,
   0.0,
   102.02409362792969
  ],
  [
   0.0,
   1.9907923936843872,
   -0.19169150292873383,
   -88.43534851074219
  ],
  [
   0.0,
   0.19169150292873383,
   1.9907923936843872,
   -78.96721649169922
  ],
  [
   0.0,
   0.0,
   0.0,
   1.0
  ]
 ],
 "dcmmeta_reorient_transform": [
  [
   0.0,
   -1.0,
   0.0,
   99.0
  ],
  [
   1.0,
   0.0,
   0.0,
   0.0
  ],
  [
   0.0,
   0.0,
   1.0,
   0.0
  ],
  [
   0.0,
   0.0,
   0.0,
   1.0
  ]
 ],
 "dcmmeta_shape": [
  100,
  100,
  72,
  256
 ],
 "dcmmeta_slice_dim": 2,
 "dcmmeta_version": 0.6,
 "global": {
  "const": {
   "AcquisitionMatrix": [
    100,
    0,
    0,
    100
   ],
   "AngioFlag": "N",
   "BitsAllocated": 16,
   "BitsStored": 12,
   "BodyPartExamined": "BRAIN",
   "Columns": 900,
   "EchoNumbers": 1,
   "EchoTime": 34.0,
   "EchoTrainLength": 100,
   "FlipAngle": 90.0,
   "HighBit": 11,
   "ImageOrientationPatient": [
    1.0,
    0.0,
    0.0,
    0.0,
    0.99539619816501,
    -0.0958457546198
   ],
   "ImagePositionPatient": [
    -902.02409648895,
    -904.97006082379,
    16.686845966907
   ],
   "ImageType": [
    "ORIGINAL",
    "PRIMARY",
    "M",
    "ND",
    "MOSAIC"
   ],
   "ImagedNucleus": "1H",
   "ImagingFrequency": 123.257754,
   "InPlanePhaseEncodingDirection": "COL",
   "MRAcquisitionType": "2D",
   "MagneticFieldStrength": 3.0,
   "Manufacturer": "SIEMENS",
   "ManufacturerModelName": "Prisma",
   "Modality": "MR",
   "NumberOfAverages": 1.0,
   "NumberOfPhaseEncodingSteps": 100,
   "PercentPhaseFieldOfView": 100.0,
   "PercentSampling": 100.0,
   "PerformedProcedureStepStartTime": "085838.769000",
   "PhotometricInterpretation": "MONOCHROME2",
   "PixelBandwidth": 2380.0,
   "PixelRepresentation": 0,
   "PixelSpacing": [
    2.0,
    2.0
   ],
   "ProtocolName": "bold_100x100_s3_2x2x2_static_256",
   "RepetitionTime": 2000.0,
   "Rows": 900,
   "SAR": 0.07854475701914,
   "SamplesPerPixel": 1,
   "ScanOptions": "FS",
   "ScanningSequence": "EP",
   "SequenceName": "*epfid2d1_100",
   "SequenceVariant": "SK",
   "SeriesDescription": "bold_100x100_s3_2x2x2_static_256",
   "SeriesNumber": 4,
   "SeriesTime": "091921.967000",
   "SliceLocation": -70.127515353163,
   "SliceThickness": 2.0,
   "SmallestImagePixelValue": 0,
   "SoftwareVersions": "syngo MR E11",
   "SpacingBetweenSlices": 1.9999999987347,
   "SpecificCharacterSet": "ISO_IR 100",
   "StudyID": "1",
   "StudyTime": "085838.642000",
   "TransmitCoilName": "Body",
   "VariableFlipAngleFlag": "N",
   "WindowCenterWidthExplanation": "Algo1",
   "dBdt": 0.0
  },
  "slices": {}
 },
 "time": {
  "samples": {
   "AcquisitionNumber": [
    1,
    2,
    3,
    4,
    5,
    6,
    7,
    8,
    9,
    10,
    11,
    12,
    13,
    14,
    15,
    16,
    17,
    18,
    19,
    20,
    21,
    22,
    23,
    24,
    25,
    26,
    27,
    28,
    29,
    30,
    31,
    32,
    33,
    34,
    35,
    36,
    37,
    38,
    39,
    40,
    41,
    42,
    43,
    44,
    45,
    46,
    47,
    48,
    49,
    50,
    51,
    52,
    53,
    54,
    55,
    56,
    57,
    58,
    59,
    60,
    61,
    62,
    63,
    64,
    65,
    66,
    67,
    68,
    69,
    70,
    71,
    72,
    73,
    74,
    75,
    76,
    77,
    78,
    79,
    80,
    81,
    82,
    83,
    84,
    85,
    86,
    87,
    88,
    89,
    90,
    91,
    92,
    93,
    94,
    95,
    96,
    97,
    98,
    99,
    100,
    101,
    102,
    103,
    104,
    105,
    106,
    107,
    108,
    109,
    110,
    111,
    112,
    113,
    114,
    115,
    116,
    117,
    118,
    119,
    120,
    121,
    122,
    123,
    124,
    125,
    126,
    127,
    128,
    129,
    130,
    131,
    132,
    133,
    134,
    135,
    136,
    137,
    138,
    139,
    140,
    141,
    142,
    143,
    144,
    145,
    146,
    147,
    148,
    149,
    150,
    151,
    152,
    153,
    154,
    155,
    156,
    157,
    158,
    159,
    160,
    161,
    162,
    163,
    164,
    165,
    166,
    167,
    168,
    169,
    170,
    171,
    172,
    173,
    174,
    175,
    176,
    177,
    178,
    179,
    180,
    181,
    182,
    183,
    184,
    185,
    186,
    187,
    188,
    189,
    190,
    191,
    192,
    193,
    194,
    195,
    196,
    197,
    198,
    199,
    200,
    201,
    202,
    203,
    204,
    205,
    206,
    207,
    208,
    209,
    210,
    211,
    212,
    213,
    214,
    215,
    216,
    217,
    218,
    219,
    220,
    221,
    222,
    223,
    224,
    225,
    226,
    227,
    228,
    229,
    230,
    231,
    232,
    233,
    234,
    235,
    236,
    237,
    238,
    239,
    240,
    241,
    242,
    243,
    244,
    245,
    246,
    247,
    248,
    249,
    250,
    251,
    252,
    253,
    254,
    255,
    256
   ],
   "AcquisitionTime": [
    "091919.577500",
    "091921.577500",
    "091923.577500",
    "091925.577500",
    "091927.577500",
    "091929.577500",
    "091931.577500",
    "091933.577500",
    "091935.577500",
    "091937.577500",
    "091939.577500",
    "091941.577500",
    "091943.577500",
    "091945.577500",
    "091947.577500",
    "091949.577500",
    "091951.577500",
    "091953.577500",
    "091955.577500",
    "091957.577500",
    "091959.577500",
    "092001.577500",
    "092003.577500",
    "092005.577500",
    "092007.577500",
    "092009.577500",
    "092011.577500",
    "092013.577500",
    "092015.577500",
    "092017.577500",
    "092019.577500",
    "092021.577500",
    "092023.577500",
    "092025.577500",
    "092027.577500",
    "092029.577500",
    "092031.577500",
    "092033.577500",
    "092035.577500",
    "092037.577500",
    "092039.577500",
    "092041.577500",
    "092043.577500",
    "092045.577500",
    "092047.577500",
    "092049.577500",
    "092051.577500",
    "092053.577500",
    "092055.577500",
    "092057.577500",
    "092059.577500",
    "092101.577500",
    "092103.577500",
    "092105.577500",
    "092107.577500",
    "092109.577500",
    "092111.577500",
    "092113.577500",
    "092115.577500",
    "092117.577500",
    "092119.577500",
    "092121.577500",
    "092123.577500",
    "092125.577500",
    "092127.577500",
    "092129.577500",
    "092131.577500",
    "092133.577500",
    "092135.577500",
    "092137.577500",
    "092139.577500",
    "092141.577500",
    "092143.577500",
    "092145.577500",
    "092147.577500",
    "092149.577500",
    "092151.577500",
    "092153.577500",
    "092155.577500",
    "092157.577500",
    "092159.577500",
    "092201.577500",
    "092203.577500",
    "092205.577500",
    "092207.577500",
    "092209.577500",
    "092211.577500",
    "092213.577500",
    "092215.577500",
    "092217.577500",
    "092219.577500",
    "092221.577500",
    "092223.577500",
    "092225.577500",
    "092227.577500",
    "092229.577500",
    "092231.577500",
    "092233.577500",
    "092235.577500",
    "092237.577500",
    "092239.577500",
    "092241.577500",
    "092243.577500",
    "092245.577500",
    "092247.577500",
    "092249.577500",
    "092251.577500",
    "092253.577500",
    "092255.577500",
    "092257.577500",
    "092259.577500",
    "092301.577500",
    "092303.577500",
    "092305.577500",
    "092307.577500",
    "092309.577500",
    "092311.577500",
    "092313.577500",
    "092315.577500",
    "092317.577500",
    "092319.577500",
    "092321.577500",
    "092323.577500",
    "092325.577500",
    "092327.577500",
    "092329.577500",
    "092331.577500",
    "092333.577500",
    "092335.577500",
    "092337.577500",
    "092339.577500",
    "092341.577500",
    "092343.577500",
    "092345.577500",
    "092347.577500",
    "092349.577500",
    "092351.577500",
    "092353.577500",
    "092355.577500",
    "092357.577500",
    "092359.577500",
    "092401.577500",
    "092403.577500",
    "092405.577500",
    "092407.577500",
    "092409.577500",
    "092411.577500",
    "092413.577500",
    "092415.577500",
    "092417.577500",
    "092419.577500",
    "092421.577500",
    "092423.577500",
    "092425.577500",
    "092427.577500",
    "092429.577500",
    "092431.577500",
    "092433.577500",
    "092435.577500",
    "092437.577500",
    "092439.577500",
    "092441.577500",
    "092443.577500",
    "092445.577500",
    "092447.577500",
    "092449.577500",
    "092451.577500",
    "092453.577500",
    "092455.577500",
    "092457.577500",
    "092459.577500",
    "092501.577500",
    "092503.577500",
    "092505.577500",
    "092507.577500",
    "092509.577500",
    "092511.577500",
    "092513.577500",
    "092515.577500",
    "092517.577500",
    "092519.577500",
    "092521.577500",
    "092523.577500",
    "092525.577500",
    "092527.577500",
    "092529.577500",
    "092531.577500",
    "092533.577500",
    "092535.577500",
    "092537.577500",
    "092539.577500",
    "092541.577500",
    "092543.577500",
    "092545.577500",
    "092547.577500",
    "092549.577500",
    "092551.577500",
    "092553.577500",
    "092555.577500",
    "092557.577500",
    "092559.577500",
    "092601.577500",
    "092603.577500",
    "092605.577500",
    "092607.577500",
    "092609.577500",
    "092611.577500",
    "092613.577500",
    "092615.577500",
    "092617.577500",
    "092619.577500",
    "092621.577500",
    "092623.577500",
    "092625.577500",
    "092627.577500",
    "092629.577500",
    "092631.577500",
    "092633.577500",
    "092635.577500",
    "092637.577500",
    "092639.577500",
    "092641.577500",
    "092643.577500",
    "092645.577500",
    "092647.577500",
    "092649.577500",
    "092651.577500",
    "092653.577500",
    "092655.577500",
    "092657.577500",
    "092659.577500",
    "092701.577500",
    "092703.577500",
    "092705.577500",
    "092707.577500",
    "092709.577500",
    "092711.577500",
    "092713.577500",
    "092715.577500",
    "092717.577500",
    "092719.577500",
    "092721.577500",
    "092723.577500",
    "092725.577500",
    "092727.577500",
    "092729.577500",
    "092731.577500",
    "092733.577500",
    "092735.577500",
    "092737.577500",
    "092739.577500",
    "092741.577500",
    "092743.577500",
    "092745.577500",
    "092747.577500",
    "092749.577500"
   ],
   "ContentTime": [
    "091921.971000",
    "091923.467000",
    "091925.466000",
    "091927.466000",
    "091929.466000",
    "091931.465000",
    "091933.466000",
    "091935.466000",
    "091937.467000",
    "091939.467000",
    "091941.467000",
    "091943.465000",
    "091945.466000",
    "091947.466000",
    "091949.465000",
    "091951.466000",
    "091953.466000",
    "091955.467000",
    "091957.467000",
    "091959.466000",
    "092001.465000",
    "092003.466000",
    "092005.466000",
    "092007.466000",
    "092009.465000",
    "092011.467000",
    "092013.467000",
    "092015.467000",
    "092017.466000",
    "092019.465000",
    "092021.465000",
    "092023.465000",
    "092025.465000",
    "092027.466000",
    "092029.466000",
    "092031.466000",
    "092033.466000",
    "092035.466000",
    "092037.465000",
    "092039.465000",
    "092041.466000",
    "092043.466000",
    "092045.466000",
    "092047.467000",
    "092049.466000",
    "092051.466000",
    "092053.466000",
    "092055.466000",
    "092057.465000",
    "092059.465000",
    "092101.465000",
    "092103.466000",
    "092105.467000",
    "092107.466000",
    "092109.467000",
    "092111.465000",
    "092113.466000",
    "092115.465000",
    "092117.465000",
    "092119.466000",
    "092121.467000",
    "092123.467000",
    "092125.466000",
    "092127.467000",
    "092129.466000",
    "092131.466000",
    "092133.465000",
    "092135.466000",
    "092137.465000",
    "092139.466000",
    "092141.466000",
    "092143.466000",
    "092145.466000",
    "092147.465000",
    "092149.466000",
    "092151.465000",
    "092153.465000",
    "092155.467000",
    "092157.467000",
    "092159.467000",
    "092201.466000",
    "092203.466000",
    "092205.466000",
    "092207.465000",
    "092209.465000",
    "092211.465000",
    "092213.467000",
    "092215.467000",
    "092217.467000",
    "092219.467000",
    "092221.466000",
    "092223.466000",
    "092225.466000",
    "092227.466000",
    "092229.465000",
    "092231.466000",
    "092233.467000",
    "092235.467000",
    "092237.467000",
    "092239.466000",
    "092241.465000",
    "092243.465000",
    "092245.465000",
    "092247.465000",
    "092249.466000",
    "092251.466000",
    "092253.466000",
    "092255.466000",
    "092257.466000",
    "092259.465000",
    "092301.465000",
    "092303.466000",
    "092305.467000",
    "092307.466000",
    "092309.466000",
    "092311.466000",
    "092313.466000",
    "092315.466000",
    "092317.465000",
    "092319.465000",
    "092321.465000",
    "092323.467000",
    "092325.467000",
    "092327.467000",
    "092329.467000",
    "092331.465000",
    "092333.466000",
    "092335.466000",
    "092337.466000",
    "092339.466000",
    "092341.466000",
    "092343.467000",
    "092345.466000",
    "092347.466000",
    "092349.466000",
    "092351.466000",
    "092353.466000",
    "092355.466000",
    "092357.465000",
    "092359.466000",
    "092401.467000",
    "092403.467000",
    "092405.466000",
    "092407.466000",
    "092409.466000",
    "092411.466000",
    "092413.466000",
    "092415.466000",
    "092417.467000",
    "092419.467000",
    "092421.467000",
    "092423.466000",
    "092425.465000",
    "092427.466000",
    "092429.477000",
    "092431.466000",
    "092433.466000",
    "092435.467000",
    "092437.466000",
    "092439.467000",
    "092441.466000",
    "092443.466000",
    "092445.466000",
    "092447.465000",
    "092449.466000",
    "092451.466000",
    "092453.467000",
    "092455.467000",
    "092457.466000",
    "092459.465000",
    "092501.465000",
    "092503.466000",
    "092505.466000",
    "092507.465000",
    "092509.467000",
    "092511.466000",
    "092513.467000",
    "092515.465000",
    "092517.465000",
    "092519.466000",
    "092521.466000",
    "092523.465000",
    "092525.466000",
    "092527.467000",
    "092529.466000",
    "092531.467000",
    "092533.466000",
    "092535.466000",
    "092537.466000",
    "092539.465000",
    "092541.465000",
    "092543.467000",
    "092545.467000",
    "092547.467000",
    "092549.467000",
    "092551.466000",
    "092553.466000",
    "092555.465000",
    "092557.465000",
    "092559.466000",
    "092601.466000",
    "092603.466000",
    "092605.467000",
    "092607.467000",
    "092609.466000",
    "092611.466000",
    "092613.466000",
    "092615.466000",
    "092617.465000",
    "092619.467000",
    "092621.467000",
    "092623.467000",
    "092625.465000",
    "092627.465000",
    "092629.466000",
    "092631.486000",
    "092633.466000",
    "092635.467000",
    "092637.467000",
    "092639.467000",
    "092641.467000",
    "092643.466000",
    "092645.465000",
    "092647.466000",
    "092649.466000",
    "092651.466000",
    "092653.467000",
    "092655.466000",
    "092657.467000",
    "092659.466000",
    "092701.465000",
    "092703.466000",
    "092705.466000",
    "092707.466000",
    "092709.466000",
    "092711.467000",
    "092713.467000",
    "092715.467000",
    "092717.465000",
    "092719.466000",
    "092721.465000",
    "092723.465000",
    "092725.466000",
    "092727.466000",
    "092729.467000",
    "092731.467000",
    "092733.467000",
    "092735.465000",
    "092737.466000",
    "092739.466000",
    "092741.466000",
    "092743.466000",
    "092745.467000",
    "092747.467000",
    "092749.467000",
    "092751.003000"
   ],
   "InstanceCreationTime": [
    "091921.971000",
    "091923.467000",
    "091925.466000",
    "091927.466000",
    "091929.466000",
    "091931.465000",
    "091933.466000",
    "091935.466000",
    "091937.467000",
    "091939.467000",
    "091941.467000",
    "091943.465000",
    "091945.466000",
    "091947.466000",
    "091949.465000",
    "091951.466000",
    "091953.466000",
    "091955.467000",
    "091957.467000",
    "091959.466000",
    "092001.465000",
    "092003.466000",
    "092005.466000",
    "092007.466000",
    "092009.465000",
    "092011.467000",
    "092013.467000",
    "092015.467000",
    "092017.466000",
    "092019.465000",
    "092021.465000",
    "092023.465000",
    "092025.465000",
    "092027.466000",
    "092029.466000",
    "092031.466000",
    "092033.466000",
    "092035.466000",
    "092037.465000",
    "092039.465000",
    "092041.466000",
    "092043.466000",
    "092045.466000",
    "092047.467000",
    "092049.466000",
    "092051.466000",
    "092053.466000",
    "092055.466000",
    "092057.465000",
    "092059.465000",
    "092101.465000",
    "092103.466000",
    "092105.467000",
    "092107.466000",
    "092109.467000",
    "092111.465000",
    "092113.466000",
    "092115.465000",
    "092117.465000",
    "092119.466000",
    "092121.467000",
    "092123.467000",
    "092125.466000",
    "092127.467000",
    "092129.466000",
    "092131.466000",
    "092133.465000",
    "092135.466000",
    "092137.465000",
    "092139.466000",
    "092141.466000",
    "092143.466000",
    "092145.466000",
    "092147.465000",
    "092149.466000",
    "092151.465000",
    "092153.465000",
    "092155.467000",
    "092157.467000",
    "092159.467000",
    "092201.466000",
    "092203.466000",
    "092205.466000",
    "092207.465000",
    "092209.465000",
    "092211.465000",
    "092213.467000",
    "092215.467000",
    "092217.467000",
    "092219.467000",
    "092221.466000",
    "092223.466000",
    "092225.466000",
    "092227.466000",
    "092229.465000",
    "092231.466000",
    "092233.467000",
    "092235.467000",
    "092237.467000",
    "092239.466000",
    "092241.465000",
    "092243.465000",
    "092245.465000",
    "092247.465000",
    "092249.466000",
    "092251.466000",
    "092253.466000",
    "092255.466000",
    "092257.466000",
    "092259.465000",
    "092301.465000",
    "092303.466000",
    "092305.467000",
    "092307.466000",
    "092309.466000",
    "092311.466000",
    "092313.466000",
    "092315.466000",
    "092317.465000",
    "092319.465000",
    "092321.465000",
    "092323.467000",
    "092325.467000",
    "092327.467000",
    "092329.467000",
    "092331.465000",
    "092333.466000",
    "092335.466000",
    "092337.466000",
    "092339.466000",
    "092341.466000",
    "092343.467000",
    "092345.466000",
    "092347.466000",
    "092349.466000",
    "092351.466000",
    "092353.466000",
    "092355.466000",
    "092357.465000",
    "092359.466000",
    "092401.467000",
    "092403.467000",
    "092405.466000",
    "092407.466000",
    "092409.466000",
    "092411.466000",
    "092413.466000",
    "092415.466000",
    "092417.467000",
    "092419.467000",
    "092421.467000",
    "092423.466000",
    "092425.465000",
    "092427.466000",
    "092429.477000",
    "092431.466000",
    "092433.466000",
    "092435.467000",
    "092437.466000",
    "092439.467000",
    "092441.466000",
    "092443.466000",
    "092445.466000",
    "092447.465000",
    "092449.466000",
    "092451.466000",
    "092453.467000",
    "092455.467000",
    "092457.466000",
    "092459.465000",
    "092501.465000",
    "092503.466000",
    "092505.466000",
    "092507.465000",
    "092509.467000",
    "092511.466000",
    "092513.467000",
    "092515.465000",
    "092517.465000",
    "092519.466000",
    "092521.466000",
    "092523.465000",
    "092525.466000",
    "092527.467000",
    "092529.466000",
    "092531.467000",
    "092533.466000",
    "092535.466000",
    "092537.466000",
    "092539.465000",
    "092541.465000",
    "092543.467000",
    "092545.467000",
    "092547.467000",
    "092549.467000",
    "092551.466000",
    "092553.466000",
    "092555.465000",
    "092557.465000",
    "092559.466000",
    "092601.466000",
    "092603.466000",
    "092605.467000",
    "092607.467000",
    "092609.466000",
    "092611.466000",
    "092613.466000",
    "092615.466000",
    "092617.465000",
    "092619.467000",
    "092621.467000",
    "092623.467000",
    "092625.465000",
    "092627.465000",
    "092629.466000",
    "092631.486000",
    "092633.466000",
    "092635.467000",
    "092637.467000",
    "092639.467000",
    "092641.467000",
    "092643.466000",
    "092645.465000",
    "092647.466000",
    "092649.466000",
    "092651.466000",
    "092653.467000",
    "092655.466000",
    "092657.467000",
    "092659.466000",
    "092701.465000",
    "092703.466000",
    "092705.466000",
    "092707.466000",
    "092709.466000",
    "092711.467000",
    "092713.467000",
    "092715.467000",
    "092717.465000",
    "092719.466000",
    "092721.465000",
    "092723.465000",
    "092725.466000",
    "092727.466000",
    "092729.467000",
    "092731.467000",
    "092733.467000",
    "092735.465000",
    "092737.466000",
    "092739.466000",
    "092741.466000",
    "092743.466000",
    "092745.467000",
    "092747.467000",
    "092749.467000",
    "092751.003000"
   ],
   "InstanceNumber": [
    1,
    2,
    3,
    4,
    5,
    6,
    7,
    8,
    9,
    10,
    11,
    12,
    13,
    14,
    15,
    16,
    17,
    18,
    19,
    20,
    21,
    22,
    23,
    24,
    25,
    26,
    27,
    28,
    29,
    30,
    31,
    32,
    33,
    34,
    35,
    36,
    37,
    38,
    39,
    40,
    41,
    42,
    43,
    44,
    45,
    46,
    47,
    48,
    49,
    50,
    51,
    52,
    53,
    54,
    55,
    56,
    57,
    58,
    59,
    60,
    61,
    62,
    63,
    64,
    65,
    66,
    67,
    68,
    69,
    70,
    71,
    72,
    73,
    74,
    75,
    76,
    77,
    78,
    79,
    80,
    81,
    82,
    83,
    84,
    85,
    86,
    87,
    88,
    89,
    90,
    91,
    92,
    93,
    94,
    95,
    96,
    97,
    98,
    99,
    100,
    101,
    102,
    103,
    104,
    105,
    106,
    107,
    108,
    109,
    110,
    111,
    112,
    113,
    114,
    115,
    116,
    117,
    118,
    119,
    120,
    121,
    122,
    123,
    124,
    125,
    126,
    127,
    128,
    129,
    130,
    131,
    132,
    133,
    134,
    135,
    136,
    137,
    138,
    139,
    140,
    141,
    142,
    143,
    144,
    145,
    146,
    147,
    148,
    149,
    150,
    151,
    152,
    153,
    154,
    155,
    156,
    157,
    158,
    159,
    160,
    161,
    162,
    163,
    164,
    165,
    166,
    167,
    168,
    169,
    170,
    171,
    172,
    173,
    174,
    175,
    176,
    177,
    178,
    179,
    180,
    181,
    182,
    183,
    184,
    185,
    186,
    187,
    188,
    189,
    190,
    191,
    192,
    193,
    194,
    195,
    196,
    197,
    198,
    199,
    200,
    201,
    202,
    203,
    204,
    205,
    206,
    207,
    208,
    209,
    210,
    211,
    212,
    213,
    214,
    215,
    216,
    217,
    218,
    219,
    220,
    221,
    222,
    223,
    224,
    225,
    226,
    227,
    228,
    229,
    230,
    231,
    232,
    233,
    234,
    235,
    236,
    237,
    238,
    239,
    240,
    241,
    242,
    243,
    244,
    245,
    246,
    247,
    248,
    249,
    250,
    251,
    252,
    253,
    254,
    255,
    256
   ],
   "LargestImagePixelValue": [
    3527,
    3478,
    3448,
    3476,
    3488,
    3423,
    3425,
    3426,
    3462,
    3417,
    3407,
    3420,
    3449,
    3378,
    3443,
    3399,
    3417,
    3379,
    3395,
    3381,
    3414,
    3425,
    3426,
    3449,
    3422,
    3389,
    3418,
    3409,
    3403,
    3355,
    3384,
    3362,
    3395,
    3390,
    3389,
    3373,
    3383,
    3389,
    3362,
    3389,
    3381,
    3385,
    3367,
    3380,
    3371,
    3381,
    3362,
    3370,
    3361,
    3345,
    3356,
    3355,
    3373,
    3373,
    3338,
    3387,
    3351,
    3372,
    3377,
    3347,
    3338,
    3375,
    3402,
    3353,
    3371,
    3370,
    3363,
    3360,
    3354,
    3358,
    3392,
    3405,
    3373,
    3347,
    3376,
    3382,
    3377,
    3378,
    3358,
    3362,
    3390,
    3374,
    3352,
    3351,
    3353,
    3368,
    3387,
    3365,
    3369,
    3379,
    3416,
    3385,
    3372,
    3369,
    3365,
    3359,
    3387,
    3378,
    3370,
    3364,
    3385,
    3372,
    3355,
    3364,
    3393,
    3374,
    3392,
    3395,
    3374,
    3398,
    3357,
    3352,
    3386,
    3375,
    3374,
    3357,
    3369,
    3403,
    3397,
    3379,
    3397,
    3385,
    3375,
    3385,
    3388,
    3388,
    3385,
    3384,
    3349,
    3372,
    3374,
    3412,
    3400,
    3390,
    3391,
    3370,
    3414,
    3386,
    3427,
    3417,
    3411,
    3394,
    3374,
    3356,
    3349,
    3363,
    3349,
    3354,
    3377,
    3379,
    3372,
    3373,
    3349,
    3370,
    3365,
    3349,
    3359,
    3353,
    3349,
    3365,
    3391,
    3375,
    3361,
    3375,
    3374,
    3365,
    3376,
    3378,
    3374,
    3350,
    3386,
    3361,
    3377,
    3379,
    3381,
    3374,
    3353,
    3363,
    3372,
    3368,
    3386,
    3384,
    3378,
    3390,
    3365,
    3355,
    3398,
    3349,
    3369,
    3354,
    3376,
    3380,
    3355,
    3337,
    3362,
    3349,
    3368,
    3382,
    3395,
    3366,
    3386,
    3374,
    3381,
    3359,
    3376,
    3381,
    3390,
    3381,
    3370,
    3378,
    3373,
    3377,
    3394,
    3365,
    3384,
    3367,
    3361,
    3380,
    3397,
    3399,
    3353,
    3340,
    3395,
    3371,
    3385,
    3360,
    3371,
    3337,
    3348,
    3390,
    3371,
    3361,
    3370,
    3408,
    3361,
    3352,
    3347,
    3370,
    3378,
    3365,
    3360,
    3352,
    3361,
    3352,
    3366,
    3359,
    3387,
    3357,
    3381,
    3375,
    3368,
    3404,
    3403,
    3409,
    3365,
    3362
   ],
   "WindowCenter": [
    860.0,
    859.0,
    858.0,
    858.0,
    858.0,
    858.0,
    858.0,
    857.0,
    857.0,
    856.0,
    857.0,
    857.0,
    857.0,
    857.0,
    857.0,
    857.0,
    857.0,
    856.0,
    855.0,
    855.0,
    855.0,
    855.0,
    855.0,
    856.0,
    856.0,
    856.0,
    855.0,
    855.0,
    854.0,
    855.0,
    855.0,
    855.0,
    854.0,
    854.0,
    854.0,
    855.0,
    854.0,
    854.0,
    854.0,
    854.0,
    854.0,
    853.0,
    852.0,
    851.0,
    851.0,
    851.0,
    852.0,
    852.0,
    852.0,
    853.0,
    853.0,
    853.0,
    853.0,
    853.0,
    853.0,
    853.0,
    852.0,
    852.0,
    853.0,
    853.0,
    854.0,
    854.0,
    854.0,
    853.0,
    853.0,
    852.0,
    852.0,
    853.0,
    852.0,
    851.0,
    853.0,
    853.0,
    852.0,
    852.0,
    852.0,
    852.0,
    851.0,
    851.0,
    851.0,
    851.0,
    851.0,
    850.0,
    851.0,
    852.0,
    852.0,
    851.0,
    852.0,
    852.0,
    852.0,
    851.0,
    852.0,
    851.0,
    851.0,
    850.0,
    849.0,
    850.0,
    851.0,
    852.0,
    851.0,
    851.0,
    850.0,
    850.0,
    850.0,
    851.0,
    851.0,
    851.0,
    853.0,
    854.0,
    853.0,
    852.0,
    851.0,
    849.0,
    852.0,
    852.0,
    851.0,
    851.0,
    850.0,
    850.0,
    851.0,
    850.0,
    851.0,
    852.0,
    851.0,
    851.0,
