{
 "AcquisitionMatrixPE": 100,
 "AcquisitionNumber": 1,
 "AcquisitionTime": "09:47:44.747500",
 "BandwidthPerPixelPhaseEncode": 18.519,
 "BaseResolution": 100,
 "BodyPartExamined": "BRAIN",
 "ConsistencyInfo": "N4_VE11C_LATEST_20160120",
 "ConversionSoftware": "dcm2niix",
 "ConversionSoftwareVersion": "v1.0.20180622 GCC4.9.2",
 "DerivedVendorReportedEchoSpacing": 0.000539986,
 "DeviceSerialNumber": "166078",
 "DwellTime": 2.1e-06,
 "EchoTime": 0.034,
 "EchoTrainLength": 100,
 "EffectiveEchoSpacing": 0.000539986,
 "FlipAngle": 90,
 "ImageOrientationPatientDICOM": [
  1,
  0,
  0,
  0,
  0.995396,
  -0.0958458
 ],
 "ImageType": [
  "ORIGINAL",
  "PRIMARY",
  "M",
  "ND",
  "MOSAIC"
 ],
 "InPlanePhaseEncodingDirectionDICOM": "COL",
 "InstitutionAddress": "Street_StreetNo_Bei_Jing_District_CN_ZIP",
 "InstitutionName": "BeiJing_Normal_University",
 "InstitutionalDepartmentName": "Department",
 "MRAcquisitionType": "2D",
 "MagneticFieldStrength": 3,
 "Manufacturer": "Siemens",
 "ManufacturersModelName": "Prisma",
 "Modality": "MR",
 "MultibandAccelerationFactor": 3,
 "PartialFourier": 1,
 "PatientPosition": "HFS",
 "PercentPhaseFOV": 100,
 "PhaseEncodingDirection": "j-",
 "PhaseEncodingSteps": 100,
 "PhaseResolution": 1,
 "PixelBandwidth": 2380,
 "ProcedureStepDescription": "BNU_P2018_64CH_Zhen.ZongLei",
 "ProtocolName": "bold_100x100_s3_2x2x2_static_256",
 "PulseSequenceDetails": "%SiemensSeq%_ep2d_bold",
 "ReceiveCoilActiveElements": "HC1-7;NC1",
 "ReceiveCoilName": "HeadNeck_64",
 "ReconMatrixPE": 100,
 "RepetitionTime": 2,
 "SAR": 0.0785448,
 "ScanOptions": "FS",
 "ScanningSequence": "EP",
 "SequenceName": "_epfid2d1_100",
 "SequenceVariant": "SK",
 "SeriesDescription": "bold_100x100_s3_2x2x2_static_256",
 "SeriesNumber": 7,
 "ShimSetting": [
  -5454,
  -11495,
  -1248,
  141,
  -61,
  -307,
  -206,
  57
 ],
 "SliceThickness": 2,
 "SliceTiming": [
  1.485,
  0,
  0.99,
  0.0825,
  1.0725,
  0.165,
  1.155,
  0.2475,
  1.2375,
  0.33,
  1.32,
  0.4125,
  1.4025,
  0.5775,
  1.5675,
  0.66,
  1.65,
  0.7425,
  1.7325,
  0.825,
  1.815,
  0.9075,
  1.8975,
  0.495,
  1.485,
  0,
  0.99,
  0.0825,
  1.0725,
  0.165,
  1.155,
  0.2475,
  1.2375,
  0.33,
  1.32,
  0.4125,
  1.4025,
  0.5775,
  1.5675,
  0.66,
  1.65,
  0.7425,
  1.7325,
  0.825,
  1.815,
  0.9075,
  1.8975,
  0.495,
  1.485,
  0,
  0.99,
  0.0825,
  1.0725,
  0.165,
  1.155,
  0.2475,
  1.2375,
  0.33,
  1.32,
  0.4125,
  1.4025,
  0.5775,
  1.5675,
  0.66,
  1.65,
  0.7425,
  1.7325,
  0.825,
  1.815,
  0.9075,
  1.8975,
  0.495
 ],
 "SoftwareVersions": "syngo_MR_E11",
 "SpacingBetweenSlices": 2,
 "StationName": "AWP166078",
 "TaskName": "imagenet",
 "TotalReadoutTime": 0.0534586,
 "TxRefAmp": 245.379,
 "dcmmeta_affine": [
  [
   -2.0,
   0.0,
   0.0,
   102.02409362792969
  ],
  [
   0.0,
   1.9907923936843872,
   -0.19169150292873383,
   -88.43534851074219
  ],
  [
   0.0,
   0.19169150292873383,
   1.9907923936843872,
   -78.96721649169922
  ],
  [
   0.0,
   0.0,
   0.0,
   1.0
  ]
 ],
 "dcmmeta_reorient_transform": [
  [
   0.0,
   -1.0,
   0.0,
   99.0
  ],
  [
   1.0,
   0.0,
   0.0,
   0.0
  ],
  [
   0.0,
   0.0,
   1.0,
   0.0
  ],
  [
   0.0,
   0.0,
   0.0,
   1.0
  ]
 ],
 "dcmmeta_shape": [
  100,
  100,
  72,
  256
 ],
 "dcmmeta_slice_dim": 2,
 "dcmmeta_version": 0.6,
 "global": {
  "const": {
   "AcquisitionMatrix": [
    100,
    0,
    0,
    100
   ],
   "AngioFlag": "N",
   "BitsAllocated": 16,
   "BitsStored": 12,
   "BodyPartExamined": "BRAIN",
   "Columns": 900,
   "EchoNumbers": 1,
   "EchoTime": 34.0,
   "EchoTrainLength": 100,
   "FlipAngle": 90.0,
   "HighBit": 11,
   "ImageOrientationPatient": [
    1.0,
    0.0,
    0.0,
    0.0,
    0.99539619816501,
    -0.0958457546198
   ],
   "ImagePositionPatient": [
    -902.02409648895,
    -904.97006082379,
    16.686845966907
   ],
   "ImageType": [
    "ORIGINAL",
    "PRIMARY",
    "M",
    "ND",
    "MOSAIC"
   ],
   "ImagedNucleus": "1H",
   "ImagingFrequency": 123.257764,
   "InPlanePhaseEncodingDirection": "COL",
   "MRAcquisitionType": "2D",
   "MagneticFieldStrength": 3.0,
   "Manufacturer": "SIEMENS",
   "ManufacturerModelName": "Prisma",
   "Modality": "MR",
   "NumberOfAverages": 1.0,
   "NumberOfPhaseEncodingSteps": 100,
   "PercentPhaseFieldOfView": 100.0,
   "PercentSampling": 100.0,
   "PerformedProcedureStepStartTime": "085838.769000",
   "PhotometricInterpretation": "MONOCHROME2",
   "PixelBandwidth": 2380.0,
   "PixelRepresentation": 0,
   "PixelSpacing": [
    2.0,
    2.0
   ],
   "ProtocolName": "bold_100x100_s3_2x2x2_static_256",
   "RepetitionTime": 2000.0,
   "Rows": 900,
   "SAR": 0.07854475701914,
   "SamplesPerPixel": 1,
   "ScanOptions": "FS",
   "ScanningSequence": "EP",
   "SequenceName": "*epfid2d1_100",
   "SequenceVariant": "SK",
   "SeriesDescription": "bold_100x100_s3_2x2x2_static_256",
   "SeriesNumber": 7,
   "SeriesTime": "094746.897000",
   "SliceLocation": -70.127515353163,
   "SliceThickness": 2.0,
   "SmallestImagePixelValue": 0,
   "SoftwareVersions": "syngo MR E11",
   "SpacingBetweenSlices": 1.9999999987347,
   "SpecificCharacterSet": "ISO_IR 100",
   "StudyID": "1",
   "StudyTime": "085838.642000",
   "TransmitCoilName": "Body",
   "VariableFlipAngleFlag": "N",
   "WindowCenterWidthExplanation": "Algo1",
   "dBdt": 0.0
  },
  "slices": {}
 },
 "time": {
  "samples": {
   "AcquisitionNumber": [
    1,
    2,
    3,
    4,
    5,
    6,
    7,
    8,
    9,
    10,
    11,
    12,
    13,
    14,
    15,
    16,
    17,
    18,
    19,
    20,
    21,
    22,
    23,
    24,
    25,
    26,
    27,
    28,
    29,
    30,
    31,
    32,
    33,
    34,
    35,
    36,
    37,
    38,
    39,
    40,
    41,
    42,
    43,
    44,
    45,
    46,
    47,
    48,
    49,
    50,
    51,
    52,
    53,
    54,
    55,
    56,
    57,
    58,
    59,
    60,
    61,
    62,
    63,
    64,
    65,
    66,
    67,
    68,
    69,
    70,
    71,
    72,
    73,
    74,
    75,
    76,
    77,
    78,
    79,
    80,
    81,
    82,
    83,
    84,
    85,
    86,
    87,
    88,
    89,
    90,
    91,
    92,
    93,
    94,
    95,
    96,
    97,
    98,
    99,
    100,
    101,
    102,
    103,
    104,
    105,
    106,
    107,
    108,
    109,
    110,
    111,
    112,
    113,
    114,
    115,
    116,
    117,
    118,
    119,
    120,
    121,
    122,
    123,
    124,
    125,
    126,
    127,
    128,
    129,
    130,
    131,
    132,
    133,
    134,
    135,
    136,
    137,
    138,
    139,
    140,
    141,
    142,
    143,
    144,
    145,
    146,
    147,
    148,
    149,
    150,
    151,
    152,
    153,
    154,
    155,
    156,
    157,
    158,
    159,
    160,
    161,
    162,
    163,
    164,
    165,
    166,
    167,
    168,
    169,
    170,
    171,
    172,
    173,
    174,
    175,
    176,
    177,
    178,
    179,
    180,
    181,
    182,
    183,
    184,
    185,
    186,
    187,
    188,
    189,
    190,
    191,
    192,
    193,
    194,
    195,
    196,
    197,
    198,
    199,
    200,
    201,
    202,
    203,
    204,
    205,
    206,
    207,
    208,
    209,
    210,
    211,
    212,
    213,
    214,
    215,
    216,
    217,
    218,
    219,
    220,
    221,
    222,
    223,
    224,
    225,
    226,
    227,
    228,
    229,
    230,
    231,
    232,
    233,
    234,
    235,
    236,
    237,
    238,
    239,
    240,
    241,
    242,
    243,
    244,
    245,
    246,
    247,
    248,
    249,
    250,
    251,
    252,
    253,
    254,
    255,
    256
   ],
   "AcquisitionTime": [
    "094744.747500",
    "094746.747500",
    "094748.747500",
    "094750.747500",
    "094752.747500",
    "094754.747500",
    "094756.747500",
    "094758.747500",
    "094800.747500",
    "094802.747500",
    "094804.747500",
    "094806.747500",
    "094808.747500",
    "094810.747500",
    "094812.747500",
    "094814.747500",
    "094816.747500",
    "094818.747500",
    "094820.747500",
    "094822.747500",
    "094824.747500",
    "094826.747500",
    "094828.747500",
    "094830.747500",
    "094832.747500",
    "094834.747500",
    "094836.747500",
    "094838.747500",
    "094840.747500",
    "094842.747500",
    "094844.747500",
    "094846.747500",
    "094848.747500",
    "094850.747500",
    "094852.747500",
    "094854.747500",
    "094856.747500",
    "094858.747500",
    "094900.747500",
    "094902.747500",
    "094904.747500",
    "094906.747500",
    "094908.747500",
    "094910.747500",
    "094912.747500",
    "094914.747500",
    "094916.747500",
    "094918.747500",
    "094920.747500",
    "094922.747500",
    "094924.747500",
    "094926.747500",
    "094928.747500",
    "094930.747500",
    "094932.747500",
    "094934.747500",
    "094936.747500",
    "094938.747500",
    "094940.747500",
    "094942.747500",
    "094944.747500",
    "094946.747500",
    "094948.747500",
    "094950.747500",
    "094952.747500",
    "094954.747500",
    "094956.747500",
    "094958.747500",
    "095000.747500",
    "095002.747500",
    "095004.747500",
    "095006.747500",
    "095008.747500",
    "095010.747500",
    "095012.747500",
    "095014.747500",
    "095016.747500",
    "095018.747500",
    "095020.747500",
    "095022.747500",
    "095024.747500",
    "095026.747500",
    "095028.747500",
    "095030.747500",
    "095032.747500",
    "095034.747500",
    "095036.747500",
    "095038.747500",
    "095040.747500",
    "095042.747500",
    "095044.747500",
    "095046.747500",
    "095048.747500",
    "095050.747500",
    "095052.747500",
    "095054.747500",
    "095056.747500",
    "095058.747500",
    "095100.747500",
    "095102.747500",
    "095104.747500",
    "095106.747500",
    "095108.747500",
    "095110.747500",
    "095112.747500",
    "095114.747500",
    "095116.747500",
    "095118.747500",
    "095120.747500",
    "095122.747500",
    "095124.747500",
    "095126.747500",
    "095128.747500",
    "095130.747500",
    "095132.747500",
    "095134.747500",
    "095136.747500",
    "095138.747500",
    "095140.747500",
    "095142.747500",
    "095144.747500",
    "095146.747500",
    "095148.747500",
    "095150.747500",
    "095152.747500",
    "095154.747500",
    "095156.747500",
    "095158.747500",
    "095200.747500",
    "095202.747500",
    "095204.747500",
    "095206.747500",
    "095208.747500",
    "095210.747500",
    "095212.747500",
    "095214.747500",
    "095216.747500",
    "095218.747500",
    "095220.747500",
    "095222.747500",
    "095224.747500",
    "095226.747500",
    "095228.747500",
    "095230.747500",
    "095232.747500",
    "095234.747500",
    "095236.747500",
    "095238.747500",
    "095240.747500",
    "095242.747500",
    "095244.747500",
    "095246.747500",
    "095248.747500",
    "095250.747500",
    "095252.747500",
    "095254.747500",
    "095256.747500",
    "095258.747500",
    "095300.747500",
    "095302.747500",
    "095304.747500",
    "095306.747500",
    "095308.747500",
    "095310.747500",
    "095312.747500",
    "095314.747500",
    "095316.747500",
    "095318.747500",
    "095320.747500",
    "095322.747500",
    "095324.747500",
    "095326.747500",
    "095328.747500",
    "095330.747500",
    "095332.747500",
    "095334.747500",
    "095336.747500",
    "095338.747500",
    "095340.747500",
    "095342.747500",
    "095344.747500",
    "095346.747500",
    "095348.747500",
    "095350.747500",
    "095352.747500",
    "095354.747500",
    "095356.747500",
    "095358.747500",
    "095400.747500",
    "095402.747500",
    "095404.747500",
    "095406.747500",
    "095408.747500",
    "095410.747500",
    "095412.747500",
    "095414.747500",
    "095416.747500",
    "095418.747500",
    "095420.747500",
    "095422.747500",
    "095424.747500",
    "095426.747500",
    "095428.747500",
    "095430.747500",
    "095432.747500",
    "095434.747500",
    "095436.747500",
    "095438.747500",
    "095440.747500",
    "095442.747500",
    "095444.747500",
    "095446.747500",
    "095448.747500",
    "095450.747500",
    "095452.747500",
    "095454.747500",
    "095456.747500",
    "095458.747500",
    "095500.747500",
    "095502.747500",
    "095504.747500",
    "095506.747500",
    "095508.747500",
    "095510.747500",
    "095512.747500",
    "095514.747500",
    "095516.747500",
    "095518.747500",
    "095520.747500",
    "095522.747500",
    "095524.747500",
    "095526.747500",
    "095528.747500",
    "095530.747500",
    "095532.747500",
    "095534.747500",
    "095536.747500",
    "095538.747500",
    "095540.747500",
    "095542.747500",
    "095544.747500",
    "095546.747500",
    "095548.747500",
    "095550.747500",
    "095552.747500",
    "095554.747500",
    "095556.747500",
    "095558.747500",
    "095600.747500",
    "095602.747500",
    "095604.747500",
    "095606.747500",
    "095608.747500",
    "095610.747500",
    "095612.747500",
    "095614.747500"
   ],
   "ContentTime": [
    "094746.901000",
    "094748.396000",
    "094750.397000",
    "094752.397000",
    "094754.398000",
    "094756.396000",
    "094758.396000",
    "094800.396000",
    "094802.397000",
    "094804.397000",
    "094806.396000",
    "094808.396000",
    "094810.397000",
    "094812.398000",
    "094814.396000",
    "094816.397000",
    "094818.396000",
    "094820.397000",
    "094822.396000",
    "094824.397000",
    "094826.397000",
    "094828.397000",
    "094830.397000",
    "094832.396000",
    "094834.397000",
    "094836.397000",
    "094838.397000",
    "094840.397000",
    "094842.396000",
    "094844.397000",
    "094846.398000",
    "094848.398000",
    "094850.397000",
    "094852.396000",
    "094854.396000",
    "094856.396000",
    "094858.396000",
    "094900.396000",
    "094902.397000",
    "094904.398000",
    "094906.397000",
    "094908.397000",
    "094910.396000",
    "094912.397000",
    "094914.396000",
    "094916.396000",
    "094918.396000",
    "094920.398000",
    "094922.398000",
    "094924.396000",
    "094926.396000",
    "094928.397000",
    "094930.396000",
    "094932.396000",
    "094934.396000",
    "094936.397000",
    "094938.397000",
    "094940.398000",
    "094942.397000",
    "094944.397000",
    "094946.397000",
    "094948.396000",
    "094950.396000",
    "094952.396000",
    "094954.398000",
    "094956.397000",
    "094958.397000",
    "095000.396000",
    "095002.397000",
    "095004.396000",
    "095006.397000",
    "095008.397000",
    "095010.397000",
    "095012.398000",
    "095014.397000",
    "095016.396000",
    "095018.396000",
    "095020.396000",
    "095022.397000",
    "095024.396000",
    "095026.396000",
    "095028.397000",
    "095030.398000",
    "095032.397000",
    "095034.397000",
    "095036.397000",
    "095038.397000",
    "095040.396000",
    "095042.397000",
    "095044.396000",
    "095046.397000",
    "095048.397000",
    "095050.398000",
    "095052.397000",
    "095054.396000",
    "095056.397000",
    "095058.396000",
    "095100.396000",
    "095102.396000",
    "095104.398000",
    "095106.398000",
    "095108.397000",
    "095110.396000",
    "095112.397000",
    "095114.397000",
    "095116.396000",
    "095118.396000",
    "095120.397000",
    "095122.397000",
    "095124.398000",
    "095126.397000",
    "095128.396000",
    "095130.397000",
    "095132.396000",
    "095134.396000",
    "095136.397000",
    "095138.396000",
    "095140.397000",
    "095142.397000",
    "095144.397000",
    "095146.397000",
    "095148.397000",
    "095150.397000",
    "095152.397000",
    "095154.397000",
    "095156.397000",
    "095158.398000",
    "095200.398000",
    "095202.396000",
    "095204.397000",
    "095206.397000",
    "095208.397000",
    "095210.397000",
    "095212.397000",
    "095214.397000",
    "095216.397000",
    "095218.397000",
    "095220.397000",
    "095222.397000",
    "095224.396000",
    "095226.397000",
    "095228.397000",
    "095230.397000",
    "095232.398000",
    "095234.398000",
    "095236.397000",
    "095238.397000",
    "095240.396000",
    "095242.397000",
    "095244.397000",
    "095246.396000",
    "095248.396000",
    "095250.397000",
    "095252.397000",
    "095254.396000",
    "095256.397000",
    "095258.397000",
    "095300.396000",
    "095302.397000",
    "095304.397000",
    "095306.397000",
    "095308.398000",
    "095310.398000",
    "095312.396000",
    "095314.397000",
    "095316.397000",
    "095318.397000",
    "095320.396000",
    "095322.397000",
    "095324.398000",
    "095326.397000",
    "095328.397000",
    "095330.397000",
    "095332.397000",
    "095334.397000",
    "095336.397000",
    "095338.397000",
    "095340.397000",
    "095342.398000",
    "095344.398000",
    "095346.396000",
    "095348.397000",
    "095350.397000",
    "095352.397000",
    "095354.397000",
    "095356.397000",
    "095358.396000",
    "095400.398000",
    "095402.398000",
    "095404.397000",
    "095406.397000",
    "095408.396000",
    "095410.397000",
    "095412.397000",
    "095414.397000",
    "095416.398000",
    "095418.397000",
    "095420.398000",
    "095422.410000",
    "095424.397000",
    "095426.397000",
    "095428.396000",
    "095430.396000",
    "095432.397000",
    "095434.398000",
    "095436.398000",
    "095438.398000",
    "095440.397000",
    "095442.396000",
    "095444.397000",
    "095446.396000",
    "095448.397000",
    "095450.396000",
    "095452.398000",
    "095454.398000",
    "095456.396000",
    "095458.397000",
    "095500.397000",
    "095502.397000",
    "095504.397000",
    "095506.397000",
    "095508.396000",
    "095510.398000",
    "095512.398000",
    "095514.397000",
    "095516.397000",
    "095518.397000",
    "095520.397000",
    "095522.396000",
    "095524.397000",
    "095526.398000",
    "095528.398000",
    "095530.398000",
    "095532.397000",
    "095534.396000",
    "095536.397000",
    "095538.397000",
    "095540.397000",
    "095542.397000",
    "095544.398000",
    "095546.397000",
    "095548.397000",
    "095550.397000",
    "095552.397000",
    "095554.396000",
    "095556.397000",
    "095558.397000",
    "095600.396000",
    "095602.398000",
    "095604.398000",
    "095606.396000",
    "095608.397000",
    "095610.397000",
    "095612.397000",
    "095614.397000",
    "095616.101000"
   ],
   "InstanceCreationTime": [
    "094746.901000",
    "094748.396000",
    "094750.397000",
    "094752.397000",
    "094754.398000",
    "094756.396000",
    "094758.396000",
    "094800.396000",
    "094802.397000",
    "094804.397000",
    "094806.396000",
    "094808.396000",
    "094810.397000",
    "094812.398000",
    "094814.396000",
    "094816.397000",
    "094818.396000",
    "094820.397000",
    "094822.396000",
    "094824.397000",
    "094826.397000",
    "094828.397000",
    "094830.397000",
    "094832.396000",
    "094834.397000",
    "094836.397000",
    "094838.397000",
    "094840.397000",
    "094842.396000",
    "094844.397000",
    "094846.398000",
    "094848.398000",
    "094850.397000",
    "094852.396000",
    "094854.396000",
    "094856.396000",
    "094858.396000",
    "094900.396000",
    "094902.397000",
    "094904.398000",
    "094906.397000",
    "094908.397000",
    "094910.396000",
    "094912.397000",
    "094914.396000",
    "094916.396000",
    "094918.396000",
    "094920.398000",
    "094922.398000",
    "094924.396000",
    "094926.396000",
    "094928.397000",
    "094930.396000",
    "094932.396000",
    "094934.396000",
    "094936.397000",
    "094938.397000",
    "094940.398000",
    "094942.397000",
    "094944.397000",
    "094946.397000",
    "094948.396000",
    "094950.396000",
    "094952.396000",
    "094954.398000",
    "094956.397000",
    "094958.397000",
    "095000.396000",
    "095002.397000",
    "095004.396000",
    "095006.397000",
    "095008.397000",
    "095010.397000",
    "095012.398000",
    "095014.397000",
    "095016.396000",
    "095018.396000",
    "095020.396000",
    "095022.397000",
    "095024.396000",
    "095026.396000",
    "095028.397000",
    "095030.398000",
    "095032.397000",
    "095034.397000",
    "095036.397000",
    "095038.397000",
    "095040.396000",
    "095042.397000",
    "095044.396000",
    "095046.397000",
    "095048.397000",
    "095050.398000",
    "095052.397000",
    "095054.396000",
    "095056.397000",
    "095058.396000",
    "095100.396000",
    "095102.396000",
    "095104.398000",
    "095106.398000",
    "095108.397000",
    "095110.396000",
    "095112.397000",
    "095114.397000",
    "095116.396000",
    "095118.396000",
    "095120.397000",
    "095122.397000",
    "095124.398000",
    "095126.397000",
    "095128.396000",
    "095130.397000",
    "095132.396000",
    "095134.396000",
    "095136.397000",
    "095138.396000",
    "095140.397000",
    "095142.397000",
    "095144.397000",
    "095146.397000",
    "095148.397000",
    "095150.397000",
    "095152.397000",
    "095154.397000",
    "095156.397000",
    "095158.398000",
    "095200.398000",
    "095202.396000",
    "095204.397000",
    "095206.397000",
    "095208.397000",
    "095210.397000",
    "095212.397000",
    "095214.397000",
    "095216.397000",
    "095218.397000",
    "095220.397000",
    "095222.397000",
    "095224.396000",
    "095226.397000",
    "095228.397000",
    "095230.397000",
    "095232.398000",
    "095234.398000",
    "095236.397000",
    "095238.397000",
    "095240.396000",
    "095242.397000",
    "095244.397000",
    "095246.396000",
    "095248.396000",
    "095250.397000",
    "095252.397000",
    "095254.396000",
    "095256.397000",
    "095258.397000",
    "095300.396000",
    "095302.397000",
    "095304.397000",
    "095306.397000",
    "095308.398000",
    "095310.398000",
    "095312.396000",
    "095314.397000",
    "095316.397000",
    "095318.397000",
    "095320.396000",
    "095322.397000",
    "095324.398000",
    "095326.397000",
    "095328.397000",
    "095330.397000",
    "095332.397000",
    "095334.397000",
    "095336.397000",
    "095338.397000",
    "095340.397000",
    "095342.398000",
    "095344.398000",
    "095346.396000",
    "095348.397000",
    "095350.397000",
    "095352.397000",
    "095354.397000",
    "095356.397000",
    "095358.396000",
    "095400.398000",
    "095402.398000",
    "095404.397000",
    "095406.397000",
    "095408.396000",
    "095410.397000",
    "095412.397000",
    "095414.397000",
    "095416.398000",
    "095418.397000",
    "095420.398000",
    "095422.410000",
    "095424.397000",
    "095426.397000",
    "095428.396000",
    "095430.396000",
    "095432.397000",
    "095434.398000",
    "095436.398000",
    "095438.398000",
    "095440.397000",
    "095442.396000",
    "095444.397000",
    "095446.396000",
    "095448.397000",
    "095450.396000",
    "095452.398000",
    "095454.398000",
    "095456.396000",
    "095458.397000",
    "095500.397000",
    "095502.397000",
    "095504.397000",
    "095506.397000",
    "095508.396000",
    "095510.398000",
    "095512.398000",
    "095514.397000",
    "095516.397000",
    "095518.397000",
    "095520.397000",
    "095522.396000",
    "095524.397000",
    "095526.398000",
    "095528.398000",
    "095530.398000",
    "095532.397000",
    "095534.396000",
    "095536.397000",
    "095538.397000",
    "095540.397000",
    "095542.397000",
    "095544.398000",
    "095546.397000",
    "095548.397000",
    "095550.397000",
    "095552.397000",
    "095554.396000",
    "095556.397000",
    "095558.397000",
    "095600.396000",
    "095602.398000",
    "095604.398000",
    "095606.396000",
    "095608.397000",
    "095610.397000",
    "095612.397000",
    "095614.397000",
    "095616.101000"
   ],
   "InstanceNumber": [
    1,
    2,
    3,
    4,
    5,
    6,
    7,
    8,
    9,
    10,
    11,
    12,
    13,
    14,
    15,
    16,
    17,
    18,
    19,
    20,
    21,
    22,
    23,
    24,
    25,
    26,
    27,
    28,
    29,
    30,
    31,
    32,
    33,
    34,
    35,
    36,
    37,
    38,
    39,
    40,
    41,
    42,
    43,
    44,
    45,
    46,
    47,
    48,
    49,
    50,
    51,
    52,
    53,
    54,
    55,
    56,
    57,
    58,
    59,
    60,
    61,
    62,
    63,
    64,
    65,
    66,
    67,
    68,
    69,
    70,
    71,
    72,
    73,
    74,
    75,
    76,
    77,
    78,
    79,
    80,
    81,
    82,
    83,
    84,
    85,
    86,
    87,
    88,
    89,
    90,
    91,
    92,
    93,
    94,
    95,
    96,
    97,
    98,
    99,
    100,
    101,
    102,
    103,
    104,
    105,
    106,
    107,
    108,
    109,
    110,
    111,
    112,
    113,
    114,
    115,
    116,
    117,
    118,
    119,
    120,
    121,
    122,
    123,
    124,
    125,
    126,
    127,
    128,
    129,
    130,
    131,
    132,
    133,
    134,
    135,
    136,
    137,
    138,
    139,
    140,
    141,
    142,
    143,
    144,
    145,
    146,
    147,
    148,
    149,
    150,
    151,
    152,
    153,
    154,
    155,
    156,
    157,
    158,
    159,
    160,
    161,
    162,
    163,
    164,
    165,
    166,
    167,
    168,
    169,
    170,
    171,
    172,
    173,
    174,
    175,
    176,
    177,
    178,
    179,
    180,
    181,
    182,
    183,
    184,
    185,
    186,
    187,
    188,
    189,
    190,
    191,
    192,
    193,
    194,
    195,
    196,
    197,
    198,
    199,
    200,
    201,
    202,
    203,
    204,
    205,
    206,
    207,
    208,
    209,
    210,
    211,
    212,
    213,
    214,
    215,
    216,
    217,
    218,
    219,
    220,
    221,
    222,
    223,
    224,
    225,
    226,
    227,
    228,
    229,
    230,
    231,
    232,
    233,
    234,
    235,
    236,
    237,
    238,
    239,
    240,
    241,
    242,
    243,
    244,
    245,
    246,
    247,
    248,
    249,
    250,
    251,
    252,
    253,
    254,
    255,
    256
   ],
   "LargestImagePixelValue": [
    3739,
    3657,
    3554,
    3725,
    3552,
    3733,
    3743,
    3487,
    3707,
    3629,
    3605,
    3633,
    3521,
    3715,
    3573,
    3580,
    3562,
    3620,
    3557,
    3651,
    3585,
    3548,
    3580,
    3559,
    3571,
    3663,
    3478,
    3654,
    3527,
    3557,
    3626,
    3486,
    3676,
    3458,
    3629,
    3582,
    3697,
    3580,
    3491,
    3677,
    3499,
    3673,
    3486,
    3716,
    3608,
    3686,
    3708,
    3647,
    3711,
    3556,
    3610,
    3620,
    3688,
    3606,
    3875,
    3588,
    3620,
    3660,
    3743,
    3594,
    3674,
    3575,
    3697,
    3796,
    3747,
    3783,
    3650,
    3735,
    3766,
    3581,
    3658,
    3585,
    3683,
    3469,
    3683,
    3762,
    3831,
    3814,
    3697,
    3678,
    3729,
    3816,
    3818,
    3820,
    3554,
    3760,
    3611,
    3716,
    3673,
    3735,
    3603,
    3762,
    3610,
    3650,
    3656,
    3686,
    3685,
    3671,
    3770,
    3706,
    3727,
    3756,
    3787,
    3762,
    3751,
    3635,
    3685,
    3622,
    3681,
    3680,
    3697,
    3564,
    3706,
    3597,
    3605,
    3598,
    3552,
    3559,
    3564,
    3689,
    3504,
    3633,
    3657,
    3627,
    3791,
    3743,
    3555,
    3656,
    3726,
    3688,
    3617,
    3644,
    3758,
    3689,
    3676,
    3755,
    3777,
    3569,
    3589,
    3699,
    3703,
    3643,
    3688,
    3766,
    3752,
    3660,
    3786,
    3800,
    3867,
    3665,
    3637,
    3713,
    3856,
    3837,
    3747,
    3790,
    3808,
    3707,
    3774,
    3800,
    3690,
    3681,
    3653,
    3784,
    3591,
    3718,
    3755,
    3796,
    3736,
    3809,
    3719,
    3700,
    3660,
    3752,
    3570,
    3591,
    3693,
    3671,
    3794,
    3822,
    3764,
    3814,
    3581,
    3586,
    3728,
    3766,
    3703,
    3625,
    3537,
    3579,
    3570,
    3755,
    3639,
    3596,
    3475,
    3646,
    3583,
    3528,
    3732,
    3639,
    3785,
    3609,
    3712,
    3678,
    3708,
    3650,
    3709,
    3718,
    3670,
    3894,
    3552,
    3607,
    3695,
    3796,
    3681,
    3431,
    3696,
    3670,
    3785,
    3659,
    3755,
    3733,
    3667,
    3654,
    3834,
    3764,
    3661,
    3727,
    3650,
    3756,
    3581,
    3815,
    3710,
    3732,
    3665,
    3792,
    3767,
    3791,
    3740,
    3756,
    3775,
    3934,
    3829,
    3915,
    3742,
    3696,
    3783,
    3910,
    3697,
    3724,
    3909,
    3552,
    3817,
    3639,
    3648,
    3696
   ],
   "WindowCenter": [
    866.0,
    863.0,
    860.0,
    859.0,
    858.0,
    860.0,
    860.0,
    857.0,
    856.0,
    856.0,
    856.0,
    857.0,
    856.0,
    857.0,
    857.0,
    857.0,
    856.0,
    856.0,
    856.0,
    856.0,
    855.0,
    855.0,
    855.0,
    856.0,
    857.0,
    857.0,
    857.0,
    857.0,
    856.0,
    856.0,
    856.0,
    855.0,
    855.0,
    853.0,
    853.0,
    854.0,
    854.0,
    854.0,
    852.0,
    853.0,
    852.0,
    854.0,
    853.0,
    853.0,
    853.0,
    853.0,
    854.0,
    853.0,
    854.0,
    853.0,
    853.0,
    854.0,
    855.0,
    854.0,
    856.0,
    853.0,
    853.0,
    851.0,
    852.0,
    852.0,
    853.0,
    853.0,
    854.0,
    855.0,
    855.0,
    855.0,
    853.0,
    854.0,
    854.0,
    853.0,
    854.0,
    854.0,
    855.0,
    853.0,
    855.0,
    856.0,
    857.0,
    857.0,
    855.0,
    854.0,
    854.0,
    854.0,
    855.0,
    855.0,
    854.0,
    855.0,
    854.0,
    855.0,
    855.0,
    855.0,
    854.0,
    854.0,
    853.0,
    852.0,
    853.0,
    853.0,
    854.0,
    855.0,
    855.0,
    855.0,
    855.0,
    856.0,
    855.0,
    855.0,
    855.0,
    854.0,
    854.0,
    854.0,
    854.0,
    854.0,
    855.0,
    854.0,
    854.0,
    854.0,
    854.0,
    854.0,
    854.0,
    854.0,
    854.0,
    855.0,
    854.0,
    855.0,
    855.0,
    854.0,
