{
  "AcquisitionMatrixPE": 100,
  "AcquisitionNumber": 1,
  "AcquisitionTime": "14:01:10.617500",
  "BandwidthPerPixelPhaseEncode": 18.519,
  "BaseResolution": 100,
  "BodyPartExamined": "BRAIN",
  "ConsistencyInfo": "N4_VE11C_LATEST_20160120",
  "ConversionSoftware": "dcm2niix",
  "ConversionSoftwareVersion": "v1.0.20180622 GCC4.9.2",
  "DerivedVendorReportedEchoSpacing": 0.000539986,
  "DeviceSerialNumber": "166078",
  "DwellTime": 2.1e-06,
  "EchoTime": 0.034,
  "EchoTrainLength": 100,
  "EffectiveEchoSpacing": 0.000539986,
  "FlipAngle": 90,
  "ImageOrientationPatientDICOM": [1, 0, 0, 0, 0.981627, -0.190809],
  "ImageType": [
    "ORIGINAL",
    "PRIMARY",
    "M",
    "ND",
    "MOSAIC"
],
  "InPlanePhaseEncodingDirectionDICOM": "COL",
  "InstitutionAddress": "Street_StreetNo_Bei_Jing_District_CN_ZIP",
  "InstitutionName": "BeiJing_Normal_University",
  "InstitutionalDepartmentName": "Department",
  "MRAcquisitionType": "2D",
  "MagneticFieldStrength": 3,
  "Manufacturer": "Siemens",
  "ManufacturersModelName": "Prisma",
  "Modality": "MR",
  "MultibandAccelerationFactor": 3,
  "PartialFourier": 1,
  "PatientPosition": "HFS",
  "PercentPhaseFOV": 100,
  "PhaseEncodingDirection": "j-",
  "PhaseEncodingSteps": 100,
  "PhaseResolution": 1,
  "PixelBandwidth": 2380,
  "ProcedureStepDescription": "BNU_P2018_64CH_Zhen.ZongLei",
  "ProtocolName": "bold_100x100_s3_2x2x2_retino_150",
  "PulseSequenceDetails": "%SiemensSeq%_ep2d_bold",
  "ReceiveCoilActiveElements": "HC1-7;NC1",
  "ReceiveCoilName": "HeadNeck_64",
  "ReconMatrixPE": 100,
  "RepetitionTime": 2,
  "SAR": 0.0878754,
  "ScanOptions": "FS",
  "ScanningSequence": "EP",
  "SequenceName": "_epfid2d1_100",
  "SequenceVariant": "SK",
  "SeriesDescription": "bold_100x100_s3_2x2x2_retino_150",
  "SeriesNumber": 3,
  "ShimSetting": [-5458, -11480, -1240, 394, -13, -172, -191, 72],
  "SliceThickness": 2,
  "SliceTiming": [1.485, 0, 0.99, 0.0825, 1.0725, 0.165, 1.155, 0.2475, 1.2375, 0.33, 1.32, 0.4125, 1.4025, 0.5775, 1.5675, 0.66, 1.65, 0.7425, 1.7325, 0.825, 1.815, 0.9075, 1.8975, 0.495, 1.485, 0, 0.99, 0.0825, 1.0725, 0.165, 1.155, 0.2475, 1.2375, 0.33, 1.32, 0.4125, 1.4025, 0.5775, 1.5675, 0.66, 1.65, 0.7425, 1.7325, 0.825, 1.815, 0.9075, 1.8975, 0.495, 1.485, 0, 0.99, 0.0825, 1.0725, 0.165, 1.155, 0.2475, 1.2375, 0.33, 1.32, 0.4125, 1.4025, 0.5775, 1.5675, 0.66, 1.65, 0.7425, 1.7325, 0.825, 1.815, 0.9075, 1.8975, 0.495],
  "SoftwareVersions": "syngo_MR_E11",
  "SpacingBetweenSlices": 2,
  "StationName": "AWP166078",
  "TaskName": "retinotopy",
  "TotalReadoutTime": 0.0534586,
  "TxRefAmp": 231.76,
  "dcmmeta_affine": [
    [-2.0, 0.0, 0.0, 101.34939575195312],
    [0.0, 1.9632543325424194, -0.3816179931163788, -83.92913055419922],
    [0.0, 0.3816179633140564, 1.963254451751709, -76.1924057006836],
    [0.0, 0.0, 0.0, 1.0]
],
  "dcmmeta_reorient_transform": [
    [0.0, -1.0, 0.0, 99.0],
    [1.0, 0.0, 0.0, 0.0],
    [0.0, 0.0, 1.0, 0.0],
    [0.0, 0.0, 0.0, 1.0]
],
  "dcmmeta_shape": [100, 100, 72, 150],
  "dcmmeta_slice_dim": 2,
  "dcmmeta_version": 0.6,
  "global": {
    "const": {
      "AcquisitionMatrix": [100, 0, 0, 100],
      "AngioFlag": "N",
      "BitsAllocated": 16,
      "BitsStored": 12,
      "BodyPartExamined": "BRAIN",
      "Columns": 900,
      "EchoNumbers": 1,
      "EchoTime": 34.0,
      "EchoTrainLength": 100,
      "FlipAngle": 90.0,
      "HighBit": 11,
      "ImageOrientationPatient": [1.0, 0.0, 0.0, 0.0, 0.98162718523795, -0.1908089861663],
      "ImagePositionPatient": [-901.34939754009, -895.73479714323, 114.23496544886],
      "ImageType": [
        "ORIGINAL",
        "PRIMARY",
        "M",
        "ND",
        "MOSAIC"
],
      "ImagedNucleus": "1H",
      "ImagingFrequency": 123.25775,
      "InPlanePhaseEncodingDirection": "COL",
      "MRAcquisitionType": "2D",
      "MagneticFieldStrength": 3.0,
      "Manufacturer": "SIEMENS",
      "ManufacturerModelName": "Prisma",
      "Modality": "MR",
      "NumberOfAverages": 1.0,
      "NumberOfPhaseEncodingSteps": 100,
      "PercentPhaseFieldOfView": 100.0,
      "PercentSampling": 100.0,
      "PerformedProcedureStepStartTime": "135813.353000",
      "PhotometricInterpretation": "MONOCHROME2",
      "PixelBandwidth": 2380.0,
      "PixelRepresentation": 0,
      "PixelSpacing": [2.0, 2.0],
      "ProtocolName": "bold_100x100_s3_2x2x2_retino_150",
      "RepetitionTime": 2000.0,
      "Rows": 900,
      "SAR": 0.08787537138614,
      "SamplesPerPixel": 1,
      "ScanOptions": "FS",
      "ScanningSequence": "EP",
      "SequenceName": "*epfid2d1_100",
      "SequenceVariant": "SK",
      "SeriesDescription": "bold_100x100_s3_2x2x2_retino_150",
      "SeriesNumber": 3,
      "SeriesTime": "140113.642000",
      "SliceLocation": -58.778100927478,
      "SliceThickness": 2.0,
      "SmallestImagePixelValue": 0,
      "SoftwareVersions": "syngo MR E11",
      "SpacingBetweenSlices": 2.0000000500643,
      "SpecificCharacterSet": "ISO_IR 100",
      "StudyID": "1",
      "StudyTime": "135813.261000",
      "TransmitCoilName": "Body",
      "VariableFlipAngleFlag": "N",
      "WindowCenterWidthExplanation": "Algo1",
      "dBdt": 0.0},
    "slices": {}
  },
  "time": {
    "samples": {
      "AcquisitionNumber": [1, 2, 3, 4, 5, 6, 7, 8, 9, 10, 11, 12, 13, 14, 15, 16, 17, 18, 19, 20, 21, 22, 23, 24, 25, 26, 27, 28, 29, 30, 31, 32, 33, 34, 35, 36, 37, 38, 39, 40, 41, 42, 43, 44, 45, 46, 47, 48, 49, 50, 51, 52, 53, 54, 55, 56, 57, 58, 59, 60, 61, 62, 63, 64, 65, 66, 67, 68, 69, 70, 71, 72, 73, 74, 75, 76, 77, 78, 79, 80, 81, 82, 83, 84, 85, 86, 87, 88, 89, 90, 91, 92, 93, 94, 95, 96, 97, 98, 99, 100, 101, 102, 103, 104, 105, 106, 107, 108, 109, 110, 111, 112, 113, 114, 115, 116, 117, 118, 119, 120, 121, 122, 123, 124, 125, 126, 127, 128, 129, 130, 131, 132, 133, 134, 135, 136, 137, 138, 139, 140, 141, 142, 143, 144, 145, 146, 147, 148, 149, 150],
      "AcquisitionTime": ["140110.617500", "140112.617500", "140114.617500", "140116.617500", "140118.617500", "140120.617500", "140122.617500", "140124.617500", "140126.617500", "140128.617500", "140130.617500", "140132.617500", "140134.617500", "140136.617500", "140138.617500", "140140.617500", "140142.617500", "140144.617500", "140146.617500", "140148.617500", "140150.617500", "140152.617500", "140154.617500", "140156.617500", "140158.617500", "140200.617500", "140202.617500", "140204.617500", "140206.617500", "140208.617500", "140210.617500", "140212.617500", "140214.617500", "140216.617500", "140218.617500", "140220.617500", "140222.617500", "140224.617500", "140226.617500", "140228.617500", "140230.617500", "140232.617500", "140234.617500", "140236.617500", "140238.617500", "140240.617500", "140242.617500", "140244.617500", "140246.617500", "140248.617500", "140250.617500", "140252.617500", "140254.617500", "140256.617500", "140258.617500", "140300.617500", "140302.617500", "140304.617500", "140306.617500", "140308.617500", "140310.617500", "140312.617500", "140314.617500", "140316.617500", "140318.617500", "140320.617500", "140322.617500", "140324.617500", "140326.617500", "140328.617500", "140330.617500", "140332.617500", "140334.617500", "140336.617500", "140338.617500", "140340.617500", "140342.617500", "140344.617500", "140346.617500", "140348.617500", "140350.617500", "140352.617500", "140354.617500", "140356.617500", "140358.617500", "140400.617500", "140402.617500", "140404.617500", "140406.617500", "140408.617500", "140410.617500", "140412.617500", "140414.617500", "140416.617500", "140418.617500", "140420.617500", "140422.617500", "140424.617500", "140426.617500", "140428.617500", "140430.617500", "140432.617500", "140434.617500", "140436.617500", "140438.617500", "140440.617500", "140442.617500", "140444.617500", "140446.617500", "140448.617500", "140450.617500", "140452.617500", "140454.617500", "140456.617500", "140458.617500", "140500.617500", "140502.617500", "140504.617500", "140506.617500", "140508.617500", "140510.617500", "140512.617500", "140514.617500", "140516.617500", "140518.617500", "140520.617500", "140522.617500", "140524.617500", "140526.617500", "140528.617500", "140530.617500", "140532.617500", "140534.617500", "140536.617500", "140538.617500", "140540.617500", "140542.617500", "140544.617500", "140546.617500", "140548.617500", "140550.617500", "140552.617500", "140554.617500", "140556.617500", "140558.617500", "140600.617500", "140602.617500", "140604.617500", "140606.617500", "140608.617500"],
      "ContentTime": ["140113.646000", "140115.142000", "140117.141000", "140119.141000", "140121.142000", "140123.142000", "140125.142000", "140127.141000", "140129.142000", "140131.141000", "140133.141000", "140135.142000", "140137.141000", "140139.143000", "140141.141000", "140143.141000", "140145.142000", "140147.142000", "140149.142000", "140151.141000", "140153.142000", "140155.142000", "140157.142000", "140159.141000", "140201.141000", "140203.142000", "140205.141000", "140207.142000", "140209.142000", "140211.141000", "140213.143000", "140215.143000", "140217.142000", "140219.142000", "140221.142000", "140223.142000", "140225.142000", "140227.141000", "140229.141000", "140231.143000", "140233.142000", "140235.142000", "140237.142000", "140239.141000", "140241.142000", "140243.141000", "140245.142000", "140247.142000", "140249.142000", "140251.142000", "140253.142000", "140255.141000", "140257.142000", "140259.142000", "140301.141000", "140303.142000", "140305.142000", "140307.142000", "140309.142000", "140311.142000", "140313.141000", "140315.142000", "140317.141000", "140319.141000", "140321.142000", "140323.143000", "140325.142000", "140327.142000", "140329.142000", "140331.141000", "140333.142000", "140335.141000", "140337.141000", "140339.142000", "140341.142000", "140343.142000", "140345.141000", "140347.141000", "140349.142000", "140351.141000", "140353.142000", "140355.141000", "140357.141000", "140359.143000", "140401.141000", "140403.142000", "140405.141000", "140407.142000", "140409.141000", "140411.141000", "140413.142000", "140415.141000", "140417.142000", "140419.142000", "140421.142000", "140423.141000", "140425.141000", "140427.141000", "140429.142000", "140431.141000", "140433.142000", "140435.143000", "140437.141000", "140439.141000", "140441.141000", "140443.142000", "140445.142000", "140447.141000", "140449.142000", "140451.142000", "140453.142000", "140455.141000", "140457.142000", "140459.142000", "140501.141000", "140503.141000", "140505.142000", "140507.141000", "140509.143000", "140511.142000", "140513.141000", "140515.141000", "140517.141000", "140519.141000", "140521.142000", "140523.141000", "140525.141000", "140527.142000", "140529.142000", "140531.142000", "140533.142000", "140535.142000", "140537.141000", "140539.141000", "140541.142000", "140543.143000", "140545.142000", "140547.141000", "140549.141000", "140551.142000", "140553.141000", "140555.142000", "140557.141000", "140559.141000", "140601.142000", "140603.142000", "140605.142000", "140607.141000", "140609.142000", "140610.756000"],
      "InstanceCreationTime": ["140113.646000", "140115.142000", "140117.141000", "140119.141000", "140121.142000", "140123.142000", "140125.142000", "140127.141000", "140129.142000", "140131.141000", "140133.141000", "140135.142000", "140137.141000", "140139.143000", "140141.141000", "140143.141000", "140145.142000", "140147.142000", "140149.142000", "140151.141000", "140153.142000", "140155.142000", "140157.142000", "140159.141000", "140201.141000", "140203.142000", "140205.141000", "140207.142000", "140209.142000", "140211.141000", "140213.143000", "140215.143000", "140217.142000", "140219.142000", "140221.142000", "140223.142000", "140225.142000", "140227.141000", "140229.141000", "140231.143000", "140233.142000", "140235.142000", "140237.142000", "140239.141000", "140241.142000", "140243.141000", "140245.142000", "140247.142000", "140249.142000", "140251.142000", "140253.142000", "140255.141000", "140257.142000", "140259.142000", "140301.141000", "140303.142000", "140305.142000", "140307.142000", "140309.142000", "140311.142000", "140313.141000", "140315.142000", "140317.141000", "140319.141000", "140321.142000", "140323.143000", "140325.142000", "140327.142000", "140329.142000", "140331.141000", "140333.142000", "140335.141000", "140337.141000", "140339.142000", "140341.142000", "140343.142000", "140345.141000", "140347.141000", "140349.142000", "140351.141000", "140353.142000", "140355.141000", "140357.141000", "140359.143000", "140401.141000", "140403.142000", "140405.141000", "140407.142000", "140409.141000", "140411.141000", "140413.142000", "140415.141000", "140417.142000", "140419.142000", "140421.142000", "140423.141000", "140425.141000", "140427.141000", "140429.142000", "140431.141000", "140433.142000", "140435.143000", "140437.141000", "140439.141000", "140441.141000", "140443.142000", "140445.142000", "140447.141000", "140449.142000", "140451.142000", "140453.142000", "140455.141000", "140457.142000", "140459.142000", "140501.141000", "140503.141000", "140505.142000", "140507.141000", "140509.143000", "140511.142000", "140513.141000", "140515.141000", "140517.141000", "140519.141000", "140521.142000", "140523.141000", "140525.141000", "140527.142000", "140529.142000", "140531.142000", "140533.142000", "140535.142000", "140537.141000", "140539.141000", "140541.142000", "140543.143000", "140545.142000", "140547.141000", "140549.141000", "140551.142000", "140553.141000", "140555.142000", "140557.141000", "140559.141000", "140601.142000", "140603.142000", "140605.142000", "140607.141000", "140609.142000", "140610.756000"],
      "InstanceNumber": [1, 2, 3, 4, 5, 6, 7, 8, 9, 10, 11, 12, 13, 14, 15, 16, 17, 18, 19, 20, 21, 22, 23, 24, 25, 26, 27, 28, 29, 30, 31, 32, 33, 34, 35, 36, 37, 38, 39, 40, 41, 42, 43, 44, 45, 46, 47, 48, 49, 50, 51, 52, 53, 54, 55, 56, 57, 58, 59, 60, 61, 62, 63, 64, 65, 66, 67, 68, 69, 70, 71, 72, 73, 74, 75, 76, 77, 78, 79, 80, 81, 82, 83, 84, 85, 86, 87, 88, 89, 90, 91, 92, 93, 94, 95, 96, 97, 98, 99, 100, 101, 102, 103, 104, 105, 106, 107, 108, 109, 110, 111, 112, 113, 114, 115, 116, 117, 118, 119, 120, 121, 122, 123, 124, 125, 126, 127, 128, 129, 130, 131, 132, 133, 134, 135, 136, 137, 138, 139, 140, 141, 142, 143, 144, 145, 146, 147, 148, 149, 150],
      "LargestImagePixelValue": [4095, 4095, 4095, 4095, 4095, 4095, 4095, 4095, 4095, 4095, 4095, 4095, 4095, 4095, 4095, 4095, 4095, 4095, 4095, 4095, 4095, 4095, 4095, 4095, 4095, 4095, 4095, 4095, 4095, 4095, 4095, 4095, 4095, 4095, 4095, 4095, 4095, 4095, 4095, 4095, 4095, 4095, 4095, 4095, 4095, 4095, 4095, 4095, 4095, 4095, 4095, 4095, 4095, 4095, 4095, 4095, 4095, 4095, 4095, 4095, 4095, 4095, 4095, 4095, 4095, 4095, 4095, 4095, 4095, 4095, 4095, 4095, 4095, 4095, 4095, 4095, 4095, 4095, 4095, 4095, 4095, 4095, 4095, 4095, 4095, 4095, 4095, 4095, 4095, 4095, 4095, 4095, 4095, 4095, 4095, 4095, 4095, 4095, 4095, 4095, 4095, 4095, 4095, 4095, 4095, 4095, 4095, 4095, 4095, 4095, 4038, 4095, 4095, 4095, 4095, 4095, 4095, 4095, 4093, 4078, 4058, 4066, 4095, 4075, 4040, 4032, 3997, 4051, 4057, 4029, 4068, 4084, 4095, 4095, 4068, 4095, 4095, 4095, 4095, 4095, 4095, 4095, 4095, 4095, 4095, 4087, 4048, 4064, 4077, 4088],
      "WindowCenter": [867.0, 865.0, 865.0, 866.0, 866.0, 865.0, 866.0, 867.0, 868.0, 867.0, 866.0, 865.0, 867.0, 868.0, 867.0, 866.0, 866.0, 866.0, 867.0, 867.0, 866.0, 866.0, 867.0, 867.0, 867.0, 866.0, 865.0, 865.0, 866.0, 866.0, 865.0, 865.0, 865.0, 866.0, 866.0, 866.0, 866.0, 865.0, 865.0, 866.0, 867.0, 867.0, 867.0, 867.0, 866.0, 865.0, 866.0, 867.0, 867.0, 866.0, 866.0, 866.0, 866.0, 866.0, 867.0, 866.0, 866.0, 866.0, 867.0, 866.0, 865.0, 864.0, 866.0, 866.0, 865.0, 865.0, 865.0, 866.0, 867.0, 866.0, 864.0, 864.0, 865.0, 866.0, 866.0, 867.0, 868.0, 868.0, 866.0, 866.0, 865.0, 866.0, 865.0, 865.0, 865.0, 866.0, 867.0, 868.0, 868.0, 868.0, 866.0, 866.0, 867.0, 867.0, 866.0, 866.0, 866.0, 866.0, 866.0, 867.0, 866.0, 868.0, 868.0, 867.0, 867.0, 866.0, 867.0, 867.0, 865.0, 864.0, 866.0, 867.0, 868.0, 867.0, 866.0, 866.0, 866.0, 865.0, 865.0, 864.0, 865.0, 866.0, 867.0, 866.0, 864.0, 863.0, 864.0, 865.0, 865.0, 866.0, 866.0, 867.0, 867.0, 866.0, 866.0, 866.0, 867.0, 867.0, 867.0, 867.0, 867.0, 868.0, 869.0, 868.0, 868.0, 867.0, 867.0, 867.0, 867.0, 868.0],
      "WindowWidth": [1888.0, 1883.0, 1884.0, 1886.0, 1885.0, 1884.0, 1885.0, 1889.0, 1892.0, 1888.0, 1885.0, 1884.0, 1888.0, 1891.0, 1890.0, 1887.0, 1886.0, 1887.0, 1889.0, 1889.0, 1886.0, 1885.0, 1888.0, 1890.0, 1888.0, 1885.0, 1883.0, 1884.0, 1886.0, 1886.0, 1884.0, 1884.0, 1883.0, 1885.0, 1886.0, 1886.0, 1885.0, 1884.0, 1884.0, 1886.0, 1888.0, 1888.0, 1889.0, 1887.0, 1884.0, 1884.0, 1886.0, 1887.0, 1887.0, 1886.0, 1886.0, 1887.0, 1886.0, 1887.0, 1888.0, 1886.0, 1886.0, 1886.0, 1888.0, 1887.0, 1882.0, 1882.0, 1885.0, 1885.0, 1884.0, 1882.0, 1882.0, 1885.0, 1889.0, 1885.0, 1879.0, 1879.0, 1883.0, 1886.0, 1886.0, 1887.0, 1890.0, 1890.0, 1886.0, 1883.0, 1883.0, 1883.0, 1882.0, 1882.0, 1882.0, 1883.0, 1887.0, 1889.0, 1891.0, 1889.0, 1886.0, 1885.0, 1889.0, 1888.0, 1885.0, 1884.0, 1884.0, 1885.0, 1886.0, 1887.0, 1886.0, 1889.0, 1891.0, 1889.0, 1888.0, 1886.0, 1888.0, 1888.0, 1881.0, 1879.0, 1883.0, 1889.0, 1889.0, 1887.0, 1885.0, 1884.0, 1884.0, 1881.0, 1881.0, 1879.0, 1880.0, 1883.0, 1886.0, 1884.0, 1878.0, 1876.0, 1877.0, 1881.0, 1882.0, 1882.0, 1883.0, 1886.0, 1886.0, 1884.0, 1883.0, 1884.0, 1887.0, 1887.0, 1887.0, 1887.0, 1887.0, 1890.0, 1892.0, 1891.0, 1889.0, 1886.0, 1885.0, 1886.0, 1887.0, 1889.0]
    },
    "slices": {}
  }
}