{
 "AcquisitionMatrixPE": 100,
 "AcquisitionNumber": 1,
 "AcquisitionTime": "14:07:5.172500",
 "BandwidthPerPixelPhaseEncode": 18.519,
 "BaseResolution": 100,
 "BodyPartExamined": "BRAIN",
 "ConsistencyInfo": "N4_VE11C_LATEST_20160120",
 "ConversionSoftware": "dcm2niix",
 "ConversionSoftwareVersion": "v1.0.20180622 GCC4.9.2",
 "DerivedVendorReportedEchoSpacing": 0.000539986,
 "DeviceSerialNumber": "166078",
 "DwellTime": 2.1e-06,
 "EchoTime": 0.034,
 "EchoTrainLength": 100,
 "EffectiveEchoSpacing": 0.000539986,
 "FlipAngle": 90,
 "ImageOrientationPatientDICOM": [
  1,
  0,
  0,
  0,
  0.981627,
  -0.190809
 ],
 "ImageType": [
  "ORIGINAL",
  "PRIMARY",
  "M",
  "ND",
  "MOSAIC"
 ],
 "InPlanePhaseEncodingDirectionDICOM": "COL",
 "InstitutionAddress": "Street_StreetNo_Bei_Jing_District_CN_ZIP",
 "InstitutionName": "BeiJing_Normal_University",
 "InstitutionalDepartmentName": "Department",
 "MRAcquisitionType": "2D",
 "MagneticFieldStrength": 3,
 "Manufacturer": "Siemens",
 "ManufacturersModelName": "Prisma",
 "Modality": "MR",
 "MultibandAccelerationFactor": 3,
 "PartialFourier": 1,
 "PatientPosition": "HFS",
 "PercentPhaseFOV": 100,
 "PhaseEncodingDirection": "j-",
 "PhaseEncodingSteps": 100,
 "PhaseResolution": 1,
 "PixelBandwidth": 2380,
 "ProcedureStepDescription": "BNU_P2018_64CH_Zhen.ZongLei",
 "ProtocolName": "bold_100x100_s3_2x2x2_retino_150",
 "PulseSequenceDetails": "%SiemensSeq%_ep2d_bold",
 "ReceiveCoilActiveElements": "HC1-7;NC1",
 "ReceiveCoilName": "HeadNeck_64",
 "ReconMatrixPE": 100,
 "RepetitionTime": 2,
 "SAR": 0.0878754,
 "ScanOptions": "FS",
 "ScanningSequence": "EP",
 "SequenceName": "_epfid2d1_100",
 "SequenceVariant": "SK",
 "SeriesDescription": "bold_100x100_s3_2x2x2_retino_150",
 "SeriesNumber": 4,
 "ShimSetting": [
  -5458,
  -11480,
  -1240,
  394,
  -13,
  -172,
  -191,
  72
 ],
 "SliceThickness": 2,
 "SliceTiming": [
  1.485,
  0,
  0.99,
  0.0825,
  1.0725,
  0.165,
  1.155,
  0.2475,
  1.2375,
  0.33,
  1.32,
  0.4125,
  1.4025,
  0.5775,
  1.5675,
  0.66,
  1.65,
  0.7425,
  1.7325,
  0.825,
  1.815,
  0.9075,
  1.8975,
  0.495,
  1.485,
  0,
  0.99,
  0.0825,
  1.0725,
  0.165,
  1.155,
  0.2475,
  1.2375,
  0.33,
  1.32,
  0.4125,
  1.4025,
  0.5775,
  1.5675,
  0.66,
  1.65,
  0.7425,
  1.7325,
  0.825,
  1.815,
  0.9075,
  1.8975,
  0.495,
  1.485,
  0,
  0.99,
  0.0825,
  1.0725,
  0.165,
  1.155,
  0.2475,
  1.2375,
  0.33,
  1.32,
  0.4125,
  1.4025,
  0.5775,
  1.5675,
  0.66,
  1.65,
  0.7425,
  1.7325,
  0.825,
  1.815,
  0.9075,
  1.8975,
  0.495
 ],
 "SoftwareVersions": "syngo_MR_E11",
 "SpacingBetweenSlices": 2,
 "StationName": "AWP166078",
 "TaskName": "prf",
 "TotalReadoutTime": 0.0534586,
 "TxRefAmp": 231.76,
 "dcmmeta_affine": [
  [
   -2.0,
   0.0,
   0.0,
   101.34939575195312
  ],
  [
   0.0,
   1.9632543325424194,
   -0.3816179931163788,
   -83.92913055419922
  ],
  [
   0.0,
   0.3816179633140564,
   1.963254451751709,
   -76.1924057006836
  ],
  [
   0.0,
   0.0,
   0.0,
   1.0
  ]
 ],
 "dcmmeta_reorient_transform": [
  [
   0.0,
   -1.0,
   0.0,
   99.0
  ],
  [
   1.0,
   0.0,
   0.0,
   0.0
  ],
  [
   0.0,
   0.0,
   1.0,
   0.0
  ],
  [
   0.0,
   0.0,
   0.0,
   1.0
  ]
 ],
 "dcmmeta_shape": [
  100,
  100,
  72,
  150
 ],
 "dcmmeta_slice_dim": 2,
 "dcmmeta_version": 0.6,
 "global": {
  "const": {
   "AcquisitionMatrix": [
    100,
    0,
    0,
    100
   ],
   "AngioFlag": "N",
   "BitsAllocated": 16,
   "BitsStored": 12,
   "BodyPartExamined": "BRAIN",
   "Columns": 900,
   "EchoNumbers": 1,
   "EchoTime": 34.0,
   "EchoTrainLength": 100,
   "FlipAngle": 90.0,
   "HighBit": 11,
   "ImageOrientationPatient": [
    1.0,
    0.0,
    0.0,
    0.0,
    0.98162718523795,
    -0.1908089861663
   ],
   "ImagePositionPatient": [
    -901.34939754009,
    -895.73479714323,
    114.23496544886
   ],
   "ImageType": [
    "ORIGINAL",
    "PRIMARY",
    "M",
    "ND",
    "MOSAIC"
   ],
   "ImagedNucleus": "1H",
   "ImagingFrequency": 123.257755,
   "InPlanePhaseEncodingDirection": "COL",
   "MRAcquisitionType": "2D",
   "MagneticFieldStrength": 3.0,
   "Manufacturer": "SIEMENS",
   "ManufacturerModelName": "Prisma",
   "Modality": "MR",
   "NumberOfAverages": 1.0,
   "NumberOfPhaseEncodingSteps": 100,
   "PercentPhaseFieldOfView": 100.0,
   "PercentSampling": 100.0,
   "PerformedProcedureStepStartTime": "135813.353000",
   "PhotometricInterpretation": "MONOCHROME2",
   "PixelBandwidth": 2380.0,
   "PixelRepresentation": 0,
   "PixelSpacing": [
    2.0,
    2.0
   ],
   "ProtocolName": "bold_100x100_s3_2x2x2_retino_150",
   "RepetitionTime": 2000.0,
   "Rows": 900,
   "SAR": 0.08787537138614,
   "SamplesPerPixel": 1,
   "ScanOptions": "FS",
   "ScanningSequence": "EP",
   "SequenceName": "*epfid2d1_100",
   "SequenceVariant": "SK",
   "SeriesDescription": "bold_100x100_s3_2x2x2_retino_150",
   "SeriesNumber": 4,
   "SeriesTime": "140708.064000",
   "SliceLocation": -58.778100927478,
   "SliceThickness": 2.0,
   "SmallestImagePixelValue": 0,
   "SoftwareVersions": "syngo MR E11",
   "SpacingBetweenSlices": 2.0000000500643,
   "SpecificCharacterSet": "ISO_IR 100",
   "StudyID": "1",
   "StudyTime": "135813.261000",
   "TransmitCoilName": "Body",
   "VariableFlipAngleFlag": "N",
   "WindowCenterWidthExplanation": "Algo1",
   "dBdt": 0.0
  },
  "slices": {}
 },
 "time": {
  "samples": {
   "AcquisitionNumber": [
    1,
    2,
    3,
    4,
    5,
    6,
    7,
    8,
    9,
    10,
    11,
    12,
    13,
    14,
    15,
    16,
    17,
    18,
    19,
    20,
    21,
    22,
    23,
    24,
    25,
    26,
    27,
    28,
    29,
    30,
    31,
    32,
    33,
    34,
    35,
    36,
    37,
    38,
    39,
    40,
    41,
    42,
    43,
    44,
    45,
    46,
    47,
    48,
    49,
    50,
    51,
    52,
    53,
    54,
    55,
    56,
    57,
    58,
    59,
    60,
    61,
    62,
    63,
    64,
    65,
    66,
    67,
    68,
    69,
    70,
    71,
    72,
    73,
    74,
    75,
    76,
    77,
    78,
    79,
    80,
    81,
    82,
    83,
    84,
    85,
    86,
    87,
    88,
    89,
    90,
    91,
    92,
    93,
    94,
    95,
    96,
    97,
    98,
    99,
    100,
    101,
    102,
    103,
    104,
    105,
    106,
    107,
    108,
    109,
    110,
    111,
    112,
    113,
    114,
    115,
    116,
    117,
    118,
    119,
    120,
    121,
    122,
    123,
    124,
    125,
    126,
    127,
    128,
    129,
    130,
    131,
    132,
    133,
    134,
    135,
    136,
    137,
    138,
    139,
    140,
    141,
    142,
    143,
    144,
    145,
    146,
    147,
    148,
    149,
    150
   ],
   "AcquisitionTime": [
    "140705.172500",
    "140707.172500",
    "140709.172500",
    "140711.172500",
    "140713.172500",
    "140715.172500",
    "140717.172500",
    "140719.172500",
    "140721.172500",
    "140723.172500",
    "140725.172500",
    "140727.172500",
    "140729.172500",
    "140731.172500",
    "140733.172500",
    "140735.172500",
    "140737.172500",
    "140739.172500",
    "140741.172500",
    "140743.172500",
    "140745.172500",
    "140747.172500",
    "140749.172500",
    "140751.172500",
    "140753.172500",
    "140755.172500",
    "140757.172500",
    "140759.172500",
    "140801.172500",
    "140803.172500",
    "140805.172500",
    "140807.172500",
    "140809.172500",
    "140811.172500",
    "140813.172500",
    "140815.172500",
    "140817.172500",
    "140819.172500",
    "140821.172500",
    "140823.172500",
    "140825.172500",
    "140827.172500",
    "140829.172500",
    "140831.172500",
    "140833.172500",
    "140835.172500",
    "140837.172500",
    "140839.172500",
    "140841.172500",
    "140843.172500",
    "140845.172500",
    "140847.172500",
    "140849.172500",
    "140851.172500",
    "140853.172500",
    "140855.172500",
    "140857.172500",
    "140859.172500",
    "140901.172500",
    "140903.172500",
    "140905.172500",
    "140907.172500",
    "140909.172500",
    "140911.172500",
    "140913.172500",
    "140915.172500",
    "140917.172500",
    "140919.172500",
    "140921.172500",
    "140923.172500",
    "140925.172500",
    "140927.172500",
    "140929.172500",
    "140931.172500",
    "140933.172500",
    "140935.172500",
    "140937.172500",
    "140939.172500",
    "140941.172500",
    "140943.172500",
    "140945.172500",
    "140947.172500",
    "140949.172500",
    "140951.172500",
    "140953.172500",
    "140955.172500",
    "140957.172500",
    "140959.172500",
    "141001.172500",
    "141003.172500",
    "141005.172500",
    "141007.172500",
    "141009.172500",
    "141011.172500",
    "141013.172500",
    "141015.172500",
    "141017.172500",
    "141019.172500",
    "141021.172500",
    "141023.172500",
    "141025.172500",
    "141027.172500",
    "141029.172500",
    "141031.172500",
    "141033.172500",
    "141035.172500",
    "141037.172500",
    "141039.172500",
    "141041.172500",
    "141043.172500",
    "141045.172500",
    "141047.172500",
    "141049.172500",
    "141051.172500",
    "141053.172500",
    "141055.172500",
    "141057.172500",
    "141059.172500",
    "141101.172500",
    "141103.172500",
    "141105.172500",
    "141107.172500",
    "141109.172500",
    "141111.172500",
    "141113.172500",
    "141115.172500",
    "141117.172500",
    "141119.172500",
    "141121.172500",
    "141123.172500",
    "141125.172500",
    "141127.172500",
    "141129.172500",
    "141131.172500",
    "141133.172500",
    "141135.172500",
    "141137.172500",
    "141139.172500",
    "141141.172500",
    "141143.172500",
    "141145.172500",
    "141147.172500",
    "141149.172500",
    "141151.172500",
    "141153.172500",
    "141155.172500",
    "141157.172500",
    "141159.172500",
    "141201.172500",
    "141203.172500"
   ],
   "ContentTime": [
    "140708.068000",
    "140709.564000",
    "140711.565000",
    "140713.564000",
    "140715.564000",
    "140717.565000",
    "140719.565000",
    "140721.565000",
    "140723.563000",
    "140725.563000",
    "140727.564000",
    "140729.564000",
    "140731.564000",
    "140733.564000",
    "140735.565000",
    "140737.564000",
    "140739.563000",
    "140741.563000",
    "140743.563000",
    "140745.564000",
    "140747.565000",
    "140749.564000",
    "140751.565000",
    "140753.564000",
    "140755.565000",
    "140757.563000",
    "140759.563000",
    "140801.563000",
    "140803.564000",
    "140805.564000",
    "140807.564000",
    "140809.564000",
    "140811.565000",
    "140813.564000",
    "140815.563000",
    "140817.563000",
    "140819.563000",
    "140821.564000",
    "140823.564000",
    "140825.564000",
    "140827.564000",
    "140829.564000",
    "140831.564000",
    "140833.564000",
    "140835.564000",
    "140837.563000",
    "140839.564000",
    "140841.564000",
    "140843.565000",
    "140845.565000",
    "140847.565000",
    "140849.564000",
    "140851.563000",
    "140853.563000",
    "140855.565000",
    "140857.565000",
    "140859.564000",
    "140901.564000",
    "140903.564000",
    "140905.565000",
    "140907.563000",
    "140909.563000",
    "140911.564000",
    "140913.565000",
    "140915.564000",
    "140917.565000",
    "140919.564000",
    "140921.565000",
    "140923.564000",
    "140925.563000",
    "140927.563000",
    "140929.563000",
    "140931.564000",
    "140933.564000",
    "140935.564000",
    "140937.565000",
    "140939.564000",
    "140941.564000",
    "140943.564000",
    "140945.563000",
    "140947.564000",
    "140949.565000",
    "140951.565000",
    "140953.565000",
    "140955.564000",
    "140957.565000",
    "140959.563000",
    "141001.564000",
    "141003.563000",
    "141005.564000",
    "141007.564000",
    "141009.564000",
    "141011.564000",
    "141013.565000",
    "141015.565000",
    "141017.563000",
    "141019.563000",
    "141021.563000",
    "141023.564000",
    "141025.564000",
    "141027.564000",
    "141029.564000",
    "141031.564000",
    "141033.565000",
    "141035.564000",
    "141037.563000",
    "141039.563000",
    "141041.565000",
    "141043.565000",
    "141045.565000",
    "141047.565000",
    "141049.564000",
    "141051.565000",
    "141053.564000",
    "141055.563000",
    "141057.563000",
    "141059.565000",
    "141101.564000",
    "141103.564000",
    "141105.565000",
    "141107.565000",
    "141109.564000",
    "141111.563000",
    "141113.563000",
    "141115.564000",
    "141117.565000",
    "141119.565000",
    "141121.565000",
    "141123.565000",
    "141125.564000",
    "141127.563000",
    "141129.564000",
    "141131.563000",
    "141133.564000",
    "141135.564000",
    "141137.564000",
    "141139.565000",
    "141141.565000",
    "141143.565000",
    "141145.563000",
    "141147.563000",
    "141149.564000",
    "141151.565000",
    "141153.565000",
    "141155.564000",
    "141157.564000",
    "141159.564000",
    "141201.564000",
    "141203.564000",
    "141205.205000"
   ],
   "InstanceCreationTime": [
    "140708.068000",
    "140709.564000",
    "140711.565000",
    "140713.564000",
    "140715.564000",
    "140717.565000",
    "140719.565000",
    "140721.565000",
    "140723.563000",
    "140725.563000",
    "140727.564000",
    "140729.564000",
    "140731.564000",
    "140733.564000",
    "140735.565000",
    "140737.564000",
    "140739.563000",
    "140741.563000",
    "140743.563000",
    "140745.564000",
    "140747.565000",
    "140749.564000",
    "140751.565000",
    "140753.564000",
    "140755.565000",
    "140757.563000",
    "140759.563000",
    "140801.563000",
    "140803.564000",
    "140805.564000",
    "140807.564000",
    "140809.564000",
    "140811.565000",
    "140813.564000",
    "140815.563000",
    "140817.563000",
    "140819.563000",
    "140821.564000",
    "140823.564000",
    "140825.564000",
    "140827.564000",
    "140829.564000",
    "140831.564000",
    "140833.564000",
    "140835.564000",
    "140837.563000",
    "140839.564000",
    "140841.564000",
    "140843.565000",
    "140845.565000",
    "140847.565000",
    "140849.564000",
    "140851.563000",
    "140853.563000",
    "140855.565000",
    "140857.565000",
    "140859.564000",
    "140901.564000",
    "140903.564000",
    "140905.565000",
    "140907.563000",
    "140909.563000",
    "140911.564000",
    "140913.565000",
    "140915.564000",
    "140917.565000",
    "140919.564000",
    "140921.565000",
    "140923.564000",
    "140925.563000",
    "140927.563000",
    "140929.563000",
    "140931.564000",
    "140933.564000",
    "140935.564000",
    "140937.565000",
    "140939.564000",
    "140941.564000",
    "140943.564000",
    "140945.563000",
    "140947.564000",
    "140949.565000",
    "140951.565000",
    "140953.565000",
    "140955.564000",
    "140957.565000",
    "140959.563000",
    "141001.564000",
    "141003.563000",
    "141005.564000",
    "141007.564000",
    "141009.564000",
    "141011.564000",
    "141013.565000",
    "141015.565000",
    "141017.563000",
    "141019.563000",
    "141021.563000",
    "141023.564000",
    "141025.564000",
    "141027.564000",
    "141029.564000",
    "141031.564000",
    "141033.565000",
    "141035.564000",
    "141037.563000",
    "141039.563000",
    "141041.565000",
    "141043.565000",
    "141045.565000",
    "141047.565000",
    "141049.564000",
    "141051.565000",
    "141053.564000",
    "141055.563000",
    "141057.563000",
    "141059.565000",
    "141101.564000",
    "141103.564000",
    "141105.565000",
    "141107.565000",
    "141109.564000",
    "141111.563000",
    "141113.563000",
    "141115.564000",
    "141117.565000",
    "141119.565000",
    "141121.565000",
    "141123.565000",
    "141125.564000",
    "141127.563000",
    "141129.564000",
    "141131.563000",
    "141133.564000",
    "141135.564000",
    "141137.564000",
    "141139.565000",
    "141141.565000",
    "141143.565000",
    "141145.563000",
    "141147.563000",
    "141149.564000",
    "141151.565000",
    "141153.565000",
    "141155.564000",
    "141157.564000",
    "141159.564000",
    "141201.564000",
    "141203.564000",
    "141205.205000"
   ],
   "InstanceNumber": [
    1,
    2,
    3,
    4,
    5,
    6,
    7,
    8,
    9,
    10,
    11,
    12,
    13,
    14,
    15,
    16,
    17,
    18,
    19,
    20,
    21,
    22,
    23,
    24,
    25,
    26,
    27,
    28,
    29,
    30,
    31,
    32,
    33,
    34,
    35,
    36,
    37,
    38,
    39,
    40,
    41,
    42,
    43,
    44,
    45,
    46,
    47,
    48,
    49,
    50,
    51,
    52,
    53,
    54,
    55,
    56,
    57,
    58,
    59,
    60,
    61,
    62,
    63,
    64,
    65,
    66,
    67,
    68,
    69,
    70,
    71,
    72,
    73,
    74,
    75,
    76,
    77,
    78,
    79,
    80,
    81,
    82,
    83,
    84,
    85,
    86,
    87,
    88,
    89,
    90,
    91,
    92,
    93,
    94,
    95,
    96,
    97,
    98,
    99,
    100,
    101,
    102,
    103,
    104,
    105,
    106,
    107,
    108,
    109,
    110,
    111,
    112,
    113,
    114,
    115,
    116,
    117,
    118,
    119,
    120,
    121,
    122,
    123,
    124,
    125,
    126,
    127,
    128,
    129,
    130,
    131,
    132,
    133,
    134,
    135,
    136,
    137,
    138,
    139,
    140,
    141,
    142,
    143,
    144,
    145,
    146,
    147,
    148,
    149,
    150
   ],
   "LargestImagePixelValue": [
    4095,
    4095,
    4095,
    4095,
    4095,
    4095,
    4095,
    4083,
    4095,
    4095,
    4095,
    4095,
    4095,
    4095,
    4095,
    4095,
    4095,
    4095,
    4095,
    4095,
    4095,
    4095,
    4095,
    4095,
    4042,
    4095,
    4095,
    4095,
    4095,
    4051,
    4024,
    3979,
    4035,
    4090,
    4087,
    4072,
    4095,
    4086,
    4057,
    4053,
    4047,
    3999,
    3997,
    4036,
    4062,
    4064,
    4084,
    4056,
    4046,
    4025,
    4068,
    3991,
    3967,
    3982,
    4004,
    4027,
    4016,
    3968,
    3945,
    3997,
    4006,
    4048,
    4078,
    4073,
    4072,
    4090,
    4079,
    4081,
    4095,
    4079,
    4034,
    4041,
    4040,
    4060,
    4057,
    4025,
    4018,
    3999,
    4055,
    4021,
    4014,
    4049,
    4059,
    4073,
    4083,
    4095,
    4095,
    4092,
    4095,
    4076,
    4022,
    3999,
    3979,
    4023,
    4017,
    4080,
    4043,
    4037,
    4042,
    4063,
    4076,
    4053,
    4086,
    4075,
    4083,
    4075,
    4082,
    4085,
    4016,
    3991,
    4019,
    4095,
    4095,
    4073,
    3976,
    3991,
    4021,
    4037,
    4057,
    4089,
    4095,
    4095,
    4063,
    4009,
    4031,
    4048,
    4030,
    4047,
    3971,
    4002,
    4023,
    4036,
    4079,
    4071,
    4072,
    4065,
    4036,
    4069,
    4079,
    4073,
    4040,
    4058,
    4081,
    4072,
    3996,
    4053,
    4006,
    4000,
    4024,
    4036
   ],
   "WindowCenter": [
    870.0,
    869.0,
    868.0,
    867.0,
    866.0,
    866.0,
    865.0,
    864.0,
    865.0,
    866.0,
    868.0,
    869.0,
    869.0,
    869.0,
    869.0,
    869.0,
    868.0,
    868.0,
    867.0,
    867.0,
    867.0,
    868.0,
    868.0,
    866.0,
    866.0,
    867.0,
    867.0,
    867.0,
    867.0,
    866.0,
    866.0,
    866.0,
    867.0,
    867.0,
    868.0,
    868.0,
    868.0,
    868.0,
    867.0,
    866.0,
    866.0,
    865.0,
    865.0,
    866.0,
    866.0,
    867.0,
    867.0,
    867.0,
    867.0,
    867.0,
    867.0,
    867.0,
    866.0,
    867.0,
    868.0,
    866.0,
    866.0,
    865.0,
    865.0,
    867.0,
    868.0,
    867.0,
    867.0,
    867.0,
    868.0,
    868.0,
    868.0,
    868.0,
    869.0,
    868.0,
    867.0,
    866.0,
    867.0,
    867.0,
    866.0,
    865.0,
    866.0,
    867.0,
    867.0,
    866.0,
    866.0,
    866.0,
    866.0,
    867.0,
    868.0,
    868.0,
    868.0,
    867.0,
    867.0,
    867.0,
    866.0,
    866.0,
    866.0,
    866.0,
    866.0,
    867.0,
    868.0,
    867.0,
    867.0,
    867.0,
    868.0,
    869.0,
    868.0,
    868.0,
    868.0,
    867.0,
    867.0,
    865.0,
    863.0,
    864.0,
    866.0,
    867.0,
    866.0,
    864.0,
    864.0,
    865.0,
    865.0,
    866.0,
    866.0,
    868.0,
    868.0,
    866.0,
    864.0,
    864.0,
    866.0,
    866.0,
    866.0,
    864.0,
    864.0,
    865.0,
    866.0,
    868.0,
    869.0,
    867.0,
    867.0,
    866.0,
    867.0,
    868.0,
    867.0,
    867.0,
    866.0,
    867.0,
    867.0,
    866.0,
    866.0,
    866.0,
    866.0,
    867.0,
    868.0,
    868.0
   ],
   "WindowWidth": [
    1896.0,
    1891.0,
    1888.0,
    1886.0,
    1883.0,
    1881.0,
    1879.0,
    1878.0,
    1879.0,
    1883.0,
    1889.0,
    1891.0,
    1891.0,
    1891.0,
    1891.0,
    1891.0,
    1890.0,
    1889.0,
    1887.0,
    1886.0,
    1887.0,
    1888.0,
    1888.0,
    1884.0,
    1883.0,
    1886.0,
    1888.0,
    1888.0,
    1886.0,
    1884.0,
    1883.0,
    1883.0,
    1886.0,
    1888.0,
    1889.0,
    1889.0,
    1890.0,
    1889.0,
    1886.0,
    1884.0,
    1883.0,
    1881.0,
    1882.0,
    1884.0,
    1884.0,
    1887.0,
    1886.0,
    1886.0,
    1886.0,
    1887.0,
    1887.0,
    1886.0,
    1884.0,
    1887.0,
    1887.0,
    1884.0,
    1882.0,
    1880.0,
    1881.0,
    1886.0,
    1887.0,
    1887.0,
    1887.0,
    1886.0,
    1888.0,
    1889.0,
    1890.0,
    1890.0,
    1891.0,
    1888.0,
    1885.0,
    1884.0,
    1884.0,
    1886.0,
    1883.0,
    1880.0,
    1882.0,
    1884.0,
    1885.0,
    1883.0,
    1884.0,
    1884.0,
    1884.0,
    1885.0,
    1888.0,
    1890.0,
    1889.0,
    1887.0,
    1887.0,
    1886.0,
    1883.0,
    1882.0,
    1883.0,
    1883.0,
    1882.0,
    1885.0,
    1886.0,
    1886.0,
    1884.0,
    1884.0,
    1888.0,
    1889.0,
    1888.0,
    1887.0,
    1887.0,
    1886.0,
    1884.0,
    1879.0,
    1874.0,
    1876.0,
    1883.0,
    1886.0,
    1881.0,
    1876.0,
    1876.0,
    1878.0,
    1880.0,
    1882.0,
    1883.0,
    1887.0,
    1887.0,
    1883.0,
    1878.0,
    1877.0,
    1882.0,
    1883.0,
    1881.0,
    1876.0,
    1875.0,
    1879.0,
    1882.0,
    1887.0,
    1889.0,
    1885.0,
    1884.0,
    1883.0,
    1885.0,
    1887.0,
    1886.0,
    1884.0,
    1882.0,
    1884.0,
    1884.0,
    1883.0,
    1882.0,
    1882.0,
    1883.0,
    1884.0,
    1886.0,
    1887.0
   ]
  },
  "slices": {}
 }
}