{
  "AcquisitionMatrixPE": 100,
  "AcquisitionNumber": 1,
  "AcquisitionTime": "11:24:23.415000",
  "BandwidthPerPixelPhaseEncode": 18.519,
  "BaseResolution": 100,
  "BodyPartExamined": "BRAIN",
  "ConsistencyInfo": "N4_VE11C_LATEST_20160120",
  "ConversionSoftware": "dcm2niix",
  "ConversionSoftwareVersion": "v1.0.20180622 GCC4.9.2",
  "DerivedVendorReportedEchoSpacing": 0.000539986,
  "DeviceSerialNumber": "166078",
  "DwellTime": 2.1e-06,
  "EchoTime": 0.034,
  "EchoTrainLength": 100,
  "EffectiveEchoSpacing": 0.000539986,
  "FlipAngle": 90,
  "ImageOrientationPatientDICOM": [1, 0, 0, 0, 0.974761, -0.22325],
  "ImageType": [
    "ORIGINAL",
    "PRIMARY",
    "M",
    "ND",
    "MOSAIC"
],
  "InPlanePhaseEncodingDirectionDICOM": "COL",
  "InstitutionAddress": "Street_StreetNo_Bei_Jing_District_CN_ZIP",
  "InstitutionName": "BeiJing_Normal_University",
  "InstitutionalDepartmentName": "Department",
  "MRAcquisitionType": "2D",
  "MagneticFieldStrength": 3,
  "Manufacturer": "Siemens",
  "ManufacturersModelName": "Prisma",
  "Modality": "MR",
  "MultibandAccelerationFactor": 3,
  "PartialFourier": 1,
  "PatientPosition": "HFS",
  "PercentPhaseFOV": 100,
  "PhaseEncodingDirection": "j-",
  "PhaseEncodingSteps": 100,
  "PhaseResolution": 1,
  "PixelBandwidth": 2380,
  "ProcedureStepDescription": "BNU_P2018_64CH_Zhen.ZongLei",
  "ProtocolName": "bold_100x100_s3_2x2x2_static_test_241",
  "PulseSequenceDetails": "%SiemensSeq%_ep2d_bold",
  "ReceiveCoilActiveElements": "HC1-7;NC1",
  "ReceiveCoilName": "HeadNeck_64",
  "ReconMatrixPE": 100,
  "RepetitionTime": 2,
  "SAR": 0.0874073,
  "ScanOptions": "FS",
  "ScanningSequence": "EP",
  "SequenceName": "_epfid2d1_100",
  "SequenceVariant": "SK",
  "SeriesDescription": "bold_100x100_s3_2x2x2_static_test_241",
  "SeriesNumber": 6,
  "ShimSetting": [-5453, -11475, -1269, 418, 14, -109, -155, 53],
  "SliceThickness": 2,
  "SliceTiming": [1.485, 0, 0.99, 0.0825, 1.0725, 0.165, 1.155, 0.2475, 1.2375, 0.33, 1.32, 0.4125, 1.4025, 0.5775, 1.5675, 0.66, 1.65, 0.7425, 1.7325, 0.825, 1.815, 0.9075, 1.8975, 0.495, 1.485, 0, 0.99, 0.0825, 1.0725, 0.165, 1.155, 0.2475, 1.2375, 0.33, 1.32, 0.4125, 1.4025, 0.5775, 1.5675, 0.66, 1.65, 0.7425, 1.7325, 0.825, 1.815, 0.9075, 1.8975, 0.495, 1.485, 0, 0.99, 0.0825, 1.0725, 0.165, 1.155, 0.2475, 1.2375, 0.33, 1.32, 0.4125, 1.4025, 0.5775, 1.5675, 0.66, 1.65, 0.7425, 1.7325, 0.825, 1.815, 0.9075, 1.8975, 0.495],
  "SoftwareVersions": "syngo_MR_E11",
  "SpacingBetweenSlices": 2,
  "StationName": "AWP166078",
  "TaskName": "naturalvision2",
  "TotalReadoutTime": 0.0534586,
  "TxRefAmp": 233.327,
  "dcmmeta_affine": [
    [-2.0, 0.0, 0.0, 100.67469787597656],
    [0.0, 1.9495223760604858, -0.4465002119541168, -77.77222442626953],
    [0.0, 0.4465002119541168, 1.9495223760604858, -96.25282287597656],
    [0.0, 0.0, 0.0, 1.0]
],
  "dcmmeta_reorient_transform": [
    [0.0, -1.0, 0.0, 99.0],
    [1.0, 0.0, 0.0, 0.0],
    [0.0, 0.0, 1.0, 0.0],
    [0.0, 0.0, 0.0, 1.0]
],
  "dcmmeta_shape": [100, 100, 72, 241],
  "dcmmeta_slice_dim": 2,
  "dcmmeta_version": 0.6,
  "global": {
    "const": {
      "AcquisitionMatrix": [100, 0, 0, 100],
      "AngioFlag": "N",
      "BitsAllocated": 16,
      "BitsStored": 12,
      "BodyPartExamined": "BRAIN",
      "Columns": 900,
      "EchoNumbers": 1,
      "EchoTime": 34.0,
      "EchoTrainLength": 100,
      "FlipAngle": 90.0,
      "HighBit": 11,
      "ImageOrientationPatient": [1.0, 0.0, 0.0, 0.0, 0.9747611962791, -0.2232501068948],
      "ImagePositionPatient": [-900.67469877005, -895.0394502016, 126.55078285083],
      "ImageType": [
        "ORIGINAL",
        "PRIMARY",
        "M",
        "ND",
        "MOSAIC"
],
      "ImagedNucleus": "1H",
      "ImagingFrequency": 123.257774,
      "InPlanePhaseEncodingDirection": "COL",
      "MRAcquisitionType": "2D",
      "MagneticFieldStrength": 3.0,
      "Manufacturer": "SIEMENS",
      "ManufacturerModelName": "Prisma",
      "Modality": "MR",
      "NumberOfAverages": 1.0,
      "NumberOfPhaseEncodingSteps": 100,
      "PercentPhaseFieldOfView": 100.0,
      "PercentSampling": 100.0,
      "PerformedProcedureStepStartTime": "105223.445000",
      "PhotometricInterpretation": "MONOCHROME2",
      "PixelBandwidth": 2380.0,
      "PixelRepresentation": 0,
      "PixelSpacing": [2.0, 2.0],
      "ProtocolName": "bold_100x100_s3_2x2x2_static_test_241",
      "RepetitionTime": 2000.0,
      "Rows": 900,
      "SAR": 0.08740728806732,
      "SamplesPerPixel": 1,
      "ScanOptions": "FS",
      "ScanningSequence": "EP",
      "SequenceName": "*epfid2d1_100",
      "SequenceVariant": "SK",
      "SeriesDescription": "bold_100x100_s3_2x2x2_static_test_241",
      "SeriesNumber": 6,
      "SeriesTime": "112425.578000",
      "SliceLocation": -76.460860450842,
      "SliceThickness": 2.0,
      "SmallestImagePixelValue": 0,
      "SoftwareVersions": "syngo MR E11",
      "SpacingBetweenSlices": 2.0000000341638,
      "SpecificCharacterSet": "ISO_IR 100",
      "StudyID": "1",
      "StudyTime": "105223.381000",
      "TransmitCoilName": "Body",
      "VariableFlipAngleFlag": "N",
      "WindowCenterWidthExplanation": "Algo1",
      "dBdt": 0.0},
    "slices": {}
  },
  "time": {
    "samples": {
      "AcquisitionNumber": [1, 2, 3, 4, 5, 6, 7, 8, 9, 10, 11, 12, 13, 14, 15, 16, 17, 18, 19, 20, 21, 22, 23, 24, 25, 26, 27, 28, 29, 30, 31, 32, 33, 34, 35, 36, 37, 38, 39, 40, 41, 42, 43, 44, 45, 46, 47, 48, 49, 50, 51, 52, 53, 54, 55, 56, 57, 58, 59, 60, 61, 62, 63, 64, 65, 66, 67, 68, 69, 70, 71, 72, 73, 74, 75, 76, 77, 78, 79, 80, 81, 82, 83, 84, 85, 86, 87, 88, 89, 90, 91, 92, 93, 94, 95, 96, 97, 98, 99, 100, 101, 102, 103, 104, 105, 106, 107, 108, 109, 110, 111, 112, 113, 114, 115, 116, 117, 118, 119, 120, 121, 122, 123, 124, 125, 126, 127, 128, 129, 130, 131, 132, 133, 134, 135, 136, 137, 138, 139, 140, 141, 142, 143, 144, 145, 146, 147, 148, 149, 150, 151, 152, 153, 154, 155, 156, 157, 158, 159, 160, 161, 162, 163, 164, 165, 166, 167, 168, 169, 170, 171, 172, 173, 174, 175, 176, 177, 178, 179, 180, 181, 182, 183, 184, 185, 186, 187, 188, 189, 190, 191, 192, 193, 194, 195, 196, 197, 198, 199, 200, 201, 202, 203, 204, 205, 206, 207, 208, 209, 210, 211, 212, 213, 214, 215, 216, 217, 218, 219, 220, 221, 222, 223, 224, 225, 226, 227, 228, 229, 230, 231, 232, 233, 234, 235, 236, 237, 238, 239, 240, 241],
      "AcquisitionTime": ["112423.415000", "112425.415000", "112427.415000", "112429.415000", "112431.415000", "112433.415000", "112435.415000", "112437.415000", "112439.415000", "112441.415000", "112443.415000", "112445.415000", "112447.415000", "112449.415000", "112451.415000", "112453.415000", "112455.415000", "112457.415000", "112459.415000", "112501.415000", "112503.415000", "112505.415000", "112507.415000", "112509.415000", "112511.415000", "112513.415000", "112515.415000", "112517.415000", "112519.415000", "112521.415000", "112523.415000", "112525.415000", "112527.415000", "112529.415000", "112531.415000", "112533.415000", "112535.415000", "112537.415000", "112539.415000", "112541.415000", "112543.415000", "112545.415000", "112547.415000", "112549.415000", "112551.415000", "112553.415000", "112555.415000", "112557.415000", "112559.415000", "112601.415000", "112603.415000", "112605.415000", "112607.415000", "112609.415000", "112611.415000", "112613.415000", "112615.415000", "112617.415000", "112619.415000", "112621.415000", "112623.415000", "112625.415000", "112627.415000", "112629.415000", "112631.415000", "112633.415000", "112635.415000", "112637.415000", "112639.415000", "112641.415000", "112643.415000", "112645.415000", "112647.415000", "112649.415000", "112651.415000", "112653.415000", "112655.415000", "112657.415000", "112659.415000", "112701.415000", "112703.415000", "112705.415000", "112707.415000", "112709.415000", "112711.415000", "112713.415000", "112715.415000", "112717.415000", "112719.415000", "112721.415000", "112723.415000", "112725.415000", "112727.415000", "112729.415000", "112731.415000", "112733.415000", "112735.415000", "112737.415000", "112739.415000", "112741.415000", "112743.415000", "112745.415000", "112747.415000", "112749.415000", "112751.415000", "112753.415000", "112755.415000", "112757.415000", "112759.415000", "112801.415000", "112803.415000", "112805.415000", "112807.415000", "112809.415000", "112811.415000", "112813.415000", "112815.415000", "112817.415000", "112819.415000", "112821.415000", "112823.415000", "112825.415000", "112827.415000", "112829.415000", "112831.415000", "112833.415000", "112835.415000", "112837.415000", "112839.415000", "112841.415000", "112843.415000", "112845.415000", "112847.415000", "112849.415000", "112851.415000", "112853.415000", "112855.415000", "112857.415000", "112859.415000", "112901.415000", "112903.415000", "112905.415000", "112907.415000", "112909.415000", "112911.415000", "112913.415000", "112915.415000", "112917.415000", "112919.415000", "112921.415000", "112923.415000", "112925.415000", "112927.415000", "112929.415000", "112931.415000", "112933.415000", "112935.415000", "112937.415000", "112939.415000", "112941.415000", "112943.415000", "112945.415000", "112947.415000", "112949.415000", "112951.415000", "112953.415000", "112955.415000", "112957.415000", "112959.415000", "113001.415000", "113003.415000", "113005.415000", "113007.415000", "113009.415000", "113011.415000", "113013.415000", "113015.415000", "113017.415000", "113019.415000", "113021.415000", "113023.415000", "113025.415000", "113027.415000", "113029.415000", "113031.415000", "113033.415000", "113035.415000", "113037.415000", "113039.415000", "113041.415000", "113043.415000", "113045.415000", "113047.415000", "113049.415000", "113051.415000", "113053.415000", "113055.415000", "113057.415000", "113059.415000", "113101.415000", "113103.415000", "113105.415000", "113107.415000", "113109.415000", "113111.415000", "113113.415000", "113115.415000", "113117.415000", "113119.415000", "113121.415000", "113123.415000", "113125.415000", "113127.415000", "113129.415000", "113131.415000", "113133.415000", "113135.415000", "113137.415000", "113139.415000", "113141.415000", "113143.415000", "113145.415000", "113147.415000", "113149.415000", "113151.415000", "113153.415000", "113155.415000", "113157.415000", "113159.415000", "113201.415000", "113203.415000", "113205.415000", "113207.415000", "113209.415000", "113211.415000", "113213.415000", "113215.415000", "113217.415000", "113219.415000", "113221.415000", "113223.415000"],
      "ContentTime": ["112425.582000", "112427.077000", "112429.077000", "112431.078000", "112433.078000", "112435.077000", "112437.077000", "112439.077000", "112441.077000", "112443.077000", "112445.577000", "112447.078000", "112449.077000", "112451.078000", "112453.078000", "112455.077000", "112457.077000", "112459.077000", "112501.077000", "112503.077000", "112505.077000", "112507.077000", "112509.079000", "112511.077000", "112513.077000", "112515.077000", "112517.077000", "112519.077000", "112521.077000", "112523.078000", "112525.078000", "112527.078000", "112529.077000", "112531.077000", "112533.077000", "112535.078000", "112537.077000", "112539.078000", "112541.077000", "112543.078000", "112545.077000", "112547.078000", "112549.077000", "112551.077000", "112553.077000", "112555.077000", "112557.077000", "112559.077000", "112601.079000", "112603.077000", "112605.578000", "112607.077000", "112609.077000", "112611.077000", "112613.077000", "112615.078000", "112617.077000", "112619.078000", "112621.077000", "112623.078000", "112625.077000", "112627.078000", "112629.078000", "112631.077000", "112633.078000", "112635.078000", "112637.079000", "112639.077000", "112641.078000", "112643.077000", "112645.078000", "112647.077000", "112649.078000", "112651.078000", "112653.578000", "112655.078000", "112657.077000", "112659.077000", "112701.077000", "112703.077000", "112705.077000", "112707.077000", "112709.077000", "112711.078000", "112713.077000", "112715.578000", "112717.077000", "112719.078000", "112721.077000", "112723.078000", "112725.078000", "112727.077000", "112729.079000", "112731.077000", "112733.078000", "112735.077000", "112737.077000", "112739.077000", "112741.078000", "112743.077000", "112745.077000", "112747.078000", "112749.077000", "112751.077000", "112753.078000", "112755.077000", "112757.077000", "112759.078000", "112801.077000", "112803.078000", "112805.077000", "112807.077000", "112809.078000", "112811.078000", "112813.078000", "112815.077000", "112817.077000", "112819.077000", "112821.079000", "112823.078000", "112825.077000", "112827.077000", "112829.077000", "112831.078000", "112833.077000", "112835.077000", "112837.077000", "112839.078000", "112841.077000", "112843.077000", "112845.077000", "112847.077000", "112849.077000", "112851.078000", "112853.078000", "112855.077000", "112857.079000", "112859.078000", "112901.077000", "112903.078000", "112905.078000", "112907.078000", "112909.077000", "112911.078000", "112913.078000", "112915.077000", "112917.078000", "112919.078000", "112921.077000", "112923.077000", "112925.077000", "112927.077000", "112929.077000", "112931.078000", "112933.077000", "112935.078000", "112937.077000", "112939.077000", "112941.077000", "112943.077000", "112945.078000", "112947.078000", "112949.079000", "112951.078000", "112953.077000", "112955.078000", "112957.077000", "112959.078000", "113001.078000", "113003.078000", "113005.077000", "113007.079000", "113009.078000", "113011.078000", "113013.077000", "113015.077000", "113017.077000", "113019.077000", "113021.077000", "113023.078000", "113025.078000", "113027.078000", "113029.078000", "113031.078000", "113033.078000", "113035.577000", "113037.077000", "113039.077000", "113041.078000", "113043.077000", "113045.077000", "113047.077000", "113049.077000", "113051.077000", "113053.077000", "113055.077000", "113057.078000", "113059.079000", "113101.077000", "113103.077000", "113105.077000", "113107.077000", "113109.077000", "113111.077000", "113113.077000", "113115.077000", "113117.078000", "113119.077000", "113121.077000", "113123.077000", "113125.078000", "113127.077000", "113129.077000", "113131.077000", "113133.078000", "113135.078000", "113137.078000", "113139.077000", "113141.077000", "113143.077000", "113145.077000", "113147.078000", "113149.078000", "113151.078000", "113153.077000", "113155.077000", "113157.077000", "113159.078000", "113201.078000", "113203.078000", "113205.078000", "113207.078000", "113209.078000", "113211.077000", "113213.077000", "113215.077000", "113217.078000", "113219.078000", "113221.078000", "113223.077000", "113224.978000"],
      "InstanceCreationTime": ["112425.582000", "112427.077000", "112429.077000", "112431.078000", "112433.078000", "112435.077000", "112437.077000", "112439.077000", "112441.077000", "112443.077000", "112445.577000", "112447.078000", "112449.077000", "112451.078000", "112453.078000", "112455.077000", "112457.077000", "112459.077000", "112501.077000", "112503.077000", "112505.077000", "112507.077000", "112509.079000", "112511.077000", "112513.077000", "112515.077000", "112517.077000", "112519.077000", "112521.077000", "112523.078000", "112525.078000", "112527.078000", "112529.077000", "112531.077000", "112533.077000", "112535.078000", "112537.077000", "112539.078000", "112541.077000", "112543.078000", "112545.077000", "112547.078000", "112549.077000", "112551.077000", "112553.077000", "112555.077000", "112557.077000", "112559.077000", "112601.079000", "112603.077000", "112605.578000", "112607.077000", "112609.077000", "112611.077000", "112613.077000", "112615.078000", "112617.077000", "112619.078000", "112621.077000", "112623.078000", "112625.077000", "112627.078000", "112629.078000", "112631.077000", "112633.078000", "112635.078000", "112637.079000", "112639.077000", "112641.078000", "112643.077000", "112645.078000", "112647.077000", "112649.078000", "112651.078000", "112653.578000", "112655.078000", "112657.077000", "112659.077000", "112701.077000", "112703.077000", "112705.077000", "112707.077000", "112709.077000", "112711.078000", "112713.077000", "112715.578000", "112717.077000", "112719.078000", "112721.077000", "112723.078000", "112725.078000", "112727.077000", "112729.079000", "112731.077000", "112733.078000", "112735.077000", "112737.077000", "112739.077000", "112741.078000", "112743.077000", "112745.077000", "112747.078000", "112749.077000", "112751.077000", "112753.078000", "112755.077000", "112757.077000", "112759.078000", "112801.077000", "112803.078000", "112805.077000", "112807.077000", "112809.078000", "112811.078000", "112813.078000", "112815.077000", "112817.077000", "112819.077000", "112821.079000", "112823.078000", "112825.077000", "112827.077000", "112829.077000", "112831.078000", "112833.077000", "112835.077000", "112837.077000", "112839.078000", "112841.077000", "112843.077000", "112845.077000", "112847.077000", "112849.077000", "112851.078000", "112853.078000", "112855.077000", "112857.079000", "112859.078000", "112901.077000", "112903.078000", "112905.078000", "112907.078000", "112909.077000", "112911.078000", "112913.078000", "112915.077000", "112917.078000", "112919.078000", "112921.077000", "112923.077000", "112925.077000", "112927.077000", "112929.077000", "112931.078000", "112933.077000", "112935.078000", "112937.077000", "112939.077000", "112941.077000", "112943.077000", "112945.078000", "112947.078000", "112949.079000", "112951.078000", "112953.077000", "112955.078000", "112957.077000", "112959.078000", "113001.078000", "113003.078000", "113005.077000", "113007.079000", "113009.078000", "113011.078000", "113013.077000", "113015.077000", "113017.077000", "113019.077000", "113021.077000", "113023.078000", "113025.078000", "113027.078000", "113029.078000", "113031.078000", "113033.078000", "113035.577000", "113037.077000", "113039.077000", "113041.078000", "113043.077000", "113045.077000", "113047.077000", "113049.077000", "113051.077000", "113053.077000", "113055.077000", "113057.078000", "113059.079000", "113101.077000", "113103.077000", "113105.077000", "113107.077000", "113109.077000", "113111.077000", "113113.077000", "113115.077000", "113117.078000", "113119.077000", "113121.077000", "113123.077000", "113125.078000", "113127.077000", "113129.077000", "113131.077000", "113133.078000", "113135.078000", "113137.078000", "113139.077000", "113141.077000", "113143.077000", "113145.077000", "113147.078000", "113149.078000", "113151.078000", "113153.077000", "113155.077000", "113157.077000", "113159.078000", "113201.078000", "113203.078000", "113205.078000", "113207.078000", "113209.078000", "113211.077000", "113213.077000", "113215.077000", "113217.078000", "113219.078000", "113221.078000", "113223.077000", "113224.978000"],
      "InstanceNumber": [1, 2, 3, 4, 5, 6, 7, 8, 9, 10, 11, 12, 13, 14, 15, 16, 17, 18, 19, 20, 21, 22, 23, 24, 25, 26, 27, 28, 29, 30, 31, 32, 33, 34, 35, 36, 37, 38, 39, 40, 41, 42, 43, 44, 45, 46, 47, 48, 49, 50, 51, 52, 53, 54, 55, 56, 57, 58, 59, 60, 61, 62, 63, 64, 65, 66, 67, 68, 69, 70, 71, 72, 73, 74, 75, 76, 77, 78, 79, 80, 81, 82, 83, 84, 85, 86, 87, 88, 89, 90, 91, 92, 93, 94, 95, 96, 97, 98, 99, 100, 101, 102, 103, 104, 105, 106, 107, 108, 109, 110, 111, 112, 113, 114, 115, 116, 117, 118, 119, 120, 121, 122, 123, 124, 125, 126, 127, 128, 129, 130, 131, 132, 133, 134, 135, 136, 137, 138, 139, 140, 141, 142, 143, 144, 145, 146, 147, 148, 149, 150, 151, 152, 153, 154, 155, 156, 157, 158, 159, 160, 161, 162, 163, 164, 165, 166, 167, 168, 169, 170, 171, 172, 173, 174, 175, 176, 177, 178, 179, 180, 181, 182, 183, 184, 185, 186, 187, 188, 189, 190, 191, 192, 193, 194, 195, 196, 197, 198, 199, 200, 201, 202, 203, 204, 205, 206, 207, 208, 209, 210, 211, 212, 213, 214, 215, 216, 217, 218, 219, 220, 221, 222, 223, 224, 225, 226, 227, 228, 229, 230, 231, 232, 233, 234, 235, 236, 237, 238, 239, 240, 241],
      "LargestImagePixelValue": [3505, 3453, 3453, 3431, 3452, 3451, 3473, 3458, 3467, 3467, 3485, 3452, 3452, 3465, 3462, 3490, 3494, 3466, 3437, 3485, 3489, 3480, 3464, 3468, 3494, 3468, 3474, 3485, 3472, 3489, 3446, 3471, 3441, 3471, 3473, 3523, 3500, 3505, 3523, 3499, 3472, 3448, 3494, 3474, 3501, 3474, 3511, 3502, 3510, 3511, 3514, 3529, 3500, 3513, 3533, 3494, 3460, 3497, 3516, 3512, 3541, 3562, 3540, 3543, 3540, 3536, 3572, 3520, 3507, 3546, 3558, 3577, 3545, 3541, 3548, 3508, 3544, 3498, 3526, 3518, 3482, 3500, 3518, 3513, 3543, 3530, 3511, 3497, 3510, 3497, 3486, 3453, 3467, 3476, 3480, 3464, 3457, 3460, 3444, 3442, 3476, 3498, 3508, 3491, 3497, 3454, 3455, 3456, 3485, 3483, 3493, 3502, 3501, 3496, 3483, 3486, 3477, 3471, 3477, 3481, 3494, 3476, 3485, 3481, 3513, 3500, 3491, 3462, 3472, 3461, 3488, 3459, 3454, 3446, 3454, 3443, 3492, 3493, 3457, 3442, 3458, 3476, 3445, 3444, 3432, 3451, 3443, 3460, 3432, 3442, 3427, 3428, 3450, 3435, 3448, 3464, 3482, 3477, 3470, 3445, 3450, 3457, 3442, 3479, 3469, 3466, 3443, 3467, 3468, 3450, 3446, 3441, 3400, 3424, 3395, 3421, 3414, 3407, 3438, 3439, 3442, 3442, 3414, 3427, 3431, 3458, 3454, 3464, 3475, 3453, 3452, 3466, 3447, 3461, 3508, 3475, 3495, 3465, 3465, 3452, 3456, 3454, 3458, 3470, 3468, 3450, 3443, 3443, 3455, 3447, 3460, 3462, 3456, 3459, 3466, 3483, 3450, 3446, 3436, 3464, 3450, 3491, 3477, 3482, 3488, 3476, 3481, 3468, 3482, 3453, 3463, 3470, 3468, 3508, 3503, 3493, 3454, 3469, 3445, 3437, 3482],
      "WindowCenter": [845.0, 843.0, 842.0, 842.0, 841.0, 841.0, 841.0, 840.0, 842.0, 843.0, 843.0, 842.0, 840.0, 840.0, 841.0, 841.0, 841.0, 840.0, 840.0, 841.0, 842.0, 841.0, 841.0, 841.0, 841.0, 842.0, 842.0, 842.0, 841.0, 842.0, 842.0, 843.0, 842.0, 842.0, 842.0, 841.0, 841.0, 842.0, 841.0, 840.0, 839.0, 839.0, 840.0, 840.0, 839.0, 839.0, 841.0, 841.0, 839.0, 840.0, 840.0, 840.0, 841.0, 840.0, 839.0, 840.0, 841.0, 842.0, 842.0, 841.0, 840.0, 840.0, 842.0, 842.0, 843.0, 843.0, 841.0, 840.0, 840.0, 840.0, 840.0, 839.0, 838.0, 838.0, 840.0, 840.0, 839.0, 839.0, 839.0, 840.0, 841.0, 842.0, 842.0, 840.0, 840.0, 840.0, 839.0, 838.0, 838.0, 838.0, 839.0, 841.0, 842.0, 843.0, 843.0, 842.0, 842.0, 841.0, 840.0, 840.0, 840.0, 841.0, 843.0, 844.0, 842.0, 840.0, 840.0, 840.0, 841.0, 842.0, 842.0, 842.0, 842.0, 842.0, 841.0, 840.0, 841.0, 841.0, 841.0, 841.0, 841.0, 842.0, 842.0, 840.0, 840.0, 841.0, 843.0, 841.0, 840.0, 840.0, 840.0, 841.0, 842.0, 842.0, 841.0, 840.0, 840.0, 842.0, 843.0, 842.0, 841.0, 841.0, 840.0, 841.0, 842.0, 841.0, 840.0, 839.0, 840.0, 841.0, 841.0, 840.0, 839.0, 840.0, 841.0, 842.0, 842.0, 842.0, 841.0, 842.0, 843.0, 843.0, 842.0, 841.0, 841.0, 842.0, 841.0, 840.0, 839.0, 840.0, 843.0, 842.0, 840.0, 839.0, 839.0, 840.0, 840.0, 840.0, 842.0, 843.0, 842.0, 841.0, 840.0, 840.0, 840.0, 841.0, 841.0, 842.0, 844.0, 843.0, 842.0, 841.0, 841.0, 843.0, 843.0, 843.0, 843.0, 842.0, 841.0, 840.0, 841.0, 841.0, 840.0, 839.0, 839.0, 840.0, 842.0, 843.0, 843.0, 843.0, 843.0, 842.0, 842.0, 841.0, 841.0, 841.0, 840.0, 839.0, 840.0, 840.0, 840.0, 840.0, 841.0, 841.0, 841.0, 841.0, 843.0, 843.0, 842.0, 840.0, 840.0, 841.0, 841.0, 841.0, 840.0, 839.0, 838.0, 839.0, 840.0, 840.0, 840.0],
      "WindowWidth": [1816.0, 1810.0, 1809.0, 1806.0, 1806.0, 1806.0, 1805.0, 1803.0, 1808.0, 1810.0, 1811.0, 1808.0, 1805.0, 1803.0, 1805.0, 1806.0, 1806.0, 1803.0, 1803.0, 1806.0, 1809.0, 1808.0, 1806.0, 1806.0, 1806.0, 1808.0, 1809.0, 1807.0, 1805.0, 1808.0, 1809.0, 1811.0, 1809.0, 1809.0, 1808.0, 1807.0, 1807.0, 1808.0, 1806.0, 1803.0, 1801.0, 1801.0, 1804.0, 1803.0, 1802.0, 1802.0, 1806.0, 1806.0, 1802.0, 1802.0, 1802.0, 1804.0, 1805.0, 1803.0, 1802.0, 1802.0, 1805.0, 1810.0, 1809.0, 1806.0, 1804.0, 1805.0, 1809.0, 1810.0, 1810.0, 1810.0, 1807.0, 1804.0, 1804.0, 1804.0, 1803.0, 1802.0, 1798.0, 1799.0, 1803.0, 1802.0, 1802.0, 1800.0, 1801.0, 1803.0, 1805.0, 1809.0, 1807.0, 1804.0, 1802.0, 1804.0, 1801.0, 1798.0, 1798.0, 1798.0, 1800.0, 1804.0, 1807.0, 1810.0, 1810.0, 1809.0, 1808.0, 1805.0, 1803.0, 1803.0, 1803.0, 1805.0, 1810.0, 1812.0, 1808.0, 1803.0, 1802.0, 1804.0, 1806.0, 1807.0, 1808.0, 1807.0, 1808.0, 1808.0, 1804.0, 1804.0, 1805.0, 1805.0, 1804.0, 1804.0, 1806.0, 1809.0, 1807.0, 1802.0, 1802.0, 1807.0, 1811.0, 1806.0, 1802.0, 1802.0, 1803.0, 1804.0, 1807.0, 1807.0, 1805.0, 1801.0, 1803.0, 1808.0, 1810.0, 1808.0, 1805.0, 1804.0, 1803.0, 1804.0, 1806.0, 1805.0, 1801.0, 1800.0, 1802.0, 1804.0, 1803.0, 1801.0, 1800.0, 1802.0, 1805.0, 1808.0, 1807.0, 1806.0, 1804.0, 1805.0, 1810.0, 1808.0, 1807.0, 1803.0, 1806.0, 1807.0, 1805.0, 1802.0, 1800.0, 1803.0, 1809.0, 1807.0, 1801.0, 1798.0, 1799.0, 1800.0, 1801.0, 1802.0, 1806.0, 1809.0, 1807.0, 1803.0, 1801.0, 1800.0, 1802.0, 1804.0, 1805.0, 1808.0, 1811.0, 1810.0, 1805.0, 1804.0, 1804.0, 1808.0, 1810.0, 1809.0, 1809.0, 1807.0, 1803.0, 1802.0, 1803.0, 1804.0, 1801.0, 1799.0, 1799.0, 1802.0, 1807.0, 1809.0, 1811.0, 1811.0, 1810.0, 1808.0, 1806.0, 1805.0, 1806.0, 1805.0, 1802.0, 1800.0, 1801.0, 1802.0, 1802.0, 1803.0, 1804.0, 1804.0, 1804.0, 1806.0, 1809.0, 1809.0, 1806.0, 1803.0, 1803.0, 1804.0, 1806.0, 1805.0, 1802.0, 1799.0, 1798.0, 1799.0, 1801.0, 1802.0, 1801.0]
    },
    "slices": {}
  }
}