{
 "AcquisitionMatrixPE": 100,
 "AcquisitionNumber": 1,
 "AcquisitionTime": "12:02:31.925000",
 "BandwidthPerPixelPhaseEncode": 18.519,
 "BaseResolution": 100,
 "BodyPartExamined": "BRAIN",
 "ConsistencyInfo": "N4_VE11C_LATEST_20160120",
 "ConversionSoftware": "dcm2niix",
 "ConversionSoftwareVersion": "v1.0.20180622 GCC4.9.2",
 "DerivedVendorReportedEchoSpacing": 0.000539986,
 "DeviceSerialNumber": "166078",
 "DwellTime": 2.1e-06,
 "EchoTime": 0.034,
 "EchoTrainLength": 100,
 "EffectiveEchoSpacing": 0.000539986,
 "FlipAngle": 90,
 "ImageOrientationPatientDICOM": [
  1,
  0,
  0,
  0,
  0.974761,
  -0.22325
 ],
 "ImageType": [
  "ORIGINAL",
  "PRIMARY",
  "M",
  "ND",
  "MOSAIC"
 ],
 "InPlanePhaseEncodingDirectionDICOM": "COL",
 "InstitutionAddress": "Street_StreetNo_Bei_Jing_District_CN_ZIP",
 "InstitutionName": "BeiJing_Normal_University",
 "InstitutionalDepartmentName": "Department",
 "MRAcquisitionType": "2D",
 "MagneticFieldStrength": 3,
 "Manufacturer": "Siemens",
 "ManufacturersModelName": "Prisma",
 "Modality": "MR",
 "MultibandAccelerationFactor": 3,
 "PartialFourier": 1,
 "PatientPosition": "HFS",
 "PercentPhaseFOV": 100,
 "PhaseEncodingDirection": "j-",
 "PhaseEncodingSteps": 100,
 "PhaseResolution": 1,
 "PixelBandwidth": 2380,
 "ProcedureStepDescription": "BNU_P2018_64CH_Zhen.ZongLei",
 "ProtocolName": "bold_100x100_s3_2x2x2_static_test_241",
 "PulseSequenceDetails": "%SiemensSeq%_ep2d_bold",
 "ReceiveCoilActiveElements": "HC1-7;NC1",
 "ReceiveCoilName": "HeadNeck_64",
 "ReconMatrixPE": 100,
 "RepetitionTime": 2,
 "SAR": 0.0874073,
 "ScanOptions": "FS",
 "ScanningSequence": "EP",
 "SequenceName": "_epfid2d1_100",
 "SequenceVariant": "SK",
 "SeriesDescription": "bold_100x100_s3_2x2x2_static_test_241",
 "SeriesNumber": 12,
 "ShimSetting": [
  -5453,
  -11475,
  -1269,
  418,
  14,
  -109,
  -155,
  53
 ],
 "SliceThickness": 2,
 "SliceTiming": [
  1.485,
  0,
  0.99,
  0.0825,
  1.0725,
  0.165,
  1.155,
  0.2475,
  1.2375,
  0.33,
  1.32,
  0.4125,
  1.4025,
  0.5775,
  1.5675,
  0.66,
  1.65,
  0.7425,
  1.7325,
  0.825,
  1.815,
  0.9075,
  1.8975,
  0.495,
  1.485,
  0,
  0.99,
  0.0825,
  1.0725,
  0.165,
  1.155,
  0.2475,
  1.2375,
  0.33,
  1.32,
  0.4125,
  1.4025,
  0.5775,
  1.5675,
  0.66,
  1.65,
  0.7425,
  1.7325,
  0.825,
  1.815,
  0.9075,
  1.8975,
  0.495,
  1.485,
  0,
  0.99,
  0.0825,
  1.0725,
  0.165,
  1.155,
  0.2475,
  1.2375,
  0.33,
  1.32,
  0.4125,
  1.4025,
  0.5775,
  1.5675,
  0.66,
  1.65,
  0.7425,
  1.7325,
  0.825,
  1.815,
  0.9075,
  1.8975,
  0.495
 ],
 "SoftwareVersions": "syngo_MR_E11",
 "SpacingBetweenSlices": 2,
 "StationName": "AWP166078",
 "TaskName": "coco",
 "TotalReadoutTime": 0.0534586,
 "TxRefAmp": 233.327,
 "dcmmeta_affine": [
  [
   -2.0,
   0.0,
   0.0,
   100.67469787597656
  ],
  [
   0.0,
   1.9495223760604858,
   -0.4465002119541168,
   -77.77222442626953
  ],
  [
   0.0,
   0.4465002119541168,
   1.9495223760604858,
   -96.25282287597656
  ],
  [
   0.0,
   0.0,
   0.0,
   1.0
  ]
 ],
 "dcmmeta_reorient_transform": [
  [
   0.0,
   -1.0,
   0.0,
   99.0
  ],
  [
   1.0,
   0.0,
   0.0,
   0.0
  ],
  [
   0.0,
   0.0,
   1.0,
   0.0
  ],
  [
   0.0,
   0.0,
   0.0,
   1.0
  ]
 ],
 "dcmmeta_shape": [
  100,
  100,
  72,
  241
 ],
 "dcmmeta_slice_dim": 2,
 "dcmmeta_version": 0.6,
 "global": {
  "const": {
   "AcquisitionMatrix": [
    100,
    0,
    0,
    100
   ],
   "AngioFlag": "N",
   "BitsAllocated": 16,
   "BitsStored": 12,
   "BodyPartExamined": "BRAIN",
   "Columns": 900,
   "EchoNumbers": 1,
   "EchoTime": 34.0,
   "EchoTrainLength": 100,
   "FlipAngle": 90.0,
   "HighBit": 11,
   "ImageOrientationPatient": [
    1.0,
    0.0,
    0.0,
    0.0,
    0.9747611962791,
    -0.2232501068948
   ],
   "ImagePositionPatient": [
    -900.67469877005,
    -895.0394502016,
    126.55078285083
   ],
   "ImageType": [
    "ORIGINAL",
    "PRIMARY",
    "M",
    "ND",
    "MOSAIC"
   ],
   "ImagedNucleus": "1H",
   "ImagingFrequency": 123.257777,
   "InPlanePhaseEncodingDirection": "COL",
   "MRAcquisitionType": "2D",
   "MagneticFieldStrength": 3.0,
   "Manufacturer": "SIEMENS",
   "ManufacturerModelName": "Prisma",
   "Modality": "MR",
   "NumberOfAverages": 1.0,
   "NumberOfPhaseEncodingSteps": 100,
   "PercentPhaseFieldOfView": 100.0,
   "PercentSampling": 100.0,
   "PerformedProcedureStepStartTime": "105223.445000",
   "PhotometricInterpretation": "MONOCHROME2",
   "PixelBandwidth": 2380.0,
   "PixelRepresentation": 0,
   "PixelSpacing": [
    2.0,
    2.0
   ],
   "ProtocolName": "bold_100x100_s3_2x2x2_static_test_241",
   "RepetitionTime": 2000.0,
   "Rows": 900,
   "SAR": 0.08740728806732,
   "SamplesPerPixel": 1,
   "ScanOptions": "FS",
   "ScanningSequence": "EP",
   "SequenceName": "*epfid2d1_100",
   "SequenceVariant": "SK",
   "SeriesDescription": "bold_100x100_s3_2x2x2_static_test_241",
   "SeriesNumber": 12,
   "SeriesTime": "120234.329000",
   "SliceLocation": -76.460860450842,
   "SliceThickness": 2.0,
   "SmallestImagePixelValue": 0,
   "SoftwareVersions": "syngo MR E11",
   "SpacingBetweenSlices": 2.0000000341638,
   "SpecificCharacterSet": "ISO_IR 100",
   "StudyID": "1",
   "StudyTime": "105223.381000",
   "TransmitCoilName": "Body",
   "VariableFlipAngleFlag": "N",
   "WindowCenterWidthExplanation": "Algo1",
   "dBdt": 0.0
  },
  "slices": {}
 },
 "time": {
  "samples": {
   "AcquisitionNumber": [
    1,
    2,
    3,
    4,
    5,
    6,
    7,
    8,
    9,
    10,
    11,
    12,
    13,
    14,
    15,
    16,
    17,
    18,
    19,
    20,
    21,
    22,
    23,
    24,
    25,
    26,
    27,
    28,
    29,
    30,
    31,
    32,
    33,
    34,
    35,
    36,
    37,
    38,
    39,
    40,
    41,
    42,
    43,
    44,
    45,
    46,
    47,
    48,
    49,
    50,
    51,
    52,
    53,
    54,
    55,
    56,
    57,
    58,
    59,
    60,
    61,
    62,
    63,
    64,
    65,
    66,
    67,
    68,
    69,
    70,
    71,
    72,
    73,
    74,
    75,
    76,
    77,
    78,
    79,
    80,
    81,
    82,
    83,
    84,
    85,
    86,
    87,
    88,
    89,
    90,
    91,
    92,
    93,
    94,
    95,
    96,
    97,
    98,
    99,
    100,
    101,
    102,
    103,
    104,
    105,
    106,
    107,
    108,
    109,
    110,
    111,
    112,
    113,
    114,
    115,
    116,
    117,
    118,
    119,
    120,
    121,
    122,
    123,
    124,
    125,
    126,
    127,
    128,
    129,
    130,
    131,
    132,
    133,
    134,
    135,
    136,
    137,
    138,
    139,
    140,
    141,
    142,
    143,
    144,
    145,
    146,
    147,
    148,
    149,
    150,
    151,
    152,
    153,
    154,
    155,
    156,
    157,
    158,
    159,
    160,
    161,
    162,
    163,
    164,
    165,
    166,
    167,
    168,
    169,
    170,
    171,
    172,
    173,
    174,
    175,
    176,
    177,
    178,
    179,
    180,
    181,
    182,
    183,
    184,
    185,
    186,
    187,
    188,
    189,
    190,
    191,
    192,
    193,
    194,
    195,
    196,
    197,
    198,
    199,
    200,
    201,
    202,
    203,
    204,
    205,
    206,
    207,
    208,
    209,
    210,
    211,
    212,
    213,
    214,
    215,
    216,
    217,
    218,
    219,
    220,
    221,
    222,
    223,
    224,
    225,
    226,
    227,
    228,
    229,
    230,
    231,
    232,
    233,
    234,
    235,
    236,
    237,
    238,
    239,
    240,
    241
   ],
   "AcquisitionTime": [
    "120231.925000",
    "120233.925000",
    "120235.925000",
    "120237.925000",
    "120239.925000",
    "120241.925000",
    "120243.925000",
    "120245.925000",
    "120247.925000",
    "120249.925000",
    "120251.925000",
    "120253.925000",
    "120255.925000",
    "120257.925000",
    "120259.925000",
    "120301.925000",
    "120303.925000",
    "120305.925000",
    "120307.925000",
    "120309.925000",
    "120311.925000",
    "120313.925000",
    "120315.925000",
    "120317.925000",
    "120319.925000",
    "120321.925000",
    "120323.925000",
    "120325.925000",
    "120327.925000",
    "120329.925000",
    "120331.925000",
    "120333.925000",
    "120335.925000",
    "120337.925000",
    "120339.925000",
    "120341.925000",
    "120343.925000",
    "120345.925000",
    "120347.925000",
    "120349.925000",
    "120351.925000",
    "120353.925000",
    "120355.925000",
    "120357.925000",
    "120359.925000",
    "120401.925000",
    "120403.925000",
    "120405.925000",
    "120407.925000",
    "120409.925000",
    "120411.925000",
    "120413.925000",
    "120415.925000",
    "120417.925000",
    "120419.925000",
    "120421.925000",
    "120423.925000",
    "120425.925000",
    "120427.925000",
    "120429.925000",
    "120431.925000",
    "120433.925000",
    "120435.925000",
    "120437.925000",
    "120439.925000",
    "120441.925000",
    "120443.925000",
    "120445.925000",
    "120447.925000",
    "120449.925000",
    "120451.925000",
    "120453.925000",
    "120455.925000",
    "120457.925000",
    "120459.925000",
    "120501.925000",
    "120503.925000",
    "120505.925000",
    "120507.925000",
    "120509.925000",
    "120511.925000",
    "120513.925000",
    "120515.925000",
    "120517.925000",
    "120519.925000",
    "120521.925000",
    "120523.925000",
    "120525.925000",
    "120527.925000",
    "120529.925000",
    "120531.925000",
    "120533.925000",
    "120535.925000",
    "120537.925000",
    "120539.925000",
    "120541.925000",
    "120543.925000",
    "120545.925000",
    "120547.925000",
    "120549.925000",
    "120551.925000",
    "120553.925000",
    "120555.925000",
    "120557.925000",
    "120559.925000",
    "120601.925000",
    "120603.925000",
    "120605.925000",
    "120607.925000",
    "120609.925000",
    "120611.925000",
    "120613.925000",
    "120615.925000",
    "120617.925000",
    "120619.925000",
    "120621.925000",
    "120623.925000",
    "120625.925000",
    "120627.925000",
    "120629.925000",
    "120631.925000",
    "120633.925000",
    "120635.925000",
    "120637.925000",
    "120639.925000",
    "120641.925000",
    "120643.925000",
    "120645.925000",
    "120647.925000",
    "120649.925000",
    "120651.925000",
    "120653.925000",
    "120655.925000",
    "120657.925000",
    "120659.925000",
    "120701.925000",
    "120703.925000",
    "120705.925000",
    "120707.925000",
    "120709.925000",
    "120711.925000",
    "120713.925000",
    "120715.925000",
    "120717.925000",
    "120719.925000",
    "120721.925000",
    "120723.925000",
    "120725.925000",
    "120727.925000",
    "120729.925000",
    "120731.925000",
    "120733.925000",
    "120735.925000",
    "120737.925000",
    "120739.925000",
    "120741.925000",
    "120743.925000",
    "120745.925000",
    "120747.925000",
    "120749.925000",
    "120751.925000",
    "120753.925000",
    "120755.925000",
    "120757.925000",
    "120759.925000",
    "120801.925000",
    "120803.925000",
    "120805.925000",
    "120807.925000",
    "120809.925000",
    "120811.925000",
    "120813.925000",
    "120815.925000",
    "120817.925000",
    "120819.925000",
    "120821.925000",
    "120823.925000",
    "120825.925000",
    "120827.925000",
    "120829.925000",
    "120831.925000",
    "120833.925000",
    "120835.925000",
    "120837.925000",
    "120839.925000",
    "120841.925000",
    "120843.925000",
    "120845.925000",
    "120847.925000",
    "120849.925000",
    "120851.925000",
    "120853.925000",
    "120855.925000",
    "120857.925000",
    "120859.925000",
    "120901.925000",
    "120903.925000",
    "120905.925000",
    "120907.925000",
    "120909.925000",
    "120911.925000",
    "120913.925000",
    "120915.925000",
    "120917.925000",
    "120919.925000",
    "120921.925000",
    "120923.925000",
    "120925.925000",
    "120927.925000",
    "120929.925000",
    "120931.925000",
    "120933.925000",
    "120935.925000",
    "120937.925000",
    "120939.925000",
    "120941.925000",
    "120943.925000",
    "120945.925000",
    "120947.925000",
    "120949.925000",
    "120951.925000",
    "120953.925000",
    "120955.925000",
    "120957.925000",
    "120959.925000",
    "121001.925000",
    "121003.925000",
    "121005.925000",
    "121007.925000",
    "121009.925000",
    "121011.925000",
    "121013.925000",
    "121015.925000",
    "121017.925000",
    "121019.925000",
    "121021.925000",
    "121023.925000",
    "121025.925000",
    "121027.925000",
    "121029.925000",
    "121031.925000"
   ],
   "ContentTime": [
    "120234.346000",
    "120235.829000",
    "120237.828000",
    "120239.828000",
    "120241.828000",
    "120243.828000",
    "120245.828000",
    "120247.829000",
    "120249.828000",
    "120251.829000",
    "120253.828000",
    "120255.829000",
    "120257.828000",
    "120259.828000",
    "120301.828000",
    "120303.828000",
    "120305.828000",
    "120307.828000",
    "120309.828000",
    "120311.828000",
    "120313.829000",
    "120315.829000",
    "120317.828000",
    "120319.828000",
    "120321.829000",
    "120323.828000",
    "120325.829000",
    "120327.828000",
    "120329.828000",
    "120331.829000",
    "120333.827000",
    "120335.828000",
    "120337.828000",
    "120339.828000",
    "120341.828000",
    "120343.829000",
    "120345.829000",
    "120347.828000",
    "120349.828000",
    "120351.827000",
    "120353.829000",
    "120355.829000",
    "120357.828000",
    "120359.828000",
    "120402.329000",
    "120403.829000",
    "120405.828000",
    "120407.828000",
    "120409.828000",
    "120411.829000",
    "120413.828000",
    "120416.328000",
    "120417.829000",
    "120419.828000",
    "120421.828000",
    "120423.829000",
    "120425.828000",
    "120427.827000",
    "120429.828000",
    "120431.829000",
    "120433.829000",
    "120435.828000",
    "120437.828000",
    "120439.829000",
    "120441.829000",
    "120443.827000",
    "120445.829000",
    "120447.828000",
    "120449.828000",
    "120451.829000",
    "120453.828000",
    "120455.828000",
    "120457.828000",
    "120459.828000",
    "120501.827000",
    "120504.328000",
    "120505.828000",
    "120507.828000",
    "120509.828000",
    "120511.828000",
    "120513.828000",
    "120515.828000",
    "120517.828000",
    "120519.827000",
    "120521.829000",
    "120523.828000",
    "120525.828000",
    "120527.828000",
    "120529.829000",
    "120532.329000",
    "120533.828000",
    "120535.829000",
    "120537.827000",
    "120539.829000",
    "120541.828000",
    "120543.828000",
    "120545.828000",
    "120547.848000",
    "120549.828000",
    "120551.828000",
    "120553.828000",
    "120555.828000",
    "120557.829000",
    "120559.828000",
    "120601.828000",
    "120603.829000",
    "120605.829000",
    "120607.829000",
    "120609.829000",
    "120611.828000",
    "120613.829000",
    "120615.829000",
    "120617.828000",
    "120619.828000",
    "120621.828000",
    "120623.828000",
    "120625.829000",
    "120627.828000",
    "120629.827000",
    "120631.828000",
    "120633.829000",
    "120635.850000",
    "120637.829000",
    "120639.828000",
    "120641.828000",
    "120643.829000",
    "120645.829000",
    "120647.828000",
    "120649.829000",
    "120651.829000",
    "120653.829000",
    "120655.828000",
    "120657.828000",
    "120659.829000",
    "120701.828000",
    "120703.828000",
    "120705.829000",
    "120707.829000",
    "120709.828000",
    "120711.829000",
    "120713.828000",
    "120715.828000",
    "120717.829000",
    "120719.828000",
    "120721.828000",
    "120723.829000",
    "120725.828000",
    "120727.828000",
    "120729.828000",
    "120731.828000",
    "120733.828000",
    "120735.828000",
    "120737.829000",
    "120739.827000",
    "120741.828000",
    "120743.828000",
    "120745.829000",
    "120747.828000",
    "120749.829000",
    "120751.828000",
    "120753.829000",
    "120755.829000",
    "120757.827000",
    "120759.828000",
    "120801.829000",
    "120803.828000",
    "120806.329000",
    "120807.828000",
    "120809.829000",
    "120811.829000",
    "120813.828000",
    "120815.828000",
    "120817.829000",
    "120819.828000",
    "120821.828000",
    "120823.828000",
    "120825.829000",
    "120827.829000",
    "120829.828000",
    "120831.828000",
    "120833.828000",
    "120835.829000",
    "120837.829000",
    "120839.828000",
    "120841.828000",
    "120843.828000",
    "120845.828000",
    "120847.828000",
    "120849.827000",
    "120852.329000",
    "120853.829000",
    "120855.828000",
    "120857.828000",
    "120859.829000",
    "120901.828000",
    "120903.829000",
    "120905.829000",
    "120907.827000",
    "120909.829000",
    "120911.829000",
    "120913.828000",
    "120915.829000",
    "120917.828000",
    "120919.829000",
    "120921.829000",
    "120923.827000",
    "120925.829000",
    "120927.829000",
    "120929.829000",
    "120931.829000",
    "120933.828000",
    "120935.829000",
    "120937.828000",
    "120939.829000",
    "120941.827000",
    "120943.828000",
    "120945.828000",
    "120947.829000",
    "120949.828000",
    "120951.829000",
    "120953.829000",
    "120956.329000",
    "120957.829000",
    "120959.827000",
    "121001.828000",
    "121003.829000",
    "121005.829000",
    "121007.829000",
    "121009.828000",
    "121011.829000",
    "121013.829000",
    "121015.829000",
    "121017.828000",
    "121019.829000",
    "121021.829000",
    "121023.829000",
    "121025.829000",
    "121027.828000",
    "121029.829000",
    "121031.829000",
    "121033.724000"
   ],
   "InstanceCreationTime": [
    "120234.346000",
    "120235.829000",
    "120237.828000",
    "120239.828000",
    "120241.828000",
    "120243.828000",
    "120245.828000",
    "120247.829000",
    "120249.828000",
    "120251.829000",
    "120253.828000",
    "120255.829000",
    "120257.828000",
    "120259.828000",
    "120301.828000",
    "120303.828000",
    "120305.828000",
    "120307.828000",
    "120309.828000",
    "120311.828000",
    "120313.829000",
    "120315.829000",
    "120317.828000",
    "120319.828000",
    "120321.829000",
    "120323.828000",
    "120325.829000",
    "120327.828000",
    "120329.828000",
    "120331.829000",
    "120333.827000",
    "120335.828000",
    "120337.828000",
    "120339.828000",
    "120341.828000",
    "120343.829000",
    "120345.829000",
    "120347.828000",
    "120349.828000",
    "120351.827000",
    "120353.829000",
    "120355.829000",
    "120357.828000",
    "120359.828000",
    "120402.329000",
    "120403.829000",
    "120405.828000",
    "120407.828000",
    "120409.828000",
    "120411.829000",
    "120413.828000",
    "120416.328000",
    "120417.829000",
    "120419.828000",
    "120421.828000",
    "120423.829000",
    "120425.828000",
    "120427.827000",
    "120429.828000",
    "120431.829000",
    "120433.829000",
    "120435.828000",
    "120437.828000",
    "120439.829000",
    "120441.829000",
    "120443.827000",
    "120445.829000",
    "120447.828000",
    "120449.828000",
    "120451.829000",
    "120453.828000",
    "120455.828000",
    "120457.828000",
    "120459.828000",
    "120501.827000",
    "120504.328000",
    "120505.828000",
    "120507.828000",
    "120509.828000",
    "120511.828000",
    "120513.828000",
    "120515.828000",
    "120517.828000",
    "120519.827000",
    "120521.829000",
    "120523.828000",
    "120525.828000",
    "120527.828000",
    "120529.829000",
    "120532.329000",
    "120533.828000",
    "120535.829000",
    "120537.827000",
    "120539.829000",
    "120541.828000",
    "120543.828000",
    "120545.828000",
    "120547.848000",
    "120549.828000",
    "120551.828000",
    "120553.828000",
    "120555.828000",
    "120557.829000",
    "120559.828000",
    "120601.828000",
    "120603.829000",
    "120605.829000",
    "120607.829000",
    "120609.829000",
    "120611.828000",
    "120613.829000",
    "120615.829000",
    "120617.828000",
    "120619.828000",
    "120621.828000",
    "120623.828000",
    "120625.829000",
    "120627.828000",
    "120629.827000",
    "120631.828000",
    "120633.829000",
    "120635.850000",
    "120637.829000",
    "120639.828000",
    "120641.828000",
    "120643.829000",
    "120645.829000",
    "120647.828000",
    "120649.829000",
    "120651.829000",
    "120653.829000",
    "120655.828000",
    "120657.828000",
    "120659.829000",
    "120701.828000",
    "120703.828000",
    "120705.829000",
    "120707.829000",
    "120709.828000",
    "120711.829000",
    "120713.828000",
    "120715.828000",
    "120717.829000",
    "120719.828000",
    "120721.828000",
    "120723.829000",
    "120725.828000",
    "120727.828000",
    "120729.828000",
    "120731.828000",
    "120733.828000",
    "120735.828000",
    "120737.829000",
    "120739.827000",
    "120741.828000",
    "120743.828000",
    "120745.829000",
    "120747.828000",
    "120749.829000",
    "120751.828000",
    "120753.829000",
    "120755.829000",
    "120757.827000",
    "120759.828000",
    "120801.829000",
    "120803.828000",
    "120806.329000",
    "120807.828000",
    "120809.829000",
    "120811.829000",
    "120813.828000",
    "120815.828000",
    "120817.829000",
    "120819.828000",
    "120821.828000",
    "120823.828000",
    "120825.829000",
    "120827.829000",
    "120829.828000",
    "120831.828000",
    "120833.828000",
    "120835.829000",
    "120837.829000",
    "120839.828000",
    "120841.828000",
    "120843.828000",
    "120845.828000",
    "120847.828000",
    "120849.827000",
    "120852.329000",
    "120853.829000",
    "120855.828000",
    "120857.828000",
    "120859.829000",
    "120901.828000",
    "120903.829000",
    "120905.829000",
    "120907.827000",
    "120909.829000",
    "120911.829000",
    "120913.828000",
    "120915.829000",
    "120917.828000",
    "120919.829000",
    "120921.829000",
    "120923.827000",
    "120925.829000",
    "120927.829000",
    "120929.829000",
    "120931.829000",
    "120933.828000",
    "120935.829000",
    "120937.828000",
    "120939.829000",
    "120941.827000",
    "120943.828000",
    "120945.828000",
    "120947.829000",
    "120949.828000",
    "120951.829000",
    "120953.829000",
    "120956.329000",
    "120957.829000",
    "120959.827000",
    "121001.828000",
    "121003.829000",
    "121005.829000",
    "121007.829000",
    "121009.828000",
    "121011.829000",
    "121013.829000",
    "121015.829000",
    "121017.828000",
    "121019.829000",
    "121021.829000",
    "121023.829000",
    "121025.829000",
    "121027.828000",
    "121029.829000",
    "121031.829000",
    "121033.724000"
   ],
   "InstanceNumber": [
    1,
    2,
    3,
    4,
    5,
    6,
    7,
    8,
    9,
    10,
    11,
    12,
    13,
    14,
    15,
    16,
    17,
    18,
    19,
    20,
    21,
    22,
    23,
    24,
    25,
    26,
    27,
    28,
    29,
    30,
    31,
    32,
    33,
    34,
    35,
    36,
    37,
    38,
    39,
    40,
    41,
    42,
    43,
    44,
    45,
    46,
    47,
    48,
    49,
    50,
    51,
    52,
    53,
    54,
    55,
    56,
    57,
    58,
    59,
    60,
    61,
    62,
    63,
    64,
    65,
    66,
    67,
    68,
    69,
    70,
    71,
    72,
    73,
    74,
    75,
    76,
    77,
    78,
    79,
    80,
    81,
    82,
    83,
    84,
    85,
    86,
    87,
    88,
    89,
    90,
    91,
    92,
    93,
    94,
    95,
    96,
    97,
    98,
    99,
    100,
    101,
    102,
    103,
    104,
    105,
    106,
    107,
    108,
    109,
    110,
    111,
    112,
    113,
    114,
    115,
    116,
    117,
    118,
    119,
    120,
    121,
    122,
    123,
    124,
    125,
    126,
    127,
    128,
    129,
    130,
    131,
    132,
    133,
    134,
    135,
    136,
    137,
    138,
    139,
    140,
    141,
    142,
    143,
    144,
    145,
    146,
    147,
    148,
    149,
    150,
    151,
    152,
    153,
    154,
    155,
    156,
    157,
    158,
    159,
    160,
    161,
    162,
    163,
    164,
    165,
    166,
    167,
    168,
    169,
    170,
    171,
    172,
    173,
    174,
    175,
    176,
    177,
    178,
    179,
    180,
    181,
    182,
    183,
    184,
    185,
    186,
    187,
    188,
    189,
    190,
    191,
    192,
    193,
    194,
    195,
    196,
    197,
    198,
    199,
    200,
    201,
    202,
    203,
    204,
    205,
    206,
    207,
    208,
    209,
    210,
    211,
    212,
    213,
    214,
    215,
    216,
    217,
    218,
    219,
    220,
    221,
    222,
    223,
    224,
    225,
    226,
    227,
    228,
    229,
    230,
    231,
    232,
    233,
    234,
    235,
    236,
    237,
    238,
    239,
    240,
    241
   ],
   "LargestImagePixelValue": [
    3428,
    3417,
    3383,
    3370,
    3391,
    3362,
    3385,
    3355,
    3365,
    3402,
    3415,
    3399,
    3373,
    3352,
    3351,
    3361,
    3348,
    3374,
    3361,
    3366,
    3391,
    3420,
    3375,
    3376,
    3355,
    3377,
    3345,
    3377,
    3378,
    3364,
    3368,
    3360,
    3341,
    3357,
    3400,
    3361,
    3349,
    3374,
    3376,
    3386,
    3385,
    3374,
    3352,
    3379,
    3384,
    3372,
    3349,
    3357,
    3371,
    3367,
    3355,
    3365,
    3367,
    3389,
    3370,
    3412,
    3389,
    3383,
    3375,
    3368,
    3403,
    3360,
    3363,
    3358,
    3380,
    3397,
    3357,
    3349,
    3385,
    3371,
    3398,
    3370,
    3380,
    3370,
    3393,
    3386,
    3361,
    3386,
    3412,
    3389,
    3402,
    3434,
    3421,
    3420,
    3457,
    3423,
    3425,
    3435,
    3426,
    3417,
    3439,
    3403,
    3420,
    3428,
    3448,
    3428,
    3437,
    3397,
    3436,
    3438,
    3437,
    3425,
    3405,
    3434,
    3423,
    3477,
    3486,
    3455,
    3431,
    3439,
    3425,
    3436,
    3406,
    3452,
    3438,
    3426,
    3426,
    3466,
    3449,
    3413,
    3423,
    3411,
    3428,
    3442,
    3443,
    3427,
    3476,
    3488,
    3496,
    3472,
    3473,
    3453,
    3454,
    3413,
    3459,
    3486,
    3499,
    3472,
    3489,
    3439,
    3469,
    3457,
    3495,
    3494,
    3470,
    3473,
    3499,
    3519,
    3517,
    3501,
    3470,
    3509,
    3501,
    3523,
    3453,
    3437,
    3453,
    3474,
    3491,
    3436,
    3439,
    3457,
    3428,
    3440,
    3464,
    3439,
    3474,
    3480,
    3484,
    3502,
    3519,
    3479,
    3497,
    3485,
    3500,
    3472,
    3463,
    3469,
    3501,
    3445,
    3461,
    3455,
    3459,
    3476,
    3511,
    3513,
    3489,
    3473,
    3497,
    3539,
    3526,
    3485,
    3523,
    3520,
    3502,
    3515,
    3538,
    3485,
    3510,
    3500,
    3475,
    3488,
    3501,
    3488,
    3516,
    3508,
    3509,
    3531,
    3523,
    3498,
    3532,
    3510,
    3509,
    3505,
    3502,
    3501,
    3474,
    3483,
    3480,
    3508,
    3503,
    3486,
    3483,
    3502,
    3495,
    3515,
    3518,
    3519,
    3536,
    3520,
    3489,
    3506,
    3503,
    3499,
    3527,
    3501,
    3515,
    3507,
    3477,
    3468,
    3472
   ],
   "WindowCenter": [
    845.0,
    843.0,
    843.0,
    843.0,
    843.0,
    843.0,
    843.0,
    843.0,
    843.0,
    843.0,
    844.0,
    843.0,
    842.0,
    841.0,
    840.0,
    841.0,
    840.0,
    841.0,
    842.0,
    842.0,
    841.0,
    841.0,
    842.0,
    843.0,
    843.0,
    842.0,
    842.0,
    842.0,
    843.0,
    842.0,
    841.0,
    841.0,
    841.0,
    845.0,
    845.0,
    844.0,
    843.0,
    843.0,
    844.0,
    845.0,
    844.0,
    845.0,
    845.0,
    845.0,
    844.0,
    843.0,
    844.0,
    845.0,
    845.0,
    844.0,
    843.0,
    843.0,
    843.0,
    845.0,
    844.0,
    844.0,
    844.0,
    844.0,
    844.0,
    843.0,
    844.0,
    844.0,
    845.0,
    845.0,
    845.0,
    844.0,
    844.0,
    844.0,
    845.0,
    845.0,
    845.0,
    845.0,
    845.0,
    846.0,
    847.0,
    847.0,
    846.0,
    845.0,
    846.0,
    846.0,
    845.0,
    844.0,
    844.0,
    844.0,
    846.0,
    846.0,
    846.0,
    845.0,
    845.0,
    845.0,
    846.0,
    845.0,
    845.0,
    844.0,
    844.0,
    844.0,
    844.0,
    844.0,
    845.0,
    844.0,
    843.0,
    841.0,
    841.0,
    842.0,
    843.0,
    842.0,
    842.0,
    842.0,
    844.0,
    845.0,
    844.0,
    843.0,
    842.0,
    842.0,
    843.0,
    843.0,
    843.0,
    842.0,
    842.0,
    844.0,
    844.0,
    843.0,
    842.0,
    842.0,
    844.0,
    844.0,
    844.0,
    843.0,
    843.0,
    843.0,
    843.0,
    843.0,
    842.0,
    841.0,
    841.0,
    842.0,
    842.0,
    843.0,
    843.0,
    844.0,
    843.0,
    843.0,
    843.0,
    843.0,
    844.0,
    844.0,
    843.0,
    843.0,
    844.0,
    843.0,
    843.0,
    843.0,
    843.0,
    843.0,
    843.0,
    844.0,
    845.0,
    845.0,
    843.0,
    842.0,
    842.0,
    842.0,
    843.0,
    843.0,
    843.0,
    844.0,
    845.0,
    846.0,
    846.0,
    845.0,
    844.0,
    843.0,
    843.0,
    843.0,
    844.0,
    845.0,
    844.0,
    843.0,
    842.0,
    841.0,
    842.0,
    842.0,
    843.0,
    844.0,
    843.0,
    842.0,
    842.0,
    843.0,
    844.0,
    843.0,
    843.0,
    842.0,
    842.0,
    843.0,
    842.0,
    841.0,
    841.0,
    843.0,
    845.0,
    844.0,
    842.0,
    841.0,
    842.0,
    843.0,
    845.0,
    846.0,
    845.0,
    844.0,
    843.0,
    842.0,
    843.0,
    843.0,
    844.0,
    845.0,
    844.0,
    844.0,
    845.0,
    844.0,
    844.0,
    844.0,
    843.0,
    843.0,
    843.0,
    843.0,
    843.0,
    842.0,
    842.0,
    843.0,
    843.0,
    843.0,
    843.0,
    845.0,
    844.0,
    842.0,
    841.0,
    842.0,
    845.0,
    845.0,
    843.0,
    841.0,
    840.0
   ],
   "WindowWidth": [
    1813.0,
    1809.0,
    1807.0,
    1807.0,
