{
  "AcquisitionMatrixPE": 100,
  "AcquisitionNumber": 1,
  "AcquisitionTime": "11:33:14.515000",
  "BandwidthPerPixelPhaseEncode": 18.519,
  "BaseResolution": 100,
  "BodyPartExamined": "BRAIN",
  "ConsistencyInfo": "N4_VE11C_LATEST_20160120",
  "ConversionSoftware": "dcm2niix",
  "ConversionSoftwareVersion": "v1.0.20180622 GCC4.9.2",
  "DerivedVendorReportedEchoSpacing": 0.000539986,
  "DeviceSerialNumber": "166078",
  "DwellTime": 2.1e-06,
  "EchoTime": 0.034,
  "EchoTrainLength": 100,
  "EffectiveEchoSpacing": 0.000539986,
  "FlipAngle": 90,
  "ImageOrientationPatientDICOM": [1, 0, 0, 0, 0.974761, -0.22325],
  "ImageType": [
    "ORIGINAL",
    "PRIMARY",
    "M",
    "ND",
    "MOSAIC"
],
  "InPlanePhaseEncodingDirectionDICOM": "COL",
  "InstitutionAddress": "Street_StreetNo_Bei_Jing_District_CN_ZIP",
  "InstitutionName": "BeiJing_Normal_University",
  "InstitutionalDepartmentName": "Department",
  "MRAcquisitionType": "2D",
  "MagneticFieldStrength": 3,
  "Manufacturer": "Siemens",
  "ManufacturersModelName": "Prisma",
  "Modality": "MR",
  "MultibandAccelerationFactor": 3,
  "PartialFourier": 1,
  "PatientPosition": "HFS",
  "PercentPhaseFOV": 100,
  "PhaseEncodingDirection": "j-",
  "PhaseEncodingSteps": 100,
  "PhaseResolution": 1,
  "PixelBandwidth": 2380,
  "ProcedureStepDescription": "BNU_P2018_64CH_Zhen.ZongLei",
  "ProtocolName": "bold_100x100_s3_2x2x2_static_test_241",
  "PulseSequenceDetails": "%SiemensSeq%_ep2d_bold",
  "ReceiveCoilActiveElements": "HC1-7;NC1",
  "ReceiveCoilName": "HeadNeck_64",
  "ReconMatrixPE": 100,
  "RepetitionTime": 2,
  "SAR": 0.0874073,
  "ScanOptions": "FS",
  "ScanningSequence": "EP",
  "SequenceName": "_epfid2d1_100",
  "SequenceVariant": "SK",
  "SeriesDescription": "bold_100x100_s3_2x2x2_static_test_241",
  "SeriesNumber": 7,
  "ShimSetting": [-5453, -11475, -1269, 418, 14, -109, -155, 53],
  "SliceThickness": 2,
  "SliceTiming": [1.485, 0, 0.99, 0.0825, 1.0725, 0.165, 1.155, 0.2475, 1.2375, 0.33, 1.32, 0.4125, 1.4025, 0.5775, 1.5675, 0.66, 1.65, 0.7425, 1.7325, 0.825, 1.815, 0.9075, 1.8975, 0.495, 1.485, 0, 0.99, 0.0825, 1.0725, 0.165, 1.155, 0.2475, 1.2375, 0.33, 1.32, 0.4125, 1.4025, 0.5775, 1.5675, 0.66, 1.65, 0.7425, 1.7325, 0.825, 1.815, 0.9075, 1.8975, 0.495, 1.485, 0, 0.99, 0.0825, 1.0725, 0.165, 1.155, 0.2475, 1.2375, 0.33, 1.32, 0.4125, 1.4025, 0.5775, 1.5675, 0.66, 1.65, 0.7425, 1.7325, 0.825, 1.815, 0.9075, 1.8975, 0.495],
  "SoftwareVersions": "syngo_MR_E11",
  "SpacingBetweenSlices": 2,
  "StationName": "AWP166078",
  "TaskName": "naturalvision2",
  "TotalReadoutTime": 0.0534586,
  "TxRefAmp": 233.327,
  "dcmmeta_affine": [
    [-2.0, 0.0, 0.0, 100.67469787597656],
    [0.0, 1.9495223760604858, -0.4465002119541168, -77.77222442626953],
    [0.0, 0.4465002119541168, 1.9495223760604858, -96.25282287597656],
    [0.0, 0.0, 0.0, 1.0]
],
  "dcmmeta_reorient_transform": [
    [0.0, -1.0, 0.0, 99.0],
    [1.0, 0.0, 0.0, 0.0],
    [0.0, 0.0, 1.0, 0.0],
    [0.0, 0.0, 0.0, 1.0]
],
  "dcmmeta_shape": [100, 100, 72, 241],
  "dcmmeta_slice_dim": 2,
  "dcmmeta_version": 0.6,
  "global": {
    "const": {
      "AcquisitionMatrix": [100, 0, 0, 100],
      "AngioFlag": "N",
      "BitsAllocated": 16,
      "BitsStored": 12,
      "BodyPartExamined": "BRAIN",
      "Columns": 900,
      "EchoNumbers": 1,
      "EchoTime": 34.0,
      "EchoTrainLength": 100,
      "FlipAngle": 90.0,
      "HighBit": 11,
      "ImageOrientationPatient": [1.0, 0.0, 0.0, 0.0, 0.9747611962791, -0.2232501068948],
      "ImagePositionPatient": [-900.67469877005, -895.0394502016, 126.55078285083],
      "ImageType": [
        "ORIGINAL",
        "PRIMARY",
        "M",
        "ND",
        "MOSAIC"
],
      "ImagedNucleus": "1H",
      "ImagingFrequency": 123.257776,
      "InPlanePhaseEncodingDirection": "COL",
      "MRAcquisitionType": "2D",
      "MagneticFieldStrength": 3.0,
      "Manufacturer": "SIEMENS",
      "ManufacturerModelName": "Prisma",
      "Modality": "MR",
      "NumberOfAverages": 1.0,
      "NumberOfPhaseEncodingSteps": 100,
      "PercentPhaseFieldOfView": 100.0,
      "PercentSampling": 100.0,
      "PerformedProcedureStepStartTime": "105223.445000",
      "PhotometricInterpretation": "MONOCHROME2",
      "PixelBandwidth": 2380.0,
      "PixelRepresentation": 0,
      "PixelSpacing": [2.0, 2.0],
      "ProtocolName": "bold_100x100_s3_2x2x2_static_test_241",
      "RepetitionTime": 2000.0,
      "Rows": 900,
      "SAR": 0.08740728806732,
      "SamplesPerPixel": 1,
      "ScanOptions": "FS",
      "ScanningSequence": "EP",
      "SequenceName": "*epfid2d1_100",
      "SequenceVariant": "SK",
      "SeriesDescription": "bold_100x100_s3_2x2x2_static_test_241",
      "SeriesNumber": 7,
      "SeriesTime": "113317.294000",
      "SliceLocation": -76.460860450842,
      "SliceThickness": 2.0,
      "SmallestImagePixelValue": 0,
      "SoftwareVersions": "syngo MR E11",
      "SpacingBetweenSlices": 2.0000000341638,
      "SpecificCharacterSet": "ISO_IR 100",
      "StudyID": "1",
      "StudyTime": "105223.381000",
      "TransmitCoilName": "Body",
      "VariableFlipAngleFlag": "N",
      "WindowCenterWidthExplanation": "Algo1",
      "dBdt": 0.0},
    "slices": {}
  },
  "time": {
    "samples": {
      "AcquisitionNumber": [1, 2, 3, 4, 5, 6, 7, 8, 9, 10, 11, 12, 13, 14, 15, 16, 17, 18, 19, 20, 21, 22, 23, 24, 25, 26, 27, 28, 29, 30, 31, 32, 33, 34, 35, 36, 37, 38, 39, 40, 41, 42, 43, 44, 45, 46, 47, 48, 49, 50, 51, 52, 53, 54, 55, 56, 57, 58, 59, 60, 61, 62, 63, 64, 65, 66, 67, 68, 69, 70, 71, 72, 73, 74, 75, 76, 77, 78, 79, 80, 81, 82, 83, 84, 85, 86, 87, 88, 89, 90, 91, 92, 93, 94, 95, 96, 97, 98, 99, 100, 101, 102, 103, 104, 105, 106, 107, 108, 109, 110, 111, 112, 113, 114, 115, 116, 117, 118, 119, 120, 121, 122, 123, 124, 125, 126, 127, 128, 129, 130, 131, 132, 133, 134, 135, 136, 137, 138, 139, 140, 141, 142, 143, 144, 145, 146, 147, 148, 149, 150, 151, 152, 153, 154, 155, 156, 157, 158, 159, 160, 161, 162, 163, 164, 165, 166, 167, 168, 169, 170, 171, 172, 173, 174, 175, 176, 177, 178, 179, 180, 181, 182, 183, 184, 185, 186, 187, 188, 189, 190, 191, 192, 193, 194, 195, 196, 197, 198, 199, 200, 201, 202, 203, 204, 205, 206, 207, 208, 209, 210, 211, 212, 213, 214, 215, 216, 217, 218, 219, 220, 221, 222, 223, 224, 225, 226, 227, 228, 229, 230, 231, 232, 233, 234, 235, 236, 237, 238, 239, 240, 241],
      "AcquisitionTime": ["113314.515000", "113316.515000", "113318.515000", "113320.515000", "113322.515000", "113324.515000", "113326.515000", "113328.515000", "113330.515000", "113332.515000", "113334.515000", "113336.515000", "113338.515000", "113340.515000", "113342.515000", "113344.515000", "113346.515000", "113348.515000", "113350.515000", "113352.515000", "113354.515000", "113356.515000", "113358.515000", "113400.515000", "113402.515000", "113404.515000", "113406.515000", "113408.515000", "113410.515000", "113412.515000", "113414.515000", "113416.515000", "113418.515000", "113420.515000", "113422.515000", "113424.515000", "113426.515000", "113428.515000", "113430.515000", "113432.515000", "113434.515000", "113436.515000", "113438.515000", "113440.515000", "113442.515000", "113444.515000", "113446.515000", "113448.515000", "113450.515000", "113452.515000", "113454.515000", "113456.515000", "113458.515000", "113500.515000", "113502.515000", "113504.515000", "113506.515000", "113508.515000", "113510.515000", "113512.515000", "113514.515000", "113516.515000", "113518.515000", "113520.515000", "113522.515000", "113524.515000", "113526.515000", "113528.515000", "113530.515000", "113532.515000", "113534.515000", "113536.515000", "113538.515000", "113540.515000", "113542.515000", "113544.515000", "113546.515000", "113548.515000", "113550.515000", "113552.515000", "113554.515000", "113556.515000", "113558.515000", "113600.515000", "113602.515000", "113604.515000", "113606.515000", "113608.515000", "113610.515000", "113612.515000", "113614.515000", "113616.515000", "113618.515000", "113620.515000", "113622.515000", "113624.515000", "113626.515000", "113628.515000", "113630.515000", "113632.515000", "113634.515000", "113636.515000", "113638.515000", "113640.515000", "113642.515000", "113644.515000", "113646.515000", "113648.515000", "113650.515000", "113652.515000", "113654.515000", "113656.515000", "113658.515000", "113700.515000", "113702.515000", "113704.515000", "113706.515000", "113708.515000", "113710.515000", "113712.515000", "113714.515000", "113716.515000", "113718.515000", "113720.515000", "113722.515000", "113724.515000", "113726.515000", "113728.515000", "113730.515000", "113732.515000", "113734.515000", "113736.515000", "113738.515000", "113740.515000", "113742.515000", "113744.515000", "113746.515000", "113748.515000", "113750.515000", "113752.515000", "113754.515000", "113756.515000", "113758.515000", "113800.515000", "113802.515000", "113804.515000", "113806.515000", "113808.515000", "113810.515000", "113812.515000", "113814.515000", "113816.515000", "113818.515000", "113820.515000", "113822.515000", "113824.515000", "113826.515000", "113828.515000", "113830.515000", "113832.515000", "113834.515000", "113836.515000", "113838.515000", "113840.515000", "113842.515000", "113844.515000", "113846.515000", "113848.515000", "113850.515000", "113852.515000", "113854.515000", "113856.515000", "113858.515000", "113900.515000", "113902.515000", "113904.515000", "113906.515000", "113908.515000", "113910.515000", "113912.515000", "113914.515000", "113916.515000", "113918.515000", "113920.515000", "113922.515000", "113924.515000", "113926.515000", "113928.515000", "113930.515000", "113932.515000", "113934.515000", "113936.515000", "113938.515000", "113940.515000", "113942.515000", "113944.515000", "113946.515000", "113948.515000", "113950.515000", "113952.515000", "113954.515000", "113956.515000", "113958.515000", "114000.515000", "114002.515000", "114004.515000", "114006.515000", "114008.515000", "114010.515000", "114012.515000", "114014.515000", "114016.515000", "114018.515000", "114020.515000", "114022.515000", "114024.515000", "114026.515000", "114028.515000", "114030.515000", "114032.515000", "114034.515000", "114036.515000", "114038.515000", "114040.515000", "114042.515000", "114044.515000", "114046.515000", "114048.515000", "114050.515000", "114052.515000", "114054.515000", "114056.515000", "114058.515000", "114100.515000", "114102.515000", "114104.515000", "114106.515000", "114108.515000", "114110.515000", "114112.515000", "114114.515000"],
      "ContentTime": ["113317.297000", "113319.292000", "113321.293000", "113323.293000", "113324.793000", "113326.793000", "113328.792000", "113331.293000", "113332.792000", "113334.792000", "113337.293000", "113339.292000", "113341.293000", "113343.293000", "113345.293000", "113346.793000", "113348.792000", "113351.293000", "113352.793000", "113355.292000", "113356.793000", "113358.793000", "113400.792000", "113402.792000", "113404.792000", "113407.292000", "113408.792000", "113411.293000", "113412.792000", "113414.793000", "113417.293000", "113418.792000", "113420.792000", "113422.792000", "113424.792000", "113426.792000", "113429.293000", "113431.292000", "113433.292000", "113434.793000", "113436.793000", "113438.792000", "113440.792000", "113443.293000", "113444.792000", "113447.293000", "113448.792000", "113450.793000", "113452.792000", "113454.793000", "113457.293000", "113459.292000", "113500.792000", "113502.793000", "113504.792000", "113506.792000", "113509.293000", "113510.793000", "113512.793000", "113514.792000", "113516.793000", "113518.792000", "113520.793000", "113523.293000", "113525.292000", "113526.793000", "113528.793000", "113530.792000", "113533.293000", "113534.792000", "113536.792000", "113538.792000", "113540.793000", "113543.293000", "113544.792000", "113546.792000", "113548.793000", "113551.293000", "113553.292000", "113554.792000", "113557.293000", "113559.293000", "113600.792000", "113602.792000", "113605.293000", "113607.292000", "113608.792000", "113610.793000", "113613.293000", "113614.792000", "113616.793000", "113619.293000", "113621.292000", "113623.293000", "113625.293000", "113626.792000", "113629.293000", "113631.292000", "113633.292000", "113634.793000", "113636.793000", "113638.793000", "113641.292000", "113643.293000", "113644.792000", "113646.792000", "113649.293000", "113651.293000", "113652.793000", "113654.792000", "113657.293000", "113658.793000", "113700.792000", "113703.292000", "113704.794000", "113707.293000", "113709.292000", "113710.792000", "113712.792000", "113714.793000", "113716.792000", "113718.807000", "113720.793000", "113723.293000", "113724.793000", "113727.293000", "113728.793000", "113730.793000", "113733.292000", "113735.292000", "113737.293000", "113739.293000", "113741.293000", "113743.292000", "113745.293000", "113747.293000", "113748.792000", "113750.793000", "113753.292000", "113754.792000", "113757.293000", "113758.792000", "113801.293000", "113803.293000", "113805.293000", "113807.293000", "113809.292000", "113811.292000", "113813.293000", "113815.293000", "113817.293000", "113818.792000", "113821.293000", "113823.292000", "113825.293000", "113826.792000", "113829.293000", "113830.792000", "113833.293000", "113835.292000", "113837.293000", "113839.293000", "113841.293000", "113842.793000", "113845.293000", "113846.792000", "113849.293000", "113851.292000", "113853.292000", "113855.293000", "113857.292000", "113859.292000", "113901.293000", "113902.792000", "113904.793000", "113906.792000", "113908.793000", "113910.793000", "113913.293000", "113915.293000", "113917.293000", "113918.792000", "113920.792000", "113922.792000", "113924.794000", "113927.293000", "113928.793000", "113931.293000", "113933.293000", "113934.793000", "113937.293000", "113939.292000", "113941.293000", "113943.293000", "113945.293000", "113947.293000", "113949.293000", "113950.792000", "113953.293000", "113955.293000", "113957.293000", "113959.293000", "114000.793000", "114003.293000", "114005.293000", "114007.293000", "114009.293000", "114010.793000", "114013.293000", "114015.293000", "114016.793000", "114019.292000", "114020.792000", "114022.793000", "114024.793000", "114026.793000", "114029.293000", "114031.292000", "114032.793000", "114035.294000", "114036.792000", "114039.293000", "114040.792000", "114043.292000", "114045.292000", "114047.293000", "114048.792000", "114050.793000", "114053.293000", "114054.792000", "114057.292000", "114059.293000", "114101.293000", "114102.793000", "114105.292000", "114107.293000", "114109.292000", "114110.794000", "114112.792000", "114114.793000", "114116.784000"],
      "InstanceCreationTime": ["113317.297000", "113319.292000", "113321.293000", "113323.293000", "113324.793000", "113326.793000", "113328.792000", "113331.293000", "113332.792000", "113334.792000", "113337.293000", "113339.292000", "113341.293000", "113343.293000", "113345.293000", "113346.793000", "113348.792000", "113351.293000", "113352.793000", "113355.292000", "113356.793000", "113358.793000", "113400.792000", "113402.792000", "113404.792000", "113407.292000", "113408.792000", "113411.293000", "113412.792000", "113414.793000", "113417.293000", "113418.792000", "113420.792000", "113422.792000", "113424.792000", "113426.792000", "113429.293000", "113431.292000", "113433.292000", "113434.793000", "113436.793000", "113438.792000", "113440.792000", "113443.293000", "113444.792000", "113447.293000", "113448.792000", "113450.793000", "113452.792000", "113454.793000", "113457.293000", "113459.292000", "113500.792000", "113502.793000", "113504.792000", "113506.792000", "113509.293000", "113510.793000", "113512.793000", "113514.792000", "113516.793000", "113518.792000", "113520.793000", "113523.293000", "113525.292000", "113526.793000", "113528.793000", "113530.792000", "113533.293000", "113534.792000", "113536.792000", "113538.792000", "113540.793000", "113543.293000", "113544.792000", "113546.792000", "113548.793000", "113551.293000", "113553.292000", "113554.792000", "113557.293000", "113559.293000", "113600.792000", "113602.792000", "113605.293000", "113607.292000", "113608.792000", "113610.793000", "113613.293000", "113614.792000", "113616.793000", "113619.293000", "113621.292000", "113623.293000", "113625.293000", "113626.792000", "113629.293000", "113631.292000", "113633.292000", "113634.793000", "113636.793000", "113638.793000", "113641.292000", "113643.293000", "113644.792000", "113646.792000", "113649.293000", "113651.293000", "113652.793000", "113654.792000", "113657.293000", "113658.793000", "113700.792000", "113703.292000", "113704.794000", "113707.293000", "113709.292000", "113710.792000", "113712.792000", "113714.793000", "113716.792000", "113718.807000", "113720.793000", "113723.293000", "113724.793000", "113727.293000", "113728.793000", "113730.793000", "113733.292000", "113735.292000", "113737.293000", "113739.293000", "113741.293000", "113743.292000", "113745.293000", "113747.293000", "113748.792000", "113750.793000", "113753.292000", "113754.792000", "113757.293000", "113758.792000", "113801.293000", "113803.293000", "113805.293000", "113807.293000", "113809.292000", "113811.292000", "113813.293000", "113815.293000", "113817.293000", "113818.792000", "113821.293000", "113823.292000", "113825.293000", "113826.792000", "113829.293000", "113830.792000", "113833.293000", "113835.292000", "113837.293000", "113839.293000", "113841.293000", "113842.793000", "113845.293000", "113846.792000", "113849.293000", "113851.292000", "113853.292000", "113855.293000", "113857.292000", "113859.292000", "113901.293000", "113902.792000", "113904.793000", "113906.792000", "113908.793000", "113910.793000", "113913.293000", "113915.293000", "113917.293000", "113918.792000", "113920.792000", "113922.792000", "113924.794000", "113927.293000", "113928.793000", "113931.293000", "113933.293000", "113934.793000", "113937.293000", "113939.292000", "113941.293000", "113943.293000", "113945.293000", "113947.293000", "113949.293000", "113950.792000", "113953.293000", "113955.293000", "113957.293000", "113959.293000", "114000.793000", "114003.293000", "114005.293000", "114007.293000", "114009.293000", "114010.793000", "114013.293000", "114015.293000", "114016.793000", "114019.292000", "114020.792000", "114022.793000", "114024.793000", "114026.793000", "114029.293000", "114031.292000", "114032.793000", "114035.294000", "114036.792000", "114039.293000", "114040.792000", "114043.292000", "114045.292000", "114047.293000", "114048.792000", "114050.793000", "114053.293000", "114054.792000", "114057.292000", "114059.293000", "114101.293000", "114102.793000", "114105.292000", "114107.293000", "114109.292000", "114110.794000", "114112.792000", "114114.793000", "114116.784000"],
      "InstanceNumber": [1, 2, 3, 4, 5, 6, 7, 8, 9, 10, 11, 12, 13, 14, 15, 16, 17, 18, 19, 20, 21, 22, 23, 24, 25, 26, 27, 28, 29, 30, 31, 32, 33, 34, 35, 36, 37, 38, 39, 40, 41, 42, 43, 44, 45, 46, 47, 48, 49, 50, 51, 52, 53, 54, 55, 56, 57, 58, 59, 60, 61, 62, 63, 64, 65, 66, 67, 68, 69, 70, 71, 72, 73, 74, 75, 76, 77, 78, 79, 80, 81, 82, 83, 84, 85, 86, 87, 88, 89, 90, 91, 92, 93, 94, 95, 96, 97, 98, 99, 100, 101, 102, 103, 104, 105, 106, 107, 108, 109, 110, 111, 112, 113, 114, 115, 116, 117, 118, 119, 120, 121, 122, 123, 124, 125, 126, 127, 128, 129, 130, 131, 132, 133, 134, 135, 136, 137, 138, 139, 140, 141, 142, 143, 144, 145, 146, 147, 148, 149, 150, 151, 152, 153, 154, 155, 156, 157, 158, 159, 160, 161, 162, 163, 164, 165, 166, 167, 168, 169, 170, 171, 172, 173, 174, 175, 176, 177, 178, 179, 180, 181, 182, 183, 184, 185, 186, 187, 188, 189, 190, 191, 192, 193, 194, 195, 196, 197, 198, 199, 200, 201, 202, 203, 204, 205, 206, 207, 208, 209, 210, 211, 212, 213, 214, 215, 216, 217, 218, 219, 220, 221, 222, 223, 224, 225, 226, 227, 228, 229, 230, 231, 232, 233, 234, 235, 236, 237, 238, 239, 240, 241],
      "LargestImagePixelValue": [3519, 3496, 3486, 3484, 3421, 3407, 3432, 3416, 3431, 3448, 3451, 3453, 3440, 3420, 3449, 3438, 3465, 3466, 3481, 3471, 3455, 3477, 3442, 3487, 3477, 3493, 3486, 3497, 3500, 3480, 3480, 3472, 3467, 3476, 3485, 3464, 3476, 3471, 3456, 3416, 3426, 3448, 3461, 3456, 3458, 3448, 3422, 3437, 3451, 3439, 3436, 3469, 3463, 3446, 3477, 3474, 3477, 3465, 3442, 3456, 3452, 3463, 3451, 3443, 3445, 3421, 3414, 3439, 3474, 3472, 3454, 3457, 3468, 3429, 3407, 3456, 3473, 3445, 3449, 3437, 3447, 3447, 3452, 3478, 3471, 3451, 3445, 3462, 3458, 3436, 3448, 3458, 3440, 3457, 3444, 3420, 3435, 3434, 3447, 3427, 3414, 3397, 3405, 3404, 3406, 3423, 3430, 3431, 3424, 3441, 3441, 3435, 3458, 3439, 3418, 3421, 3428, 3420, 3425, 3452, 3404, 3437, 3407, 3408, 3422, 3382, 3413, 3453, 3445, 3433, 3458, 3438, 3446, 3458, 3450, 3445, 3463, 3493, 3478, 3471, 3488, 3456, 3464, 3454, 3448, 3481, 3458, 3482, 3442, 3461, 3494, 3493, 3476, 3488, 3471, 3479, 3510, 3470, 3463, 3471, 3477, 3481, 3485, 3484, 3494, 3462, 3460, 3505, 3475, 3496, 3462, 3452, 3473, 3467, 3454, 3464, 3421, 3471, 3449, 3406, 3394, 3411, 3420, 3421, 3414, 3411, 3441, 3417, 3423, 3446, 3436, 3410, 3412, 3403, 3433, 3427, 3426, 3404, 3421, 3409, 3416, 3421, 3430, 3409, 3395, 3415, 3429, 3424, 3439, 3455, 3470, 3440, 3437, 3410, 3423, 3445, 3430, 3414, 3449, 3418, 3421, 3407, 3433, 3451, 3459, 3444, 3461, 3431, 3428, 3437, 3419, 3420, 3419, 3416, 3411, 3415, 3432, 3438, 3442, 3441, 3480],
      "WindowCenter": [844.0, 842.0, 842.0, 844.0, 845.0, 844.0, 842.0, 841.0, 842.0, 842.0, 843.0, 843.0, 843.0, 842.0, 840.0, 839.0, 839.0, 840.0, 841.0, 841.0, 841.0, 841.0, 841.0, 841.0, 843.0, 844.0, 843.0, 841.0, 840.0, 839.0, 839.0, 840.0, 840.0, 840.0, 840.0, 840.0, 839.0, 839.0, 840.0, 839.0, 840.0, 841.0, 841.0, 841.0, 840.0, 840.0, 839.0, 838.0, 838.0, 839.0, 839.0, 839.0, 840.0, 841.0, 842.0, 842.0, 842.0, 840.0, 839.0, 840.0, 841.0, 841.0, 841.0, 840.0, 840.0, 839.0, 839.0, 840.0, 841.0, 842.0, 843.0, 842.0, 841.0, 840.0, 840.0, 841.0, 842.0, 841.0, 842.0, 842.0, 843.0, 844.0, 844.0, 843.0, 842.0, 840.0, 839.0, 839.0, 842.0, 843.0, 844.0, 843.0, 842.0, 841.0, 841.0, 841.0, 842.0, 842.0, 842.0, 842.0, 840.0, 839.0, 839.0, 840.0, 839.0, 839.0, 840.0, 840.0, 839.0, 838.0, 839.0, 841.0, 842.0, 841.0, 841.0, 840.0, 840.0, 840.0, 839.0, 839.0, 840.0, 840.0, 840.0, 840.0, 840.0, 840.0, 841.0, 842.0, 842.0, 841.0, 842.0, 843.0, 844.0, 843.0, 842.0, 841.0, 840.0, 840.0, 840.0, 840.0, 842.0, 844.0, 843.0, 841.0, 840.0, 840.0, 840.0, 841.0, 842.0, 844.0, 843.0, 841.0, 841.0, 842.0, 843.0, 845.0, 844.0, 843.0, 842.0, 841.0, 841.0, 841.0, 842.0, 842.0, 842.0, 843.0, 843.0, 842.0, 841.0, 841.0, 841.0, 842.0, 842.0, 842.0, 842.0, 843.0, 842.0, 842.0, 841.0, 839.0, 839.0, 839.0, 838.0, 839.0, 840.0, 841.0, 842.0, 843.0, 844.0, 843.0, 843.0, 842.0, 840.0, 839.0, 839.0, 841.0, 842.0, 841.0, 841.0, 841.0, 842.0, 842.0, 841.0, 840.0, 840.0, 840.0, 840.0, 841.0, 842.0, 841.0, 841.0, 840.0, 840.0, 840.0, 840.0, 840.0, 840.0, 839.0, 839.0, 840.0, 841.0, 841.0, 840.0, 839.0, 839.0, 841.0, 841.0, 841.0, 841.0, 841.0, 842.0, 842.0, 842.0, 841.0, 841.0, 841.0, 841.0, 840.0, 840.0, 840.0, 841.0],
      "WindowWidth": [1813.0, 1807.0, 1806.0, 1812.0, 1813.0, 1811.0, 1808.0, 1805.0, 1806.0, 1807.0, 1810.0, 1810.0, 1809.0, 1805.0, 1801.0, 1799.0, 1799.0, 1802.0, 1805.0, 1804.0, 1804.0, 1805.0, 1804.0, 1805.0, 1809.0, 1813.0, 1809.0, 1806.0, 1802.0, 1801.0, 1800.0, 1802.0, 1802.0, 1803.0, 1801.0, 1801.0, 1801.0, 1802.0, 1802.0, 1801.0, 1802.0, 1804.0, 1807.0, 1804.0, 1803.0, 1801.0, 1800.0, 1798.0, 1799.0, 1799.0, 1800.0, 1800.0, 1802.0, 1805.0, 1809.0, 1809.0, 1808.0, 1804.0, 1799.0, 1802.0, 1805.0, 1805.0, 1804.0, 1803.0, 1802.0, 1801.0, 1801.0, 1804.0, 1807.0, 1809.0, 1810.0, 1808.0, 1806.0, 1803.0, 1802.0, 1805.0, 1807.0, 1807.0, 1807.0, 1809.0, 1811.0, 1813.0, 1814.0, 1812.0, 1807.0, 1803.0, 1800.0, 1801.0, 1807.0, 1812.0, 1813.0, 1812.0, 1809.0, 1806.0, 1806.0, 1806.0, 1807.0, 1809.0, 1809.0, 1807.0, 1803.0, 1800.0, 1801.0, 1801.0, 1800.0, 1800.0, 1803.0, 1803.0, 1800.0, 1799.0, 1800.0, 1805.0, 1809.0, 1806.0, 1805.0, 1802.0, 1802.0, 1803.0, 1801.0, 1800.0, 1803.0, 1804.0, 1804.0, 1803.0, 1803.0, 1802.0, 1805.0, 1807.0, 1807.0, 1806.0, 1808.0, 1811.0, 1812.0, 1810.0, 1806.0, 1805.0, 1804.0, 1804.0, 1804.0, 1803.0, 1809.0, 1812.0, 1810.0, 1806.0, 1802.0, 1803.0, 1803.0, 1804.0, 1808.0, 1811.0, 1811.0, 1806.0, 1805.0, 1808.0, 1811.0, 1814.0, 1813.0, 1810.0, 1807.0, 1805.0, 1805.0, 1805.0, 1806.0, 1806.0, 1807.0, 1808.0, 1809.0, 1806.0, 1803.0, 1804.0, 1805.0, 1808.0, 1808.0, 1806.0, 1807.0, 1808.0, 1807.0, 1806.0, 1803.0, 1799.0, 1798.0, 1798.0, 1797.0, 1798.0, 1802.0, 1805.0, 1806.0, 1808.0, 1811.0, 1808.0, 1810.0, 1806.0, 1800.0, 1798.0, 1800.0, 1803.0, 1806.0, 1804.0, 1803.0, 1803.0, 1806.0, 1806.0, 1805.0, 1802.0, 1800.0, 1800.0, 1802.0, 1805.0, 1806.0, 1806.0, 1805.0, 1802.0, 1801.0, 1801.0, 1802.0, 1802.0, 1802.0, 1800.0, 1800.0, 1801.0, 1805.0, 1803.0, 1801.0, 1801.0, 1801.0, 1804.0, 1806.0, 1805.0, 1804.0, 1805.0, 1807.0, 1809.0, 1807.0, 1804.0, 1804.0, 1805.0, 1805.0, 1803.0, 1802.0, 1802.0, 1805.0]
    },
    "slices": {}
  }
}