{
  "AcquisitionMatrixPE": 100,
  "AcquisitionNumber": 1,
  "AcquisitionTime": "11:45:0.172500",
  "BandwidthPerPixelPhaseEncode": 18.519,
  "BaseResolution": 100,
  "BodyPartExamined": "BRAIN",
  "ConsistencyInfo": "N4_VE11C_LATEST_20160120",
  "ConversionSoftware": "dcm2niix",
  "ConversionSoftwareVersion": "v1.0.20180622 GCC4.9.2",
  "DerivedVendorReportedEchoSpacing": 0.000539986,
  "DeviceSerialNumber": "166078",
  "DwellTime": 2.1e-06,
  "EchoTime": 0.034,
  "EchoTrainLength": 100,
  "EffectiveEchoSpacing": 0.000539986,
  "FlipAngle": 90,
  "ImageOrientationPatientDICOM": [1, 0, 0, 0, 0.974761, -0.22325],
  "ImageType": [
    "ORIGINAL",
    "PRIMARY",
    "M",
    "ND",
    "MOSAIC"
],
  "InPlanePhaseEncodingDirectionDICOM": "COL",
  "InstitutionAddress": "Street_StreetNo_Bei_Jing_District_CN_ZIP",
  "InstitutionName": "BeiJing_Normal_University",
  "InstitutionalDepartmentName": "Department",
  "MRAcquisitionType": "2D",
  "MagneticFieldStrength": 3,
  "Manufacturer": "Siemens",
  "ManufacturersModelName": "Prisma",
  "Modality": "MR",
  "MultibandAccelerationFactor": 3,
  "PartialFourier": 1,
  "PatientPosition": "HFS",
  "PercentPhaseFOV": 100,
  "PhaseEncodingDirection": "j-",
  "PhaseEncodingSteps": 100,
  "PhaseResolution": 1,
  "PixelBandwidth": 2380,
  "ProcedureStepDescription": "BNU_P2018_64CH_Zhen.ZongLei",
  "ProtocolName": "bold_100x100_s3_2x2x2_static_test_241",
  "PulseSequenceDetails": "%SiemensSeq%_ep2d_bold",
  "ReceiveCoilActiveElements": "HC1-7;NC1",
  "ReceiveCoilName": "HeadNeck_64",
  "ReconMatrixPE": 100,
  "RepetitionTime": 2,
  "SAR": 0.0874073,
  "ScanOptions": "FS",
  "ScanningSequence": "EP",
  "SequenceName": "_epfid2d1_100",
  "SequenceVariant": "SK",
  "SeriesDescription": "bold_100x100_s3_2x2x2_static_test_241",
  "SeriesNumber": 10,
  "ShimSetting": [-5453, -11475, -1269, 418, 14, -109, -155, 53],
  "SliceThickness": 2,
  "SliceTiming": [1.485, 0, 0.99, 0.0825, 1.0725, 0.165, 1.155, 0.2475, 1.2375, 0.33, 1.32, 0.4125, 1.4025, 0.5775, 1.5675, 0.66, 1.65, 0.7425, 1.7325, 0.825, 1.815, 0.9075, 1.8975, 0.495, 1.485, 0, 0.99, 0.0825, 1.0725, 0.165, 1.155, 0.2475, 1.2375, 0.33, 1.32, 0.4125, 1.4025, 0.5775, 1.5675, 0.66, 1.65, 0.7425, 1.7325, 0.825, 1.815, 0.9075, 1.8975, 0.495, 1.485, 0, 0.99, 0.0825, 1.0725, 0.165, 1.155, 0.2475, 1.2375, 0.33, 1.32, 0.4125, 1.4025, 0.5775, 1.5675, 0.66, 1.65, 0.7425, 1.7325, 0.825, 1.815, 0.9075, 1.8975, 0.495],
  "SoftwareVersions": "syngo_MR_E11",
  "SpacingBetweenSlices": 2,
  "StationName": "AWP166078",
  "TaskName": "naturalvision2",
  "TotalReadoutTime": 0.0534586,
  "TxRefAmp": 233.327,
  "dcmmeta_affine": [
    [-2.0, 0.0, 0.0, 100.67469787597656],
    [0.0, 1.9495223760604858, -0.4465002119541168, -77.77222442626953],
    [0.0, 0.4465002119541168, 1.9495223760604858, -96.25282287597656],
    [0.0, 0.0, 0.0, 1.0]
],
  "dcmmeta_reorient_transform": [
    [0.0, -1.0, 0.0, 99.0],
    [1.0, 0.0, 0.0, 0.0],
    [0.0, 0.0, 1.0, 0.0],
    [0.0, 0.0, 0.0, 1.0]
],
  "dcmmeta_shape": [100, 100, 72, 241],
  "dcmmeta_slice_dim": 2,
  "dcmmeta_version": 0.6,
  "global": {
    "const": {
      "AcquisitionMatrix": [100, 0, 0, 100],
      "AngioFlag": "N",
      "BitsAllocated": 16,
      "BitsStored": 12,
      "BodyPartExamined": "BRAIN",
      "Columns": 900,
      "EchoNumbers": 1,
      "EchoTime": 34.0,
      "EchoTrainLength": 100,
      "FlipAngle": 90.0,
      "HighBit": 11,
      "ImageOrientationPatient": [1.0, 0.0, 0.0, 0.0, 0.9747611962791, -0.2232501068948],
      "ImagePositionPatient": [-900.67469877005, -895.0394502016, 126.55078285083],
      "ImageType": [
        "ORIGINAL",
        "PRIMARY",
        "M",
        "ND",
        "MOSAIC"
],
      "ImagedNucleus": "1H",
      "ImagingFrequency": 123.25777,
      "InPlanePhaseEncodingDirection": "COL",
      "MRAcquisitionType": "2D",
      "MagneticFieldStrength": 3.0,
      "Manufacturer": "SIEMENS",
      "ManufacturerModelName": "Prisma",
      "Modality": "MR",
      "NumberOfAverages": 1.0,
      "NumberOfPhaseEncodingSteps": 100,
      "PercentPhaseFieldOfView": 100.0,
      "PercentSampling": 100.0,
      "PerformedProcedureStepStartTime": "105223.445000",
      "PhotometricInterpretation": "MONOCHROME2",
      "PixelBandwidth": 2380.0,
      "PixelRepresentation": 0,
      "PixelSpacing": [2.0, 2.0],
      "ProtocolName": "bold_100x100_s3_2x2x2_static_test_241",
      "RepetitionTime": 2000.0,
      "Rows": 900,
      "SAR": 0.08740728806732,
      "SamplesPerPixel": 1,
      "ScanOptions": "FS",
      "ScanningSequence": "EP",
      "SequenceName": "*epfid2d1_100",
      "SequenceVariant": "SK",
      "SeriesDescription": "bold_100x100_s3_2x2x2_static_test_241",
      "SeriesNumber": 10,
      "SeriesTime": "114502.426000",
      "SliceLocation": -76.460860450842,
      "SliceThickness": 2.0,
      "SmallestImagePixelValue": 0,
      "SoftwareVersions": "syngo MR E11",
      "SpacingBetweenSlices": 2.0000000341638,
      "SpecificCharacterSet": "ISO_IR 100",
      "StudyID": "1",
      "StudyTime": "105223.381000",
      "TransmitCoilName": "Body",
      "VariableFlipAngleFlag": "N",
      "WindowCenterWidthExplanation": "Algo1",
      "dBdt": 0.0},
    "slices": {}
  },
  "time": {
    "samples": {
      "AcquisitionNumber": [1, 2, 3, 4, 5, 6, 7, 8, 9, 10, 11, 12, 13, 14, 15, 16, 17, 18, 19, 20, 21, 22, 23, 24, 25, 26, 27, 28, 29, 30, 31, 32, 33, 34, 35, 36, 37, 38, 39, 40, 41, 42, 43, 44, 45, 46, 47, 48, 49, 50, 51, 52, 53, 54, 55, 56, 57, 58, 59, 60, 61, 62, 63, 64, 65, 66, 67, 68, 69, 70, 71, 72, 73, 74, 75, 76, 77, 78, 79, 80, 81, 82, 83, 84, 85, 86, 87, 88, 89, 90, 91, 92, 93, 94, 95, 96, 97, 98, 99, 100, 101, 102, 103, 104, 105, 106, 107, 108, 109, 110, 111, 112, 113, 114, 115, 116, 117, 118, 119, 120, 121, 122, 123, 124, 125, 126, 127, 128, 129, 130, 131, 132, 133, 134, 135, 136, 137, 138, 139, 140, 141, 142, 143, 144, 145, 146, 147, 148, 149, 150, 151, 152, 153, 154, 155, 156, 157, 158, 159, 160, 161, 162, 163, 164, 165, 166, 167, 168, 169, 170, 171, 172, 173, 174, 175, 176, 177, 178, 179, 180, 181, 182, 183, 184, 185, 186, 187, 188, 189, 190, 191, 192, 193, 194, 195, 196, 197, 198, 199, 200, 201, 202, 203, 204, 205, 206, 207, 208, 209, 210, 211, 212, 213, 214, 215, 216, 217, 218, 219, 220, 221, 222, 223, 224, 225, 226, 227, 228, 229, 230, 231, 232, 233, 234, 235, 236, 237, 238, 239, 240, 241],
      "AcquisitionTime": ["114500.172500", "114502.172500", "114504.172500", "114506.172500", "114508.172500", "114510.172500", "114512.172500", "114514.172500", "114516.172500", "114518.172500", "114520.172500", "114522.172500", "114524.172500", "114526.172500", "114528.172500", "114530.172500", "114532.172500", "114534.172500", "114536.172500", "114538.172500", "114540.172500", "114542.172500", "114544.172500", "114546.172500", "114548.172500", "114550.172500", "114552.172500", "114554.172500", "114556.172500", "114558.172500", "114600.172500", "114602.172500", "114604.172500", "114606.172500", "114608.172500", "114610.172500", "114612.172500", "114614.172500", "114616.172500", "114618.172500", "114620.172500", "114622.172500", "114624.172500", "114626.172500", "114628.172500", "114630.172500", "114632.172500", "114634.172500", "114636.172500", "114638.172500", "114640.172500", "114642.172500", "114644.172500", "114646.172500", "114648.172500", "114650.172500", "114652.172500", "114654.172500", "114656.172500", "114658.172500", "114700.172500", "114702.172500", "114704.172500", "114706.172500", "114708.172500", "114710.172500", "114712.172500", "114714.172500", "114716.172500", "114718.172500", "114720.172500", "114722.172500", "114724.172500", "114726.172500", "114728.172500", "114730.172500", "114732.172500", "114734.172500", "114736.172500", "114738.172500", "114740.172500", "114742.172500", "114744.172500", "114746.172500", "114748.172500", "114750.172500", "114752.172500", "114754.172500", "114756.172500", "114758.172500", "114800.172500", "114802.172500", "114804.172500", "114806.172500", "114808.172500", "114810.172500", "114812.172500", "114814.172500", "114816.172500", "114818.172500", "114820.172500", "114822.172500", "114824.172500", "114826.172500", "114828.172500", "114830.172500", "114832.172500", "114834.172500", "114836.172500", "114838.172500", "114840.172500", "114842.172500", "114844.172500", "114846.172500", "114848.172500", "114850.172500", "114852.172500", "114854.172500", "114856.172500", "114858.172500", "114900.172500", "114902.172500", "114904.172500", "114906.172500", "114908.172500", "114910.172500", "114912.172500", "114914.172500", "114916.172500", "114918.172500", "114920.172500", "114922.172500", "114924.172500", "114926.172500", "114928.172500", "114930.172500", "114932.172500", "114934.172500", "114936.172500", "114938.172500", "114940.172500", "114942.172500", "114944.172500", "114946.172500", "114948.172500", "114950.172500", "114952.172500", "114954.172500", "114956.172500", "114958.172500", "115000.172500", "115002.172500", "115004.172500", "115006.172500", "115008.172500", "115010.172500", "115012.172500", "115014.172500", "115016.172500", "115018.172500", "115020.172500", "115022.172500", "115024.172500", "115026.172500", "115028.172500", "115030.172500", "115032.172500", "115034.172500", "115036.172500", "115038.172500", "115040.172500", "115042.172500", "115044.172500", "115046.172500", "115048.172500", "115050.172500", "115052.172500", "115054.172500", "115056.172500", "115058.172500", "115100.172500", "115102.172500", "115104.172500", "115106.172500", "115108.172500", "115110.172500", "115112.172500", "115114.172500", "115116.172500", "115118.172500", "115120.172500", "115122.172500", "115124.172500", "115126.172500", "115128.172500", "115130.172500", "115132.172500", "115134.172500", "115136.172500", "115138.172500", "115140.172500", "115142.172500", "115144.172500", "115146.172500", "115148.172500", "115150.172500", "115152.172500", "115154.172500", "115156.172500", "115158.172500", "115200.172500", "115202.172500", "115204.172500", "115206.172500", "115208.172500", "115210.172500", "115212.172500", "115214.172500", "115216.172500", "115218.172500", "115220.172500", "115222.172500", "115224.172500", "115226.172500", "115228.172500", "115230.172500", "115232.172500", "115234.172500", "115236.172500", "115238.172500", "115240.172500", "115242.172500", "115244.172500", "115246.172500", "115248.172500", "115250.172500", "115252.172500", "115254.172500", "115256.172500", "115258.172500", "115300.172500"],
      "ContentTime": ["114502.430000", "114503.925000", "114505.926000", "114507.926000", "114509.924000", "114511.924000", "114513.924000", "114515.925000", "114517.925000", "114519.925000", "114521.925000", "114523.926000", "114525.925000", "114527.924000", "114529.925000", "114531.925000", "114533.925000", "114535.926000", "114537.925000", "114539.926000", "114541.926000", "114543.926000", "114545.925000", "114547.924000", "114549.926000", "114551.926000", "114553.925000", "114555.925000", "114557.925000", "114559.926000", "114601.926000", "114603.925000", "114605.925000", "114607.925000", "114609.925000", "114611.925000", "114613.925000", "114615.926000", "114617.925000", "114619.924000", "114621.925000", "114623.924000", "114625.926000", "114627.925000", "114629.925000", "114631.926000", "114633.926000", "114635.925000", "114637.924000", "114639.924000", "114641.926000", "114643.926000", "114645.926000", "114647.925000", "114649.926000", "114651.926000", "114653.926000", "114655.925000", "114657.925000", "114659.925000", "114701.925000", "114703.925000", "114705.925000", "114707.925000", "114709.925000", "114711.926000", "114713.924000", "114715.924000", "114717.926000", "114719.926000", "114721.925000", "114723.926000", "114725.925000", "114727.926000", "114729.924000", "114731.925000", "114733.925000", "114735.926000", "114737.925000", "114739.926000", "114741.925000", "114743.925000", "114745.926000", "114747.925000", "114749.925000", "114751.925000", "114753.925000", "114755.925000", "114757.926000", "114759.926000", "114801.926000", "114803.925000", "114805.924000", "114807.924000", "114809.925000", "114811.926000", "114813.925000", "114815.925000", "114817.925000", "114819.926000", "114821.926000", "114823.924000", "114825.924000", "114827.925000", "114829.925000", "114831.926000", "114833.926000", "114835.925000", "114837.925000", "114839.925000", "114841.925000", "114843.925000", "114845.925000", "114847.925000", "114849.925000", "114851.926000", "114853.925000", "114855.926000", "114857.925000", "114859.924000", "114901.926000", "114903.926000", "114905.925000", "114907.925000", "114909.926000", "114911.926000", "114913.926000", "114915.924000", "114917.925000", "114919.925000", "114921.925000", "114923.925000", "114925.926000", "114927.926000", "114929.926000", "114931.925000", "114933.924000", "114935.924000", "114937.925000", "114939.925000", "114941.926000", "114943.926000", "114945.925000", "114947.925000", "114949.925000", "114951.925000", "114953.925000", "114955.926000", "114957.926000", "114959.926000", "115001.925000", "115003.926000", "115005.926000", "115007.925000", "115009.925000", "115011.926000", "115013.925000", "115015.925000", "115017.925000", "115019.925000", "115021.925000", "115023.926000", "115025.925000", "115027.925000", "115029.925000", "115031.926000", "115033.925000", "115035.926000", "115037.926000", "115039.925000", "115041.925000", "115043.925000", "115045.925000", "115047.926000", "115049.925000", "115051.925000", "115053.926000", "115055.925000", "115057.925000", "115059.925000", "115101.925000", "115103.925000", "115105.926000", "115107.925000", "115109.926000", "115111.925000", "115113.926000", "115115.926000", "115117.924000", "115119.925000", "115121.925000", "115123.925000", "115125.926000", "115127.926000", "115129.926000", "115131.925000", "115133.926000", "115135.925000", "115137.924000", "115139.926000", "115141.926000", "115143.926000", "115145.926000", "115147.926000", "115149.926000", "115151.926000", "115153.924000", "115155.924000", "115157.925000", "115159.936000", "115201.926000", "115203.925000", "115205.926000", "115207.925000", "115209.925000", "115211.925000", "115213.926000", "115215.925000", "115217.925000", "115219.926000", "115221.925000", "115223.926000", "115225.926000", "115227.925000", "115229.925000", "115231.926000", "115233.925000", "115235.926000", "115237.926000", "115239.926000", "115241.925000", "115243.925000", "115245.924000", "115247.925000", "115249.925000", "115251.926000", "115253.926000", "115255.926000", "115257.926000", "115259.925000", "115301.592000"],
      "InstanceCreationTime": ["114502.430000", "114503.925000", "114505.926000", "114507.926000", "114509.924000", "114511.924000", "114513.924000", "114515.925000", "114517.925000", "114519.925000", "114521.925000", "114523.926000", "114525.925000", "114527.924000", "114529.925000", "114531.925000", "114533.925000", "114535.926000", "114537.925000", "114539.926000", "114541.926000", "114543.926000", "114545.925000", "114547.924000", "114549.926000", "114551.926000", "114553.925000", "114555.925000", "114557.925000", "114559.926000", "114601.926000", "114603.925000", "114605.925000", "114607.925000", "114609.925000", "114611.925000", "114613.925000", "114615.926000", "114617.925000", "114619.924000", "114621.925000", "114623.924000", "114625.926000", "114627.925000", "114629.925000", "114631.926000", "114633.926000", "114635.925000", "114637.924000", "114639.924000", "114641.926000", "114643.926000", "114645.926000", "114647.925000", "114649.926000", "114651.926000", "114653.926000", "114655.925000", "114657.925000", "114659.925000", "114701.925000", "114703.925000", "114705.925000", "114707.925000", "114709.925000", "114711.926000", "114713.924000", "114715.924000", "114717.926000", "114719.926000", "114721.925000", "114723.926000", "114725.925000", "114727.926000", "114729.924000", "114731.925000", "114733.925000", "114735.926000", "114737.925000", "114739.926000", "114741.925000", "114743.925000", "114745.926000", "114747.925000", "114749.925000", "114751.925000", "114753.925000", "114755.925000", "114757.926000", "114759.926000", "114801.926000", "114803.925000", "114805.924000", "114807.924000", "114809.925000", "114811.926000", "114813.925000", "114815.925000", "114817.925000", "114819.926000", "114821.926000", "114823.924000", "114825.924000", "114827.925000", "114829.925000", "114831.926000", "114833.926000", "114835.925000", "114837.925000", "114839.925000", "114841.925000", "114843.925000", "114845.925000", "114847.925000", "114849.925000", "114851.926000", "114853.925000", "114855.926000", "114857.925000", "114859.924000", "114901.926000", "114903.926000", "114905.925000", "114907.925000", "114909.926000", "114911.926000", "114913.926000", "114915.924000", "114917.925000", "114919.925000", "114921.925000", "114923.925000", "114925.926000", "114927.926000", "114929.926000", "114931.925000", "114933.924000", "114935.924000", "114937.925000", "114939.925000", "114941.926000", "114943.926000", "114945.925000", "114947.925000", "114949.925000", "114951.925000", "114953.925000", "114955.926000", "114957.926000", "114959.926000", "115001.925000", "115003.926000", "115005.926000", "115007.925000", "115009.925000", "115011.926000", "115013.925000", "115015.925000", "115017.925000", "115019.925000", "115021.925000", "115023.926000", "115025.925000", "115027.925000", "115029.925000", "115031.926000", "115033.925000", "115035.926000", "115037.926000", "115039.925000", "115041.925000", "115043.925000", "115045.925000", "115047.926000", "115049.925000", "115051.925000", "115053.926000", "115055.925000", "115057.925000", "115059.925000", "115101.925000", "115103.925000", "115105.926000", "115107.925000", "115109.926000", "115111.925000", "115113.926000", "115115.926000", "115117.924000", "115119.925000", "115121.925000", "115123.925000", "115125.926000", "115127.926000", "115129.926000", "115131.925000", "115133.926000", "115135.925000", "115137.924000", "115139.926000", "115141.926000", "115143.926000", "115145.926000", "115147.926000", "115149.926000", "115151.926000", "115153.924000", "115155.924000", "115157.925000", "115159.936000", "115201.926000", "115203.925000", "115205.926000", "115207.925000", "115209.925000", "115211.925000", "115213.926000", "115215.925000", "115217.925000", "115219.926000", "115221.925000", "115223.926000", "115225.926000", "115227.925000", "115229.925000", "115231.926000", "115233.925000", "115235.926000", "115237.926000", "115239.926000", "115241.925000", "115243.925000", "115245.924000", "115247.925000", "115249.925000", "115251.926000", "115253.926000", "115255.926000", "115257.926000", "115259.925000", "115301.592000"],
      "InstanceNumber": [1, 2, 3, 4, 5, 6, 7, 8, 9, 10, 11, 12, 13, 14, 15, 16, 17, 18, 19, 20, 21, 22, 23, 24, 25, 26, 27, 28, 29, 30, 31, 32, 33, 34, 35, 36, 37, 38, 39, 40, 41, 42, 43, 44, 45, 46, 47, 48, 49, 50, 51, 52, 53, 54, 55, 56, 57, 58, 59, 60, 61, 62, 63, 64, 65, 66, 67, 68, 69, 70, 71, 72, 73, 74, 75, 76, 77, 78, 79, 80, 81, 82, 83, 84, 85, 86, 87, 88, 89, 90, 91, 92, 93, 94, 95, 96, 97, 98, 99, 100, 101, 102, 103, 104, 105, 106, 107, 108, 109, 110, 111, 112, 113, 114, 115, 116, 117, 118, 119, 120, 121, 122, 123, 124, 125, 126, 127, 128, 129, 130, 131, 132, 133, 134, 135, 136, 137, 138, 139, 140, 141, 142, 143, 144, 145, 146, 147, 148, 149, 150, 151, 152, 153, 154, 155, 156, 157, 158, 159, 160, 161, 162, 163, 164, 165, 166, 167, 168, 169, 170, 171, 172, 173, 174, 175, 176, 177, 178, 179, 180, 181, 182, 183, 184, 185, 186, 187, 188, 189, 190, 191, 192, 193, 194, 195, 196, 197, 198, 199, 200, 201, 202, 203, 204, 205, 206, 207, 208, 209, 210, 211, 212, 213, 214, 215, 216, 217, 218, 219, 220, 221, 222, 223, 224, 225, 226, 227, 228, 229, 230, 231, 232, 233, 234, 235, 236, 237, 238, 239, 240, 241],
      "LargestImagePixelValue": [3444, 3335, 3356, 3366, 3331, 3350, 3348, 3353, 3364, 3348, 3340, 3345, 3327, 3360, 3346, 3311, 3320, 3339, 3325, 3336, 3357, 3356, 3342, 3327, 3357, 3371, 3352, 3346, 3321, 3284, 3314, 3339, 3364, 3347, 3309, 3371, 3371, 3407, 3364, 3339, 3320, 3364, 3343, 3340, 3366, 3338, 3369, 3375, 3355, 3374, 3379, 3325, 3329, 3348, 3342, 3359, 3389, 3375, 3307, 3347, 3354, 3371, 3361, 3366, 3389, 3333, 3295, 3322, 3372, 3325, 3328, 3342, 3340, 3347, 3369, 3339, 3336, 3319, 3333, 3363, 3348, 3359, 3368, 3376, 3386, 3403, 3309, 3331, 3309, 3354, 3379, 3402, 3379, 3421, 3409, 3376, 3400, 3365, 3398, 3392, 3382, 3366, 3339, 3363, 3354, 3390, 3373, 3364, 3356, 3342, 3365, 3394, 3404, 3381, 3371, 3414, 3382, 3440, 3449, 3445, 3430, 3442, 3439, 3416, 3450, 3449, 3426, 3437, 3443, 3369, 3442, 3430, 3428, 3366, 3414, 3431, 3404, 3437, 3403, 3435, 3416, 3443, 3437, 3423, 3426, 3410, 3399, 3428, 3411, 3441, 3399, 3423, 3377, 3397, 3388, 3391, 3423, 3410, 3400, 3415, 3405, 3400, 3412, 3359, 3396, 3389, 3378, 3389, 3431, 3421, 3419, 3441, 3426, 3434, 3407, 3382, 3375, 3355, 3400, 3406, 3420, 3386, 3397, 3414, 3415, 3382, 3410, 3443, 3413, 3418, 3424, 3418, 3433, 3408, 3403, 3412, 3388, 3412, 3420, 3402, 3380, 3416, 3390, 3414, 3395, 3401, 3414, 3423, 3397, 3417, 3397, 3385, 3414, 3440, 3419, 3405, 3427, 3430, 3415, 3454, 3415, 3402, 3434, 3396, 3387, 3374, 3382, 3389, 3416, 3407, 3437, 3414, 3456, 3381, 3420, 3403, 3418, 3411, 3430, 3431, 3434],
      "WindowCenter": [845.0, 841.0, 840.0, 840.0, 842.0, 842.0, 841.0, 841.0, 841.0, 840.0, 841.0, 841.0, 842.0, 842.0, 842.0, 842.0, 843.0, 843.0, 842.0, 841.0, 841.0, 842.0, 842.0, 842.0, 842.0, 842.0, 842.0, 842.0, 841.0, 842.0, 842.0, 841.0, 841.0, 842.0, 842.0, 842.0, 842.0, 842.0, 841.0, 839.0, 839.0, 839.0, 839.0, 840.0, 841.0, 841.0, 841.0, 842.0, 841.0, 841.0, 841.0, 840.0, 840.0, 841.0, 841.0, 842.0, 841.0, 841.0, 842.0, 843.0, 842.0, 841.0, 840.0, 840.0, 840.0, 841.0, 841.0, 842.0, 842.0, 842.0, 843.0, 843.0, 842.0, 841.0, 842.0, 843.0, 844.0, 843.0, 842.0, 841.0, 841.0, 841.0, 841.0, 841.0, 842.0, 845.0, 843.0, 842.0, 841.0, 840.0, 841.0, 842.0, 842.0, 841.0, 841.0, 841.0, 842.0, 842.0, 842.0, 842.0, 841.0, 839.0, 838.0, 839.0, 840.0, 841.0, 842.0, 842.0, 841.0, 840.0, 841.0, 842.0, 842.0, 842.0, 842.0, 842.0, 843.0, 844.0, 843.0, 842.0, 843.0, 843.0, 842.0, 842.0, 843.0, 844.0, 843.0, 842.0, 842.0, 841.0, 842.0, 842.0, 842.0, 841.0, 841.0, 841.0, 842.0, 842.0, 841.0, 840.0, 841.0, 842.0, 841.0, 841.0, 841.0, 840.0, 839.0, 839.0, 838.0, 840.0, 842.0, 841.0, 840.0, 839.0, 840.0, 840.0, 841.0, 841.0, 841.0, 841.0, 841.0, 842.0, 841.0, 838.0, 838.0, 838.0, 839.0, 840.0, 841.0, 840.0, 840.0, 840.0, 841.0, 841.0, 840.0, 840.0, 840.0, 841.0, 840.0, 840.0, 840.0, 840.0, 840.0, 841.0, 842.0, 842.0, 842.0, 842.0, 840.0, 839.0, 839.0, 839.0, 840.0, 840.0, 841.0, 841.0, 841.0, 841.0, 840.0, 841.0, 841.0, 842.0, 841.0, 840.0, 839.0, 839.0, 840.0, 840.0, 841.0, 841.0, 841.0, 840.0, 841.0, 841.0, 841.0, 841.0, 841.0, 842.0, 843.0, 844.0, 843.0, 841.0, 840.0, 840.0, 840.0, 842.0, 843.0, 843.0, 843.0, 843.0, 843.0, 844.0, 844.0, 845.0, 844.0, 841.0, 840.0, 841.0, 842.0, 844.0, 844.0],
      "WindowWidth": [1814.0, 1803.0, 1800.0, 1802.0, 1805.0, 1806.0, 1805.0, 1804.0, 1804.0, 1802.0, 1803.0, 1805.0, 1806.0, 1808.0, 1808.0, 1808.0, 1808.0, 1808.0, 1805.0, 1804.0, 1803.0, 1806.0, 1805.0, 1806.0, 1806.0, 1807.0, 1807.0, 1807.0, 1805.0, 1805.0, 1805.0, 1804.0, 1805.0, 1806.0, 1807.0, 1807.0, 1808.0, 1806.0, 1804.0, 1800.0, 1798.0, 1799.0, 1800.0, 1801.0, 1803.0, 1804.0, 1804.0, 1806.0, 1805.0, 1804.0, 1804.0, 1802.0, 1801.0, 1803.0, 1805.0, 1806.0, 1804.0, 1804.0, 1806.0, 1809.0, 1805.0, 1803.0, 1800.0, 1800.0, 1802.0, 1803.0, 1804.0, 1805.0, 1806.0, 1807.0, 1809.0, 1808.0, 1804.0, 1803.0, 1805.0, 1809.0, 1810.0, 1809.0, 1805.0, 1803.0, 1802.0, 1803.0, 1804.0, 1804.0, 1806.0, 1813.0, 1810.0, 1807.0, 1804.0, 1802.0, 1804.0, 1806.0, 1805.0, 1804.0, 1803.0, 1805.0, 1807.0, 1807.0, 1806.0, 1806.0, 1803.0, 1799.0, 1796.0, 1797.0, 1800.0, 1804.0, 1806.0, 1805.0, 1802.0, 1801.0, 1803.0, 1806.0, 1805.0, 1806.0, 1806.0, 1807.0, 1808.0, 1810.0, 1809.0, 1807.0, 1808.0, 1809.0, 1807.0, 1807.0, 1809.0, 1812.0, 1808.0, 1806.0, 1805.0, 1804.0, 1806.0, 1807.0, 1806.0, 1802.0, 1803.0, 1804.0, 1805.0, 1806.0, 1804.0, 1803.0, 1804.0, 1806.0, 1806.0, 1804.0, 1803.0, 1801.0, 1798.0, 1798.0, 1797.0, 1802.0, 1805.0, 1803.0, 1800.0, 1799.0, 1800.0, 1800.0, 1803.0, 1804.0, 1805.0, 1802.0, 1804.0, 1805.0, 1802.0, 1796.0, 1795.0, 1796.0, 1799.0, 1800.0, 1803.0, 1802.0, 1801.0, 1802.0, 1803.0, 1803.0, 1800.0, 1801.0, 1801.0, 1803.0, 1801.0, 1799.0, 1800.0, 1801.0, 1801.0, 1803.0, 1805.0, 1805.0, 1807.0, 1804.0, 1799.0, 1797.0, 1797.0, 1799.0, 1801.0, 1802.0, 1804.0, 1804.0, 1802.0, 1802.0, 1802.0, 1803.0, 1803.0, 1805.0, 1804.0, 1802.0, 1798.0, 1799.0, 1801.0, 1802.0, 1802.0, 1804.0, 1802.0, 1800.0, 1803.0, 1804.0, 1804.0, 1803.0, 1805.0, 1807.0, 1809.0, 1810.0, 1807.0, 1803.0, 1802.0, 1800.0, 1802.0, 1805.0, 1808.0, 1808.0, 1808.0, 1807.0, 1808.0, 1810.0, 1812.0, 1812.0, 1809.0, 1803.0, 1800.0, 1801.0, 1805.0, 1809.0, 1811.0]
    },
    "slices": {}
  }
}