{
  "AcquisitionMatrixPE": 100,
  "AcquisitionNumber": 1,
  "AcquisitionTime": "12:20:14.017500",
  "BandwidthPerPixelPhaseEncode": 18.519,
  "BaseResolution": 100,
  "BodyPartExamined": "BRAIN",
  "ConsistencyInfo": "N4_VE11C_LATEST_20160120",
  "ConversionSoftware": "dcm2niix",
  "ConversionSoftwareVersion": "v1.0.20180622 GCC4.9.2",
  "DerivedVendorReportedEchoSpacing": 0.000539986,
  "DeviceSerialNumber": "166078",
  "DwellTime": 2.1e-06,
  "EchoTime": 0.034,
  "EchoTrainLength": 100,
  "EffectiveEchoSpacing": 0.000539986,
  "FlipAngle": 90,
  "ImageOrientationPatientDICOM": [1, 0, 0, 0, 0.974761, -0.22325],
  "ImageType": [
    "ORIGINAL",
    "PRIMARY",
    "M",
    "ND",
    "MOSAIC"
],
  "InPlanePhaseEncodingDirectionDICOM": "COL",
  "InstitutionAddress": "Street_StreetNo_Bei_Jing_District_CN_ZIP",
  "InstitutionName": "BeiJing_Normal_University",
  "InstitutionalDepartmentName": "Department",
  "MRAcquisitionType": "2D",
  "MagneticFieldStrength": 3,
  "Manufacturer": "Siemens",
  "ManufacturersModelName": "Prisma",
  "Modality": "MR",
  "MultibandAccelerationFactor": 3,
  "PartialFourier": 1,
  "PatientPosition": "HFS",
  "PercentPhaseFOV": 100,
  "PhaseEncodingDirection": "j-",
  "PhaseEncodingSteps": 100,
  "PhaseResolution": 1,
  "PixelBandwidth": 2380,
  "ProcedureStepDescription": "BNU_P2018_64CH_Zhen.ZongLei",
  "ProtocolName": "bold_100x100_s3_2x2x2_static_test_241",
  "PulseSequenceDetails": "%SiemensSeq%_ep2d_bold",
  "ReceiveCoilActiveElements": "HC1-7;NC1",
  "ReceiveCoilName": "HeadNeck_64",
  "ReconMatrixPE": 100,
  "RepetitionTime": 2,
  "SAR": 0.0874073,
  "ScanOptions": "FS",
  "ScanningSequence": "EP",
  "SequenceName": "_epfid2d1_100",
  "SequenceVariant": "SK",
  "SeriesDescription": "bold_100x100_s3_2x2x2_static_test_241",
  "SeriesNumber": 14,
  "ShimSetting": [-5453, -11475, -1269, 418, 14, -109, -155, 53],
  "SliceThickness": 2,
  "SliceTiming": [1.485, 0, 0.99, 0.0825, 1.0725, 0.165, 1.155, 0.2475, 1.2375, 0.33, 1.32, 0.4125, 1.4025, 0.5775, 1.565, 0.66, 1.6475, 0.7425, 1.73, 0.825, 1.8125, 0.9075, 1.895, 0.495, 1.485, 0, 0.99, 0.0825, 1.0725, 0.165, 1.155, 0.2475, 1.2375, 0.33, 1.32, 0.4125, 1.4025, 0.5775, 1.565, 0.66, 1.6475, 0.7425, 1.73, 0.825, 1.8125, 0.9075, 1.895, 0.495, 1.485, 0, 0.99, 0.0825, 1.0725, 0.165, 1.155, 0.2475, 1.2375, 0.33, 1.32, 0.4125, 1.4025, 0.5775, 1.565, 0.66, 1.6475, 0.7425, 1.73, 0.825, 1.8125, 0.9075, 1.895, 0.495],
  "SoftwareVersions": "syngo_MR_E11",
  "SpacingBetweenSlices": 2,
  "StationName": "AWP166078",
  "TaskName": "naturalvision2",
  "TotalReadoutTime": 0.0534586,
  "TxRefAmp": 233.327,
  "dcmmeta_affine": [
    [-2.0, 0.0, 0.0, 100.67469787597656],
    [0.0, 1.9495223760604858, -0.4465002119541168, -77.77222442626953],
    [0.0, 0.4465002119541168, 1.9495223760604858, -96.25282287597656],
    [0.0, 0.0, 0.0, 1.0]
],
  "dcmmeta_reorient_transform": [
    [0.0, -1.0, 0.0, 99.0],
    [1.0, 0.0, 0.0, 0.0],
    [0.0, 0.0, 1.0, 0.0],
    [0.0, 0.0, 0.0, 1.0]
],
  "dcmmeta_shape": [100, 100, 72, 241],
  "dcmmeta_slice_dim": 2,
  "dcmmeta_version": 0.6,
  "global": {
    "const": {
      "AcquisitionMatrix": [100, 0, 0, 100],
      "AngioFlag": "N",
      "BitsAllocated": 16,
      "BitsStored": 12,
      "BodyPartExamined": "BRAIN",
      "Columns": 900,
      "EchoNumbers": 1,
      "EchoTime": 34.0,
      "EchoTrainLength": 100,
      "FlipAngle": 90.0,
      "HighBit": 11,
      "ImageOrientationPatient": [1.0, 0.0, 0.0, 0.0, 0.9747611962791, -0.2232501068948],
      "ImagePositionPatient": [-900.67469877005, -895.0394502016, 126.55078285083],
      "ImageType": [
        "ORIGINAL",
        "PRIMARY",
        "M",
        "ND",
        "MOSAIC"
],
      "ImagedNucleus": "1H",
      "ImagingFrequency": 123.257779,
      "InPlanePhaseEncodingDirection": "COL",
      "MRAcquisitionType": "2D",
      "MagneticFieldStrength": 3.0,
      "Manufacturer": "SIEMENS",
      "ManufacturerModelName": "Prisma",
      "Modality": "MR",
      "NumberOfAverages": 1.0,
      "NumberOfPhaseEncodingSteps": 100,
      "PercentPhaseFieldOfView": 100.0,
      "PercentSampling": 100.0,
      "PerformedProcedureStepStartTime": "105223.445000",
      "PhotometricInterpretation": "MONOCHROME2",
      "PixelBandwidth": 2380.0,
      "PixelRepresentation": 0,
      "PixelSpacing": [2.0, 2.0],
      "ProtocolName": "bold_100x100_s3_2x2x2_static_test_241",
      "RepetitionTime": 2000.0,
      "Rows": 900,
      "SAR": 0.08740728806732,
      "SamplesPerPixel": 1,
      "ScanOptions": "FS",
      "ScanningSequence": "EP",
      "SequenceName": "*epfid2d1_100",
      "SequenceVariant": "SK",
      "SeriesDescription": "bold_100x100_s3_2x2x2_static_test_241",
      "SeriesNumber": 14,
      "SeriesTime": "122017.005000",
      "SliceLocation": -76.460860450842,
      "SliceThickness": 2.0,
      "SmallestImagePixelValue": 0,
      "SoftwareVersions": "syngo MR E11",
      "SpacingBetweenSlices": 2.0000000341638,
      "SpecificCharacterSet": "ISO_IR 100",
      "StudyID": "1",
      "StudyTime": "105223.381000",
      "TransmitCoilName": "Body",
      "VariableFlipAngleFlag": "N",
      "WindowCenterWidthExplanation": "Algo1",
      "dBdt": 0.0},
    "slices": {}
  },
  "time": {
    "samples": {
      "AcquisitionNumber": [1, 2, 3, 4, 5, 6, 7, 8, 9, 10, 11, 12, 13, 14, 15, 16, 17, 18, 19, 20, 21, 22, 23, 24, 25, 26, 27, 28, 29, 30, 31, 32, 33, 34, 35, 36, 37, 38, 39, 40, 41, 42, 43, 44, 45, 46, 47, 48, 49, 50, 51, 52, 53, 54, 55, 56, 57, 58, 59, 60, 61, 62, 63, 64, 65, 66, 67, 68, 69, 70, 71, 72, 73, 74, 75, 76, 77, 78, 79, 80, 81, 82, 83, 84, 85, 86, 87, 88, 89, 90, 91, 92, 93, 94, 95, 96, 97, 98, 99, 100, 101, 102, 103, 104, 105, 106, 107, 108, 109, 110, 111, 112, 113, 114, 115, 116, 117, 118, 119, 120, 121, 122, 123, 124, 125, 126, 127, 128, 129, 130, 131, 132, 133, 134, 135, 136, 137, 138, 139, 140, 141, 142, 143, 144, 145, 146, 147, 148, 149, 150, 151, 152, 153, 154, 155, 156, 157, 158, 159, 160, 161, 162, 163, 164, 165, 166, 167, 168, 169, 170, 171, 172, 173, 174, 175, 176, 177, 178, 179, 180, 181, 182, 183, 184, 185, 186, 187, 188, 189, 190, 191, 192, 193, 194, 195, 196, 197, 198, 199, 200, 201, 202, 203, 204, 205, 206, 207, 208, 209, 210, 211, 212, 213, 214, 215, 216, 217, 218, 219, 220, 221, 222, 223, 224, 225, 226, 227, 228, 229, 230, 231, 232, 233, 234, 235, 236, 237, 238, 239, 240, 241],
      "AcquisitionTime": ["122014.017500", "122016.017500", "122018.017500", "122020.017500", "122022.017500", "122024.017500", "122026.017500", "122028.017500", "122030.017500", "122032.017500", "122034.017500", "122036.017500", "122038.017500", "122040.017500", "122042.017500", "122044.017500", "122046.017500", "122048.017500", "122050.017500", "122052.017500", "122054.017500", "122056.017500", "122058.017500", "122100.017500", "122102.017500", "122104.017500", "122106.017500", "122108.017500", "122110.017500", "122112.017500", "122114.017500", "122116.017500", "122118.017500", "122120.017500", "122122.017500", "122124.017500", "122126.017500", "122128.017500", "122130.017500", "122132.017500", "122134.017500", "122136.017500", "122138.017500", "122140.017500", "122142.017500", "122144.017500", "122146.017500", "122148.017500", "122150.017500", "122152.017500", "122154.017500", "122156.017500", "122158.017500", "122200.017500", "122202.017500", "122204.017500", "122206.017500", "122208.017500", "122210.017500", "122212.017500", "122214.017500", "122216.017500", "122218.017500", "122220.017500", "122222.017500", "122224.017500", "122226.017500", "122228.017500", "122230.017500", "122232.017500", "122234.017500", "122236.017500", "122238.017500", "122240.017500", "122242.017500", "122244.017500", "122246.017500", "122248.017500", "122250.017500", "122252.017500", "122254.017500", "122256.017500", "122258.017500", "122300.017500", "122302.017500", "122304.017500", "122306.017500", "122308.017500", "122310.017500", "122312.017500", "122314.017500", "122316.017500", "122318.017500", "122320.017500", "122322.017500", "122324.017500", "122326.017500", "122328.017500", "122330.017500", "122332.017500", "122334.017500", "122336.017500", "122338.017500", "122340.017500", "122342.017500", "122344.017500", "122346.017500", "122348.017500", "122350.017500", "122352.017500", "122354.017500", "122356.017500", "122358.017500", "122400.017500", "122402.017500", "122404.017500", "122406.017500", "122408.017500", "122410.017500", "122412.017500", "122414.017500", "122416.017500", "122418.017500", "122420.017500", "122422.017500", "122424.017500", "122426.017500", "122428.017500", "122430.017500", "122432.017500", "122434.017500", "122436.017500", "122438.017500", "122440.017500", "122442.017500", "122444.017500", "122446.017500", "122448.017500", "122450.017500", "122452.017500", "122454.017500", "122456.017500", "122458.017500", "122500.017500", "122502.017500", "122504.017500", "122506.017500", "122508.017500", "122510.017500", "122512.017500", "122514.017500", "122516.017500", "122518.017500", "122520.017500", "122522.017500", "122524.017500", "122526.017500", "122528.017500", "122530.017500", "122532.017500", "122534.017500", "122536.017500", "122538.017500", "122540.017500", "122542.017500", "122544.017500", "122546.017500", "122548.017500", "122550.017500", "122552.017500", "122554.017500", "122556.017500", "122558.017500", "122600.017500", "122602.017500", "122604.017500", "122606.017500", "122608.017500", "122610.017500", "122612.017500", "122614.017500", "122616.017500", "122618.017500", "122620.017500", "122622.017500", "122624.017500", "122626.017500", "122628.017500", "122630.017500", "122632.017500", "122634.017500", "122636.017500", "122638.017500", "122640.017500", "122642.017500", "122644.017500", "122646.017500", "122648.017500", "122650.017500", "122652.017500", "122654.017500", "122656.017500", "122658.017500", "122700.017500", "122702.017500", "122704.017500", "122706.017500", "122708.017500", "122710.017500", "122712.017500", "122714.017500", "122716.017500", "122718.017500", "122720.017500", "122722.017500", "122724.017500", "122726.017500", "122728.017500", "122730.017500", "122732.017500", "122734.017500", "122736.017500", "122738.017500", "122740.017500", "122742.017500", "122744.017500", "122746.017500", "122748.017500", "122750.017500", "122752.017500", "122754.017500", "122756.017500", "122758.017500", "122800.017500", "122802.017500", "122804.017500", "122806.017500", "122808.017500", "122810.017500", "122812.017500", "122814.017500"],
      "ContentTime": ["122017.009000", "122018.004000", "122020.003000", "122022.503000", "122024.504000", "122026.503000", "122028.504000", "122030.505000", "122032.504000", "122034.005000", "122036.004000", "122038.504000", "122040.504000", "122042.004000", "122044.003000", "122046.003000", "122048.005000", "122050.505000", "122052.503000", "122054.004000", "122056.004000", "122058.004000", "122100.003000", "122102.004000", "122104.003000", "122106.505000", "122108.504000", "122110.503000", "122112.003000", "122114.003000", "122116.503000", "122118.503000", "122120.503000", "122122.004000", "122124.504000", "122126.505000", "122128.504000", "122130.503000", "122132.504000", "122134.004000", "122136.504000", "122138.503000", "122140.005000", "122142.504000", "122144.004000", "122146.503000", "122148.004000", "122150.003000", "122152.003000", "122154.004000", "122156.004000", "122158.504000", "122200.005000", "122202.004000", "122204.003000", "122206.503000", "122208.003000", "122210.003000", "122212.503000", "122214.504000", "122216.005000", "122218.005000", "122220.503000", "122222.504000", "122224.504000", "122226.504000", "122228.003000", "122230.003000", "122232.004000", "122234.005000", "122236.505000", "122238.003000", "122240.504000", "122242.504000", "122244.504000", "122246.504000", "122248.003000", "122250.004000", "122252.505000", "122254.505000", "122256.003000", "122258.004000", "122300.503000", "122302.504000", "122304.503000", "122306.504000", "122308.004000", "122310.504000", "122312.005000", "122314.003000", "122316.503000", "122318.003000", "122320.004000", "122322.503000", "122324.504000", "122326.504000", "122328.504000", "122330.504000", "122332.504000", "122334.504000", "122336.504000", "122338.504000", "122340.504000", "122342.003000", "122344.504000", "122346.505000", "122348.003000", "122350.504000", "122352.503000", "122354.503000", "122356.503000", "122358.503000", "122400.505000", "122402.504000", "122404.505000", "122406.504000", "122408.003000", "122410.004000", "122412.503000", "122414.003000", "122416.003000", "122418.504000", "122420.505000", "122422.503000", "122424.003000", "122426.503000", "122428.003000", "122430.504000", "122432.504000", "122434.504000", "122436.505000", "122438.505000", "122440.504000", "122442.503000", "122444.504000", "122446.004000", "122448.504000", "122450.504000", "122452.003000", "122454.005000", "122456.004000", "122458.503000", "122500.503000", "122502.503000", "122504.003000", "122506.504000", "122508.504000", "122510.004000", "122512.505000", "122514.505000", "122516.004000", "122518.004000", "122520.504000", "122522.504000", "122524.504000", "122526.504000", "122528.004000", "122530.004000", "122532.005000", "122534.004000", "122536.003000", "122538.004000", "122540.004000", "122542.504000", "122544.505000", "122546.505000", "122548.505000", "122550.003000", "122552.503000", "122554.504000", "122556.003000", "122558.004000", "122600.503000", "122602.005000", "122604.505000", "122606.005000", "122608.003000", "122610.504000", "122612.004000", "122614.504000", "122616.503000", "122618.003000", "122620.004000", "122622.004000", "122624.004000", "122626.004000", "122628.003000", "122630.004000", "122632.504000", "122634.504000", "122636.003000", "122638.504000", "122640.004000", "122642.504000", "122644.504000", "122646.504000", "122648.504000", "122650.503000", "122652.503000", "122654.505000", "122656.505000", "122658.504000", "122700.504000", "122702.003000", "122704.003000", "122706.003000", "122708.504000", "122710.504000", "122712.005000", "122714.020000", "122716.504000", "122718.504000", "122720.003000", "122722.004000", "122724.503000", "122726.004000", "122728.504000", "122730.505000", "122732.504000", "122734.005000", "122736.504000", "122738.504000", "122740.504000", "122742.504000", "122744.504000", "122746.004000", "122748.505000", "122750.505000", "122752.005000", "122754.004000", "122756.003000", "122758.504000", "122800.504000", "122802.004000", "122804.505000", "122806.004000", "122808.005000", "122810.003000", "122812.504000", "122814.003000", "122815.973000"],
      "InstanceCreationTime": ["122017.009000", "122018.004000", "122020.003000", "122022.503000", "122024.504000", "122026.503000", "122028.504000", "122030.505000", "122032.504000", "122034.005000", "122036.004000", "122038.504000", "122040.504000", "122042.004000", "122044.003000", "122046.003000", "122048.005000", "122050.505000", "122052.503000", "122054.004000", "122056.004000", "122058.004000", "122100.003000", "122102.004000", "122104.003000", "122106.505000", "122108.504000", "122110.503000", "122112.003000", "122114.003000", "122116.503000", "122118.503000", "122120.503000", "122122.004000", "122124.504000", "122126.505000", "122128.504000", "122130.503000", "122132.504000", "122134.004000", "122136.504000", "122138.503000", "122140.005000", "122142.504000", "122144.004000", "122146.503000", "122148.004000", "122150.003000", "122152.003000", "122154.004000", "122156.004000", "122158.504000", "122200.005000", "122202.004000", "122204.003000", "122206.503000", "122208.003000", "122210.003000", "122212.503000", "122214.504000", "122216.005000", "122218.005000", "122220.503000", "122222.504000", "122224.504000", "122226.504000", "122228.003000", "122230.003000", "122232.004000", "122234.005000", "122236.505000", "122238.003000", "122240.504000", "122242.504000", "122244.504000", "122246.504000", "122248.003000", "122250.004000", "122252.505000", "122254.505000", "122256.003000", "122258.004000", "122300.503000", "122302.504000", "122304.503000", "122306.504000", "122308.004000", "122310.504000", "122312.005000", "122314.003000", "122316.503000", "122318.003000", "122320.004000", "122322.503000", "122324.504000", "122326.504000", "122328.504000", "122330.504000", "122332.504000", "122334.504000", "122336.504000", "122338.504000", "122340.504000", "122342.003000", "122344.504000", "122346.505000", "122348.003000", "122350.504000", "122352.503000", "122354.503000", "122356.503000", "122358.503000", "122400.505000", "122402.504000", "122404.505000", "122406.504000", "122408.003000", "122410.004000", "122412.503000", "122414.003000", "122416.003000", "122418.504000", "122420.505000", "122422.503000", "122424.003000", "122426.503000", "122428.003000", "122430.504000", "122432.504000", "122434.504000", "122436.505000", "122438.505000", "122440.504000", "122442.503000", "122444.504000", "122446.004000", "122448.504000", "122450.504000", "122452.003000", "122454.005000", "122456.004000", "122458.503000", "122500.503000", "122502.503000", "122504.003000", "122506.504000", "122508.504000", "122510.004000", "122512.505000", "122514.505000", "122516.004000", "122518.004000", "122520.504000", "122522.504000", "122524.504000", "122526.504000", "122528.004000", "122530.004000", "122532.005000", "122534.004000", "122536.003000", "122538.004000", "122540.004000", "122542.504000", "122544.505000", "122546.505000", "122548.505000", "122550.003000", "122552.503000", "122554.504000", "122556.003000", "122558.004000", "122600.503000", "122602.005000", "122604.505000", "122606.005000", "122608.003000", "122610.504000", "122612.004000", "122614.504000", "122616.503000", "122618.003000", "122620.004000", "122622.004000", "122624.004000", "122626.004000", "122628.003000", "122630.004000", "122632.504000", "122634.504000", "122636.003000", "122638.504000", "122640.004000", "122642.504000", "122644.504000", "122646.504000", "122648.504000", "122650.503000", "122652.503000", "122654.505000", "122656.505000", "122658.504000", "122700.504000", "122702.003000", "122704.003000", "122706.003000", "122708.504000", "122710.504000", "122712.005000", "122714.020000", "122716.504000", "122718.504000", "122720.003000", "122722.004000", "122724.503000", "122726.004000", "122728.504000", "122730.505000", "122732.504000", "122734.005000", "122736.504000", "122738.504000", "122740.504000", "122742.504000", "122744.504000", "122746.004000", "122748.505000", "122750.505000", "122752.005000", "122754.004000", "122756.003000", "122758.504000", "122800.504000", "122802.004000", "122804.505000", "122806.004000", "122808.005000", "122810.003000", "122812.504000", "122814.003000", "122815.973000"],
      "InstanceNumber": [1, 2, 3, 4, 5, 6, 7, 8, 9, 10, 11, 12, 13, 14, 15, 16, 17, 18, 19, 20, 21, 22, 23, 24, 25, 26, 27, 28, 29, 30, 31, 32, 33, 34, 35, 36, 37, 38, 39, 40, 41, 42, 43, 44, 45, 46, 47, 48, 49, 50, 51, 52, 53, 54, 55, 56, 57, 58, 59, 60, 61, 62, 63, 64, 65, 66, 67, 68, 69, 70, 71, 72, 73, 74, 75, 76, 77, 78, 79, 80, 81, 82, 83, 84, 85, 86, 87, 88, 89, 90, 91, 92, 93, 94, 95, 96, 97, 98, 99, 100, 101, 102, 103, 104, 105, 106, 107, 108, 109, 110, 111, 112, 113, 114, 115, 116, 117, 118, 119, 120, 121, 122, 123, 124, 125, 126, 127, 128, 129, 130, 131, 132, 133, 134, 135, 136, 137, 138, 139, 140, 141, 142, 143, 144, 145, 146, 147, 148, 149, 150, 151, 152, 153, 154, 155, 156, 157, 158, 159, 160, 161, 162, 163, 164, 165, 166, 167, 168, 169, 170, 171, 172, 173, 174, 175, 176, 177, 178, 179, 180, 181, 182, 183, 184, 185, 186, 187, 188, 189, 190, 191, 192, 193, 194, 195, 196, 197, 198, 199, 200, 201, 202, 203, 204, 205, 206, 207, 208, 209, 210, 211, 212, 213, 214, 215, 216, 217, 218, 219, 220, 221, 222, 223, 224, 225, 226, 227, 228, 229, 230, 231, 232, 233, 234, 235, 236, 237, 238, 239, 240, 241],
      "LargestImagePixelValue": [3541, 3506, 3500, 3492, 3474, 3496, 3472, 3472, 3529, 3489, 3515, 3491, 3479, 3546, 3520, 3512, 3520, 3522, 3508, 3485, 3509, 3487, 3498, 3503, 3501, 3527, 3517, 3485, 3479, 3516, 3500, 3489, 3489, 3477, 3515, 3505, 3477, 3465, 3511, 3490, 3491, 3515, 3501, 3507, 3524, 3495, 3492, 3502, 3502, 3494, 3490, 3503, 3499, 3500, 3496, 3478, 3495, 3510, 3503, 3494, 3488, 3465, 3499, 3505, 3485, 3500, 3498, 3497, 3505, 3507, 3512, 3502, 3515, 3501, 3503, 3488, 3490, 3508, 3493, 3504, 3498, 3517, 3499, 3511, 3505, 3484, 3490, 3488, 3500, 3502, 3489, 3485, 3480, 3481, 3502, 3508, 3479, 3516, 3503, 3500, 3496, 3514, 3472, 3492, 3520, 3499, 3490, 3500, 3529, 3524, 3530, 3489, 3512, 3509, 3511, 3501, 3486, 3489, 3483, 3474, 3486, 3491, 3511, 3503, 3476, 3507, 3469, 3497, 3507, 3496, 3500, 3504, 3528, 3504, 3488, 3506, 3516, 3450, 3471, 3459, 3488, 3444, 3458, 3474, 3474, 3507, 3492, 3480, 3476, 3464, 3469, 3463, 3481, 3491, 3465, 3468, 3470, 3505, 3449, 3435, 3460, 3476, 3472, 3471, 3448, 3380, 3411, 3403, 3385, 3412, 3421, 3399, 3449, 3437, 3450, 3421, 3400, 3415, 3401, 3408, 3415, 3437, 3412, 3414, 3449, 3450, 3442, 3463, 3413, 3423, 3422, 3457, 3423, 3431, 3375, 3400, 3415, 3393, 3420, 3438, 3421, 3412, 3382, 3443, 3413, 3414, 3421, 3423, 3449, 3419, 3419, 3422, 3414, 3436, 3423, 3425, 3432, 3431, 3431, 3443, 3448, 3442, 3415, 3450, 3434, 3429, 3455, 3470, 3425, 3481, 3467, 3485, 3439, 3445, 3450, 3443, 3440, 3452, 3428, 3455, 3482],
      "WindowCenter": [843.0, 842.0, 842.0, 842.0, 841.0, 843.0, 843.0, 843.0, 844.0, 844.0, 843.0, 842.0, 841.0, 842.0, 843.0, 845.0, 844.0, 843.0, 841.0, 840.0, 840.0, 841.0, 843.0, 843.0, 843.0, 842.0, 841.0, 840.0, 840.0, 841.0, 841.0, 840.0, 840.0, 840.0, 842.0, 841.0, 840.0, 839.0, 839.0, 839.0, 840.0, 840.0, 840.0, 841.0, 840.0, 839.0, 838.0, 838.0, 840.0, 841.0, 840.0, 839.0, 840.0, 840.0, 839.0, 838.0, 839.0, 840.0, 839.0, 839.0, 839.0, 840.0, 840.0, 840.0, 839.0, 840.0, 840.0, 841.0, 841.0, 840.0, 840.0, 839.0, 840.0, 841.0, 841.0, 841.0, 840.0, 840.0, 841.0, 841.0, 840.0, 839.0, 840.0, 841.0, 841.0, 841.0, 841.0, 842.0, 841.0, 840.0, 838.0, 839.0, 841.0, 841.0, 841.0, 841.0, 841.0, 842.0, 842.0, 842.0, 842.0, 841.0, 840.0, 840.0, 840.0, 840.0, 841.0, 841.0, 841.0, 840.0, 840.0, 840.0, 841.0, 841.0, 841.0, 840.0, 840.0, 839.0, 839.0, 839.0, 840.0, 839.0, 838.0, 837.0, 839.0, 841.0, 842.0, 841.0, 840.0, 839.0, 841.0, 841.0, 841.0, 842.0, 842.0, 841.0, 840.0, 839.0, 838.0, 839.0, 839.0, 840.0, 840.0, 840.0, 841.0, 842.0, 844.0, 844.0, 841.0, 839.0, 838.0, 839.0, 841.0, 841.0, 841.0, 842.0, 842.0, 843.0, 844.0, 843.0, 842.0, 842.0, 842.0, 842.0, 842.0, 842.0, 842.0, 841.0, 840.0, 839.0, 840.0, 840.0, 841.0, 841.0, 842.0, 842.0, 842.0, 841.0, 840.0, 839.0, 839.0, 839.0, 840.0, 841.0, 841.0, 842.0, 842.0, 841.0, 841.0, 841.0, 842.0, 842.0, 841.0, 841.0, 840.0, 841.0, 841.0, 841.0, 841.0, 842.0, 842.0, 842.0, 841.0, 841.0, 841.0, 841.0, 843.0, 843.0, 843.0, 842.0, 841.0, 841.0, 841.0, 842.0, 843.0, 843.0, 842.0, 841.0, 840.0, 840.0, 841.0, 840.0, 839.0, 840.0, 840.0, 840.0, 840.0, 840.0, 840.0, 841.0, 842.0, 842.0, 841.0, 840.0, 840.0, 841.0, 841.0, 842.0, 842.0, 842.0, 841.0],
      "WindowWidth": [1807.0, 1804.0, 1804.0, 1803.0, 1802.0, 1806.0, 1807.0, 1808.0, 1810.0, 1810.0, 1808.0, 1806.0, 1803.0, 1806.0, 1807.0, 1812.0, 1811.0, 1807.0, 1803.0, 1801.0, 1801.0, 1803.0, 1808.0, 1807.0, 1807.0, 1806.0, 1804.0, 1800.0, 1800.0, 1802.0, 1803.0, 1801.0, 1800.0, 1801.0, 1805.0, 1804.0, 1799.0, 1796.0, 1797.0, 1799.0, 1800.0, 1801.0, 1801.0, 1803.0, 1801.0, 1798.0, 1796.0, 1796.0, 1800.0, 1802.0, 1801.0, 1798.0, 1801.0, 1801.0, 1798.0, 1796.0, 1798.0, 1800.0, 1798.0, 1799.0, 1798.0, 1799.0, 1800.0, 1801.0, 1799.0, 1799.0, 1800.0, 1802.0, 1802.0, 1800.0, 1800.0, 1799.0, 1801.0, 1802.0, 1802.0, 1802.0, 1800.0, 1801.0, 1802.0, 1803.0, 1799.0, 1798.0, 1800.0, 1803.0, 1802.0, 1802.0, 1804.0, 1805.0, 1802.0, 1798.0, 1794.0, 1797.0, 1802.0, 1803.0, 1803.0, 1803.0, 1803.0, 1805.0, 1805.0, 1804.0, 1804.0, 1803.0, 1801.0, 1801.0, 1801.0, 1801.0, 1803.0, 1803.0, 1804.0, 1801.0, 1800.0, 1801.0, 1802.0, 1803.0, 1804.0, 1801.0, 1798.0, 1798.0, 1796.0, 1796.0, 1798.0, 1797.0, 1796.0, 1793.0, 1798.0, 1804.0, 1804.0, 1803.0, 1801.0, 1799.0, 1802.0, 1804.0, 1805.0, 1804.0, 1804.0, 1802.0, 1800.0, 1796.0, 1796.0, 1796.0, 1798.0, 1800.0, 1800.0, 1801.0, 1802.0, 1806.0, 1811.0, 1811.0, 1804.0, 1798.0, 1796.0, 1798.0, 1803.0, 1805.0, 1804.0, 1805.0, 1806.0, 1809.0, 1810.0, 1808.0, 1806.0, 1806.0, 1805.0, 1805.0, 1806.0, 1804.0, 1805.0, 1802.0, 1799.0, 1799.0, 1799.0, 1801.0, 1802.0, 1802.0, 1805.0, 1806.0, 1805.0, 1802.0, 1799.0, 1797.0, 1797.0, 1798.0, 1801.0, 1803.0, 1803.0, 1805.0, 1805.0, 1803.0, 1803.0, 1802.0, 1804.0, 1806.0, 1803.0, 1802.0, 1800.0, 1802.0, 1802.0, 1802.0, 1802.0, 1804.0, 1805.0, 1806.0, 1803.0, 1802.0, 1801.0, 1802.0, 1806.0, 1806.0, 1806.0, 1804.0, 1801.0, 1801.0, 1803.0, 1804.0, 1806.0, 1806.0, 1804.0, 1802.0, 1800.0, 1800.0, 1801.0, 1799.0, 1798.0, 1798.0, 1799.0, 1800.0, 1800.0, 1800.0, 1801.0, 1803.0, 1803.0, 1804.0, 1801.0, 1798.0, 1800.0, 1801.0, 1802.0, 1804.0, 1804.0, 1804.0, 1802.0]
    },
    "slices": {}
  }
}