{
  "AcquisitionMatrixPE": 100,
  "AcquisitionNumber": 1,
  "AcquisitionTime": "12:11:20.945000",
  "BandwidthPerPixelPhaseEncode": 18.519,
  "BaseResolution": 100,
  "BodyPartExamined": "BRAIN",
  "ConsistencyInfo": "N4_VE11C_LATEST_20160120",
  "ConversionSoftware": "dcm2niix",
  "ConversionSoftwareVersion": "v1.0.20180622 GCC4.9.2",
  "DerivedVendorReportedEchoSpacing": 0.000539986,
  "DeviceSerialNumber": "166078",
  "DwellTime": 2.1e-06,
  "EchoTime": 0.034,
  "EchoTrainLength": 100,
  "EffectiveEchoSpacing": 0.000539986,
  "FlipAngle": 90,
  "ImageOrientationPatientDICOM": [1, 0, 0, 0, 0.974761, -0.22325],
  "ImageType": [
    "ORIGINAL",
    "PRIMARY",
    "M",
    "ND",
    "MOSAIC"
],
  "InPlanePhaseEncodingDirectionDICOM": "COL",
  "InstitutionAddress": "Street_StreetNo_Bei_Jing_District_CN_ZIP",
  "InstitutionName": "BeiJing_Normal_University",
  "InstitutionalDepartmentName": "Department",
  "MRAcquisitionType": "2D",
  "MagneticFieldStrength": 3,
  "Manufacturer": "Siemens",
  "ManufacturersModelName": "Prisma",
  "Modality": "MR",
  "MultibandAccelerationFactor": 3,
  "PartialFourier": 1,
  "PatientPosition": "HFS",
  "PercentPhaseFOV": 100,
  "PhaseEncodingDirection": "j-",
  "PhaseEncodingSteps": 100,
  "PhaseResolution": 1,
  "PixelBandwidth": 2380,
  "ProcedureStepDescription": "BNU_P2018_64CH_Zhen.ZongLei",
  "ProtocolName": "bold_100x100_s3_2x2x2_static_test_241",
  "PulseSequenceDetails": "%SiemensSeq%_ep2d_bold",
  "ReceiveCoilActiveElements": "HC1-7;NC1",
  "ReceiveCoilName": "HeadNeck_64",
  "ReconMatrixPE": 100,
  "RepetitionTime": 2,
  "SAR": 0.0874073,
  "ScanOptions": "FS",
  "ScanningSequence": "EP",
  "SequenceName": "_epfid2d1_100",
  "SequenceVariant": "SK",
  "SeriesDescription": "bold_100x100_s3_2x2x2_static_test_241",
  "SeriesNumber": 13,
  "ShimSetting": [-5453, -11475, -1269, 418, 14, -109, -155, 53],
  "SliceThickness": 2,
  "SliceTiming": [1.485, 0, 0.99, 0.0825, 1.0725, 0.165, 1.155, 0.2475, 1.2375, 0.33, 1.32, 0.4125, 1.4025, 0.5775, 1.5675, 0.66, 1.65, 0.7425, 1.7325, 0.825, 1.815, 0.9075, 1.8975, 0.495, 1.485, 0, 0.99, 0.0825, 1.0725, 0.165, 1.155, 0.2475, 1.2375, 0.33, 1.32, 0.4125, 1.4025, 0.5775, 1.5675, 0.66, 1.65, 0.7425, 1.7325, 0.825, 1.815, 0.9075, 1.8975, 0.495, 1.485, 0, 0.99, 0.0825, 1.0725, 0.165, 1.155, 0.2475, 1.2375, 0.33, 1.32, 0.4125, 1.4025, 0.5775, 1.5675, 0.66, 1.65, 0.7425, 1.7325, 0.825, 1.815, 0.9075, 1.8975, 0.495],
  "SoftwareVersions": "syngo_MR_E11",
  "SpacingBetweenSlices": 2,
  "StationName": "AWP166078",
  "TaskName": "naturalvision2",
  "TotalReadoutTime": 0.0534586,
  "TxRefAmp": 233.327,
  "dcmmeta_affine": [
    [-2.0, 0.0, 0.0, 100.67469787597656],
    [0.0, 1.9495223760604858, -0.4465002119541168, -77.77222442626953],
    [0.0, 0.4465002119541168, 1.9495223760604858, -96.25282287597656],
    [0.0, 0.0, 0.0, 1.0]
],
  "dcmmeta_reorient_transform": [
    [0.0, -1.0, 0.0, 99.0],
    [1.0, 0.0, 0.0, 0.0],
    [0.0, 0.0, 1.0, 0.0],
    [0.0, 0.0, 0.0, 1.0]
],
  "dcmmeta_shape": [100, 100, 72, 241],
  "dcmmeta_slice_dim": 2,
  "dcmmeta_version": 0.6,
  "global": {
    "const": {
      "AcquisitionMatrix": [100, 0, 0, 100],
      "AngioFlag": "N",
      "BitsAllocated": 16,
      "BitsStored": 12,
      "BodyPartExamined": "BRAIN",
      "Columns": 900,
      "EchoNumbers": 1,
      "EchoTime": 34.0,
      "EchoTrainLength": 100,
      "FlipAngle": 90.0,
      "HighBit": 11,
      "ImageOrientationPatient": [1.0, 0.0, 0.0, 0.0, 0.9747611962791, -0.2232501068948],
      "ImagePositionPatient": [-900.67469877005, -895.0394502016, 126.55078285083],
      "ImageType": [
        "ORIGINAL",
        "PRIMARY",
        "M",
        "ND",
        "MOSAIC"
],
      "ImagedNucleus": "1H",
      "ImagingFrequency": 123.257777,
      "InPlanePhaseEncodingDirection": "COL",
      "MRAcquisitionType": "2D",
      "MagneticFieldStrength": 3.0,
      "Manufacturer": "SIEMENS",
      "ManufacturerModelName": "Prisma",
      "Modality": "MR",
      "NumberOfAverages": 1.0,
      "NumberOfPhaseEncodingSteps": 100,
      "PercentPhaseFieldOfView": 100.0,
      "PercentSampling": 100.0,
      "PerformedProcedureStepStartTime": "105223.445000",
      "PhotometricInterpretation": "MONOCHROME2",
      "PixelBandwidth": 2380.0,
      "PixelRepresentation": 0,
      "PixelSpacing": [2.0, 2.0],
      "ProtocolName": "bold_100x100_s3_2x2x2_static_test_241",
      "RepetitionTime": 2000.0,
      "Rows": 900,
      "SAR": 0.08740728806732,
      "SamplesPerPixel": 1,
      "ScanOptions": "FS",
      "ScanningSequence": "EP",
      "SequenceName": "*epfid2d1_100",
      "SequenceVariant": "SK",
      "SeriesDescription": "bold_100x100_s3_2x2x2_static_test_241",
      "SeriesNumber": 13,
      "SeriesTime": "121123.339000",
      "SliceLocation": -76.460860450842,
      "SliceThickness": 2.0,
      "SmallestImagePixelValue": 0,
      "SoftwareVersions": "syngo MR E11",
      "SpacingBetweenSlices": 2.0000000341638,
      "SpecificCharacterSet": "ISO_IR 100",
      "StudyID": "1",
      "StudyTime": "105223.381000",
      "TransmitCoilName": "Body",
      "VariableFlipAngleFlag": "N",
      "WindowCenterWidthExplanation": "Algo1",
      "dBdt": 0.0},
    "slices": {}
  },
  "time": {
    "samples": {
      "AcquisitionNumber": [1, 2, 3, 4, 5, 6, 7, 8, 9, 10, 11, 12, 13, 14, 15, 16, 17, 18, 19, 20, 21, 22, 23, 24, 25, 26, 27, 28, 29, 30, 31, 32, 33, 34, 35, 36, 37, 38, 39, 40, 41, 42, 43, 44, 45, 46, 47, 48, 49, 50, 51, 52, 53, 54, 55, 56, 57, 58, 59, 60, 61, 62, 63, 64, 65, 66, 67, 68, 69, 70, 71, 72, 73, 74, 75, 76, 77, 78, 79, 80, 81, 82, 83, 84, 85, 86, 87, 88, 89, 90, 91, 92, 93, 94, 95, 96, 97, 98, 99, 100, 101, 102, 103, 104, 105, 106, 107, 108, 109, 110, 111, 112, 113, 114, 115, 116, 117, 118, 119, 120, 121, 122, 123, 124, 125, 126, 127, 128, 129, 130, 131, 132, 133, 134, 135, 136, 137, 138, 139, 140, 141, 142, 143, 144, 145, 146, 147, 148, 149, 150, 151, 152, 153, 154, 155, 156, 157, 158, 159, 160, 161, 162, 163, 164, 165, 166, 167, 168, 169, 170, 171, 172, 173, 174, 175, 176, 177, 178, 179, 180, 181, 182, 183, 184, 185, 186, 187, 188, 189, 190, 191, 192, 193, 194, 195, 196, 197, 198, 199, 200, 201, 202, 203, 204, 205, 206, 207, 208, 209, 210, 211, 212, 213, 214, 215, 216, 217, 218, 219, 220, 221, 222, 223, 224, 225, 226, 227, 228, 229, 230, 231, 232, 233, 234, 235, 236, 237, 238, 239, 240, 241],
      "AcquisitionTime": ["121120.945000", "121122.945000", "121124.945000", "121126.945000", "121128.945000", "121130.945000", "121132.945000", "121134.945000", "121136.945000", "121138.945000", "121140.945000", "121142.945000", "121144.945000", "121146.945000", "121148.945000", "121150.945000", "121152.945000", "121154.945000", "121156.945000", "121158.945000", "121200.945000", "121202.945000", "121204.945000", "121206.945000", "121208.945000", "121210.945000", "121212.945000", "121214.945000", "121216.945000", "121218.945000", "121220.945000", "121222.945000", "121224.945000", "121226.945000", "121228.945000", "121230.945000", "121232.945000", "121234.945000", "121236.945000", "121238.945000", "121240.945000", "121242.945000", "121244.945000", "121246.945000", "121248.945000", "121250.945000", "121252.945000", "121254.945000", "121256.945000", "121258.945000", "121300.945000", "121302.945000", "121304.945000", "121306.945000", "121308.945000", "121310.945000", "121312.945000", "121314.945000", "121316.945000", "121318.945000", "121320.945000", "121322.945000", "121324.945000", "121326.945000", "121328.945000", "121330.945000", "121332.945000", "121334.945000", "121336.945000", "121338.945000", "121340.945000", "121342.945000", "121344.945000", "121346.945000", "121348.945000", "121350.945000", "121352.945000", "121354.945000", "121356.945000", "121358.945000", "121400.945000", "121402.945000", "121404.945000", "121406.945000", "121408.945000", "121410.945000", "121412.945000", "121414.945000", "121416.945000", "121418.945000", "121420.945000", "121422.945000", "121424.945000", "121426.945000", "121428.945000", "121430.945000", "121432.945000", "121434.945000", "121436.945000", "121438.945000", "121440.945000", "121442.945000", "121444.945000", "121446.945000", "121448.945000", "121450.945000", "121452.945000", "121454.945000", "121456.945000", "121458.945000", "121500.945000", "121502.945000", "121504.945000", "121506.945000", "121508.945000", "121510.945000", "121512.945000", "121514.945000", "121516.945000", "121518.945000", "121520.945000", "121522.945000", "121524.945000", "121526.945000", "121528.945000", "121530.945000", "121532.945000", "121534.945000", "121536.945000", "121538.945000", "121540.945000", "121542.945000", "121544.945000", "121546.945000", "121548.945000", "121550.945000", "121552.945000", "121554.945000", "121556.945000", "121558.945000", "121600.945000", "121602.945000", "121604.945000", "121606.945000", "121608.945000", "121610.945000", "121612.945000", "121614.945000", "121616.945000", "121618.945000", "121620.945000", "121622.945000", "121624.945000", "121626.945000", "121628.945000", "121630.945000", "121632.945000", "121634.945000", "121636.945000", "121638.945000", "121640.945000", "121642.945000", "121644.945000", "121646.945000", "121648.945000", "121650.945000", "121652.945000", "121654.945000", "121656.945000", "121658.945000", "121700.945000", "121702.945000", "121704.945000", "121706.945000", "121708.945000", "121710.945000", "121712.945000", "121714.945000", "121716.945000", "121718.945000", "121720.945000", "121722.945000", "121724.945000", "121726.945000", "121728.945000", "121730.945000", "121732.945000", "121734.945000", "121736.945000", "121738.945000", "121740.945000", "121742.945000", "121744.945000", "121746.945000", "121748.945000", "121750.945000", "121752.945000", "121754.945000", "121756.945000", "121758.945000", "121800.945000", "121802.945000", "121804.945000", "121806.945000", "121808.945000", "121810.945000", "121812.945000", "121814.945000", "121816.945000", "121818.945000", "121820.945000", "121822.945000", "121824.945000", "121826.945000", "121828.945000", "121830.945000", "121832.945000", "121834.945000", "121836.945000", "121838.945000", "121840.945000", "121842.945000", "121844.945000", "121846.945000", "121848.945000", "121850.945000", "121852.945000", "121854.945000", "121856.945000", "121858.945000", "121900.945000", "121902.945000", "121904.945000", "121906.945000", "121908.945000", "121910.945000", "121912.945000", "121914.945000", "121916.945000", "121918.945000", "121920.945000"],
      "ContentTime": ["121123.343000", "121124.838000", "121126.839000", "121128.838000", "121130.839000", "121132.838000", "121134.839000", "121136.838000", "121138.838000", "121140.839000", "121142.838000", "121144.839000", "121146.838000", "121148.838000", "121150.839000", "121152.839000", "121154.839000", "121156.838000", "121158.838000", "121200.839000", "121202.839000", "121204.838000", "121206.838000", "121208.838000", "121210.838000", "121212.838000", "121214.838000", "121216.838000", "121218.838000", "121220.838000", "121222.838000", "121224.839000", "121226.838000", "121228.838000", "121230.839000", "121232.839000", "121234.838000", "121236.839000", "121238.838000", "121240.839000", "121242.838000", "121244.839000", "121246.838000", "121248.839000", "121250.838000", "121252.839000", "121254.839000", "121256.839000", "121259.338000", "121300.838000", "121302.838000", "121304.839000", "121306.838000", "121308.838000", "121310.838000", "121312.840000", "121314.838000", "121316.839000", "121318.838000", "121320.838000", "121322.839000", "121324.838000", "121326.838000", "121328.838000", "121330.838000", "121332.838000", "121334.838000", "121336.838000", "121338.839000", "121340.838000", "121342.839000", "121344.838000", "121346.838000", "121348.838000", "121350.839000", "121352.839000", "121354.838000", "121356.839000", "121358.839000", "121400.839000", "121402.838000", "121404.838000", "121406.838000", "121408.839000", "121410.839000", "121412.838000", "121414.838000", "121416.839000", "121418.839000", "121420.838000", "121422.839000", "121424.838000", "121426.839000", "121428.838000", "121430.839000", "121432.839000", "121434.839000", "121436.838000", "121438.838000", "121440.838000", "121442.839000", "121444.838000", "121446.839000", "121448.838000", "121450.838000", "121452.838000", "121454.838000", "121456.839000", "121458.839000", "121500.838000", "121502.839000", "121504.838000", "121506.839000", "121508.838000", "121510.838000", "121512.838000", "121514.839000", "121516.839000", "121518.838000", "121520.838000", "121522.838000", "121524.839000", "121526.839000", "121528.838000", "121530.838000", "121532.839000", "121534.839000", "121536.838000", "121538.838000", "121540.838000", "121542.839000", "121544.838000", "121546.839000", "121548.839000", "121550.838000", "121552.838000", "121554.838000", "121556.839000", "121558.839000", "121600.838000", "121602.838000", "121604.838000", "121606.839000", "121608.839000", "121610.839000", "121612.838000", "121614.839000", "121616.838000", "121618.839000", "121620.839000", "121622.839000", "121624.839000", "121626.839000", "121628.839000", "121630.839000", "121632.838000", "121634.838000", "121636.838000", "121638.839000", "121640.838000", "121642.839000", "121644.839000", "121646.839000", "121648.839000", "121650.839000", "121652.847000", "121654.838000", "121656.838000", "121658.838000", "121700.838000", "121702.839000", "121704.838000", "121706.838000", "121708.838000", "121710.839000", "121712.839000", "121714.839000", "121716.838000", "121719.338000", "121720.839000", "121722.839000", "121724.839000", "121726.839000", "121728.838000", "121730.838000", "121732.838000", "121734.838000", "121736.839000", "121738.839000", "121740.838000", "121742.839000", "121744.839000", "121746.839000", "121748.839000", "121751.339000", "121752.840000", "121754.838000", "121756.838000", "121758.839000", "121800.838000", "121802.839000", "121804.839000", "121806.838000", "121808.838000", "121810.838000", "121812.839000", "121814.839000", "121816.838000", "121818.839000", "121820.839000", "121822.839000", "121824.839000", "121826.839000", "121828.838000", "121830.838000", "121832.838000", "121834.839000", "121836.838000", "121838.838000", "121840.839000", "121842.838000", "121844.839000", "121846.839000", "121848.839000", "121850.838000", "121852.839000", "121854.839000", "121856.839000", "121858.838000", "121900.838000", "121902.839000", "121904.838000", "121906.839000", "121908.838000", "121910.838000", "121912.839000", "121914.839000", "121916.838000", "121918.838000", "121920.838000", "121922.765000"],
      "InstanceCreationTime": ["121123.343000", "121124.838000", "121126.839000", "121128.838000", "121130.839000", "121132.838000", "121134.839000", "121136.838000", "121138.838000", "121140.839000", "121142.838000", "121144.839000", "121146.838000", "121148.838000", "121150.839000", "121152.839000", "121154.839000", "121156.838000", "121158.838000", "121200.839000", "121202.839000", "121204.838000", "121206.838000", "121208.838000", "121210.838000", "121212.838000", "121214.838000", "121216.838000", "121218.838000", "121220.838000", "121222.838000", "121224.839000", "121226.838000", "121228.838000", "121230.839000", "121232.839000", "121234.838000", "121236.839000", "121238.838000", "121240.839000", "121242.838000", "121244.839000", "121246.838000", "121248.839000", "121250.838000", "121252.839000", "121254.839000", "121256.839000", "121259.338000", "121300.838000", "121302.838000", "121304.839000", "121306.838000", "121308.838000", "121310.838000", "121312.840000", "121314.838000", "121316.839000", "121318.838000", "121320.838000", "121322.839000", "121324.838000", "121326.838000", "121328.838000", "121330.838000", "121332.838000", "121334.838000", "121336.838000", "121338.839000", "121340.838000", "121342.839000", "121344.838000", "121346.838000", "121348.838000", "121350.839000", "121352.839000", "121354.838000", "121356.839000", "121358.839000", "121400.839000", "121402.838000", "121404.838000", "121406.838000", "121408.839000", "121410.839000", "121412.838000", "121414.838000", "121416.839000", "121418.839000", "121420.838000", "121422.839000", "121424.838000", "121426.839000", "121428.838000", "121430.839000", "121432.839000", "121434.839000", "121436.838000", "121438.838000", "121440.838000", "121442.839000", "121444.838000", "121446.839000", "121448.838000", "121450.838000", "121452.838000", "121454.838000", "121456.839000", "121458.839000", "121500.838000", "121502.839000", "121504.838000", "121506.839000", "121508.838000", "121510.838000", "121512.838000", "121514.839000", "121516.839000", "121518.838000", "121520.838000", "121522.838000", "121524.839000", "121526.839000", "121528.838000", "121530.838000", "121532.839000", "121534.839000", "121536.838000", "121538.838000", "121540.838000", "121542.839000", "121544.838000", "121546.839000", "121548.839000", "121550.838000", "121552.838000", "121554.838000", "121556.839000", "121558.839000", "121600.838000", "121602.838000", "121604.838000", "121606.839000", "121608.839000", "121610.839000", "121612.838000", "121614.839000", "121616.838000", "121618.839000", "121620.839000", "121622.839000", "121624.839000", "121626.839000", "121628.839000", "121630.839000", "121632.838000", "121634.838000", "121636.838000", "121638.839000", "121640.838000", "121642.839000", "121644.839000", "121646.839000", "121648.839000", "121650.839000", "121652.847000", "121654.838000", "121656.838000", "121658.838000", "121700.838000", "121702.839000", "121704.838000", "121706.838000", "121708.838000", "121710.839000", "121712.839000", "121714.839000", "121716.838000", "121719.338000", "121720.839000", "121722.839000", "121724.839000", "121726.839000", "121728.838000", "121730.838000", "121732.838000", "121734.838000", "121736.839000", "121738.839000", "121740.838000", "121742.839000", "121744.839000", "121746.839000", "121748.839000", "121751.339000", "121752.840000", "121754.838000", "121756.838000", "121758.839000", "121800.838000", "121802.839000", "121804.839000", "121806.838000", "121808.838000", "121810.838000", "121812.839000", "121814.839000", "121816.838000", "121818.839000", "121820.839000", "121822.839000", "121824.839000", "121826.839000", "121828.838000", "121830.838000", "121832.838000", "121834.839000", "121836.838000", "121838.838000", "121840.839000", "121842.838000", "121844.839000", "121846.839000", "121848.839000", "121850.838000", "121852.839000", "121854.839000", "121856.839000", "121858.838000", "121900.838000", "121902.839000", "121904.838000", "121906.839000", "121908.838000", "121910.838000", "121912.839000", "121914.839000", "121916.838000", "121918.838000", "121920.838000", "121922.765000"],
      "InstanceNumber": [1, 2, 3, 4, 5, 6, 7, 8, 9, 10, 11, 12, 13, 14, 15, 16, 17, 18, 19, 20, 21, 22, 23, 24, 25, 26, 27, 28, 29, 30, 31, 32, 33, 34, 35, 36, 37, 38, 39, 40, 41, 42, 43, 44, 45, 46, 47, 48, 49, 50, 51, 52, 53, 54, 55, 56, 57, 58, 59, 60, 61, 62, 63, 64, 65, 66, 67, 68, 69, 70, 71, 72, 73, 74, 75, 76, 77, 78, 79, 80, 81, 82, 83, 84, 85, 86, 87, 88, 89, 90, 91, 92, 93, 94, 95, 96, 97, 98, 99, 100, 101, 102, 103, 104, 105, 106, 107, 108, 109, 110, 111, 112, 113, 114, 115, 116, 117, 118, 119, 120, 121, 122, 123, 124, 125, 126, 127, 128, 129, 130, 131, 132, 133, 134, 135, 136, 137, 138, 139, 140, 141, 142, 143, 144, 145, 146, 147, 148, 149, 150, 151, 152, 153, 154, 155, 156, 157, 158, 159, 160, 161, 162, 163, 164, 165, 166, 167, 168, 169, 170, 171, 172, 173, 174, 175, 176, 177, 178, 179, 180, 181, 182, 183, 184, 185, 186, 187, 188, 189, 190, 191, 192, 193, 194, 195, 196, 197, 198, 199, 200, 201, 202, 203, 204, 205, 206, 207, 208, 209, 210, 211, 212, 213, 214, 215, 216, 217, 218, 219, 220, 221, 222, 223, 224, 225, 226, 227, 228, 229, 230, 231, 232, 233, 234, 235, 236, 237, 238, 239, 240, 241],
      "LargestImagePixelValue": [3511, 3439, 3435, 3447, 3415, 3391, 3367, 3385, 3422, 3392, 3409, 3444, 3437, 3390, 3394, 3370, 3405, 3391, 3395, 3408, 3418, 3409, 3417, 3413, 3384, 3421, 3408, 3403, 3395, 3404, 3439, 3480, 3426, 3432, 3410, 3400, 3443, 3417, 3430, 3442, 3414, 3399, 3445, 3396, 3358, 3379, 3404, 3414, 3425, 3433, 3421, 3406, 3456, 3440, 3425, 3430, 3435, 3403, 3373, 3420, 3402, 3425, 3421, 3413, 3430, 3439, 3463, 3451, 3439, 3446, 3465, 3464, 3427, 3435, 3427, 3449, 3408, 3409, 3451, 3425, 3461, 3440, 3414, 3432, 3446, 3451, 3435, 3417, 3420, 3431, 3409, 3413, 3471, 3417, 3439, 3417, 3456, 3446, 3419, 3455, 3443, 3430, 3445, 3457, 3454, 3444, 3442, 3460, 3431, 3482, 3429, 3463, 3434, 3459, 3463, 3458, 3479, 3489, 3487, 3491, 3444, 3431, 3473, 3472, 3493, 3482, 3445, 3411, 3440, 3419, 3428, 3429, 3441, 3459, 3446, 3446, 3456, 3454, 3445, 3419, 3480, 3462, 3454, 3455, 3460, 3456, 3459, 3473, 3461, 3440, 3446, 3426, 3444, 3422, 3470, 3469, 3476, 3479, 3428, 3454, 3496, 3484, 3476, 3451, 3477, 3487, 3482, 3451, 3512, 3458, 3462, 3469, 3457, 3474, 3455, 3484, 3446, 3456, 3460, 3480, 3439, 3434, 3464, 3446, 3455, 3460, 3467, 3472, 3461, 3476, 3485, 3465, 3453, 3430, 3472, 3487, 3470, 3500, 3481, 3509, 3488, 3518, 3516, 3488, 3489, 3510, 3489, 3510, 3505, 3485, 3456, 3471, 3466, 3510, 3476, 3478, 3479, 3503, 3471, 3492, 3491, 3492, 3523, 3524, 3506, 3529, 3514, 3532, 3503, 3542, 3584, 3554, 3544, 3558, 3540, 3548, 3557, 3551, 3551, 3563, 3557],
      "WindowCenter": [846.0, 844.0, 843.0, 843.0, 844.0, 844.0, 844.0, 843.0, 844.0, 843.0, 844.0, 845.0, 844.0, 843.0, 844.0, 845.0, 845.0, 844.0, 843.0, 842.0, 843.0, 844.0, 845.0, 844.0, 843.0, 842.0, 842.0, 842.0, 843.0, 843.0, 843.0, 843.0, 843.0, 843.0, 842.0, 842.0, 843.0, 843.0, 843.0, 843.0, 843.0, 844.0, 844.0, 843.0, 843.0, 843.0, 841.0, 842.0, 843.0, 845.0, 845.0, 845.0, 844.0, 844.0, 843.0, 844.0, 844.0, 843.0, 842.0, 842.0, 842.0, 843.0, 844.0, 844.0, 845.0, 845.0, 844.0, 843.0, 842.0, 843.0, 844.0, 844.0, 843.0, 843.0, 844.0, 845.0, 844.0, 844.0, 844.0, 844.0, 843.0, 843.0, 843.0, 844.0, 843.0, 843.0, 843.0, 843.0, 843.0, 845.0, 845.0, 845.0, 843.0, 842.0, 843.0, 845.0, 845.0, 844.0, 843.0, 844.0, 845.0, 844.0, 844.0, 843.0, 843.0, 844.0, 844.0, 843.0, 844.0, 844.0, 843.0, 842.0, 842.0, 843.0, 843.0, 843.0, 842.0, 842.0, 843.0, 844.0, 844.0, 843.0, 843.0, 842.0, 842.0, 841.0, 841.0, 843.0, 844.0, 844.0, 843.0, 842.0, 843.0, 845.0, 845.0, 843.0, 843.0, 842.0, 843.0, 843.0, 842.0, 842.0, 842.0, 844.0, 844.0, 843.0, 842.0, 842.0, 843.0, 844.0, 843.0, 842.0, 841.0, 842.0, 843.0, 843.0, 842.0, 842.0, 842.0, 843.0, 842.0, 843.0, 843.0, 844.0, 844.0, 843.0, 843.0, 843.0, 845.0, 844.0, 843.0, 842.0, 842.0, 842.0, 843.0, 843.0, 842.0, 842.0, 843.0, 844.0, 844.0, 844.0, 845.0, 846.0, 844.0, 842.0, 842.0, 842.0, 843.0, 843.0, 842.0, 842.0, 840.0, 841.0, 842.0, 843.0, 843.0, 842.0, 842.0, 842.0, 842.0, 842.0, 842.0, 842.0, 842.0, 842.0, 842.0, 843.0, 842.0, 842.0, 842.0, 842.0, 841.0, 841.0, 841.0, 842.0, 843.0, 843.0, 843.0, 843.0, 844.0, 844.0, 844.0, 843.0, 843.0, 841.0, 841.0, 841.0, 841.0, 842.0, 842.0, 841.0, 841.0, 842.0, 843.0, 844.0, 843.0, 842.0, 842.0, 845.0, 845.0],
      "WindowWidth": [1815.0, 1808.0, 1806.0, 1807.0, 1810.0, 1810.0, 1809.0, 1808.0, 1809.0, 1808.0, 1810.0, 1813.0, 1811.0, 1808.0, 1809.0, 1813.0, 1812.0, 1810.0, 1808.0, 1806.0, 1808.0, 1811.0, 1813.0, 1811.0, 1807.0, 1807.0, 1806.0, 1807.0, 1808.0, 1809.0, 1809.0, 1809.0, 1809.0, 1808.0, 1805.0, 1806.0, 1809.0, 1810.0, 1808.0, 1807.0, 1809.0, 1811.0, 1810.0, 1808.0, 1807.0, 1807.0, 1803.0, 1805.0, 1809.0, 1814.0, 1814.0, 1812.0, 1810.0, 1809.0, 1808.0, 1810.0, 1809.0, 1807.0, 1805.0, 1805.0, 1804.0, 1807.0, 1809.0, 1810.0, 1812.0, 1813.0, 1811.0, 1806.0, 1806.0, 1808.0, 1811.0, 1810.0, 1808.0, 1809.0, 1810.0, 1814.0, 1811.0, 1811.0, 1811.0, 1809.0, 1807.0, 1807.0, 1809.0, 1811.0, 1808.0, 1809.0, 1808.0, 1808.0, 1808.0, 1813.0, 1814.0, 1811.0, 1808.0, 1805.0, 1807.0, 1812.0, 1812.0, 1809.0, 1808.0, 1811.0, 1813.0, 1811.0, 1810.0, 1809.0, 1810.0, 1810.0, 1811.0, 1809.0, 1809.0, 1812.0, 1809.0, 1806.0, 1805.0, 1808.0, 1809.0, 1807.0, 1806.0, 1806.0, 1808.0, 1810.0, 1809.0, 1809.0, 1809.0, 1806.0, 1805.0, 1804.0, 1804.0, 1808.0, 1812.0, 1811.0, 1808.0, 1806.0, 1809.0, 1814.0, 1813.0, 1808.0, 1807.0, 1806.0, 1808.0, 1808.0, 1806.0, 1805.0, 1806.0, 1810.0, 1811.0, 1808.0, 1804.0, 1805.0, 1807.0, 1809.0, 1807.0, 1804.0, 1802.0, 1804.0, 1809.0, 1808.0, 1806.0, 1806.0, 1805.0, 1808.0, 1807.0, 1808.0, 1809.0, 1810.0, 1810.0, 1807.0, 1808.0, 1807.0, 1813.0, 1811.0, 1807.0, 1804.0, 1805.0, 1805.0, 1807.0, 1807.0, 1805.0, 1806.0, 1808.0, 1809.0, 1809.0, 1810.0, 1813.0, 1814.0, 1811.0, 1805.0, 1804.0, 1805.0, 1808.0, 1808.0, 1806.0, 1804.0, 1801.0, 1803.0, 1807.0, 1807.0, 1807.0, 1807.0, 1806.0, 1806.0, 1806.0, 1806.0, 1806.0, 1806.0, 1806.0, 1805.0, 1804.0, 1807.0, 1806.0, 1806.0, 1806.0, 1806.0, 1804.0, 1804.0, 1804.0, 1806.0, 1807.0, 1807.0, 1808.0, 1808.0, 1810.0, 1811.0, 1811.0, 1808.0, 1807.0, 1804.0, 1802.0, 1802.0, 1802.0, 1805.0, 1805.0, 1804.0, 1804.0, 1806.0, 1808.0, 1811.0, 1807.0, 1805.0, 1807.0, 1814.0, 1813.0]
    },
    "slices": {}
  }
}