{
 "AcquisitionMatrixPE": 100,
 "AcquisitionNumber": 1,
 "AcquisitionTime": "15:51:12.477500",
 "BandwidthPerPixelPhaseEncode": 18.519,
 "BaseResolution": 100,
 "BodyPartExamined": "BRAIN",
 "ConsistencyInfo": "N4_VE11C_LATEST_20160120",
 "ConversionSoftware": "dcm2niix",
 "ConversionSoftwareVersion": "v1.0.20180622 GCC4.9.2",
 "DerivedVendorReportedEchoSpacing": 0.000539986,
 "DeviceSerialNumber": "166078",
 "DwellTime": 2.1e-06,
 "EchoTime": 0.034,
 "EchoTrainLength": 100,
 "EffectiveEchoSpacing": 0.000539986,
 "FlipAngle": 90,
 "ImageOrientationPatientDICOM": [
  0.999864,
  -0.0133867,
  0.00958516,
  0.0139616,
  0.997937,
  -0.0626628
 ],
 "ImageType": [
  "ORIGINAL",
  "PRIMARY",
  "M",
  "ND",
  "MOSAIC"
 ],
 "InPlanePhaseEncodingDirectionDICOM": "COL",
 "InstitutionAddress": "Street_StreetNo_Bei_Jing_District_CN_ZIP",
 "InstitutionName": "BeiJing_Normal_University",
 "InstitutionalDepartmentName": "Department",
 "MRAcquisitionType": "2D",
 "MagneticFieldStrength": 3,
 "Manufacturer": "Siemens",
 "ManufacturersModelName": "Prisma",
 "Modality": "MR",
 "MultibandAccelerationFactor": 3,
 "PartialFourier": 1,
 "PatientPosition": "HFS",
 "PercentPhaseFOV": 100,
 "PhaseEncodingDirection": "j-",
 "PhaseEncodingSteps": 100,
 "PhaseResolution": 1,
 "PixelBandwidth": 2380,
 "ProcedureStepDescription": "BNU_P2018_64CH_Zhen.ZongLei",
 "ProtocolName": "bold_100x100_s3_2x2x2_cat_150",
 "PulseSequenceDetails": "%SiemensSeq%_ep2d_bold",
 "ReceiveCoilActiveElements": "HC1-7;NC1",
 "ReceiveCoilName": "HeadNeck_64",
 "ReconMatrixPE": 100,
 "RepetitionTime": 2,
 "SAR": 0.0722816,
 "ScanOptions": "FS",
 "ScanningSequence": "EP",
 "SequenceName": "_epfid2d1_100",
 "SequenceVariant": "SK",
 "SeriesDescription": "bold_100x100_s3_2x2x2_cat_150",
 "SeriesNumber": 13,
 "ShimSetting": [
  -5459,
  -11506,
  -1280,
  608,
  -4,
  -239,
  -16,
  57
 ],
 "SliceThickness": 2,
 "SliceTiming": [
  1.485,
  0,
  0.99,
  0.0825,
  1.0725,
  0.165,
  1.155,
  0.2475,
  1.2375,
  0.33,
  1.32,
  0.4125,
  1.4025,
  0.5775,
  1.5675,
  0.66,
  1.65,
  0.7425,
  1.7325,
  0.825,
  1.815,
  0.9075,
  1.8975,
  0.495,
  1.485,
  0,
  0.99,
  0.0825,
  1.0725,
  0.165,
  1.155,
  0.2475,
  1.2375,
  0.33,
  1.32,
  0.4125,
  1.4025,
  0.5775,
  1.5675,
  0.66,
  1.65,
  0.7425,
  1.7325,
  0.825,
  1.815,
  0.9075,
  1.8975,
  0.495,
  1.485,
  0,
  0.99,
  0.0825,
  1.0725,
  0.165,
  1.155,
  0.2475,
  1.2375,
  0.33,
  1.32,
  0.4125,
  1.4025,
  0.5775,
  1.5675,
  0.66,
  1.65,
  0.7425,
  1.7325,
  0.825,
  1.815,
  0.9075,
  1.8975,
  0.495
 ],
 "SoftwareVersions": "syngo_MR_E11",
 "SpacingBetweenSlices": 2,
 "StationName": "AWP166078",
 "TaskName": "floc",
 "TotalReadoutTime": 0.0534586,
 "TxRefAmp": 210.95,
 "dcmmeta_affine": [
  [
   -1.9997289180755615,
   0.027923252433538437,
   0.01745307445526123,
   97.99861907958984
  ],
  [
   0.02677343226969242,
   1.9958741664886475,
   -0.12557625770568848,
   -79.12895965576172
  ],
  [
   0.01917031966149807,
   0.12532559037208557,
   1.995977520942688,
   -77.33649444580078
  ],
  [
   0.0,
   0.0,
   0.0,
   1.0
  ]
 ],
 "dcmmeta_reorient_transform": [
  [
   0.0,
   -1.0,
   0.0,
   99.0
  ],
  [
   1.0,
   0.0,
   0.0,
   0.0
  ],
  [
   0.0,
   0.0,
   1.0,
   0.0
  ],
  [
   0.0,
   0.0,
   0.0,
   1.0
  ]
 ],
 "dcmmeta_shape": [
  100,
  100,
  72,
  150
 ],
 "dcmmeta_slice_dim": 2,
 "dcmmeta_version": 0.6,
 "global": {
  "const": {
   "AcquisitionMatrix": [
    100,
    0,
    0,
    100
   ],
   "AngioFlag": "N",
   "BitsAllocated": 16,
   "BitsStored": 12,
   "BodyPartExamined": "BRAIN",
   "Columns": 900,
   "EchoNumbers": 1,
   "EchoTime": 34.0,
   "EchoTrainLength": 100,
   "FlipAngle": 90.0,
   "HighBit": 11,
   "ImageOrientationPatient": [
    0.99986445108199,
    -0.0133867164992,
    0.00958515956505,
    0.01396162637604,
    0.99793709563415,
    -0.0626627971465
   ],
   "ImagePositionPatient": [
    -911.82388568827,
    -906.10289050738,
    -22.467148576603
   ],
   "ImageType": [
    "ORIGINAL",
    "PRIMARY",
    "M",
    "ND",
    "MOSAIC"
   ],
   "ImagedNucleus": "1H",
   "ImagingFrequency": 123.257767,
   "InPlanePhaseEncodingDirection": "COL",
   "MRAcquisitionType": "2D",
   "MagneticFieldStrength": 3.0,
   "Manufacturer": "SIEMENS",
   "ManufacturerModelName": "Prisma",
   "Modality": "MR",
   "NumberOfAverages": 1.0,
   "NumberOfPhaseEncodingSteps": 100,
   "PercentPhaseFieldOfView": 100.0,
   "PercentSampling": 100.0,
   "PerformedProcedureStepStartTime": "145752.075000",
   "PhotometricInterpretation": "MONOCHROME2",
   "PixelBandwidth": 2380.0,
   "PixelRepresentation": 0,
   "PixelSpacing": [
    2.0,
    2.0
   ],
   "ProtocolName": "bold_100x100_s3_2x2x2_cat_150",
   "RepetitionTime": 2000.0,
   "Rows": 900,
   "SAR": 0.07228158101174,
   "SamplesPerPixel": 1,
   "ScanOptions": "FS",
   "ScanningSequence": "EP",
   "SequenceName": "*epfid2d1_100",
   "SequenceVariant": "SK",
   "SeriesDescription": "bold_100x100_s3_2x2x2_cat_150",
   "SeriesNumber": 13,
   "SeriesTime": "155115.097000",
   "SliceLocation": -71.357399932637,
   "SliceThickness": 2.0,
   "SmallestImagePixelValue": 0,
   "SoftwareVersions": "syngo MR E11",
   "SpacingBetweenSlices": 2.0000000292461,
   "SpecificCharacterSet": "ISO_IR 100",
   "StudyID": "1",
   "StudyTime": "145751.984000",
   "TransmitCoilName": "Body",
   "VariableFlipAngleFlag": "N",
   "WindowCenterWidthExplanation": "Algo1",
   "dBdt": 0.0
  },
  "slices": {}
 },
 "time": {
  "samples": {
   "AcquisitionNumber": [
    1,
    2,
    3,
    4,
    5,
    6,
    7,
    8,
    9,
    10,
    11,
    12,
    13,
    14,
    15,
    16,
    17,
    18,
    19,
    20,
    21,
    22,
    23,
    24,
    25,
    26,
    27,
    28,
    29,
    30,
    31,
    32,
    33,
    34,
    35,
    36,
    37,
    38,
    39,
    40,
    41,
    42,
    43,
    44,
    45,
    46,
    47,
    48,
    49,
    50,
    51,
    52,
    53,
    54,
    55,
    56,
    57,
    58,
    59,
    60,
    61,
    62,
    63,
    64,
    65,
    66,
    67,
    68,
    69,
    70,
    71,
    72,
    73,
    74,
    75,
    76,
    77,
    78,
    79,
    80,
    81,
    82,
    83,
    84,
    85,
    86,
    87,
    88,
    89,
    90,
    91,
    92,
    93,
    94,
    95,
    96,
    97,
    98,
    99,
    100,
    101,
    102,
    103,
    104,
    105,
    106,
    107,
    108,
    109,
    110,
    111,
    112,
    113,
    114,
    115,
    116,
    117,
    118,
    119,
    120,
    121,
    122,
    123,
    124,
    125,
    126,
    127,
    128,
    129,
    130,
    131,
    132,
    133,
    134,
    135,
    136,
    137,
    138,
    139,
    140,
    141,
    142,
    143,
    144,
    145,
    146,
    147,
    148,
    149,
    150
   ],
   "AcquisitionTime": [
    "155112.477500",
    "155114.477500",
    "155116.477500",
    "155118.477500",
    "155120.477500",
    "155122.477500",
    "155124.477500",
    "155126.477500",
    "155128.477500",
    "155130.477500",
    "155132.477500",
    "155134.477500",
    "155136.477500",
    "155138.477500",
    "155140.477500",
    "155142.477500",
    "155144.477500",
    "155146.477500",
    "155148.477500",
    "155150.477500",
    "155152.477500",
    "155154.477500",
    "155156.477500",
    "155158.477500",
    "155200.477500",
    "155202.477500",
    "155204.477500",
    "155206.477500",
    "155208.477500",
    "155210.477500",
    "155212.477500",
    "155214.477500",
    "155216.477500",
    "155218.477500",
    "155220.477500",
    "155222.477500",
    "155224.477500",
    "155226.477500",
    "155228.477500",
    "155230.477500",
    "155232.477500",
    "155234.477500",
    "155236.477500",
    "155238.477500",
    "155240.477500",
    "155242.477500",
    "155244.477500",
    "155246.477500",
    "155248.477500",
    "155250.477500",
    "155252.477500",
    "155254.477500",
    "155256.477500",
    "155258.477500",
    "155300.477500",
    "155302.477500",
    "155304.477500",
    "155306.477500",
    "155308.477500",
    "155310.477500",
    "155312.477500",
    "155314.477500",
    "155316.477500",
    "155318.477500",
    "155320.477500",
    "155322.477500",
    "155324.477500",
    "155326.477500",
    "155328.477500",
    "155330.477500",
    "155332.477500",
    "155334.477500",
    "155336.477500",
    "155338.477500",
    "155340.477500",
    "155342.477500",
    "155344.477500",
    "155346.477500",
    "155348.477500",
    "155350.477500",
    "155352.477500",
    "155354.477500",
    "155356.477500",
    "155358.477500",
    "155400.477500",
    "155402.477500",
    "155404.477500",
    "155406.477500",
    "155408.477500",
    "155410.477500",
    "155412.477500",
    "155414.477500",
    "155416.477500",
    "155418.477500",
    "155420.477500",
    "155422.477500",
    "155424.477500",
    "155426.477500",
    "155428.477500",
    "155430.477500",
    "155432.477500",
    "155434.477500",
    "155436.477500",
    "155438.477500",
    "155440.477500",
    "155442.477500",
    "155444.477500",
    "155446.477500",
    "155448.477500",
    "155450.477500",
    "155452.477500",
    "155454.477500",
    "155456.477500",
    "155458.477500",
    "155500.477500",
    "155502.477500",
    "155504.477500",
    "155506.477500",
    "155508.477500",
    "155510.477500",
    "155512.477500",
    "155514.477500",
    "155516.477500",
    "155518.477500",
    "155520.477500",
    "155522.477500",
    "155524.477500",
    "155526.477500",
    "155528.477500",
    "155530.477500",
    "155532.477500",
    "155534.477500",
    "155536.477500",
    "155538.477500",
    "155540.477500",
    "155542.477500",
    "155544.477500",
    "155546.477500",
    "155548.477500",
    "155550.477500",
    "155552.477500",
    "155554.477500",
    "155556.477500",
    "155558.477500",
    "155600.477500",
    "155602.477500",
    "155604.477500",
    "155606.477500",
    "155608.477500",
    "155610.477500"
   ],
   "ContentTime": [
    "155115.101000",
    "155116.596000",
    "155118.595000",
    "155120.595000",
    "155122.596000",
    "155124.596000",
    "155127.095000",
    "155129.096000",
    "155130.597000",
    "155132.597000",
    "155134.595000",
    "155136.596000",
    "155138.595000",
    "155140.595000",
    "155142.596000",
    "155144.595000",
    "155146.596000",
    "155148.597000",
    "155151.096000",
    "155153.095000",
    "155155.096000",
    "155156.596000",
    "155158.595000",
    "155200.595000",
    "155202.595000",
    "155204.597000",
    "155206.596000",
    "155208.596000",
    "155210.595000",
    "155212.595000",
    "155214.595000",
    "155216.595000",
    "155218.596000",
    "155220.596000",
    "155222.596000",
    "155224.596000",
    "155227.096000",
    "155229.096000",
    "155230.595000",
    "155232.595000",
    "155234.595000",
    "155236.596000",
    "155238.596000",
    "155241.096000",
    "155242.596000",
    "155244.596000",
    "155246.595000",
    "155248.595000",
    "155251.095000",
    "155252.595000",
    "155255.096000",
    "155256.596000",
    "155258.596000",
    "155300.597000",
    "155302.595000",
    "155304.596000",
    "155306.596000",
    "155308.595000",
    "155310.595000",
    "155312.596000",
    "155314.597000",
    "155317.096000",
    "155318.597000",
    "155321.096000",
    "155322.595000",
    "155324.596000",
    "155326.595000",
    "155328.595000",
    "155330.596000",
    "155332.596000",
    "155334.596000",
    "155336.595000",
    "155338.596000",
    "155340.595000",
    "155342.595000",
    "155344.596000",
    "155346.595000",
    "155348.596000",
    "155350.597000",
    "155352.596000",
    "155354.596000",
    "155357.095000",
    "155358.595000",
    "155400.595000",
    "155402.595000",
    "155404.595000",
    "155407.096000",
    "155408.596000",
    "155410.596000",
    "155412.595000",
    "155414.595000",
    "155416.595000",
    "155418.595000",
    "155420.616000",
    "155422.596000",
    "155424.597000",
    "155426.596000",
    "155428.596000",
    "155430.595000",
    "155432.595000",
    "155434.595000",
    "155436.595000",
    "155438.595000",
    "155440.596000",
    "155442.596000",
    "155444.597000",
    "155446.595000",
    "155448.595000",
    "155451.095000",
    "155452.595000",
    "155454.596000",
    "155456.595000",
    "155458.596000",
    "155500.597000",
    "155502.597000",
    "155504.596000",
    "155507.096000",
    "155508.595000",
    "155510.596000",
    "155512.595000",
    "155514.595000",
    "155516.596000",
    "155518.596000",
    "155520.596000",
    "155523.095000",
    "155524.596000",
    "155527.096000",
    "155528.596000",
    "155530.596000",
    "155532.596000",
    "155534.596000",
    "155536.596000",
    "155538.614000",
    "155540.595000",
    "155542.595000",
    "155544.596000",
    "155546.596000",
    "155548.596000",
    "155550.597000",
    "155552.597000",
    "155554.596000",
    "155556.595000",
    "155558.595000",
    "155600.595000",
    "155603.096000",
    "155604.595000",
    "155606.595000",
    "155608.597000",
    "155611.097000",
    "155612.533000"
   ],
   "InstanceCreationTime": [
    "155115.101000",
    "155116.596000",
    "155118.595000",
    "155120.595000",
    "155122.596000",
    "155124.596000",
    "155127.095000",
    "155129.096000",
    "155130.597000",
    "155132.597000",
    "155134.595000",
    "155136.596000",
    "155138.595000",
    "155140.595000",
    "155142.596000",
    "155144.595000",
    "155146.596000",
    "155148.597000",
    "155151.096000",
    "155153.095000",
    "155155.096000",
    "155156.596000",
    "155158.595000",
    "155200.595000",
    "155202.595000",
    "155204.597000",
    "155206.596000",
    "155208.596000",
    "155210.595000",
    "155212.595000",
    "155214.595000",
    "155216.595000",
    "155218.596000",
    "155220.596000",
    "155222.596000",
    "155224.596000",
    "155227.096000",
    "155229.096000",
    "155230.595000",
    "155232.595000",
    "155234.595000",
    "155236.596000",
    "155238.596000",
    "155241.096000",
    "155242.596000",
    "155244.596000",
    "155246.595000",
    "155248.595000",
    "155251.095000",
    "155252.595000",
    "155255.096000",
    "155256.596000",
    "155258.596000",
    "155300.597000",
    "155302.595000",
    "155304.596000",
    "155306.596000",
    "155308.595000",
    "155310.595000",
    "155312.596000",
    "155314.597000",
    "155317.096000",
    "155318.597000",
    "155321.096000",
    "155322.595000",
    "155324.596000",
    "155326.595000",
    "155328.595000",
    "155330.596000",
    "155332.596000",
    "155334.596000",
    "155336.595000",
    "155338.596000",
    "155340.595000",
    "155342.595000",
    "155344.596000",
    "155346.595000",
    "155348.596000",
    "155350.597000",
    "155352.596000",
    "155354.596000",
    "155357.095000",
    "155358.595000",
    "155400.595000",
    "155402.595000",
    "155404.595000",
    "155407.096000",
    "155408.596000",
    "155410.596000",
    "155412.595000",
    "155414.595000",
    "155416.595000",
    "155418.595000",
    "155420.616000",
    "155422.596000",
    "155424.597000",
    "155426.596000",
    "155428.596000",
    "155430.595000",
    "155432.595000",
    "155434.595000",
    "155436.595000",
    "155438.595000",
    "155440.596000",
    "155442.596000",
    "155444.597000",
    "155446.595000",
    "155448.595000",
    "155451.095000",
    "155452.595000",
    "155454.596000",
    "155456.595000",
    "155458.596000",
    "155500.597000",
    "155502.597000",
    "155504.596000",
    "155507.096000",
    "155508.595000",
    "155510.596000",
    "155512.595000",
    "155514.595000",
    "155516.596000",
    "155518.596000",
    "155520.596000",
    "155523.095000",
    "155524.596000",
    "155527.096000",
    "155528.596000",
    "155530.596000",
    "155532.596000",
    "155534.596000",
    "155536.596000",
    "155538.614000",
    "155540.595000",
    "155542.595000",
    "155544.596000",
    "155546.596000",
    "155548.596000",
    "155550.597000",
    "155552.597000",
    "155554.596000",
    "155556.595000",
    "155558.595000",
    "155600.595000",
    "155603.096000",
    "155604.595000",
    "155606.595000",
    "155608.597000",
    "155611.097000",
    "155612.533000"
   ],
   "InstanceNumber": [
    1,
    2,
    3,
    4,
    5,
    6,
    7,
    8,
    9,
    10,
    11,
    12,
    13,
    14,
    15,
    16,
    17,
    18,
    19,
    20,
    21,
    22,
    23,
    24,
    25,
    26,
    27,
    28,
    29,
    30,
    31,
    32,
    33,
    34,
    35,
    36,
    37,
    38,
    39,
    40,
    41,
    42,
    43,
    44,
    45,
    46,
    47,
    48,
    49,
    50,
    51,
    52,
    53,
    54,
    55,
    56,
    57,
    58,
    59,
    60,
    61,
    62,
    63,
    64,
    65,
    66,
    67,
    68,
    69,
    70,
    71,
    72,
    73,
    74,
    75,
    76,
    77,
    78,
    79,
    80,
    81,
    82,
    83,
    84,
    85,
    86,
    87,
    88,
    89,
    90,
    91,
    92,
    93,
    94,
    95,
    96,
    97,
    98,
    99,
    100,
    101,
    102,
    103,
    104,
    105,
    106,
    107,
    108,
    109,
    110,
    111,
    112,
    113,
    114,
    115,
    116,
    117,
    118,
    119,
    120,
    121,
    122,
    123,
    124,
    125,
    126,
    127,
    128,
    129,
    130,
    131,
    132,
    133,
    134,
    135,
    136,
    137,
    138,
    139,
    140,
    141,
    142,
    143,
    144,
    145,
    146,
    147,
    148,
    149,
    150
   ],
   "LargestImagePixelValue": [
    2297,
    2257,
    2226,
    2240,
    2217,
    2268,
    2232,
    2250,
    2217,
    2336,
    2321,
    2289,
    2270,
    2284,
    2228,
    2229,
    2299,
    2199,
    2236,
    2242,
    2284,
    2258,
    2222,
    2296,
    2243,
    2245,
    2207,
    2218,
    2197,
    2227,
    2221,
    2247,
    2251,
    2300,
    2223,
    2167,
    2214,
    2220,
    2231,
    2217,
    2244,
    2213,
    2239,
    2246,
    2243,
    2262,
    2232,
    2232,
    2236,
    2267,
    2268,
    2295,
    2231,
    2220,
    2222,
    2259,
    2245,
    2263,
    2214,
    2233,
    2252,
    2257,
    2306,
    2278,
    2259,
    2227,
    2260,
    2241,
    2240,
    2228,
    2203,
    2198,
    2234,
    2231,
    2221,
    2224,
    2262,
    2210,
    2243,
    2254,
    2287,
    2208,
    2215,
    2216,
    2222,
    2285,
    2211,
    2220,
    2241,
    2234,
    2270,
    2202,
    2254,
    2213,
    2282,
    2255,
    2238,
    2214,
    2241,
    2221,
    2259,
    2200,
    2189,
    2205,
    2204,
    2201,
    2242,
    2237,
    2250,
    2223,
    2250,
    2233,
    2250,
    2245,
    2265,
    2248,
    2246,
    2263,
    2238,
    2374,
    2255,
    2238,
    2255,
    2263,
    2252,
    2278,
    2290,
    2274,
    2273,
    2289,
    2269,
    2251,
    2279,
    2289,
    2231,
    2280,
    2249,
    2274,
    2279,
    2280,
    2255,
    2244,
    2253,
    2269,
    2281,
    2234,
    2474,
    2258,
    2273,
    2263
   ],
   "WindowCenter": [
    726.0,
    723.0,
    721.0,
    721.0,
    722.0,
    724.0,
    724.0,
    725.0,
    725.0,
    728.0,
    730.0,
    729.0,
    728.0,
    728.0,
    727.0,
    727.0,
    730.0,
    728.0,
    728.0,
    726.0,
    727.0,
    727.0,
    726.0,
    726.0,
    725.0,
    726.0,
    726.0,
    726.0,
    724.0,
    724.0,
    723.0,
    724.0,
    724.0,
    724.0,
    721.0,
    720.0,
    721.0,
    722.0,
    722.0,
    721.0,
    721.0,
    721.0,
    722.0,
    723.0,
    724.0,
    724.0,
    724.0,
    724.0,
    724.0,
    726.0,
    726.0,
    726.0,
    724.0,
    724.0,
    724.0,
    725.0,
    725.0,
    726.0,
    725.0,
    724.0,
    725.0,
    724.0,
    724.0,
    723.0,
    723.0,
    723.0,
    723.0,
    722.0,
    721.0,
    721.0,
    721.0,
    721.0,
    722.0,
    723.0,
    723.0,
    723.0,
    724.0,
    723.0,
    724.0,
    725.0,
    725.0,
    723.0,
    723.0,
    723.0,
    724.0,
    725.0,
    724.0,
    725.0,
    725.0,
    724.0,
    724.0,
    724.0,
    725.0,
    725.0,
    725.0,
    725.0,
    725.0,
    725.0,
    724.0,
    721.0,
    721.0,
    720.0,
    720.0,
    722.0,
    724.0,
    724.0,
    725.0,
    725.0,
    726.0,
    725.0,
    727.0,
    727.0,
    728.0,
    727.0,
    726.0,
    725.0,
    726.0,
    726.0,
    725.0,
    728.0,
    726.0,
    726.0,
    727.0,
    727.0,
    726.0,
    726.0,
    726.0,
    726.0,
    727.0,
    727.0,
    727.0,
    726.0,
    726.0,
    726.0,
    726.0,
    725.0,
    725.0,
    727.0,
    728.0,
    727.0,
    725.0,
    724.0,
    726.0,
    727.0,
    728.0,
    727.0,
    730.0,
    727.0,
    728.0,
    727.0
   ],
   "WindowWidth": [
    1545.0,
    1538.0,
    1533.0,
    1533.0,
    1535.0,
    1539.0,
    1539.0,
    1541.0,
    1543.0,
    1551.0,
    1554.0,
    1551.0,
    1550.0,
    1550.0,
    1548.0,
    1549.0,
    1554.0,
    1551.0,
    1549.0,
    1546.0,
    1548.0,
    1548.0,
    1544.0,
    1544.0,
    1542.0,
    1544.0,
    1544.0,
    1545.0,
    1541.0,
    1539.0,
    1538.0,
    1540.0,
    1539.0,
    1538.0,
    1533.0,
    1529.0,
    1533.0,
    1535.0,
    1535.0,
    1533.0,
    1532.0,
    1532.0,
    1534.0,
    1536.0,
    1538.0,
    1540.0,
    1540.0,
    1539.0,
    1539.0,
    1544.0,
    1545.0,
    1544.0,
    1541.0,
    1540.0,
    1540.0,
    1543.0,
    1543.0,
    1546.0,
    1543.0,
    1541.0,
    1542.0,
    1541.0,
    1539.0,
    1538.0,
    1538.0,
    1537.0,
    1537.0,
    1535.0,
    1532.0,
    1532.0,
    1532.0,
    1534.0,
    1535.0,
    1538.0,
    1538.0,
    1537.0,
    1539.0,
    1538.0,
    1540.0,
    1541.0,
    1542.0,
    1538.0,
    1538.0,
    1537.0,
    1540.0,
    1543.0,
    1540.0,
    1542.0,
    1542.0,
    1540.0,
    1540.0,
    1539.0,
    1543.0,
    1541.0,
    1543.0,
    1543.0,
    1543.0,
    1542.0,
    1540.0,
    1532.0,
    1532.0,
    1530.0,
    1530.0,
    1535.0,
    1539.0,
    1541.0,
    1542.0,
    1544.0,
    1545.0,
    1544.0,
    1547.0,
    1549.0,
    1550.0,
    1548.0,
    1546.0,
    1544.0,
    1545.0,
    1546.0,
    1544.0,
    1549.0,
    1545.0,
    1545.0,
    1547.0,
    1546.0,
    1546.0,
    1546.0,
    1545.0,
    1545.0,
    1547.0,
    1549.0,
    1547.0,
    1544.0,
    1545.0,
    1544.0,
    1543.0,
    1542.0,
    1542.0,
    1548.0,
    1550.0,
    1547.0,
    1544.0,
    1541.0,
    1544.0,
    1546.0,
    1549.0,
    1547.0,
    1553.0,
    1547.0,
    1549.0,
    1548.0
   ]
  },
  "slices": {}
 }
}