{
 "AcquisitionMatrixPE": 100,
 "AcquisitionNumber": 1,
 "AcquisitionTime": "12:22:24.240000",
 "BandwidthPerPixelPhaseEncode": 18.519,
 "BaseResolution": 100,
 "BodyPartExamined": "BRAIN",
 "ConsistencyInfo": "N4_VE11C_LATEST_20160120",
 "ConversionSoftware": "dcm2niix",
 "ConversionSoftwareVersion": "v1.0.20180622 GCC4.9.2",
 "DerivedVendorReportedEchoSpacing": 0.000539986,
 "DeviceSerialNumber": "166078",
 "DwellTime": 2.1e-06,
 "EchoTime": 0.034,
 "EchoTrainLength": 100,
 "EffectiveEchoSpacing": 0.000539986,
 "FlipAngle": 90,
 "ImageOrientationPatientDICOM": [
  1,
  0,
  0,
  0,
  0.982287,
  -0.187381
 ],
 "ImageType": [
  "ORIGINAL",
  "PRIMARY",
  "M",
  "ND",
  "MOSAIC"
 ],
 "InPlanePhaseEncodingDirectionDICOM": "COL",
 "InstitutionAddress": "Street_StreetNo_Bei_Jing_District_CN_ZIP",
 "InstitutionName": "BeiJing_Normal_University",
 "InstitutionalDepartmentName": "Department",
 "MRAcquisitionType": "2D",
 "MagneticFieldStrength": 3,
 "Manufacturer": "Siemens",
 "ManufacturersModelName": "Prisma",
 "Modality": "MR",
 "MultibandAccelerationFactor": 3,
 "PartialFourier": 1,
 "PatientPosition": "HFS",
 "PercentPhaseFOV": 100,
 "PhaseEncodingDirection": "j-",
 "PhaseEncodingSteps": 100,
 "PhaseResolution": 1,
 "PixelBandwidth": 2380,
 "ProcedureStepDescription": "BNU_P2018_64CH_Zhen.ZongLei",
 "ProtocolName": "bold_100x100_s3_2x2x2_static_256",
 "PulseSequenceDetails": "%SiemensSeq%_ep2d_bold",
 "ReceiveCoilActiveElements": "HC1-7;NC1",
 "ReceiveCoilName": "HeadNeck_64",
 "ReconMatrixPE": 100,
 "RepetitionTime": 2,
 "SAR": 0.06884,
 "ScanOptions": "FS",
 "ScanningSequence": "EP",
 "SequenceName": "_epfid2d1_100",
 "SequenceVariant": "SK",
 "SeriesDescription": "bold_100x100_s3_2x2x2_static_256",
 "SeriesNumber": 11,
 "ShimSetting": [
  -5457,
  -11504,
  -1285,
  306,
  -53,
  -246,
  -125,
  39
 ],
 "SliceThickness": 2,
 "SliceTiming": [
  1.485,
  0,
  0.99,
  0.0825,
  1.0725,
  0.165,
  1.155,
  0.2475,
  1.2375,
  0.33,
  1.32,
  0.4125,
  1.4025,
  0.5775,
  1.5675,
  0.66,
  1.65,
  0.7425,
  1.7325,
  0.825,
  1.815,
  0.9075,
  1.8975,
  0.495,
  1.485,
  0,
  0.99,
  0.0825,
  1.0725,
  0.165,
  1.155,
  0.2475,
  1.2375,
  0.33,
  1.32,
  0.4125,
  1.4025,
  0.5775,
  1.5675,
  0.66,
  1.65,
  0.7425,
  1.7325,
  0.825,
  1.815,
  0.9075,
  1.8975,
  0.495,
  1.485,
  0,
  0.99,
  0.0825,
  1.0725,
  0.165,
  1.155,
  0.2475,
  1.2375,
  0.33,
  1.32,
  0.4125,
  1.4025,
  0.5775,
  1.5675,
  0.66,
  1.65,
  0.7425,
  1.7325,
  0.825,
  1.815,
  0.9075,
  1.8975,
  0.495
 ],
 "SoftwareVersions": "syngo_MR_E11",
 "SpacingBetweenSlices": 2,
 "StationName": "AWP166078",
 "TaskName": "imagenet",
 "TotalReadoutTime": 0.0534586,
 "TxRefAmp": 211.901,
 "dcmmeta_affine": [
  [
   -2.0,
   0.0,
   0.0,
   103.38983154296875
  ],
  [
   0.0,
   1.9645744562149048,
   -0.374762624502182,
   -78.19866943359375
  ],
  [
   0.0,
   0.374762624502182,
   1.9645744562149048,
   -100.270751953125
  ],
  [
   0.0,
   0.0,
   0.0,
   1.0
  ]
 ],
 "dcmmeta_reorient_transform": [
  [
   0.0,
   -1.0,
   0.0,
   99.0
  ],
  [
   1.0,
   0.0,
   0.0,
   0.0
  ],
  [
   0.0,
   0.0,
   1.0,
   0.0
  ],
  [
   0.0,
   0.0,
   0.0,
   1.0
  ]
 ],
 "dcmmeta_shape": [
  100,
  100,
  72,
  256
 ],
 "dcmmeta_slice_dim": 2,
 "dcmmeta_version": 0.6,
 "global": {
  "const": {
   "AcquisitionMatrix": [
    100,
    0,
    0,
    100
   ],
   "AngioFlag": "N",
   "BitsAllocated": 16,
   "BitsStored": 12,
   "BodyPartExamined": "BRAIN",
   "Columns": 900,
   "EchoNumbers": 1,
   "EchoTime": 34.0,
   "EchoTrainLength": 100,
   "FlipAngle": 90.0,
   "HighBit": 11,
   "ImageOrientationPatient": [
    1.0,
    0.0,
    0.0,
    0.0,
    0.98228725047307,
    -0.1873813159257
   ],
   "ImagePositionPatient": [
    -903.38983058929,
    -902.12400279698,
    86.735797553354
   ],
   "ImageType": [
    "ORIGINAL",
    "PRIMARY",
    "M",
    "ND",
    "MOSAIC"
   ],
   "ImagedNucleus": "1H",
   "ImagingFrequency": 123.257765,
   "InPlanePhaseEncodingDirection": "COL",
   "MRAcquisitionType": "2D",
   "MagneticFieldStrength": 3.0,
   "Manufacturer": "SIEMENS",
   "ManufacturerModelName": "Prisma",
   "Modality": "MR",
   "NumberOfAverages": 1.0,
   "NumberOfPhaseEncodingSteps": 100,
   "PercentPhaseFieldOfView": 100.0,
   "PercentSampling": 100.0,
   "PerformedProcedureStepStartTime": "111946.085000",
   "PhotometricInterpretation": "MONOCHROME2",
   "PixelBandwidth": 2380.0,
   "PixelRepresentation": 0,
   "PixelSpacing": [
    2.0,
    2.0
   ],
   "ProtocolName": "bold_100x100_s3_2x2x2_static_256",
   "RepetitionTime": 2000.0,
   "Rows": 900,
   "SAR": 0.06884001428517,
   "SamplesPerPixel": 1,
   "ScanOptions": "FS",
   "ScanningSequence": "EP",
   "SequenceName": "*epfid2d1_100",
   "SequenceVariant": "SK",
   "SeriesDescription": "bold_100x100_s3_2x2x2_static_256",
   "SeriesNumber": 11,
   "SeriesTime": "122227.145000",
   "SliceLocation": -83.841714675994,
   "SliceThickness": 2.0,
   "SmallestImagePixelValue": 0,
   "SoftwareVersions": "syngo MR E11",
   "SpacingBetweenSlices": 2.000000014055,
   "SpecificCharacterSet": "ISO_IR 100",
   "StudyID": "1",
   "StudyTime": "111945.951000",
   "TransmitCoilName": "Body",
   "VariableFlipAngleFlag": "N",
   "WindowCenterWidthExplanation": "Algo1",
   "dBdt": 0.0
  },
  "slices": {}
 },
 "time": {
  "samples": {
   "AcquisitionNumber": [
    1,
    2,
    3,
    4,
    5,
    6,
    7,
    8,
    9,
    10,
    11,
    12,
    13,
    14,
    15,
    16,
    17,
    18,
    19,
    20,
    21,
    22,
    23,
    24,
    25,
    26,
    27,
    28,
    29,
    30,
    31,
    32,
    33,
    34,
    35,
    36,
    37,
    38,
    39,
    40,
    41,
    42,
    43,
    44,
    45,
    46,
    47,
    48,
    49,
    50,
    51,
    52,
    53,
    54,
    55,
    56,
    57,
    58,
    59,
    60,
    61,
    62,
    63,
    64,
    65,
    66,
    67,
    68,
    69,
    70,
    71,
    72,
    73,
    74,
    75,
    76,
    77,
    78,
    79,
    80,
    81,
    82,
    83,
    84,
    85,
    86,
    87,
    88,
    89,
    90,
    91,
    92,
    93,
    94,
    95,
    96,
    97,
    98,
    99,
    100,
    101,
    102,
    103,
    104,
    105,
    106,
    107,
    108,
    109,
    110,
    111,
    112,
    113,
    114,
    115,
    116,
    117,
    118,
    119,
    120,
    121,
    122,
    123,
    124,
    125,
    126,
    127,
    128,
    129,
    130,
    131,
    132,
    133,
    134,
    135,
    136,
    137,
    138,
    139,
    140,
    141,
    142,
    143,
    144,
    145,
    146,
    147,
    148,
    149,
    150,
    151,
    152,
    153,
    154,
    155,
    156,
    157,
    158,
    159,
    160,
    161,
    162,
    163,
    164,
    165,
    166,
    167,
    168,
    169,
    170,
    171,
    172,
    173,
    174,
    175,
    176,
    177,
    178,
    179,
    180,
    181,
    182,
    183,
    184,
    185,
    186,
    187,
    188,
    189,
    190,
    191,
    192,
    193,
    194,
    195,
    196,
    197,
    198,
    199,
    200,
    201,
    202,
    203,
    204,
    205,
    206,
    207,
    208,
    209,
    210,
    211,
    212,
    213,
    214,
    215,
    216,
    217,
    218,
    219,
    220,
    221,
    222,
    223,
    224,
    225,
    226,
    227,
    228,
    229,
    230,
    231,
    232,
    233,
    234,
    235,
    236,
    237,
    238,
    239,
    240,
    241,
    242,
    243,
    244,
    245,
    246,
    247,
    248,
    249,
    250,
    251,
    252,
    253,
    254,
    255,
    256
   ],
   "AcquisitionTime": [
    "122224.240000",
    "122226.240000",
    "122228.240000",
    "122230.240000",
    "122232.240000",
    "122234.240000",
    "122236.240000",
    "122238.240000",
    "122240.240000",
    "122242.240000",
    "122244.240000",
    "122246.240000",
    "122248.240000",
    "122250.240000",
    "122252.240000",
    "122254.240000",
    "122256.240000",
    "122258.240000",
    "122300.240000",
    "122302.240000",
    "122304.240000",
    "122306.240000",
    "122308.240000",
    "122310.240000",
    "122312.240000",
    "122314.240000",
    "122316.240000",
    "122318.240000",
    "122320.240000",
    "122322.240000",
    "122324.240000",
    "122326.240000",
    "122328.240000",
    "122330.240000",
    "122332.240000",
    "122334.240000",
    "122336.240000",
    "122338.240000",
    "122340.240000",
    "122342.240000",
    "122344.240000",
    "122346.240000",
    "122348.240000",
    "122350.240000",
    "122352.240000",
    "122354.240000",
    "122356.240000",
    "122358.240000",
    "122400.240000",
    "122402.240000",
    "122404.240000",
    "122406.240000",
    "122408.240000",
    "122410.240000",
    "122412.240000",
    "122414.240000",
    "122416.240000",
    "122418.240000",
    "122420.240000",
    "122422.240000",
    "122424.240000",
    "122426.240000",
    "122428.240000",
    "122430.240000",
    "122432.240000",
    "122434.240000",
    "122436.240000",
    "122438.240000",
    "122440.240000",
    "122442.240000",
    "122444.240000",
    "122446.240000",
    "122448.240000",
    "122450.240000",
    "122452.240000",
    "122454.240000",
    "122456.240000",
    "122458.240000",
    "122500.240000",
    "122502.240000",
    "122504.240000",
    "122506.240000",
    "122508.240000",
    "122510.240000",
    "122512.240000",
    "122514.240000",
    "122516.240000",
    "122518.240000",
    "122520.240000",
    "122522.240000",
    "122524.240000",
    "122526.240000",
    "122528.240000",
    "122530.240000",
    "122532.240000",
    "122534.240000",
    "122536.240000",
    "122538.240000",
    "122540.240000",
    "122542.240000",
    "122544.240000",
    "122546.240000",
    "122548.240000",
    "122550.240000",
    "122552.240000",
    "122554.240000",
    "122556.240000",
    "122558.240000",
    "122600.240000",
    "122602.240000",
    "122604.240000",
    "122606.240000",
    "122608.240000",
    "122610.240000",
    "122612.240000",
    "122614.240000",
    "122616.240000",
    "122618.240000",
    "122620.240000",
    "122622.240000",
    "122624.240000",
    "122626.240000",
    "122628.240000",
    "122630.240000",
    "122632.240000",
    "122634.240000",
    "122636.240000",
    "122638.240000",
    "122640.240000",
    "122642.240000",
    "122644.240000",
    "122646.240000",
    "122648.240000",
    "122650.240000",
    "122652.240000",
    "122654.240000",
    "122656.240000",
    "122658.240000",
    "122700.240000",
    "122702.240000",
    "122704.240000",
    "122706.240000",
    "122708.240000",
    "122710.240000",
    "122712.240000",
    "122714.240000",
    "122716.240000",
    "122718.240000",
    "122720.240000",
    "122722.240000",
    "122724.240000",
    "122726.240000",
    "122728.240000",
    "122730.240000",
    "122732.240000",
    "122734.240000",
    "122736.240000",
    "122738.240000",
    "122740.240000",
    "122742.240000",
    "122744.240000",
    "122746.240000",
    "122748.240000",
    "122750.240000",
    "122752.240000",
    "122754.240000",
    "122756.240000",
    "122758.240000",
    "122800.240000",
    "122802.240000",
    "122804.240000",
    "122806.240000",
    "122808.240000",
    "122810.240000",
    "122812.240000",
    "122814.240000",
    "122816.240000",
    "122818.240000",
    "122820.240000",
    "122822.240000",
    "122824.240000",
    "122826.240000",
    "122828.240000",
    "122830.240000",
    "122832.240000",
    "122834.240000",
    "122836.240000",
    "122838.240000",
    "122840.240000",
    "122842.240000",
    "122844.240000",
    "122846.240000",
    "122848.240000",
    "122850.240000",
    "122852.240000",
    "122854.240000",
    "122856.240000",
    "122858.240000",
    "122900.240000",
    "122902.240000",
    "122904.240000",
    "122906.240000",
    "122908.240000",
    "122910.240000",
    "122912.240000",
    "122914.240000",
    "122916.240000",
    "122918.240000",
    "122920.240000",
    "122922.240000",
    "122924.240000",
    "122926.240000",
    "122928.240000",
    "122930.240000",
    "122932.240000",
    "122934.240000",
    "122936.240000",
    "122938.240000",
    "122940.240000",
    "122942.240000",
    "122944.240000",
    "122946.240000",
    "122948.240000",
    "122950.240000",
    "122952.240000",
    "122954.240000",
    "122956.240000",
    "122958.240000",
    "123000.240000",
    "123002.240000",
    "123004.240000",
    "123006.240000",
    "123008.240000",
    "123010.240000",
    "123012.240000",
    "123014.240000",
    "123016.240000",
    "123018.240000",
    "123020.240000",
    "123022.240000",
    "123024.240000",
    "123026.240000",
    "123028.240000",
    "123030.240000",
    "123032.240000",
    "123034.240000",
    "123036.240000",
    "123038.240000",
    "123040.240000",
    "123042.240000",
    "123044.240000",
    "123046.240000",
    "123048.240000",
    "123050.240000",
    "123052.240000",
    "123054.240000"
   ],
   "ContentTime": [
    "122227.149000",
    "122228.644000",
    "122230.644000",
    "122232.645000",
    "122234.644000",
    "122236.645000",
    "122238.645000",
    "122240.645000",
    "122242.644000",
    "122244.645000",
    "122246.645000",
    "122248.645000",
    "122250.644000",
    "122252.644000",
    "122254.645000",
    "122256.645000",
    "122258.645000",
    "122300.644000",
    "122302.645000",
    "122304.645000",
    "122306.645000",
    "122308.645000",
    "122310.645000",
    "122312.646000",
    "122314.645000",
    "122316.644000",
    "122318.645000",
    "122320.644000",
    "122322.644000",
    "122324.645000",
    "122326.644000",
    "122328.645000",
    "122330.646000",
    "122332.645000",
    "122334.645000",
    "122336.644000",
    "122338.644000",
    "122340.644000",
    "122342.645000",
    "122344.644000",
    "122346.646000",
    "122348.646000",
    "122350.645000",
    "122352.645000",
    "122354.644000",
    "122356.644000",
    "122358.645000",
    "122400.644000",
    "122402.645000",
    "122404.645000",
    "122406.646000",
    "122408.645000",
    "122410.644000",
    "122412.644000",
    "122414.644000",
    "122416.645000",
    "122418.644000",
    "122420.645000",
    "122422.646000",
    "122424.646000",
    "122426.644000",
    "122428.645000",
    "122430.645000",
    "122432.645000",
    "122434.644000",
    "122436.645000",
    "122438.644000",
    "122440.646000",
    "122442.646000",
    "122444.644000",
    "122446.645000",
    "122448.645000",
    "122450.645000",
    "122452.644000",
    "122454.644000",
    "122456.645000",
    "122458.645000",
    "122500.644000",
    "122502.644000",
    "122504.645000",
    "122506.645000",
    "122508.644000",
    "122510.645000",
    "122512.645000",
    "122514.645000",
    "122516.646000",
    "122518.644000",
    "122520.645000",
    "122522.644000",
    "122524.645000",
    "122526.645000",
    "122528.645000",
    "122530.645000",
    "122532.646000",
    "122534.646000",
    "122536.645000",
    "122538.644000",
    "122540.644000",
    "122542.645000",
    "122544.645000",
    "122546.645000",
    "122548.645000",
    "122550.645000",
    "122552.646000",
    "122554.645000",
    "122556.645000",
    "122558.644000",
    "122600.645000",
    "122602.645000",
    "122604.644000",
    "122606.646000",
    "122608.645000",
    "122610.644000",
    "122612.644000",
    "122614.644000",
    "122616.645000",
    "122618.644000",
    "122620.644000",
    "122622.645000",
    "122624.646000",
    "122626.645000",
    "122628.644000",
    "122630.644000",
    "122632.644000",
    "122634.645000",
    "122636.644000",
    "122638.644000",
    "122640.645000",
    "122642.646000",
    "122644.646000",
    "122646.644000",
    "122648.645000",
    "122650.644000",
    "122652.645000",
    "122654.644000",
    "122656.644000",
    "122658.645000",
    "122700.645000",
    "122702.645000",
    "122704.644000",
    "122706.645000",
    "122708.644000",
    "122710.645000",
    "122712.644000",
    "122714.644000",
    "122716.645000",
    "122718.645000",
    "122720.644000",
    "122722.644000",
    "122724.644000",
    "122726.645000",
    "122728.644000",
    "122730.645000",
    "122732.645000",
    "122734.656000",
    "122736.646000",
    "122738.645000",
    "122740.644000",
    "122742.645000",
    "122744.644000",
    "122746.644000",
    "122748.644000",
    "122750.644000",
    "122752.646000",
    "122754.646000",
    "122756.644000",
    "122758.644000",
    "122800.644000",
    "122802.644000",
    "122804.644000",
    "122806.644000",
    "122808.645000",
    "122810.645000",
    "122812.646000",
    "122814.644000",
    "122816.645000",
    "122818.645000",
    "122820.644000",
    "122822.645000",
    "122824.645000",
    "122826.646000",
    "122828.646000",
    "122830.645000",
    "122832.644000",
    "122834.644000",
    "122836.645000",
    "122838.645000",
    "122840.644000",
    "122842.645000",
    "122844.646000",
    "122846.646000",
    "122848.644000",
    "122850.644000",
    "122852.644000",
    "122854.645000",
    "122856.644000",
    "122858.645000",
    "122900.645000",
    "122902.646000",
    "122904.645000",
    "122906.645000",
    "122908.645000",
    "122910.644000",
    "122912.645000",
    "122914.645000",
    "122916.645000",
    "122918.644000",
    "122920.645000",
    "122922.645000",
    "122924.645000",
    "122926.646000",
    "122928.646000",
    "122930.644000",
    "122932.644000",
    "122934.645000",
    "122936.646000",
    "122938.646000",
    "122940.644000",
    "122942.644000",
    "122944.644000",
    "122946.644000",
    "122948.644000",
    "122950.644000",
    "122952.645000",
    "122954.645000",
    "122956.646000",
    "122958.644000",
    "123000.645000",
    "123002.644000",
    "123004.645000",
    "123006.645000",
    "123008.644000",
    "123010.645000",
    "123012.645000",
    "123014.646000",
    "123016.645000",
    "123018.644000",
    "123020.645000",
    "123022.645000",
    "123024.645000",
    "123026.644000",
    "123028.645000",
    "123030.646000",
    "123032.646000",
    "123034.645000",
    "123036.644000",
    "123038.644000",
    "123040.645000",
    "123042.645000",
    "123044.644000",
    "123046.646000",
    "123048.646000",
    "123050.644000",
    "123052.645000",
    "123054.644000",
    "123056.322000"
   ],
   "InstanceCreationTime": [
    "122227.149000",
    "122228.644000",
    "122230.644000",
    "122232.645000",
    "122234.644000",
    "122236.645000",
    "122238.645000",
    "122240.645000",
    "122242.644000",
    "122244.645000",
    "122246.645000",
    "122248.645000",
    "122250.644000",
    "122252.644000",
    "122254.645000",
    "122256.645000",
    "122258.645000",
    "122300.644000",
    "122302.645000",
    "122304.645000",
    "122306.645000",
    "122308.645000",
    "122310.645000",
    "122312.646000",
    "122314.645000",
    "122316.644000",
    "122318.645000",
    "122320.644000",
    "122322.644000",
    "122324.645000",
    "122326.644000",
    "122328.645000",
    "122330.646000",
    "122332.645000",
    "122334.645000",
    "122336.644000",
    "122338.644000",
    "122340.644000",
    "122342.645000",
    "122344.644000",
    "122346.646000",
    "122348.646000",
    "122350.645000",
    "122352.645000",
    "122354.644000",
    "122356.644000",
    "122358.645000",
    "122400.644000",
    "122402.645000",
    "122404.645000",
    "122406.646000",
    "122408.645000",
    "122410.644000",
    "122412.644000",
    "122414.644000",
    "122416.645000",
    "122418.644000",
    "122420.645000",
    "122422.646000",
    "122424.646000",
    "122426.644000",
    "122428.645000",
    "122430.645000",
    "122432.645000",
    "122434.644000",
    "122436.645000",
    "122438.644000",
    "122440.646000",
    "122442.646000",
    "122444.644000",
    "122446.645000",
    "122448.645000",
    "122450.645000",
    "122452.644000",
    "122454.644000",
    "122456.645000",
    "122458.645000",
    "122500.644000",
    "122502.644000",
    "122504.645000",
    "122506.645000",
    "122508.644000",
    "122510.645000",
    "122512.645000",
    "122514.645000",
    "122516.646000",
    "122518.644000",
    "122520.645000",
    "122522.644000",
    "122524.645000",
    "122526.645000",
    "122528.645000",
    "122530.645000",
    "122532.646000",
    "122534.646000",
    "122536.645000",
    "122538.644000",
    "122540.644000",
    "122542.645000",
    "122544.645000",
    "122546.645000",
    "122548.645000",
    "122550.645000",
    "122552.646000",
    "122554.645000",
    "122556.645000",
    "122558.644000",
    "122600.645000",
    "122602.645000",
    "122604.644000",
    "122606.646000",
    "122608.645000",
    "122610.644000",
    "122612.644000",
    "122614.644000",
    "122616.645000",
    "122618.644000",
    "122620.644000",
    "122622.645000",
    "122624.646000",
    "122626.645000",
    "122628.644000",
    "122630.644000",
    "122632.644000",
    "122634.645000",
    "122636.644000",
    "122638.644000",
    "122640.645000",
    "122642.646000",
    "122644.646000",
    "122646.644000",
    "122648.645000",
    "122650.644000",
    "122652.645000",
    "122654.644000",
    "122656.644000",
    "122658.645000",
    "122700.645000",
    "122702.645000",
    "122704.644000",
    "122706.645000",
    "122708.644000",
    "122710.645000",
    "122712.644000",
    "122714.644000",
    "122716.645000",
    "122718.645000",
    "122720.644000",
    "122722.644000",
    "122724.644000",
    "122726.645000",
    "122728.644000",
    "122730.645000",
    "122732.645000",
    "122734.656000",
    "122736.646000",
    "122738.645000",
    "122740.644000",
    "122742.645000",
    "122744.644000",
    "122746.644000",
    "122748.644000",
    "122750.644000",
    "122752.646000",
    "122754.646000",
    "122756.644000",
    "122758.644000",
    "122800.644000",
    "122802.644000",
    "122804.644000",
    "122806.644000",
    "122808.645000",
    "122810.645000",
    "122812.646000",
    "122814.644000",
    "122816.645000",
    "122818.645000",
    "122820.644000",
    "122822.645000",
    "122824.645000",
    "122826.646000",
    "122828.646000",
    "122830.645000",
    "122832.644000",
    "122834.644000",
    "122836.645000",
    "122838.645000",
    "122840.644000",
    "122842.645000",
    "122844.646000",
    "122846.646000",
    "122848.644000",
    "122850.644000",
    "122852.644000",
    "122854.645000",
    "122856.644000",
    "122858.645000",
    "122900.645000",
    "122902.646000",
    "122904.645000",
    "122906.645000",
    "122908.645000",
    "122910.644000",
    "122912.645000",
    "122914.645000",
    "122916.645000",
    "122918.644000",
    "122920.645000",
    "122922.645000",
    "122924.645000",
    "122926.646000",
    "122928.646000",
    "122930.644000",
    "122932.644000",
    "122934.645000",
    "122936.646000",
    "122938.646000",
    "122940.644000",
    "122942.644000",
    "122944.644000",
    "122946.644000",
    "122948.644000",
    "122950.644000",
    "122952.645000",
    "122954.645000",
    "122956.646000",
    "122958.644000",
    "123000.645000",
    "123002.644000",
    "123004.645000",
    "123006.645000",
    "123008.644000",
    "123010.645000",
    "123012.645000",
    "123014.646000",
    "123016.645000",
    "123018.644000",
    "123020.645000",
    "123022.645000",
    "123024.645000",
    "123026.644000",
    "123028.645000",
    "123030.646000",
    "123032.646000",
    "123034.645000",
    "123036.644000",
    "123038.644000",
    "123040.645000",
    "123042.645000",
    "123044.644000",
    "123046.646000",
    "123048.646000",
    "123050.644000",
    "123052.645000",
    "123054.644000",
    "123056.322000"
   ],
   "InstanceNumber": [
    1,
    2,
    3,
    4,
    5,
    6,
    7,
    8,
    9,
    10,
    11,
    12,
    13,
    14,
    15,
    16,
    17,
    18,
    19,
    20,
    21,
    22,
    23,
    24,
    25,
    26,
    27,
    28,
    29,
    30,
    31,
    32,
    33,
    34,
    35,
    36,
    37,
    38,
    39,
    40,
    41,
    42,
    43,
    44,
    45,
    46,
    47,
    48,
    49,
    50,
    51,
    52,
    53,
    54,
    55,
    56,
    57,
    58,
    59,
    60,
    61,
    62,
    63,
    64,
    65,
    66,
    67,
    68,
    69,
    70,
    71,
    72,
    73,
    74,
    75,
    76,
    77,
    78,
    79,
    80,
    81,
    82,
    83,
    84,
    85,
    86,
    87,
    88,
    89,
    90,
    91,
    92,
    93,
    94,
    95,
    96,
    97,
    98,
    99,
    100,
    101,
    102,
    103,
    104,
    105,
    106,
    107,
    108,
    109,
    110,
    111,
    112,
    113,
    114,
    115,
    116,
    117,
    118,
    119,
    120,
    121,
    122,
    123,
    124,
    125,
    126,
    127,
    128,
    129,
    130,
    131,
    132,
    133,
    134,
    135,
    136,
    137,
    138,
    139,
    140,
    141,
    142,
    143,
    144,
    145,
    146,
    147,
    148,
    149,
    150,
    151,
    152,
    153,
    154,
    155,
    156,
    157,
    158,
    159,
    160,
    161,
    162,
    163,
    164,
    165,
    166,
    167,
    168,
    169,
    170,
    171,
    172,
    173,
    174,
    175,
    176,
    177,
    178,
    179,
    180,
    181,
    182,
    183,
    184,
    185,
    186,
    187,
    188,
    189,
    190,
    191,
    192,
    193,
    194,
    195,
    196,
    197,
    198,
    199,
    200,
    201,
    202,
    203,
    204,
    205,
    206,
    207,
    208,
    209,
    210,
    211,
    212,
    213,
    214,
    215,
    216,
    217,
    218,
    219,
    220,
    221,
    222,
    223,
    224,
    225,
    226,
    227,
    228,
    229,
    230,
    231,
    232,
    233,
    234,
    235,
    236,
    237,
    238,
    239,
    240,
    241,
    242,
    243,
    244,
    245,
    246,
    247,
    248,
    249,
    250,
    251,
    252,
    253,
    254,
    255,
    256
   ],
   "LargestImagePixelValue": [
    2708,
    2672,
    2621,
    2654,
    2633,
    2626,
    2639,
    2634,
    2630,
    2626,
    2629,
    2613,
    2610,
    2628,
    2616,
    2621,
    2607,
    2630,
    2607,
    2630,
    2643,
    2616,
    2615,
    2602,
    2626,
    2658,
    2644,
    2625,
    2587,
    2595,
    2611,
    2618,
    2643,
    2647,
    2641,
    2640,
    2646,
    2625,
    2620,
    2617,
    2653,
    2631,
    2652,
    2647,
    2624,
    2605,
    2623,
    2622,
    2602,
    2613,
    2635,
    2593,
    2615,
    2637,
    2618,
    2600,
    2607,
    2633,
    2608,
    2643,
    2640,
    2637,
    2620,
    2623,
    2625,
    2624,
    2619,
    2624,
    2622,
    2634,
    2604,
    2613,
    2598,
    2711,
    2601,
    2621,
    2605,
    2593,
    2587,
    2606,
    2609,
    2623,
    2628,
    2610,
    2599,
    2594,
    2606,
    2606,
    2598,
    2620,
    2624,
    2609,
    2628,
    2623,
    2609,
    2614,
    2607,
    2615,
    2610,
    2613,
    2593,
    2607,
    2606,
    2624,
    2615,
    2590,
    2625,
    2618,
    2667,
    2636,
    2648,
    2617,
    2606,
    2627,
    2631,
    2648,
    2612,
    2621,
    2626,
    2642,
    2654,
    2646,
    2639,
    2614,
    2615,
    2625,
    2605,
    2607,
    2622,
    2617,
    2622,
    2653,
    2655,
    2619,
    2655,
    2647,
    2639,
    2641,
    2639,
    2665,
    2628,
    2648,
    2637,
    2654,
    2658,
    2656,
    2631,
    2778,
    2601,
    2600,
    2638,
    2627,
    2635,
    2628,
    2638,
    2602,
    2619,
    2644,
    2642,
    2660,
    2642,
    2617,
    2653,
    2596,
    2604,
    2601,
    2618,
    2610,
    2628,
    2621,
    2633,
    2682,
    2663,
    2642,
    2626,
    2606,
    2642,
    2639,
    2656,
    2648,
    2655,
    2641,
    2623,
    2597,
    2597,
    2609,
    2637,
    2623,
    2603,
    2618,
    2597,
    2599,
    2597,
    2608,
    2571,
    2590,
    2574,
    2583,
    2587,
    2625,
    2611,
    2585,
    2591,
    2626,
    2595,
    2582,
    2604,
    2575,
    2602,
    2607,
    2602,
    2599,
    2585,
    2597,
    2597,
    2599,
    2621,
    2652,
    2602,
    2605,
    2630,
    2626,
    2606,
    2598,
    2624,
    2637,
    2615,
    2599,
    2581,
    2590,
    2599,
    2597,
    2577,
    2588,
    2614,
    2584,
    2589,
    2615,
    2582,
    2602,
    2620,
    2593,
    2580,
    2616,
    2614,
    2581,
    2618,
    2609,
    2639,
    2618,
    2629,
    2616,
    2618,
    2623,
    2602,
    2595
   ],
   "WindowCenter": [
    732.0,
    731.0,
    730.0,
    731.0,
    730.0,
    729.0,
    729.0,
    729.0,
    729.0,
    729.0,
    731.0,
    731.0,
    731.0,
    730.0,
    730.0,
    729.0,
    729.0,
    730.0,
    730.0,
    730.0,
    729.0,
    729.0,
    729.0,
    729.0,
    729.0,
    730.0,
    729.0,
    729.0,
    728.0,
    729.0,
    729.0,
    729.0,
    729.0,
    729.0,
    729.0,
    729.0,
    729.0,
    729.0,
    729.0,
    729.0,
    730.0,
    730.0,
    731.0,
    730.0,
    729.0,
    728.0,
    729.0,
    729.0,
    729.0,
    730.0,
    730.0,
    728.0,
    729.0,
    729.0,
    729.0,
    729.0,
    729.0,
    729.0,
    728.0,
    729.0,
    729.0,
    729.0,
    729.0,
    730.0,
    729.0,
    729.0,
    729.0,
    729.0,
    729.0,
    730.0,
    730.0,
    730.0,
    729.0,
    731.0,
    729.0,
    730.0,
    730.0,
    730.0,
    729.0,
    729.0,
    729.0,
    729.0,
    729.0,
    731.0,
    730.0,
    729.0,
    729.0,
    729.0,
    729.0,
    729.0,
    729.0,
    729.0,
    729.0,
    730.0,
    730.0,
    730.0,
    730.0,
    729.0,
    729.0,
    730.0,
    730.0,
    730.0,
    730.0,
    730.0,
    729.0,
    729.0,
    729.0,
    729.0,
    730.0,
    729.0,
    730.0,
    730.0,
    730.0,
    730.0,
    729.0,
    729.0,
    728.0,
    728.0,
    729.0,
    730.0,
    730.0,
    730.0,
    730.0,
    729.0,
    730.0,
