{
 "AcquisitionMatrixPE": 100,
 "AcquisitionNumber": 1,
 "AcquisitionTime": "11:42:14.440000",
 "BandwidthPerPixelPhaseEncode": 18.519,
 "BaseResolution": 100,
 "BodyPartExamined": "BRAIN",
 "ConsistencyInfo": "N4_VE11C_LATEST_20160120",
 "ConversionSoftware": "dcm2niix",
 "ConversionSoftwareVersion": "v1.0.20180622 GCC4.9.2",
 "DerivedVendorReportedEchoSpacing": 0.000539986,
 "DeviceSerialNumber": "166078",
 "DwellTime": 2.1e-06,
 "EchoTime": 0.034,
 "EchoTrainLength": 100,
 "EffectiveEchoSpacing": 0.000539986,
 "FlipAngle": 90,
 "ImageOrientationPatientDICOM": [
  1,
  0,
  0,
  0,
  0.982287,
  -0.187381
 ],
 "ImageType": [
  "ORIGINAL",
  "PRIMARY",
  "M",
  "ND",
  "MOSAIC"
 ],
 "InPlanePhaseEncodingDirectionDICOM": "COL",
 "InstitutionAddress": "Street_StreetNo_Bei_Jing_District_CN_ZIP",
 "InstitutionName": "BeiJing_Normal_University",
 "InstitutionalDepartmentName": "Department",
 "MRAcquisitionType": "2D",
 "MagneticFieldStrength": 3,
 "Manufacturer": "Siemens",
 "ManufacturersModelName": "Prisma",
 "Modality": "MR",
 "MultibandAccelerationFactor": 3,
 "PartialFourier": 1,
 "PatientPosition": "HFS",
 "PercentPhaseFOV": 100,
 "PhaseEncodingDirection": "j-",
 "PhaseEncodingSteps": 100,
 "PhaseResolution": 1,
 "PixelBandwidth": 2380,
 "ProcedureStepDescription": "BNU_P2018_64CH_Zhen.ZongLei",
 "ProtocolName": "bold_100x100_s3_2x2x2_static_256",
 "PulseSequenceDetails": "%SiemensSeq%_ep2d_bold",
 "ReceiveCoilActiveElements": "HC1-7;NC1",
 "ReceiveCoilName": "HeadNeck_64",
 "ReconMatrixPE": 100,
 "RepetitionTime": 2,
 "SAR": 0.06884,
 "ScanOptions": "FS",
 "ScanningSequence": "EP",
 "SequenceName": "_epfid2d1_100",
 "SequenceVariant": "SK",
 "SeriesDescription": "bold_100x100_s3_2x2x2_static_256",
 "SeriesNumber": 5,
 "ShimSetting": [
  -5457,
  -11504,
  -1285,
  306,
  -53,
  -246,
  -125,
  39
 ],
 "SliceThickness": 2,
 "SliceTiming": [
  1.485,
  0,
  0.99,
  0.0825,
  1.0725,
  0.165,
  1.155,
  0.2475,
  1.2375,
  0.33,
  1.32,
  0.4125,
  1.4025,
  0.5775,
  1.5675,
  0.66,
  1.65,
  0.7425,
  1.7325,
  0.825,
  1.815,
  0.9075,
  1.8975,
  0.495,
  1.485,
  0,
  0.99,
  0.0825,
  1.0725,
  0.165,
  1.155,
  0.2475,
  1.2375,
  0.33,
  1.32,
  0.4125,
  1.4025,
  0.5775,
  1.5675,
  0.66,
  1.65,
  0.7425,
  1.7325,
  0.825,
  1.815,
  0.9075,
  1.8975,
  0.495,
  1.485,
  0,
  0.99,
  0.0825,
  1.0725,
  0.165,
  1.155,
  0.2475,
  1.2375,
  0.33,
  1.32,
  0.4125,
  1.4025,
  0.5775,
  1.5675,
  0.66,
  1.65,
  0.7425,
  1.7325,
  0.825,
  1.815,
  0.9075,
  1.8975,
  0.495
 ],
 "SoftwareVersions": "syngo_MR_E11",
 "SpacingBetweenSlices": 2,
 "StationName": "AWP166078",
 "TaskName": "imagenet",
 "TotalReadoutTime": 0.0534586,
 "TxRefAmp": 211.901,
 "dcmmeta_affine": [
  [
   -2.0,
   0.0,
   0.0,
   103.38983154296875
  ],
  [
   0.0,
   1.9645744562149048,
   -0.374762624502182,
   -78.19866943359375
  ],
  [
   0.0,
   0.374762624502182,
   1.9645744562149048,
   -100.270751953125
  ],
  [
   0.0,
   0.0,
   0.0,
   1.0
  ]
 ],
 "dcmmeta_reorient_transform": [
  [
   0.0,
   -1.0,
   0.0,
   99.0
  ],
  [
   1.0,
   0.0,
   0.0,
   0.0
  ],
  [
   0.0,
   0.0,
   1.0,
   0.0
  ],
  [
   0.0,
   0.0,
   0.0,
   1.0
  ]
 ],
 "dcmmeta_shape": [
  100,
  100,
  72,
  256
 ],
 "dcmmeta_slice_dim": 2,
 "dcmmeta_version": 0.6,
 "global": {
  "const": {
   "AcquisitionMatrix": [
    100,
    0,
    0,
    100
   ],
   "AngioFlag": "N",
   "BitsAllocated": 16,
   "BitsStored": 12,
   "BodyPartExamined": "BRAIN",
   "Columns": 900,
   "EchoNumbers": 1,
   "EchoTime": 34.0,
   "EchoTrainLength": 100,
   "FlipAngle": 90.0,
   "HighBit": 11,
   "ImageOrientationPatient": [
    1.0,
    0.0,
    0.0,
    0.0,
    0.98228725047307,
    -0.1873813159257
   ],
   "ImagePositionPatient": [
    -903.38983058929,
    -902.12400279698,
    86.735797553354
   ],
   "ImageType": [
    "ORIGINAL",
    "PRIMARY",
    "M",
    "ND",
    "MOSAIC"
   ],
   "ImagedNucleus": "1H",
   "ImagingFrequency": 123.257756,
   "InPlanePhaseEncodingDirection": "COL",
   "MRAcquisitionType": "2D",
   "MagneticFieldStrength": 3.0,
   "Manufacturer": "SIEMENS",
   "ManufacturerModelName": "Prisma",
   "Modality": "MR",
   "NumberOfAverages": 1.0,
   "NumberOfPhaseEncodingSteps": 100,
   "PercentPhaseFieldOfView": 100.0,
   "PercentSampling": 100.0,
   "PerformedProcedureStepStartTime": "111946.085000",
   "PhotometricInterpretation": "MONOCHROME2",
   "PixelBandwidth": 2380.0,
   "PixelRepresentation": 0,
   "PixelSpacing": [
    2.0,
    2.0
   ],
   "ProtocolName": "bold_100x100_s3_2x2x2_static_256",
   "RepetitionTime": 2000.0,
   "Rows": 900,
   "SAR": 0.06884001428517,
   "SamplesPerPixel": 1,
   "ScanOptions": "FS",
   "ScanningSequence": "EP",
   "SequenceName": "*epfid2d1_100",
   "SequenceVariant": "SK",
   "SeriesDescription": "bold_100x100_s3_2x2x2_static_256",
   "SeriesNumber": 5,
   "SeriesTime": "114216.612000",
   "SliceLocation": -83.841714675994,
   "SliceThickness": 2.0,
   "SmallestImagePixelValue": 0,
   "SoftwareVersions": "syngo MR E11",
   "SpacingBetweenSlices": 2.000000014055,
   "SpecificCharacterSet": "ISO_IR 100",
   "StudyID": "1",
   "StudyTime": "111945.951000",
   "TransmitCoilName": "Body",
   "VariableFlipAngleFlag": "N",
   "WindowCenterWidthExplanation": "Algo1",
   "dBdt": 0.0
  },
  "slices": {}
 },
 "time": {
  "samples": {
   "AcquisitionNumber": [
    1,
    2,
    3,
    4,
    5,
    6,
    7,
    8,
    9,
    10,
    11,
    12,
    13,
    14,
    15,
    16,
    17,
    18,
    19,
    20,
    21,
    22,
    23,
    24,
    25,
    26,
    27,
    28,
    29,
    30,
    31,
    32,
    33,
    34,
    35,
    36,
    37,
    38,
    39,
    40,
    41,
    42,
    43,
    44,
    45,
    46,
    47,
    48,
    49,
    50,
    51,
    52,
    53,
    54,
    55,
    56,
    57,
    58,
    59,
    60,
    61,
    62,
    63,
    64,
    65,
    66,
    67,
    68,
    69,
    70,
    71,
    72,
    73,
    74,
    75,
    76,
    77,
    78,
    79,
    80,
    81,
    82,
    83,
    84,
    85,
    86,
    87,
    88,
    89,
    90,
    91,
    92,
    93,
    94,
    95,
    96,
    97,
    98,
    99,
    100,
    101,
    102,
    103,
    104,
    105,
    106,
    107,
    108,
    109,
    110,
    111,
    112,
    113,
    114,
    115,
    116,
    117,
    118,
    119,
    120,
    121,
    122,
    123,
    124,
    125,
    126,
    127,
    128,
    129,
    130,
    131,
    132,
    133,
    134,
    135,
    136,
    137,
    138,
    139,
    140,
    141,
    142,
    143,
    144,
    145,
    146,
    147,
    148,
    149,
    150,
    151,
    152,
    153,
    154,
    155,
    156,
    157,
    158,
    159,
    160,
    161,
    162,
    163,
    164,
    165,
    166,
    167,
    168,
    169,
    170,
    171,
    172,
    173,
    174,
    175,
    176,
    177,
    178,
    179,
    180,
    181,
    182,
    183,
    184,
    185,
    186,
    187,
    188,
    189,
    190,
    191,
    192,
    193,
    194,
    195,
    196,
    197,
    198,
    199,
    200,
    201,
    202,
    203,
    204,
    205,
    206,
    207,
    208,
    209,
    210,
    211,
    212,
    213,
    214,
    215,
    216,
    217,
    218,
    219,
    220,
    221,
    222,
    223,
    224,
    225,
    226,
    227,
    228,
    229,
    230,
    231,
    232,
    233,
    234,
    235,
    236,
    237,
    238,
    239,
    240,
    241,
    242,
    243,
    244,
    245,
    246,
    247,
    248,
    249,
    250,
    251,
    252,
    253,
    254,
    255,
    256
   ],
   "AcquisitionTime": [
    "114214.440000",
    "114216.440000",
    "114218.440000",
    "114220.440000",
    "114222.440000",
    "114224.440000",
    "114226.440000",
    "114228.440000",
    "114230.440000",
    "114232.440000",
    "114234.440000",
    "114236.440000",
    "114238.440000",
    "114240.440000",
    "114242.440000",
    "114244.440000",
    "114246.440000",
    "114248.440000",
    "114250.440000",
    "114252.440000",
    "114254.440000",
    "114256.440000",
    "114258.440000",
    "114300.440000",
    "114302.440000",
    "114304.440000",
    "114306.440000",
    "114308.440000",
    "114310.440000",
    "114312.440000",
    "114314.440000",
    "114316.440000",
    "114318.440000",
    "114320.440000",
    "114322.440000",
    "114324.440000",
    "114326.440000",
    "114328.440000",
    "114330.440000",
    "114332.440000",
    "114334.440000",
    "114336.440000",
    "114338.440000",
    "114340.440000",
    "114342.440000",
    "114344.440000",
    "114346.440000",
    "114348.440000",
    "114350.440000",
    "114352.440000",
    "114354.440000",
    "114356.440000",
    "114358.440000",
    "114400.440000",
    "114402.440000",
    "114404.440000",
    "114406.440000",
    "114408.440000",
    "114410.440000",
    "114412.440000",
    "114414.440000",
    "114416.440000",
    "114418.440000",
    "114420.440000",
    "114422.440000",
    "114424.440000",
    "114426.440000",
    "114428.440000",
    "114430.440000",
    "114432.440000",
    "114434.440000",
    "114436.440000",
    "114438.440000",
    "114440.440000",
    "114442.440000",
    "114444.440000",
    "114446.440000",
    "114448.440000",
    "114450.440000",
    "114452.440000",
    "114454.440000",
    "114456.440000",
    "114458.440000",
    "114500.440000",
    "114502.440000",
    "114504.440000",
    "114506.440000",
    "114508.440000",
    "114510.440000",
    "114512.440000",
    "114514.440000",
    "114516.440000",
    "114518.440000",
    "114520.440000",
    "114522.440000",
    "114524.440000",
    "114526.440000",
    "114528.440000",
    "114530.440000",
    "114532.440000",
    "114534.440000",
    "114536.440000",
    "114538.440000",
    "114540.440000",
    "114542.440000",
    "114544.440000",
    "114546.440000",
    "114548.440000",
    "114550.440000",
    "114552.440000",
    "114554.440000",
    "114556.440000",
    "114558.440000",
    "114600.440000",
    "114602.440000",
    "114604.440000",
    "114606.440000",
    "114608.440000",
    "114610.440000",
    "114612.440000",
    "114614.440000",
    "114616.440000",
    "114618.440000",
    "114620.440000",
    "114622.440000",
    "114624.440000",
    "114626.440000",
    "114628.440000",
    "114630.440000",
    "114632.440000",
    "114634.440000",
    "114636.440000",
    "114638.440000",
    "114640.440000",
    "114642.440000",
    "114644.440000",
    "114646.440000",
    "114648.440000",
    "114650.440000",
    "114652.440000",
    "114654.440000",
    "114656.440000",
    "114658.440000",
    "114700.440000",
    "114702.440000",
    "114704.440000",
    "114706.440000",
    "114708.440000",
    "114710.440000",
    "114712.440000",
    "114714.440000",
    "114716.440000",
    "114718.440000",
    "114720.440000",
    "114722.440000",
    "114724.440000",
    "114726.440000",
    "114728.440000",
    "114730.440000",
    "114732.440000",
    "114734.440000",
    "114736.440000",
    "114738.440000",
    "114740.440000",
    "114742.440000",
    "114744.440000",
    "114746.440000",
    "114748.440000",
    "114750.440000",
    "114752.440000",
    "114754.440000",
    "114756.440000",
    "114758.440000",
    "114800.440000",
    "114802.440000",
    "114804.440000",
    "114806.440000",
    "114808.440000",
    "114810.440000",
    "114812.440000",
    "114814.440000",
    "114816.440000",
    "114818.440000",
    "114820.440000",
    "114822.440000",
    "114824.440000",
    "114826.440000",
    "114828.440000",
    "114830.440000",
    "114832.440000",
    "114834.440000",
    "114836.440000",
    "114838.440000",
    "114840.440000",
    "114842.440000",
    "114844.440000",
    "114846.440000",
    "114848.440000",
    "114850.440000",
    "114852.440000",
    "114854.440000",
    "114856.440000",
    "114858.440000",
    "114900.440000",
    "114902.440000",
    "114904.440000",
    "114906.440000",
    "114908.440000",
    "114910.440000",
    "114912.440000",
    "114914.440000",
    "114916.440000",
    "114918.440000",
    "114920.440000",
    "114922.440000",
    "114924.440000",
    "114926.440000",
    "114928.440000",
    "114930.440000",
    "114932.440000",
    "114934.440000",
    "114936.440000",
    "114938.440000",
    "114940.440000",
    "114942.440000",
    "114944.440000",
    "114946.440000",
    "114948.440000",
    "114950.440000",
    "114952.440000",
    "114954.440000",
    "114956.440000",
    "114958.440000",
    "115000.440000",
    "115002.440000",
    "115004.440000",
    "115006.440000",
    "115008.440000",
    "115010.440000",
    "115012.440000",
    "115014.440000",
    "115016.440000",
    "115018.440000",
    "115020.440000",
    "115022.440000",
    "115024.440000",
    "115026.440000",
    "115028.440000",
    "115030.440000",
    "115032.440000",
    "115034.440000",
    "115036.440000",
    "115038.440000",
    "115040.440000",
    "115042.440000",
    "115044.440000"
   ],
   "ContentTime": [
    "114216.616000",
    "114218.111000",
    "114220.111000",
    "114222.112000",
    "114224.112000",
    "114226.113000",
    "114228.112000",
    "114230.111000",
    "114232.111000",
    "114234.111000",
    "114236.112000",
    "114238.111000",
    "114240.112000",
    "114242.112000",
    "114244.112000",
    "114246.112000",
    "114248.111000",
    "114250.111000",
    "114252.111000",
    "114254.111000",
    "114256.111000",
    "114258.611000",
    "114300.112000",
    "114302.113000",
    "114304.111000",
    "114306.112000",
    "114308.111000",
    "114310.111000",
    "114312.111000",
    "114314.111000",
    "114316.112000",
    "114318.112000",
    "114320.112000",
    "114322.111000",
    "114324.111000",
    "114326.111000",
    "114328.111000",
    "114330.111000",
    "114332.111000",
    "114334.612000",
    "114336.112000",
    "114338.112000",
    "114340.112000",
    "114342.112000",
    "114344.612000",
    "114346.112000",
    "114348.112000",
    "114350.111000",
    "114352.113000",
    "114354.112000",
    "114356.112000",
    "114358.111000",
    "114400.111000",
    "114402.111000",
    "114404.111000",
    "114406.111000",
    "114408.112000",
    "114410.113000",
    "114412.113000",
    "114414.112000",
    "114416.112000",
    "114418.111000",
    "114420.112000",
    "114422.111000",
    "114424.111000",
    "114426.111000",
    "114428.113000",
    "114430.113000",
    "114432.112000",
    "114434.112000",
    "114436.112000",
    "114438.112000",
    "114440.111000",
    "114442.111000",
    "114444.112000",
    "114446.113000",
    "114448.112000",
    "114450.112000",
    "114452.112000",
    "114454.112000",
    "114456.111000",
    "114458.112000",
    "114500.111000",
    "114502.112000",
    "114504.112000",
    "114506.611000",
    "114508.112000",
    "114510.112000",
    "114512.111000",
    "114514.111000",
    "114516.111000",
    "114518.111000",
    "114520.112000",
    "114522.113000",
    "114524.111000",
    "114526.112000",
    "114528.112000",
    "114530.111000",
    "114532.112000",
    "114534.112000",
    "114536.613000",
    "114538.113000",
    "114540.613000",
    "114542.611000",
    "114544.111000",
    "114546.111000",
    "114548.111000",
    "114550.111000",
    "114552.111000",
    "114554.112000",
    "114556.112000",
    "114558.112000",
    "114600.111000",
    "114602.112000",
    "114604.111000",
    "114606.112000",
    "114608.112000",
    "114610.611000",
    "114612.613000",
    "114614.112000",
    "114616.611000",
    "114618.111000",
    "114620.611000",
    "114622.112000",
    "114624.112000",
    "114626.111000",
    "114628.112000",
    "114630.113000",
    "114632.113000",
    "114634.112000",
    "114636.112000",
    "114638.112000",
    "114640.111000",
    "114642.112000",
    "114644.111000",
    "114646.113000",
    "114648.113000",
    "114650.112000",
    "114652.112000",
    "114654.111000",
    "114656.112000",
    "114658.111000",
    "114700.112000",
    "114702.112000",
    "114704.112000",
    "114706.113000",
    "114708.112000",
    "114710.112000",
    "114712.112000",
    "114714.111000",
    "114716.112000",
    "114718.112000",
    "114720.111000",
    "114722.113000",
    "114724.112000",
    "114726.113000",
    "114728.111000",
    "114730.111000",
    "114732.112000",
    "114734.111000",
    "114736.112000",
    "114738.112000",
    "114740.112000",
    "114742.113000",
    "114744.111000",
    "114746.112000",
    "114748.111000",
    "114750.111000",
    "114752.111000",
    "114754.112000",
    "114756.112000",
    "114758.113000",
    "114800.113000",
    "114802.111000",
    "114804.111000",
    "114806.111000",
    "114808.111000",
    "114810.112000",
    "114812.112000",
    "114814.112000",
    "114816.113000",
    "114818.112000",
    "114820.112000",
    "114822.112000",
    "114824.112000",
    "114826.112000",
    "114828.111000",
    "114830.112000",
    "114832.112000",
    "114834.112000",
    "114836.113000",
    "114838.112000",
    "114840.112000",
    "114842.112000",
    "114844.111000",
    "114846.112000",
    "114848.112000",
    "114850.113000",
    "114852.121000",
    "114854.111000",
    "114856.111000",
    "114858.112000",
    "114900.112000",
    "114902.111000",
    "114904.112000",
    "114906.112000",
    "114908.112000",
    "114910.113000",
    "114912.111000",
    "114914.112000",
    "114916.112000",
    "114918.112000",
    "114920.612000",
    "114922.112000",
    "114924.113000",
    "114926.113000",
    "114928.112000",
    "114930.112000",
    "114932.112000",
    "114934.112000",
    "114936.112000",
    "114938.111000",
    "114940.112000",
    "114942.113000",
    "114944.113000",
    "114946.113000",
    "114948.111000",
    "114950.112000",
    "114952.111000",
    "114954.111000",
    "114956.112000",
    "114958.112000",
    "115000.113000",
    "115002.113000",
    "115004.112000",
    "115006.112000",
    "115008.111000",
    "115010.112000",
    "115012.112000",
    "115014.112000",
    "115016.112000",
    "115018.113000",
    "115020.113000",
    "115022.111000",
    "115024.111000",
    "115026.112000",
    "115028.111000",
    "115030.612000",
    "115032.112000",
    "115034.613000",
    "115036.113000",
    "115038.113000",
    "115040.112000",
    "115042.111000",
    "115044.111000",
    "115046.002000"
   ],
   "InstanceCreationTime": [
    "114216.616000",
    "114218.111000",
    "114220.111000",
    "114222.112000",
    "114224.112000",
    "114226.113000",
    "114228.112000",
    "114230.111000",
    "114232.111000",
    "114234.111000",
    "114236.112000",
    "114238.111000",
    "114240.112000",
    "114242.112000",
    "114244.112000",
    "114246.112000",
    "114248.111000",
    "114250.111000",
    "114252.111000",
    "114254.111000",
    "114256.111000",
    "114258.611000",
    "114300.112000",
    "114302.113000",
    "114304.111000",
    "114306.112000",
    "114308.111000",
    "114310.111000",
    "114312.111000",
    "114314.111000",
    "114316.112000",
    "114318.112000",
    "114320.112000",
    "114322.111000",
    "114324.111000",
    "114326.111000",
    "114328.111000",
    "114330.111000",
    "114332.111000",
    "114334.612000",
    "114336.112000",
    "114338.112000",
    "114340.112000",
    "114342.112000",
    "114344.612000",
    "114346.112000",
    "114348.112000",
    "114350.111000",
    "114352.113000",
    "114354.112000",
    "114356.112000",
    "114358.111000",
    "114400.111000",
    "114402.111000",
    "114404.111000",
    "114406.111000",
    "114408.112000",
    "114410.113000",
    "114412.113000",
    "114414.112000",
    "114416.112000",
    "114418.111000",
    "114420.112000",
    "114422.111000",
    "114424.111000",
    "114426.111000",
    "114428.113000",
    "114430.113000",
    "114432.112000",
    "114434.112000",
    "114436.112000",
    "114438.112000",
    "114440.111000",
    "114442.111000",
    "114444.112000",
    "114446.113000",
    "114448.112000",
    "114450.112000",
    "114452.112000",
    "114454.112000",
    "114456.111000",
    "114458.112000",
    "114500.111000",
    "114502.112000",
    "114504.112000",
    "114506.611000",
    "114508.112000",
    "114510.112000",
    "114512.111000",
    "114514.111000",
    "114516.111000",
    "114518.111000",
    "114520.112000",
    "114522.113000",
    "114524.111000",
    "114526.112000",
    "114528.112000",
    "114530.111000",
    "114532.112000",
    "114534.112000",
    "114536.613000",
    "114538.113000",
    "114540.613000",
    "114542.611000",
    "114544.111000",
    "114546.111000",
    "114548.111000",
    "114550.111000",
    "114552.111000",
    "114554.112000",
    "114556.112000",
    "114558.112000",
    "114600.111000",
    "114602.112000",
    "114604.111000",
    "114606.112000",
    "114608.112000",
    "114610.611000",
    "114612.613000",
    "114614.112000",
    "114616.611000",
    "114618.111000",
    "114620.611000",
    "114622.112000",
    "114624.112000",
    "114626.111000",
    "114628.112000",
    "114630.113000",
    "114632.113000",
    "114634.112000",
    "114636.112000",
    "114638.112000",
    "114640.111000",
    "114642.112000",
    "114644.111000",
    "114646.113000",
    "114648.113000",
    "114650.112000",
    "114652.112000",
    "114654.111000",
    "114656.112000",
    "114658.111000",
    "114700.112000",
    "114702.112000",
    "114704.112000",
    "114706.113000",
    "114708.112000",
    "114710.112000",
    "114712.112000",
    "114714.111000",
    "114716.112000",
    "114718.112000",
    "114720.111000",
    "114722.113000",
    "114724.112000",
    "114726.113000",
    "114728.111000",
    "114730.111000",
    "114732.112000",
    "114734.111000",
    "114736.112000",
    "114738.112000",
    "114740.112000",
    "114742.113000",
    "114744.111000",
    "114746.112000",
    "114748.111000",
    "114750.111000",
    "114752.111000",
    "114754.112000",
    "114756.112000",
    "114758.113000",
    "114800.113000",
    "114802.111000",
    "114804.111000",
    "114806.111000",
    "114808.111000",
    "114810.112000",
    "114812.112000",
    "114814.112000",
    "114816.113000",
    "114818.112000",
    "114820.112000",
    "114822.112000",
    "114824.112000",
    "114826.112000",
    "114828.111000",
    "114830.112000",
    "114832.112000",
    "114834.112000",
    "114836.113000",
    "114838.112000",
    "114840.112000",
    "114842.112000",
    "114844.111000",
    "114846.112000",
    "114848.112000",
    "114850.113000",
    "114852.121000",
    "114854.111000",
    "114856.111000",
    "114858.112000",
    "114900.112000",
    "114902.111000",
    "114904.112000",
    "114906.112000",
    "114908.112000",
    "114910.113000",
    "114912.111000",
    "114914.112000",
    "114916.112000",
    "114918.112000",
    "114920.612000",
    "114922.112000",
    "114924.113000",
    "114926.113000",
    "114928.112000",
    "114930.112000",
    "114932.112000",
    "114934.112000",
    "114936.112000",
    "114938.111000",
    "114940.112000",
    "114942.113000",
    "114944.113000",
    "114946.113000",
    "114948.111000",
    "114950.112000",
    "114952.111000",
    "114954.111000",
    "114956.112000",
    "114958.112000",
    "115000.113000",
    "115002.113000",
    "115004.112000",
    "115006.112000",
    "115008.111000",
    "115010.112000",
    "115012.112000",
    "115014.112000",
    "115016.112000",
    "115018.113000",
    "115020.113000",
    "115022.111000",
    "115024.111000",
    "115026.112000",
    "115028.111000",
    "115030.612000",
    "115032.112000",
    "115034.613000",
    "115036.113000",
    "115038.113000",
    "115040.112000",
    "115042.111000",
    "115044.111000",
    "115046.002000"
   ],
   "InstanceNumber": [
    1,
    2,
    3,
    4,
    5,
    6,
    7,
    8,
    9,
    10,
    11,
    12,
    13,
    14,
    15,
    16,
    17,
    18,
    19,
    20,
    21,
    22,
    23,
    24,
    25,
    26,
    27,
    28,
    29,
    30,
    31,
    32,
    33,
    34,
    35,
    36,
    37,
    38,
    39,
    40,
    41,
    42,
    43,
    44,
    45,
    46,
    47,
    48,
    49,
    50,
    51,
    52,
    53,
    54,
    55,
    56,
    57,
    58,
    59,
    60,
    61,
    62,
    63,
    64,
    65,
    66,
    67,
    68,
    69,
    70,
    71,
    72,
    73,
    74,
    75,
    76,
    77,
    78,
    79,
    80,
    81,
    82,
    83,
    84,
    85,
    86,
    87,
    88,
    89,
    90,
    91,
    92,
    93,
    94,
    95,
    96,
    97,
    98,
    99,
    100,
    101,
    102,
    103,
    104,
    105,
    106,
    107,
    108,
    109,
    110,
    111,
    112,
    113,
    114,
    115,
    116,
    117,
    118,
    119,
    120,
    121,
    122,
    123,
    124,
    125,
    126,
    127,
    128,
    129,
    130,
    131,
    132,
    133,
    134,
    135,
    136,
    137,
    138,
    139,
    140,
    141,
    142,
    143,
    144,
    145,
    146,
    147,
    148,
    149,
    150,
    151,
    152,
    153,
    154,
    155,
    156,
    157,
    158,
    159,
    160,
    161,
    162,
    163,
    164,
    165,
    166,
    167,
    168,
    169,
    170,
    171,
    172,
    173,
    174,
    175,
    176,
    177,
    178,
    179,
    180,
    181,
    182,
    183,
    184,
    185,
    186,
    187,
    188,
    189,
    190,
    191,
    192,
    193,
    194,
    195,
    196,
    197,
    198,
    199,
    200,
    201,
    202,
    203,
    204,
    205,
    206,
    207,
    208,
    209,
    210,
    211,
    212,
    213,
    214,
    215,
    216,
    217,
    218,
    219,
    220,
    221,
    222,
    223,
    224,
    225,
    226,
    227,
    228,
    229,
    230,
    231,
    232,
    233,
    234,
    235,
    236,
    237,
    238,
    239,
    240,
    241,
    242,
    243,
    244,
    245,
    246,
    247,
    248,
    249,
    250,
    251,
    252,
    253,
    254,
    255,
    256
   ],
   "LargestImagePixelValue": [
    2758,
    2763,
    2748,
    2688,
    2692,
    2650,
    2640,
    2655,
    2725,
    2768,
    2711,
    2679,
    2691,
    2700,
    2707,
    2676,
    2673,
    2718,
    2736,
    2768,
    2721,
    2634,
    2686,
    2684,
    2721,
    2755,
    2749,
    2756,
    2707,
    2707,
    2746,
    2763,
    2775,
    2716,
    2627,
    2603,
    2642,
    2633,
    2672,
    2665,
    2640,
    2645,
    2666,
    2655,
    2726,
    2640,
    2653,
    2650,
    2667,
    2688,
    2675,
    2843,
    2628,
    2630,
    2616,
    2615,
    2631,
    2656,
    2668,
    2616,
    2605,
    2619,
    2634,
    2614,
    2644,
    2636,
    2608,
    2600,
    2608,
    2638,
    2631,
    2630,
    2613,
    2643,
    2628,
    2618,
    2617,
    2630,
    2610,
    2644,
    2634,
    2648,
    2665,
    2625,
    2647,
    2638,
    2671,
    2643,
    2647,
    2661,
    2654,
    2629,
    2674,
    2648,
    2658,
    2683,
    2714,
    2670,
    2683,
    2663,
    2672,
    2639,
    2676,
    2693,
    2673,
    2711,
    2664,
    2656,
    2662,
    2688,
    2700,
    2701,
    2704,
    2710,
    2738,
    2706,
    2736,
    2714,
    2705,
    2690,
    2664,
    2654,
    2701,
    2679,
    2668,
    2695,
    2698,
    2673,
    2713,
    2721,
    2742,
    2762,
    2700,
    2710,
    2688,
    2689,
    2707,
    2710,
    2688,
    2719,
    2707,
    2720,
    2698,
    2694,
    2704,
    2736,
    2709,
    2715,
    2694,
    2711,
    2677,
    2687,
    2702,
    2680,
    2729,
    2703,
    2715,
    2721,
    2696,
    2694,
    2684,
    2718,
    2686,
    2736,
    2684,
    2823,
    2683,
    2668,
    2680,
    2678,
    2694,
    2695,
    2637,
    2643,
    2663,
    2663,
    2679,
    2687,
    2677,
    2693,
    2676,
    2704,
    2659,
    2693,
    2687,
    2712,
    2717,
    2719,
    2660,
    2667,
    2649,
    2688,
    2726,
    2717,
    2713,
    2700,
    2697,
    2673,
    2692,
    2683,
    2660,
    2670,
    2702,
    2697,
    2720,
    2691,
    2711,
    2693,
    2662,
    2675,
    2679,
    2683,
    2705,
    2694,
    2697,
    2705,
    2699,
    2701,
    2736,
    2724,
    2729,
    2693,
    2714,
    2713,
    2727,
    2746,
    2769,
    2742,
    2711,
    2721,
    2732,
    2741,
    2694,
    2694,
    2740,
    2745,
    2740,
    2721,
    2758,
    2723,
    2731,
    2708,
    2717,
    2716,
    2738,
    2751,
    2716,
    2735,
    2710,
    2713,
    2737,
    2729,
    2732,
    2756,
    2710,
    2762
   ],
   "WindowCenter": [
    730.0,
    729.0,
    729.0,
    728.0,
    727.0,
    727.0,
    727.0,
    726.0,
    726.0,
    726.0,
    727.0,
    727.0,
    727.0,
    727.0,
    726.0,
    726.0,
    726.0,
    726.0,
    727.0,
    727.0,
    727.0,
    726.0,
    726.0,
    725.0,
    725.0,
    726.0,
    726.0,
    726.0,
    726.0,
    726.0,
    726.0,
    726.0,
    725.0,
    725.0,
    725.0,
    725.0,
    725.0,
    725.0,
    725.0,
    725.0,
    725.0,
    726.0,
    725.0,
    725.0,
    725.0,
    725.0,
    725.0,
    726.0,
    726.0,
    726.0,
    726.0,
    728.0,
    726.0,
    726.0,
    726.0,
    725.0,
    725.0,
    725.0,
    725.0,
    725.0,
    726.0,
    726.0,
    726.0,
    726.0,
    726.0,
    727.0,
    726.0,
    726.0,
    725.0,
    726.0,
    726.0,
    727.0,
    727.0,
    727.0,
    726.0,
    726.0,
    726.0,
    727.0,
    727.0,
    727.0,
    728.0,
    727.0,
    727.0,
    726.0,
    726.0,
    726.0,
    726.0,
    725.0,
    725.0,
    726.0,
    726.0,
    726.0,
    727.0,
    727.0,
    727.0,
    727.0,
    727.0,
    726.0,
    727.0,
    727.0,
    727.0,
    727.0,
    727.0,
    727.0,
    727.0,
    727.0,
    727.0,
    726.0,
    726.0,
    727.0,
    727.0,
    726.0,
    727.0,
    727.0,
    727.0,
    726.0,
    727.0,
    727.0,
    727.0,
    727.0,
    727.0,
    727.0,
    728.0,
    727.0,
    727.0,
