{
  "AcquisitionMatrixPE": 100,
  "AcquisitionNumber": 1,
  "AcquisitionTime": "11:51:44.292500",
  "BandwidthPerPixelPhaseEncode": 18.519,
  "BaseResolution": 100,
  "BodyPartExamined": "BRAIN",
  "ConsistencyInfo": "N4_VE11C_LATEST_20160120",
  "ConversionSoftware": "dcm2niix",
  "ConversionSoftwareVersion": "v1.0.20180622 GCC4.9.2",
  "DerivedVendorReportedEchoSpacing": 0.000539986,
  "DeviceSerialNumber": "166078",
  "DwellTime": 2.1e-06,
  "EchoTime": 0.034,
  "EchoTrainLength": 100,
  "EffectiveEchoSpacing": 0.000539986,
  "FlipAngle": 90,
  "ImageOrientationPatientDICOM": [1, 0, 0, 0, 0.982287, -0.187381],
  "ImageType": [
    "ORIGINAL",
    "PRIMARY",
    "M",
    "ND",
    "MOSAIC"
],
  "InPlanePhaseEncodingDirectionDICOM": "COL",
  "InstitutionAddress": "Street_StreetNo_Bei_Jing_District_CN_ZIP",
  "InstitutionName": "BeiJing_Normal_University",
  "InstitutionalDepartmentName": "Department",
  "MRAcquisitionType": "2D",
  "MagneticFieldStrength": 3,
  "Manufacturer": "Siemens",
  "ManufacturersModelName": "Prisma",
  "Modality": "MR",
  "MultibandAccelerationFactor": 3,
  "PartialFourier": 1,
  "PatientPosition": "HFS",
  "PercentPhaseFOV": 100,
  "PhaseEncodingDirection": "j-",
  "PhaseEncodingSteps": 100,
  "PhaseResolution": 1,
  "PixelBandwidth": 2380,
  "ProcedureStepDescription": "BNU_P2018_64CH_Zhen.ZongLei",
  "ProtocolName": "bold_100x100_s3_2x2x2_static_256",
  "PulseSequenceDetails": "%SiemensSeq%_ep2d_bold",
  "ReceiveCoilActiveElements": "HC1-7;NC1",
  "ReceiveCoilName": "HeadNeck_64",
  "ReconMatrixPE": 100,
  "RepetitionTime": 2,
  "SAR": 0.06884,
  "ScanOptions": "FS",
  "ScanningSequence": "EP",
  "SequenceName": "_epfid2d1_100",
  "SequenceVariant": "SK",
  "SeriesDescription": "bold_100x100_s3_2x2x2_static_256",
  "SeriesNumber": 6,
  "ShimSetting": [-5457, -11504, -1285, 306, -53, -246, -125, 39],
  "SliceThickness": 2,
  "SliceTiming": [1.485, 0, 0.99, 0.0825, 1.0725, 0.165, 1.155, 0.2475, 1.2375, 0.33, 1.32, 0.4125, 1.4025, 0.5775, 1.5675, 0.66, 1.65, 0.7425, 1.7325, 0.825, 1.815, 0.9075, 1.8975, 0.495, 1.485, 0, 0.99, 0.0825, 1.0725, 0.165, 1.155, 0.2475, 1.2375, 0.33, 1.32, 0.4125, 1.4025, 0.5775, 1.5675, 0.66, 1.65, 0.7425, 1.7325, 0.825, 1.815, 0.9075, 1.8975, 0.495, 1.485, 0, 0.99, 0.0825, 1.0725, 0.165, 1.155, 0.2475, 1.2375, 0.33, 1.32, 0.4125, 1.4025, 0.5775, 1.5675, 0.66, 1.65, 0.7425, 1.7325, 0.825, 1.815, 0.9075, 1.8975, 0.495],
  "SoftwareVersions": "syngo_MR_E11",
  "SpacingBetweenSlices": 2,
  "StationName": "AWP166078",
  "TaskName": "naturalvision",
  "TotalReadoutTime": 0.0534586,
  "TxRefAmp": 211.901,
  "dcmmeta_affine": [
    [-2.0, 0.0, 0.0, 103.38983154296875],
    [0.0, 1.9645744562149048, -0.374762624502182, -78.19866943359375],
    [0.0, 0.374762624502182, 1.9645744562149048, -100.270751953125],
    [0.0, 0.0, 0.0, 1.0]
],
  "dcmmeta_reorient_transform": [
    [0.0, -1.0, 0.0, 99.0],
    [1.0, 0.0, 0.0, 0.0],
    [0.0, 0.0, 1.0, 0.0],
    [0.0, 0.0, 0.0, 1.0]
],
  "dcmmeta_shape": [100, 100, 72, 256],
  "dcmmeta_slice_dim": 2,
  "dcmmeta_version": 0.6,
  "global": {
    "const": {
      "AcquisitionMatrix": [100, 0, 0, 100],
      "AngioFlag": "N",
      "BitsAllocated": 16,
      "BitsStored": 12,
      "BodyPartExamined": "BRAIN",
      "Columns": 900,
      "EchoNumbers": 1,
      "EchoTime": 34.0,
      "EchoTrainLength": 100,
      "FlipAngle": 90.0,
      "HighBit": 11,
      "ImageOrientationPatient": [1.0, 0.0, 0.0, 0.0, 0.98228725047307, -0.1873813159257],
      "ImagePositionPatient": [-903.38983058929, -902.12400279698, 86.735797553354],
      "ImageType": [
        "ORIGINAL",
        "PRIMARY",
        "M",
        "ND",
        "MOSAIC"
],
      "ImagedNucleus": "1H",
      "ImagingFrequency": 123.257761,
      "InPlanePhaseEncodingDirection": "COL",
      "MRAcquisitionType": "2D",
      "MagneticFieldStrength": 3.0,
      "Manufacturer": "SIEMENS",
      "ManufacturerModelName": "Prisma",
      "Modality": "MR",
      "NumberOfAverages": 1.0,
      "NumberOfPhaseEncodingSteps": 100,
      "PercentPhaseFieldOfView": 100.0,
      "PercentSampling": 100.0,
      "PerformedProcedureStepStartTime": "111946.085000",
      "PhotometricInterpretation": "MONOCHROME2",
      "PixelBandwidth": 2380.0,
      "PixelRepresentation": 0,
      "PixelSpacing": [2.0, 2.0],
      "ProtocolName": "bold_100x100_s3_2x2x2_static_256",
      "RepetitionTime": 2000.0,
      "Rows": 900,
      "SAR": 0.06884001428517,
      "SamplesPerPixel": 1,
      "ScanOptions": "FS",
      "ScanningSequence": "EP",
      "SequenceName": "*epfid2d1_100",
      "SequenceVariant": "SK",
      "SeriesDescription": "bold_100x100_s3_2x2x2_static_256",
      "SeriesNumber": 6,
      "SeriesTime": "115146.336000",
      "SliceLocation": -83.841714675994,
      "SliceThickness": 2.0,
      "SmallestImagePixelValue": 0,
      "SoftwareVersions": "syngo MR E11",
      "SpacingBetweenSlices": 2.000000014055,
      "SpecificCharacterSet": "ISO_IR 100",
      "StudyID": "1",
      "StudyTime": "111945.951000",
      "TransmitCoilName": "Body",
      "VariableFlipAngleFlag": "N",
      "WindowCenterWidthExplanation": "Algo1",
      "dBdt": 0.0},
    "slices": {}
  },
  "time": {
    "samples": {
      "AcquisitionNumber": [1, 2, 3, 4, 5, 6, 7, 8, 9, 10, 11, 12, 13, 14, 15, 16, 17, 18, 19, 20, 21, 22, 23, 24, 25, 26, 27, 28, 29, 30, 31, 32, 33, 34, 35, 36, 37, 38, 39, 40, 41, 42, 43, 44, 45, 46, 47, 48, 49, 50, 51, 52, 53, 54, 55, 56, 57, 58, 59, 60, 61, 62, 63, 64, 65, 66, 67, 68, 69, 70, 71, 72, 73, 74, 75, 76, 77, 78, 79, 80, 81, 82, 83, 84, 85, 86, 87, 88, 89, 90, 91, 92, 93, 94, 95, 96, 97, 98, 99, 100, 101, 102, 103, 104, 105, 106, 107, 108, 109, 110, 111, 112, 113, 114, 115, 116, 117, 118, 119, 120, 121, 122, 123, 124, 125, 126, 127, 128, 129, 130, 131, 132, 133, 134, 135, 136, 137, 138, 139, 140, 141, 142, 143, 144, 145, 146, 147, 148, 149, 150, 151, 152, 153, 154, 155, 156, 157, 158, 159, 160, 161, 162, 163, 164, 165, 166, 167, 168, 169, 170, 171, 172, 173, 174, 175, 176, 177, 178, 179, 180, 181, 182, 183, 184, 185, 186, 187, 188, 189, 190, 191, 192, 193, 194, 195, 196, 197, 198, 199, 200, 201, 202, 203, 204, 205, 206, 207, 208, 209, 210, 211, 212, 213, 214, 215, 216, 217, 218, 219, 220, 221, 222, 223, 224, 225, 226, 227, 228, 229, 230, 231, 232, 233, 234, 235, 236, 237, 238, 239, 240, 241, 242, 243, 244, 245, 246, 247, 248, 249, 250, 251, 252, 253, 254, 255, 256],
      "AcquisitionTime": ["115144.292500", "115146.292500", "115148.292500", "115150.292500", "115152.292500", "115154.292500", "115156.292500", "115158.292500", "115200.292500", "115202.292500", "115204.292500", "115206.292500", "115208.292500", "115210.292500", "115212.292500", "115214.292500", "115216.292500", "115218.292500", "115220.292500", "115222.292500", "115224.292500", "115226.292500", "115228.292500", "115230.292500", "115232.292500", "115234.292500", "115236.292500", "115238.292500", "115240.292500", "115242.292500", "115244.292500", "115246.292500", "115248.292500", "115250.292500", "115252.292500", "115254.292500", "115256.292500", "115258.292500", "115300.292500", "115302.292500", "115304.292500", "115306.292500", "115308.292500", "115310.292500", "115312.292500", "115314.292500", "115316.292500", "115318.292500", "115320.292500", "115322.292500", "115324.292500", "115326.292500", "115328.292500", "115330.292500", "115332.292500", "115334.292500", "115336.292500", "115338.292500", "115340.292500", "115342.292500", "115344.292500", "115346.292500", "115348.292500", "115350.292500", "115352.292500", "115354.292500", "115356.292500", "115358.292500", "115400.292500", "115402.292500", "115404.292500", "115406.292500", "115408.292500", "115410.292500", "115412.292500", "115414.292500", "115416.292500", "115418.292500", "115420.292500", "115422.292500", "115424.292500", "115426.292500", "115428.292500", "115430.292500", "115432.292500", "115434.292500", "115436.292500", "115438.292500", "115440.292500", "115442.292500", "115444.292500", "115446.292500", "115448.292500", "115450.292500", "115452.292500", "115454.292500", "115456.292500", "115458.292500", "115500.292500", "115502.292500", "115504.292500", "115506.292500", "115508.292500", "115510.292500", "115512.292500", "115514.292500", "115516.292500", "115518.292500", "115520.292500", "115522.292500", "115524.292500", "115526.292500", "115528.292500", "115530.292500", "115532.292500", "115534.292500", "115536.292500", "115538.292500", "115540.292500", "115542.292500", "115544.292500", "115546.292500", "115548.292500", "115550.292500", "115552.292500", "115554.292500", "115556.292500", "115558.292500", "115600.292500", "115602.292500", "115604.292500", "115606.292500", "115608.292500", "115610.292500", "115612.292500", "115614.292500", "115616.292500", "115618.292500", "115620.292500", "115622.292500", "115624.292500", "115626.292500", "115628.292500", "115630.292500", "115632.292500", "115634.292500", "115636.292500", "115638.292500", "115640.292500", "115642.292500", "115644.292500", "115646.292500", "115648.292500", "115650.292500", "115652.292500", "115654.292500", "115656.292500", "115658.292500", "115700.292500", "115702.292500", "115704.292500", "115706.292500", "115708.292500", "115710.292500", "115712.292500", "115714.292500", "115716.292500", "115718.292500", "115720.292500", "115722.292500", "115724.292500", "115726.292500", "115728.292500", "115730.292500", "115732.292500", "115734.292500", "115736.292500", "115738.292500", "115740.292500", "115742.292500", "115744.292500", "115746.292500", "115748.292500", "115750.292500", "115752.292500", "115754.292500", "115756.292500", "115758.292500", "115800.292500", "115802.292500", "115804.292500", "115806.292500", "115808.292500", "115810.292500", "115812.292500", "115814.292500", "115816.292500", "115818.292500", "115820.292500", "115822.292500", "115824.292500", "115826.292500", "115828.292500", "115830.292500", "115832.292500", "115834.292500", "115836.292500", "115838.292500", "115840.292500", "115842.292500", "115844.292500", "115846.292500", "115848.292500", "115850.292500", "115852.292500", "115854.292500", "115856.292500", "115858.292500", "115900.292500", "115902.292500", "115904.292500", "115906.292500", "115908.292500", "115910.292500", "115912.292500", "115914.292500", "115916.292500", "115918.292500", "115920.292500", "115922.292500", "115924.292500", "115926.292500", "115928.292500", "115930.292500", "115932.292500", "115934.292500", "115936.292500", "115938.292500", "115940.292500", "115942.292500", "115944.292500", "115946.292500", "115948.292500", "115950.292500", "115952.292500", "115954.292500", "115956.292500", "115958.292500", "120000.292500", "120002.292500", "120004.292500", "120006.292500", "120008.292500", "120010.292500", "120012.292500", "120014.292500"],
      "ContentTime": ["115146.340000", "115147.836000", "115149.835000", "115151.835000", "115153.835000", "115155.835000", "115157.835000", "115159.854000", "115201.835000", "115203.835000", "115205.835000", "115207.835000", "115209.836000", "115211.836000", "115213.855000", "115215.834000", "115217.834000", "115219.835000", "115221.835000", "115223.835000", "115225.835000", "115227.835000", "115229.835000", "115231.835000", "115233.835000", "115235.836000", "115237.836000", "115239.835000", "115241.835000", "115243.836000", "115245.836000", "115247.835000", "115249.835000", "115251.834000", "115253.836000", "115255.835000", "115257.835000", "115259.835000", "115301.835000", "115303.835000", "115305.835000", "115307.836000", "115309.834000", "115311.836000", "115313.835000", "115315.835000", "115317.836000", "115319.836000", "115321.836000", "115323.835000", "115325.834000", "115327.835000", "115329.835000", "115331.835000", "115333.835000", "115335.835000", "115337.836000", "115339.835000", "115341.835000", "115343.835000", "115345.835000", "115347.835000", "115349.836000", "115351.835000", "115353.836000", "115355.836000", "115357.835000", "115359.835000", "115401.834000", "115403.836000", "115405.835000", "115407.836000", "115409.836000", "115411.835000", "115413.836000", "115415.836000", "115417.835000", "115419.835000", "115421.836000", "115423.835000", "115425.835000", "115427.835000", "115429.836000", "115431.835000", "115433.835000", "115435.835000", "115437.835000", "115439.835000", "115441.836000", "115443.835000", "115445.835000", "115447.835000", "115449.835000", "115451.835000", "115453.834000", "115455.836000", "115457.835000", "115459.836000", "115501.836000", "115503.835000", "115505.835000", "115507.836000", "115509.836000", "115511.835000", "115513.835000", "115515.836000", "115517.836000", "115519.835000", "115521.835000", "115523.835000", "115525.835000", "115527.835000", "115529.835000", "115531.835000", "115533.836000", "115535.835000", "115537.836000", "115539.836000", "115541.835000", "115543.835000", "115545.834000", "115547.834000", "115549.836000", "115551.835000", "115553.836000", "115555.836000", "115557.835000", "115559.836000", "115601.835000", "115603.835000", "115605.835000", "115607.836000", "115609.835000", "115611.836000", "115613.836000", "115615.836000", "115617.835000", "115619.836000", "115621.834000", "115623.836000", "115625.836000", "115627.836000", "115629.835000", "115631.835000", "115633.835000", "115635.836000", "115637.835000", "115639.834000", "115641.835000", "115643.835000", "115645.835000", "115647.836000", "115649.835000", "115651.835000", "115653.835000", "115655.834000", "115657.834000", "115659.835000", "115701.835000", "115703.836000", "115705.835000", "115707.835000", "115709.836000", "115711.835000", "115713.835000", "115715.836000", "115717.836000", "115719.835000", "115721.836000", "115723.836000", "115725.835000", "115727.835000", "115729.836000", "115731.834000", "115733.835000", "115735.836000", "115737.835000", "115739.836000", "115741.836000", "115743.836000", "115745.836000", "115747.835000", "115749.834000", "115751.835000", "115753.836000", "115755.836000", "115757.835000", "115759.836000", "115801.836000", "115803.836000", "115805.834000", "115807.834000", "115809.836000", "115811.836000", "115813.835000", "115815.836000", "115817.835000", "115819.835000", "115821.836000", "115823.835000", "115825.836000", "115827.836000", "115829.836000", "115831.836000", "115833.835000", "115835.836000", "115837.836000", "115839.836000", "115841.834000", "115843.849000", "115845.836000", "115847.836000", "115849.835000", "115851.835000", "115853.835000", "115855.836000", "115857.836000", "115859.834000", "115901.836000", "115903.835000", "115905.836000", "115907.836000", "115909.836000", "115911.836000", "115913.836000", "115915.834000", "115917.834000", "115919.836000", "115921.836000", "115923.836000", "115925.836000", "115927.836000", "115929.836000", "115931.835000", "115933.835000", "115935.836000", "115937.836000", "115939.836000", "115941.836000", "115943.835000", "115945.836000", "115947.836000", "115949.836000", "115951.834000", "115953.836000", "115955.836000", "115957.835000", "115959.835000", "120001.836000", "120003.836000", "120005.836000", "120007.834000", "120009.835000", "120011.835000", "120013.836000", "120015.530000"],
      "InstanceCreationTime": ["115146.340000", "115147.836000", "115149.835000", "115151.835000", "115153.835000", "115155.835000", "115157.835000", "115159.854000", "115201.835000", "115203.835000", "115205.835000", "115207.835000", "115209.836000", "115211.836000", "115213.855000", "115215.834000", "115217.834000", "115219.835000", "115221.835000", "115223.835000", "115225.835000", "115227.835000", "115229.835000", "115231.835000", "115233.835000", "115235.836000", "115237.836000", "115239.835000", "115241.835000", "115243.836000", "115245.836000", "115247.835000", "115249.835000", "115251.834000", "115253.836000", "115255.835000", "115257.835000", "115259.835000", "115301.835000", "115303.835000", "115305.835000", "115307.836000", "115309.834000", "115311.836000", "115313.835000", "115315.835000", "115317.836000", "115319.836000", "115321.836000", "115323.835000", "115325.834000", "115327.835000", "115329.835000", "115331.835000", "115333.835000", "115335.835000", "115337.836000", "115339.835000", "115341.835000", "115343.835000", "115345.835000", "115347.835000", "115349.836000", "115351.835000", "115353.836000", "115355.836000", "115357.835000", "115359.835000", "115401.834000", "115403.836000", "115405.835000", "115407.836000", "115409.836000", "115411.835000", "115413.836000", "115415.836000", "115417.835000", "115419.835000", "115421.836000", "115423.835000", "115425.835000", "115427.835000", "115429.836000", "115431.835000", "115433.835000", "115435.835000", "115437.835000", "115439.835000", "115441.836000", "115443.835000", "115445.835000", "115447.835000", "115449.835000", "115451.835000", "115453.834000", "115455.836000", "115457.835000", "115459.836000", "115501.836000", "115503.835000", "115505.835000", "115507.836000", "115509.836000", "115511.835000", "115513.835000", "115515.836000", "115517.836000", "115519.835000", "115521.835000", "115523.835000", "115525.835000", "115527.835000", "115529.835000", "115531.835000", "115533.836000", "115535.835000", "115537.836000", "115539.836000", "115541.835000", "115543.835000", "115545.834000", "115547.834000", "115549.836000", "115551.835000", "115553.836000", "115555.836000", "115557.835000", "115559.836000", "115601.835000", "115603.835000", "115605.835000", "115607.836000", "115609.835000", "115611.836000", "115613.836000", "115615.836000", "115617.835000", "115619.836000", "115621.834000", "115623.836000", "115625.836000", "115627.836000", "115629.835000", "115631.835000", "115633.835000", "115635.836000", "115637.835000", "115639.834000", "115641.835000", "115643.835000", "115645.835000", "115647.836000", "115649.835000", "115651.835000", "115653.835000", "115655.834000", "115657.834000", "115659.835000", "115701.835000", "115703.836000", "115705.835000", "115707.835000", "115709.836000", "115711.835000", "115713.835000", "115715.836000", "115717.836000", "115719.835000", "115721.836000", "115723.836000", "115725.835000", "115727.835000", "115729.836000", "115731.834000", "115733.835000", "115735.836000", "115737.835000", "115739.836000", "115741.836000", "115743.836000", "115745.836000", "115747.835000", "115749.834000", "115751.835000", "115753.836000", "115755.836000", "115757.835000", "115759.836000", "115801.836000", "115803.836000", "115805.834000", "115807.834000", "115809.836000", "115811.836000", "115813.835000", "115815.836000", "115817.835000", "115819.835000", "115821.836000", "115823.835000", "115825.836000", "115827.836000", "115829.836000", "115831.836000", "115833.835000", "115835.836000", "115837.836000", "115839.836000", "115841.834000", "115843.849000", "115845.836000", "115847.836000", "115849.835000", "115851.835000", "115853.835000", "115855.836000", "115857.836000", "115859.834000", "115901.836000", "115903.835000", "115905.836000", "115907.836000", "115909.836000", "115911.836000", "115913.836000", "115915.834000", "115917.834000", "115919.836000", "115921.836000", "115923.836000", "115925.836000", "115927.836000", "115929.836000", "115931.835000", "115933.835000", "115935.836000", "115937.836000", "115939.836000", "115941.836000", "115943.835000", "115945.836000", "115947.836000", "115949.836000", "115951.834000", "115953.836000", "115955.836000", "115957.835000", "115959.835000", "120001.836000", "120003.836000", "120005.836000", "120007.834000", "120009.835000", "120011.835000", "120013.836000", "120015.530000"],
      "InstanceNumber": [1, 2, 3, 4, 5, 6, 7, 8, 9, 10, 11, 12, 13, 14, 15, 16, 17, 18, 19, 20, 21, 22, 23, 24, 25, 26, 27, 28, 29, 30, 31, 32, 33, 34, 35, 36, 37, 38, 39, 40, 41, 42, 43, 44, 45, 46, 47, 48, 49, 50, 51, 52, 53, 54, 55, 56, 57, 58, 59, 60, 61, 62, 63, 64, 65, 66, 67, 68, 69, 70, 71, 72, 73, 74, 75, 76, 77, 78, 79, 80, 81, 82, 83, 84, 85, 86, 87, 88, 89, 90, 91, 92, 93, 94, 95, 96, 97, 98, 99, 100, 101, 102, 103, 104, 105, 106, 107, 108, 109, 110, 111, 112, 113, 114, 115, 116, 117, 118, 119, 120, 121, 122, 123, 124, 125, 126, 127, 128, 129, 130, 131, 132, 133, 134, 135, 136, 137, 138, 139, 140, 141, 142, 143, 144, 145, 146, 147, 148, 149, 150, 151, 152, 153, 154, 155, 156, 157, 158, 159, 160, 161, 162, 163, 164, 165, 166, 167, 168, 169, 170, 171, 172, 173, 174, 175, 176, 177, 178, 179, 180, 181, 182, 183, 184, 185, 186, 187, 188, 189, 190, 191, 192, 193, 194, 195, 196, 197, 198, 199, 200, 201, 202, 203, 204, 205, 206, 207, 208, 209, 210, 211, 212, 213, 214, 215, 216, 217, 218, 219, 220, 221, 222, 223, 224, 225, 226, 227, 228, 229, 230, 231, 232, 233, 234, 235, 236, 237, 238, 239, 240, 241, 242, 243, 244, 245, 246, 247, 248, 249, 250, 251, 252, 253, 254, 255, 256],
      "LargestImagePixelValue": [2768, 2705, 2698, 2705, 2709, 2751, 2770, 2763, 2761, 2784, 2751, 2736, 2732, 2791, 2755, 2791, 2796, 2775, 2796, 2854, 2816, 2819, 2809, 2834, 2849, 2899, 2865, 2866, 2910, 2896, 2871, 2887, 2883, 2904, 2859, 2873, 2877, 2873, 2841, 2877, 2895, 2858, 2848, 2860, 2862, 2836, 2827, 2857, 2864, 2898, 2837, 2843, 2864, 2884, 2878, 2866, 2852, 2894, 2869, 2868, 2871, 2862, 2832, 2867, 2912, 2904, 2887, 2865, 2911, 2906, 2871, 2888, 2904, 2907, 2882, 2891, 2890, 2893, 2890, 2884, 2877, 2918, 2880, 2891, 2932, 2932, 2905, 2927, 2891, 2938, 2911, 2900, 2883, 2908, 2944, 2945, 2911, 2924, 2909, 2891, 2919, 2927, 2942, 2955, 2934, 2907, 2862, 2899, 2905, 2932, 2896, 2885, 2882, 2935, 2926, 2924, 2925, 2950, 2932, 2910, 2858, 2906, 2893, 2902, 2931, 2955, 2944, 2873, 2887, 2925, 2924, 2898, 2909, 2944, 2915, 2907, 2880, 2857, 2866, 2883, 2911, 2888, 2923, 2881, 2879, 2903, 2888, 2850, 2836, 2866, 2856, 2888, 2878, 2894, 2859, 2824, 2825, 2871, 2905, 2918, 2885, 2842, 2848, 2890, 2889, 2868, 2845, 2851, 2892, 2869, 2900, 2856, 2872, 2877, 2833, 2886, 2864, 2880, 2881, 2833, 2876, 2871, 2862, 2878, 2881, 2859, 2785, 2812, 2830, 2875, 2885, 2841, 2842, 2816, 2852, 2859, 2830, 2872, 2845, 2829, 2821, 2806, 2811, 2819, 2838, 2838, 2876, 2882, 2869, 2843, 2857, 2820, 2834, 2852, 2833, 2809, 2828, 2889, 2831, 2834, 2875, 2844, 2850, 2881, 2885, 2895, 2928, 2863, 2827, 2815, 2867, 2895, 2899, 2876, 2867, 2857, 2845, 2873, 2853, 2852, 2831, 2863, 2880, 2850, 2871, 2849, 2858, 2860, 2858, 2897, 2916, 2906, 2893, 2879, 2880, 2828],
      "WindowCenter": [731.0, 730.0, 730.0, 729.0, 728.0, 728.0, 728.0, 728.0, 728.0, 729.0, 729.0, 729.0, 729.0, 729.0, 728.0, 729.0, 729.0, 728.0, 728.0, 729.0, 728.0, 728.0, 728.0, 729.0, 729.0, 729.0, 729.0, 729.0, 729.0, 728.0, 728.0, 728.0, 729.0, 729.0, 728.0, 729.0, 729.0, 728.0, 728.0, 729.0, 729.0, 729.0, 728.0, 729.0, 729.0, 728.0, 728.0, 729.0, 729.0, 729.0, 728.0, 728.0, 728.0, 729.0, 729.0, 729.0, 729.0, 729.0, 729.0, 729.0, 729.0, 729.0, 729.0, 729.0, 729.0, 729.0, 729.0, 729.0, 729.0, 730.0, 730.0, 730.0, 729.0, 729.0, 729.0, 729.0, 729.0, 729.0, 729.0, 729.0, 729.0, 729.0, 729.0, 729.0, 730.0, 729.0, 729.0, 730.0, 730.0, 730.0, 730.0, 729.0, 729.0, 728.0, 729.0, 729.0, 729.0, 729.0, 729.0, 729.0, 729.0, 729.0, 729.0, 729.0, 729.0, 728.0, 728.0, 729.0, 729.0, 729.0, 729.0, 730.0, 730.0, 730.0, 729.0, 729.0, 729.0, 730.0, 730.0, 730.0, 730.0, 729.0, 728.0, 728.0, 729.0, 730.0, 730.0, 730.0, 729.0, 729.0, 729.0, 729.0, 730.0, 730.0, 729.0, 729.0, 729.0, 729.0, 730.0, 730.0, 730.0, 729.0, 730.0, 729.0, 730.0, 730.0, 730.0, 730.0, 730.0, 729.0, 729.0, 729.0, 729.0, 730.0, 730.0, 730.0, 729.0, 729.0, 729.0, 730.0, 730.0, 730.0, 730.0, 730.0, 730.0, 729.0, 730.0, 730.0, 730.0, 730.0, 730.0, 729.0, 730.0, 730.0, 730.0, 730.0, 729.0, 729.0, 730.0, 730.0, 730.0, 730.0, 730.0, 730.0, 729.0, 729.0, 730.0, 730.0, 729.0, 729.0, 729.0, 729.0, 730.0, 729.0, 729.0, 729.0, 729.0, 729.0, 728.0, 728.0, 728.0, 728.0, 728.0, 728.0, 729.0, 729.0, 729.0, 729.0, 729.0, 729.0, 730.0, 729.0, 729.0, 729.0, 729.0, 729.0, 729.0, 729.0, 729.0, 729.0, 730.0, 729.0, 730.0, 731.0, 731.0, 731.0, 731.0, 731.0, 731.0, 731.0, 730.0, 730.0, 730.0, 730.0, 731.0, 731.0, 731.0, 730.0, 730.0, 730.0, 730.0, 730.0, 731.0, 731.0, 731.0, 730.0, 729.0, 729.0, 730.0, 730.0, 730.0, 730.0, 730.0, 730.0, 731.0, 730.0],
      "WindowWidth": [1564.0, 1562.0, 1562.0, 1559.0, 1557.0, 1557.0, 1557.0, 1557.0, 1558.0, 1559.0, 1561.0, 1560.0, 1560.0, 1561.0, 1559.0, 1559.0, 1559.0, 1558.0, 1558.0, 1559.0, 1557.0, 1558.0, 1558.0, 1560.0, 1561.0, 1560.0, 1559.0, 1560.0, 1561.0, 1559.0, 1558.0, 1558.0, 1559.0, 1559.0, 1558.0, 1559.0, 1559.0, 1558.0, 1557.0, 1559.0, 1560.0, 1559.0, 1559.0, 1559.0, 1560.0, 1558.0, 1558.0, 1560.0, 1560.0, 1559.0, 1557.0, 1558.0, 1559.0, 1560.0, 1559.0, 1559.0, 1559.0, 1560.0, 1559.0, 1560.0, 1560.0, 1559.0, 1559.0, 1559.0, 1560.0, 1560.0, 1561.0, 1559.0, 1561.0, 1561.0, 1563.0, 1561.0, 1560.0, 1560.0, 1559.0, 1560.0, 1560.0, 1560.0, 1560.0, 1560.0, 1559.0, 1560.0, 1559.0, 1559.0, 1561.0, 1560.0, 1560.0, 1561.0, 1562.0, 1562.0, 1562.0, 1561.0, 1559.0, 1558.0, 1560.0, 1561.0, 1560.0, 1560.0, 1560.0, 1560.0, 1559.0, 1559.0, 1560.0, 1560.0, 1559.0, 1557.0, 1558.0, 1559.0, 1559.0, 1560.0, 1560.0, 1562.0, 1562.0, 1562.0, 1561.0, 1559.0, 1558.0, 1561.0, 1562.0, 1563.0, 1561.0, 1559.0, 1558.0, 1558.0, 1560.0, 1562.0, 1563.0, 1561.0, 1560.0, 1560.0, 1561.0, 1560.0, 1561.0, 1561.0, 1561.0, 1561.0, 1560.0, 1560.0, 1562.0, 1562.0, 1562.0, 1560.0, 1561.0, 1561.0, 1561.0, 1562.0, 1563.0, 1562.0, 1561.0, 1560.0, 1559.0, 1559.0, 1560.0, 1562.0, 1562.0, 1562.0, 1561.0, 1560.0, 1561.0, 1562.0, 1563.0, 1562.0, 1562.0, 1563.0, 1562.0, 1561.0, 1562.0, 1562.0, 1563.0, 1562.0, 1562.0, 1561.0, 1562.0, 1561.0, 1561.0, 1561.0, 1559.0, 1559.0, 1561.0, 1562.0, 1562.0, 1562.0, 1562.0, 1562.0, 1560.0, 1560.0, 1562.0, 1562.0, 1560.0, 1561.0, 1561.0, 1561.0, 1562.0, 1561.0, 1560.0, 1559.0, 1559.0, 1559.0, 1558.0, 1558.0, 1558.0, 1557.0, 1558.0, 1558.0, 1561.0, 1559.0, 1560.0, 1560.0, 1559.0, 1559.0, 1561.0, 1561.0, 1560.0, 1561.0, 1561.0, 1559.0, 1560.0, 1561.0, 1560.0, 1559.0, 1561.0, 1561.0, 1562.0, 1563.0, 1563.0, 1563.0, 1563.0, 1563.0, 1564.0, 1563.0, 1563.0, 1562.0, 1562.0, 1562.0, 1563.0, 1563.0, 1563.0, 1562.0, 1563.0, 1562.0, 1563.0, 1563.0, 1564.0, 1563.0, 1564.0, 1561.0, 1560.0, 1560.0, 1561.0, 1561.0, 1560.0, 1561.0, 1561.0, 1561.0, 1564.0, 1563.0]
    },
    "slices": {}
  }
}