{
  "AcquisitionMatrixPE": 100,
  "AcquisitionNumber": 1,
  "AcquisitionTime": "12:10:0.747500",
  "BandwidthPerPixelPhaseEncode": 18.519,
  "BaseResolution": 100,
  "BodyPartExamined": "BRAIN",
  "ConsistencyInfo": "N4_VE11C_LATEST_20160120",
  "ConversionSoftware": "dcm2niix",
  "ConversionSoftwareVersion": "v1.0.20180622 GCC4.9.2",
  "DerivedVendorReportedEchoSpacing": 0.000539986,
  "DeviceSerialNumber": "166078",
  "DwellTime": 2.1e-06,
  "EchoTime": 0.034,
  "EchoTrainLength": 100,
  "EffectiveEchoSpacing": 0.000539986,
  "FlipAngle": 90,
  "ImageOrientationPatientDICOM": [1, 0, 0, 0, 0.964557, -0.263873],
  "ImageType": [
    "ORIGINAL",
    "PRIMARY",
    "M",
    "ND",
    "MOSAIC"
],
  "InPlanePhaseEncodingDirectionDICOM": "COL",
  "InstitutionAddress": "Street_StreetNo_Bei_Jing_District_CN_ZIP",
  "InstitutionName": "BeiJing_Normal_University",
  "InstitutionalDepartmentName": "Department",
  "MRAcquisitionType": "2D",
  "MagneticFieldStrength": 3,
  "Manufacturer": "Siemens",
  "ManufacturersModelName": "Prisma",
  "Modality": "MR",
  "MultibandAccelerationFactor": 3,
  "PartialFourier": 1,
  "PatientPosition": "HFS",
  "PercentPhaseFOV": 100,
  "PhaseEncodingDirection": "j-",
  "PhaseEncodingSteps": 100,
  "PhaseResolution": 1,
  "PixelBandwidth": 2380,
  "ProcedureStepDescription": "BNU_P2018_64CH_Zhen.ZongLei",
  "ProtocolName": "bold_100x100_s3_2x2x2_static_256",
  "PulseSequenceDetails": "%SiemensSeq%_ep2d_bold",
  "ReceiveCoilActiveElements": "HC1-7;NC1",
  "ReceiveCoilName": "HeadNeck_64",
  "ReconMatrixPE": 100,
  "RepetitionTime": 2,
  "SAR": 0.0869097,
  "ScanOptions": "FS",
  "ScanningSequence": "EP",
  "SequenceName": "_epfid2d1_100",
  "SequenceVariant": "SK",
  "SeriesDescription": "bold_100x100_s3_2x2x2_static_256",
  "SeriesNumber": 11,
  "ShimSetting": [-5458, -11476, -1285, 418, -8, -101, -131, 76],
  "SliceThickness": 2,
  "SliceTiming": [1.485, 0, 0.99, 0.0825, 1.0725, 0.165, 1.155, 0.2475, 1.2375, 0.33, 1.32, 0.4125, 1.4025, 0.5775, 1.5675, 0.66, 1.65, 0.7425, 1.7325, 0.825, 1.815, 0.9075, 1.8975, 0.495, 1.485, 0, 0.99, 0.0825, 1.0725, 0.165, 1.155, 0.2475, 1.2375, 0.33, 1.32, 0.4125, 1.4025, 0.5775, 1.5675, 0.66, 1.65, 0.7425, 1.7325, 0.825, 1.815, 0.9075, 1.8975, 0.495, 1.485, 0, 0.99, 0.0825, 1.0725, 0.165, 1.155, 0.2475, 1.2375, 0.33, 1.32, 0.4125, 1.4025, 0.5775, 1.5675, 0.66, 1.65, 0.7425, 1.7325, 0.825, 1.815, 0.9075, 1.8975, 0.495],
  "SoftwareVersions": "syngo_MR_E11",
  "SpacingBetweenSlices": 2,
  "StationName": "AWP166078",
  "TaskName": "naturalvision",
  "TotalReadoutTime": 0.0534586,
  "TxRefAmp": 233.897,
  "dcmmeta_affine": [
    [-2.0, 0.0, 0.0, 100.0],
    [0.0, 1.929114818572998, -0.5277460813522339, -75.0446548461914],
    [0.0, 0.5277460813522339, 1.929114818572998, -104.2130126953125],
    [0.0, 0.0, 0.0, 1.0]
],
  "dcmmeta_reorient_transform": [
    [0.0, -1.0, 0.0, 99.0],
    [1.0, 0.0, 0.0, 0.0],
    [0.0, 0.0, 1.0, 0.0],
    [0.0, 0.0, 0.0, 1.0]
],
  "dcmmeta_shape": [100, 100, 72, 256],
  "dcmmeta_slice_dim": 2,
  "dcmmeta_version": 0.6,
  "global": {
    "const": {
      "AcquisitionMatrix": [100, 0, 0, 100],
      "AngioFlag": "N",
      "BitsAllocated": 16,
      "BitsStored": 12,
      "BodyPartExamined": "BRAIN",
      "Columns": 900,
      "EchoNumbers": 1,
      "EchoTime": 34.0,
      "EchoTrainLength": 100,
      "FlipAngle": 90.0,
      "HighBit": 11,
      "ImageOrientationPatient": [1.0, 0.0, 0.0, 0.0, 0.96455741917473, -0.2638730473447],
      "ImagePositionPatient": [-900.0, -887.58365090533, 159.1322880204],
      "ImageType": [
        "ORIGINAL",
        "PRIMARY",
        "M",
        "ND",
        "MOSAIC"
],
      "ImagedNucleus": "1H",
      "ImagingFrequency": 123.257785,
      "InPlanePhaseEncodingDirection": "COL",
      "MRAcquisitionType": "2D",
      "MagneticFieldStrength": 3.0,
      "Manufacturer": "SIEMENS",
      "ManufacturerModelName": "Prisma",
      "Modality": "MR",
      "NumberOfAverages": 1.0,
      "NumberOfPhaseEncodingSteps": 100,
      "PercentPhaseFieldOfView": 100.0,
      "PercentSampling": 100.0,
      "PerformedProcedureStepStartTime": "110550.613000",
      "PhotometricInterpretation": "MONOCHROME2",
      "PixelBandwidth": 2380.0,
      "PixelRepresentation": 0,
      "PixelSpacing": [2.0, 2.0],
      "ProtocolName": "bold_100x100_s3_2x2x2_static_256",
      "RepetitionTime": 2000.0,
      "Rows": 900,
      "SAR": 0.08690972422199,
      "SamplesPerPixel": 1,
      "ScanOptions": "FS",
      "ScanningSequence": "EP",
      "SequenceName": "*epfid2d1_100",
      "SequenceVariant": "SK",
      "SeriesDescription": "bold_100x100_s3_2x2x2_static_256",
      "SeriesNumber": 11,
      "SeriesTime": "121003.745000",
      "SliceLocation": -80.71717369741,
      "SliceThickness": 2.0,
      "SmallestImagePixelValue": 0,
      "SoftwareVersions": "syngo MR E11",
      "SpacingBetweenSlices": 1.9999999740285,
      "SpecificCharacterSet": "ISO_IR 100",
      "StudyID": "1",
      "StudyTime": "110550.541000",
      "TransmitCoilName": "Body",
      "VariableFlipAngleFlag": "N",
      "WindowCenterWidthExplanation": "Algo1",
      "dBdt": 0.0},
    "slices": {}
  },
  "time": {
    "samples": {
      "AcquisitionNumber": [1, 2, 3, 4, 5, 6, 7, 8, 9, 10, 11, 12, 13, 14, 15, 16, 17, 18, 19, 20, 21, 22, 23, 24, 25, 26, 27, 28, 29, 30, 31, 32, 33, 34, 35, 36, 37, 38, 39, 40, 41, 42, 43, 44, 45, 46, 47, 48, 49, 50, 51, 52, 53, 54, 55, 56, 57, 58, 59, 60, 61, 62, 63, 64, 65, 66, 67, 68, 69, 70, 71, 72, 73, 74, 75, 76, 77, 78, 79, 80, 81, 82, 83, 84, 85, 86, 87, 88, 89, 90, 91, 92, 93, 94, 95, 96, 97, 98, 99, 100, 101, 102, 103, 104, 105, 106, 107, 108, 109, 110, 111, 112, 113, 114, 115, 116, 117, 118, 119, 120, 121, 122, 123, 124, 125, 126, 127, 128, 129, 130, 131, 132, 133, 134, 135, 136, 137, 138, 139, 140, 141, 142, 143, 144, 145, 146, 147, 148, 149, 150, 151, 152, 153, 154, 155, 156, 157, 158, 159, 160, 161, 162, 163, 164, 165, 166, 167, 168, 169, 170, 171, 172, 173, 174, 175, 176, 177, 178, 179, 180, 181, 182, 183, 184, 185, 186, 187, 188, 189, 190, 191, 192, 193, 194, 195, 196, 197, 198, 199, 200, 201, 202, 203, 204, 205, 206, 207, 208, 209, 210, 211, 212, 213, 214, 215, 216, 217, 218, 219, 220, 221, 222, 223, 224, 225, 226, 227, 228, 229, 230, 231, 232, 233, 234, 235, 236, 237, 238, 239, 240, 241, 242, 243, 244, 245, 246, 247, 248, 249, 250, 251, 252, 253, 254, 255, 256],
      "AcquisitionTime": ["121000.747500", "121002.747500", "121004.747500", "121006.747500", "121008.747500", "121010.747500", "121012.747500", "121014.747500", "121016.747500", "121018.747500", "121020.747500", "121022.747500", "121024.747500", "121026.747500", "121028.747500", "121030.747500", "121032.747500", "121034.747500", "121036.747500", "121038.747500", "121040.747500", "121042.747500", "121044.747500", "121046.747500", "121048.747500", "121050.747500", "121052.747500", "121054.747500", "121056.747500", "121058.747500", "121100.747500", "121102.747500", "121104.747500", "121106.747500", "121108.747500", "121110.747500", "121112.747500", "121114.747500", "121116.747500", "121118.747500", "121120.747500", "121122.747500", "121124.747500", "121126.747500", "121128.747500", "121130.747500", "121132.747500", "121134.747500", "121136.747500", "121138.747500", "121140.747500", "121142.747500", "121144.747500", "121146.747500", "121148.747500", "121150.747500", "121152.747500", "121154.747500", "121156.747500", "121158.747500", "121200.747500", "121202.747500", "121204.747500", "121206.747500", "121208.747500", "121210.747500", "121212.747500", "121214.747500", "121216.747500", "121218.747500", "121220.747500", "121222.747500", "121224.747500", "121226.747500", "121228.747500", "121230.747500", "121232.747500", "121234.747500", "121236.747500", "121238.747500", "121240.747500", "121242.747500", "121244.747500", "121246.747500", "121248.747500", "121250.747500", "121252.747500", "121254.747500", "121256.747500", "121258.747500", "121300.747500", "121302.747500", "121304.747500", "121306.747500", "121308.747500", "121310.747500", "121312.747500", "121314.747500", "121316.747500", "121318.747500", "121320.747500", "121322.747500", "121324.747500", "121326.747500", "121328.747500", "121330.747500", "121332.747500", "121334.747500", "121336.747500", "121338.747500", "121340.747500", "121342.747500", "121344.747500", "121346.747500", "121348.747500", "121350.747500", "121352.747500", "121354.747500", "121356.747500", "121358.747500", "121400.747500", "121402.747500", "121404.747500", "121406.747500", "121408.747500", "121410.747500", "121412.747500", "121414.747500", "121416.747500", "121418.747500", "121420.747500", "121422.747500", "121424.747500", "121426.747500", "121428.747500", "121430.747500", "121432.747500", "121434.747500", "121436.747500", "121438.747500", "121440.747500", "121442.747500", "121444.747500", "121446.747500", "121448.747500", "121450.747500", "121452.747500", "121454.747500", "121456.747500", "121458.747500", "121500.747500", "121502.747500", "121504.747500", "121506.747500", "121508.747500", "121510.747500", "121512.747500", "121514.747500", "121516.747500", "121518.747500", "121520.747500", "121522.747500", "121524.747500", "121526.747500", "121528.747500", "121530.747500", "121532.747500", "121534.747500", "121536.747500", "121538.747500", "121540.747500", "121542.747500", "121544.747500", "121546.747500", "121548.747500", "121550.747500", "121552.747500", "121554.747500", "121556.747500", "121558.747500", "121600.747500", "121602.747500", "121604.747500", "121606.747500", "121608.747500", "121610.747500", "121612.747500", "121614.747500", "121616.747500", "121618.747500", "121620.747500", "121622.747500", "121624.747500", "121626.747500", "121628.747500", "121630.747500", "121632.747500", "121634.747500", "121636.747500", "121638.747500", "121640.747500", "121642.747500", "121644.747500", "121646.747500", "121648.747500", "121650.747500", "121652.747500", "121654.747500", "121656.747500", "121658.747500", "121700.747500", "121702.747500", "121704.747500", "121706.747500", "121708.747500", "121710.747500", "121712.747500", "121714.747500", "121716.747500", "121718.747500", "121720.747500", "121722.747500", "121724.747500", "121726.747500", "121728.747500", "121730.747500", "121732.747500", "121734.747500", "121736.747500", "121738.747500", "121740.747500", "121742.747500", "121744.747500", "121746.747500", "121748.747500", "121750.747500", "121752.747500", "121754.747500", "121756.747500", "121758.747500", "121800.747500", "121802.747500", "121804.747500", "121806.747500", "121808.747500", "121810.747500", "121812.747500", "121814.747500", "121816.747500", "121818.747500", "121820.747500", "121822.747500", "121824.747500", "121826.747500", "121828.747500", "121830.747500"],
      "ContentTime": ["121003.749000", "121005.244000", "121007.245000", "121009.245000", "121011.245000", "121013.246000", "121015.245000", "121017.246000", "121019.244000", "121021.244000", "121023.244000", "121025.246000", "121027.246000", "121029.245000", "121031.245000", "121033.246000", "121035.244000", "121037.244000", "121039.245000", "121041.244000", "121043.246000", "121045.245000", "121047.245000", "121049.245000", "121051.245000", "121053.244000", "121055.244000", "121057.244000", "121059.244000", "121101.246000", "121103.245000", "121105.246000", "121107.246000", "121109.245000", "121111.245000", "121113.245000", "121115.244000", "121117.246000", "121119.245000", "121121.246000", "121123.246000", "121125.246000", "121127.245000", "121129.245000", "121131.244000", "121133.245000", "121135.246000", "121137.245000", "121139.245000", "121141.245000", "121143.246000", "121145.244000", "121147.244000", "121149.244000", "121151.245000", "121153.246000", "121155.245000", "121157.245000", "121159.246000", "121201.245000", "121203.244000", "121205.245000", "121207.244000", "121209.244000", "121211.245000", "121213.245000", "121215.246000", "121217.245000", "121219.246000", "121221.245000", "121223.245000", "121225.245000", "121227.245000", "121229.246000", "121231.246000", "121233.245000", "121235.246000", "121237.246000", "121239.245000", "121241.244000", "121243.244000", "121245.246000", "121247.246000", "121249.246000", "121251.246000", "121253.245000", "121255.244000", "121257.244000", "121259.245000", "121301.245000", "121303.245000", "121305.246000", "121307.245000", "121309.245000", "121311.246000", "121313.244000", "121315.244000", "121317.244000", "121319.244000", "121321.246000", "121323.245000", "121325.245000", "121327.245000", "121329.246000", "121331.244000", "121333.245000", "121335.244000", "121337.246000", "121339.245000", "121341.246000", "121343.246000", "121345.246000", "121347.246000", "121349.245000", "121351.245000", "121353.245000", "121355.245000", "121357.245000", "121359.245000", "121401.246000", "121403.245000", "121405.245000", "121407.245000", "121409.244000", "121411.244000", "121413.245000", "121415.245000", "121417.245000", "121419.245000", "121421.245000", "121423.244000", "121425.245000", "121427.245000", "121429.246000", "121431.245000", "121433.245000", "121435.245000", "121437.245000", "121439.246000", "121441.244000", "121443.245000", "121445.245000", "121447.245000", "121449.245000", "121451.246000", "121453.246000", "121455.245000", "121457.246000", "121459.245000", "121501.244000", "121503.245000", "121505.245000", "121507.246000", "121509.246000", "121511.246000", "121513.246000", "121515.244000", "121517.244000", "121519.245000", "121521.245000", "121523.246000", "121525.246000", "121527.246000", "121529.246000", "121531.246000", "121533.245000", "121535.245000", "121537.244000", "121539.246000", "121541.246000", "121543.246000", "121545.245000", "121547.246000", "121549.246000", "121551.245000", "121553.244000", "121555.244000", "121557.245000", "121559.245000", "121601.245000", "121603.245000", "121605.246000", "121607.246000", "121609.245000", "121611.245000", "121613.244000", "121615.245000", "121617.246000", "121619.246000", "121621.245000", "121623.245000", "121625.244000", "121627.245000", "121629.245000", "121631.245000", "121633.246000", "121635.246000", "121637.246000", "121639.246000", "121641.245000", "121643.245000", "121645.245000", "121647.245000", "121649.246000", "121651.246000", "121653.246000", "121655.245000", "121657.246000", "121659.246000", "121701.245000", "121703.245000", "121705.245000", "121707.246000", "121709.246000", "121711.246000", "121713.246000", "121715.246000", "121717.245000", "121719.245000", "121721.245000", "121723.251000", "121725.246000", "121727.246000", "121729.245000", "121731.246000", "121733.246000", "121735.244000", "121737.244000", "121739.245000", "121741.245000", "121743.245000", "121745.246000", "121747.246000", "121749.245000", "121751.246000", "121753.245000", "121755.245000", "121757.245000", "121759.245000", "121801.245000", "121803.246000", "121805.246000", "121807.245000", "121809.245000", "121811.245000", "121813.245000", "121815.244000", "121817.245000", "121819.245000", "121821.245000", "121823.246000", "121825.245000", "121827.244000", "121829.245000", "121831.245000", "121833.009000"],
      "InstanceCreationTime": ["121003.749000", "121005.244000", "121007.245000", "121009.245000", "121011.245000", "121013.246000", "121015.245000", "121017.246000", "121019.244000", "121021.244000", "121023.244000", "121025.246000", "121027.246000", "121029.245000", "121031.245000", "121033.246000", "121035.244000", "121037.244000", "121039.245000", "121041.244000", "121043.246000", "121045.245000", "121047.245000", "121049.245000", "121051.245000", "121053.244000", "121055.244000", "121057.244000", "121059.244000", "121101.246000", "121103.245000", "121105.246000", "121107.246000", "121109.245000", "121111.245000", "121113.245000", "121115.244000", "121117.246000", "121119.245000", "121121.246000", "121123.246000", "121125.246000", "121127.245000", "121129.245000", "121131.244000", "121133.245000", "121135.246000", "121137.245000", "121139.245000", "121141.245000", "121143.246000", "121145.244000", "121147.244000", "121149.244000", "121151.245000", "121153.246000", "121155.245000", "121157.245000", "121159.246000", "121201.245000", "121203.244000", "121205.245000", "121207.244000", "121209.244000", "121211.245000", "121213.245000", "121215.246000", "121217.245000", "121219.246000", "121221.245000", "121223.245000", "121225.245000", "121227.245000", "121229.246000", "121231.246000", "121233.245000", "121235.246000", "121237.246000", "121239.245000", "121241.244000", "121243.244000", "121245.246000", "121247.246000", "121249.246000", "121251.246000", "121253.245000", "121255.244000", "121257.244000", "121259.245000", "121301.245000", "121303.245000", "121305.246000", "121307.245000", "121309.245000", "121311.246000", "121313.244000", "121315.244000", "121317.244000", "121319.244000", "121321.246000", "121323.245000", "121325.245000", "121327.245000", "121329.246000", "121331.244000", "121333.245000", "121335.244000", "121337.246000", "121339.245000", "121341.246000", "121343.246000", "121345.246000", "121347.246000", "121349.245000", "121351.245000", "121353.245000", "121355.245000", "121357.245000", "121359.245000", "121401.246000", "121403.245000", "121405.245000", "121407.245000", "121409.244000", "121411.244000", "121413.245000", "121415.245000", "121417.245000", "121419.245000", "121421.245000", "121423.244000", "121425.245000", "121427.245000", "121429.246000", "121431.245000", "121433.245000", "121435.245000", "121437.245000", "121439.246000", "121441.244000", "121443.245000", "121445.245000", "121447.245000", "121449.245000", "121451.246000", "121453.246000", "121455.245000", "121457.246000", "121459.245000", "121501.244000", "121503.245000", "121505.245000", "121507.246000", "121509.246000", "121511.246000", "121513.246000", "121515.244000", "121517.244000", "121519.245000", "121521.245000", "121523.246000", "121525.246000", "121527.246000", "121529.246000", "121531.246000", "121533.245000", "121535.245000", "121537.244000", "121539.246000", "121541.246000", "121543.246000", "121545.245000", "121547.246000", "121549.246000", "121551.245000", "121553.244000", "121555.244000", "121557.245000", "121559.245000", "121601.245000", "121603.245000", "121605.246000", "121607.246000", "121609.245000", "121611.245000", "121613.244000", "121615.245000", "121617.246000", "121619.246000", "121621.245000", "121623.245000", "121625.244000", "121627.245000", "121629.245000", "121631.245000", "121633.246000", "121635.246000", "121637.246000", "121639.246000", "121641.245000", "121643.245000", "121645.245000", "121647.245000", "121649.246000", "121651.246000", "121653.246000", "121655.245000", "121657.246000", "121659.246000", "121701.245000", "121703.245000", "121705.245000", "121707.246000", "121709.246000", "121711.246000", "121713.246000", "121715.246000", "121717.245000", "121719.245000", "121721.245000", "121723.251000", "121725.246000", "121727.246000", "121729.245000", "121731.246000", "121733.246000", "121735.244000", "121737.244000", "121739.245000", "121741.245000", "121743.245000", "121745.246000", "121747.246000", "121749.245000", "121751.246000", "121753.245000", "121755.245000", "121757.245000", "121759.245000", "121801.245000", "121803.246000", "121805.246000", "121807.245000", "121809.245000", "121811.245000", "121813.245000", "121815.244000", "121817.245000", "121819.245000", "121821.245000", "121823.246000", "121825.245000", "121827.244000", "121829.245000", "121831.245000", "121833.009000"],
      "InstanceNumber": [1, 2, 3, 4, 5, 6, 7, 8, 9, 10, 11, 12, 13, 14, 15, 16, 17, 18, 19, 20, 21, 22, 23, 24, 25, 26, 27, 28, 29, 30, 31, 32, 33, 34, 35, 36, 37, 38, 39, 40, 41, 42, 43, 44, 45, 46, 47, 48, 49, 50, 51, 52, 53, 54, 55, 56, 57, 58, 59, 60, 61, 62, 63, 64, 65, 66, 67, 68, 69, 70, 71, 72, 73, 74, 75, 76, 77, 78, 79, 80, 81, 82, 83, 84, 85, 86, 87, 88, 89, 90, 91, 92, 93, 94, 95, 96, 97, 98, 99, 100, 101, 102, 103, 104, 105, 106, 107, 108, 109, 110, 111, 112, 113, 114, 115, 116, 117, 118, 119, 120, 121, 122, 123, 124, 125, 126, 127, 128, 129, 130, 131, 132, 133, 134, 135, 136, 137, 138, 139, 140, 141, 142, 143, 144, 145, 146, 147, 148, 149, 150, 151, 152, 153, 154, 155, 156, 157, 158, 159, 160, 161, 162, 163, 164, 165, 166, 167, 168, 169, 170, 171, 172, 173, 174, 175, 176, 177, 178, 179, 180, 181, 182, 183, 184, 185, 186, 187, 188, 189, 190, 191, 192, 193, 194, 195, 196, 197, 198, 199, 200, 201, 202, 203, 204, 205, 206, 207, 208, 209, 210, 211, 212, 213, 214, 215, 216, 217, 218, 219, 220, 221, 222, 223, 224, 225, 226, 227, 228, 229, 230, 231, 232, 233, 234, 235, 236, 237, 238, 239, 240, 241, 242, 243, 244, 245, 246, 247, 248, 249, 250, 251, 252, 253, 254, 255, 256],
      "LargestImagePixelValue": [3678, 3594, 3579, 3593, 3611, 3569, 3600, 3542, 3608, 3566, 3589, 3559, 3569, 3598, 3580, 3575, 3555, 3583, 3616, 3585, 3574, 3564, 3543, 3533, 3547, 3599, 3572, 3556, 3573, 3557, 3593, 3581, 3560, 3592, 3588, 3554, 3579, 3578, 3604, 3589, 3600, 3560, 3579, 3546, 3541, 3532, 3556, 3526, 3538, 3541, 3554, 3531, 3528, 3499, 3531, 3537, 3546, 3537, 3543, 3533, 3555, 3591, 3591, 3562, 3565, 3534, 3542, 3529, 3568, 3560, 3558, 3516, 3552, 3527, 3549, 3551, 3550, 3563, 3567, 3567, 3607, 3587, 3543, 3533, 3554, 3527, 3538, 3562, 3554, 3555, 3538, 3549, 3556, 3572, 3532, 3555, 3535, 3555, 3547, 3541, 3574, 3560, 3530, 3544, 3539, 3542, 3597, 3543, 3527, 3540, 3579, 3554, 3545, 3532, 3568, 3561, 3575, 3539, 3515, 3538, 3573, 3539, 3557, 3560, 3577, 3582, 3545, 3513, 3481, 3540, 3501, 3569, 3541, 3516, 3537, 3539, 3556, 3549, 3539, 3493, 3477, 3496, 3500, 3485, 3473, 3459, 3480, 3428, 3464, 3503, 3496, 3481, 3492, 3519, 3508, 3506, 3503, 3453, 3456, 3482, 3476, 3471, 3516, 3534, 3525, 3526, 3523, 3523, 3511, 3503, 3494, 3455, 3427, 3446, 3436, 3460, 3456, 3462, 3457, 3430, 3476, 3428, 3429, 3457, 3468, 3505, 3497, 3485, 3414, 3415, 3446, 3490, 3482, 3500, 3468, 3462, 3440, 3449, 3434, 3434, 3443, 3424, 3478, 3437, 3457, 3464, 3468, 3468, 3451, 3451, 3450, 3470, 3477, 3495, 3441, 3444, 3416, 3439, 3410, 3426, 3387, 3415, 3416, 3399, 3405, 3418, 3417, 3424, 3428, 3417, 3418, 3403, 3403, 3502, 3496, 3471, 3495, 3498, 3530, 3510, 3436, 3436, 3419, 3437, 3436, 3434, 3423, 3463, 3448, 3490, 3472, 3426, 3473, 3454, 3452, 3401],
      "WindowCenter": [848.0, 845.0, 845.0, 846.0, 847.0, 846.0, 845.0, 844.0, 844.0, 844.0, 844.0, 845.0, 845.0, 845.0, 843.0, 843.0, 843.0, 843.0, 843.0, 842.0, 841.0, 842.0, 843.0, 844.0, 844.0, 844.0, 843.0, 843.0, 844.0, 844.0, 845.0, 844.0, 843.0, 842.0, 843.0, 845.0, 845.0, 845.0, 844.0, 843.0, 843.0, 844.0, 845.0, 844.0, 843.0, 842.0, 842.0, 843.0, 843.0, 843.0, 842.0, 841.0, 841.0, 841.0, 843.0, 844.0, 843.0, 842.0, 843.0, 844.0, 845.0, 844.0, 844.0, 843.0, 843.0, 845.0, 846.0, 845.0, 846.0, 845.0, 844.0, 843.0, 842.0, 842.0, 843.0, 844.0, 845.0, 845.0, 845.0, 844.0, 843.0, 843.0, 844.0, 846.0, 846.0, 845.0, 845.0, 844.0, 844.0, 843.0, 843.0, 843.0, 843.0, 844.0, 844.0, 844.0, 844.0, 843.0, 843.0, 843.0, 844.0, 844.0, 844.0, 844.0, 843.0, 843.0, 844.0, 846.0, 845.0, 844.0, 843.0, 843.0, 844.0, 846.0, 845.0, 845.0, 844.0, 843.0, 844.0, 844.0, 845.0, 845.0, 845.0, 845.0, 845.0, 845.0, 845.0, 845.0, 844.0, 844.0, 844.0, 843.0, 843.0, 843.0, 844.0, 844.0, 844.0, 844.0, 844.0, 843.0, 842.0, 841.0, 842.0, 842.0, 843.0, 843.0, 843.0, 842.0, 843.0, 844.0, 844.0, 842.0, 842.0, 842.0, 843.0, 844.0, 844.0, 845.0, 845.0, 844.0, 844.0, 843.0, 844.0, 843.0, 842.0, 843.0, 843.0, 844.0, 844.0, 843.0, 843.0, 842.0, 842.0, 841.0, 841.0, 841.0, 841.0, 842.0, 843.0, 844.0, 844.0, 844.0, 844.0, 844.0, 844.0, 845.0, 843.0, 842.0, 840.0, 840.0, 841.0, 843.0, 843.0, 842.0, 841.0, 841.0, 842.0, 842.0, 842.0, 841.0, 841.0, 842.0, 843.0, 842.0, 842.0, 844.0, 844.0, 844.0, 843.0, 842.0, 843.0, 844.0, 843.0, 843.0, 842.0, 842.0, 842.0, 841.0, 841.0, 842.0, 841.0, 841.0, 841.0, 841.0, 842.0, 843.0, 843.0, 843.0, 845.0, 844.0, 843.0, 842.0, 842.0, 843.0, 844.0, 845.0, 843.0, 843.0, 844.0, 845.0, 845.0, 844.0, 843.0, 843.0, 843.0, 844.0, 844.0, 843.0, 842.0, 843.0, 845.0, 845.0, 845.0, 844.0, 843.0, 842.0],
      "WindowWidth": [1824.0, 1817.0, 1817.0, 1819.0, 1821.0, 1818.0, 1817.0, 1814.0, 1815.0, 1814.0, 1815.0, 1817.0, 1817.0, 1816.0, 1811.0, 1811.0, 1811.0, 1811.0, 1811.0, 1807.0, 1805.0, 1810.0, 1813.0, 1815.0, 1814.0, 1814.0, 1812.0, 1812.0, 1814.0, 1815.0, 1816.0, 1813.0, 1810.0, 1809.0, 1812.0, 1816.0, 1818.0, 1817.0, 1815.0, 1812.0, 1812.0, 1814.0, 1815.0, 1814.0, 1812.0, 1809.0, 1810.0, 1810.0, 1811.0, 1810.0, 1808.0, 1807.0, 1806.0, 1807.0, 1811.0, 1813.0, 1811.0, 1810.0, 1811.0, 1814.0, 1816.0, 1815.0, 1813.0, 1811.0, 1813.0, 1816.0, 1819.0, 1818.0, 1818.0, 1817.0, 1815.0, 1811.0, 1810.0, 1809.0, 1810.0, 1815.0, 1816.0, 1817.0, 1817.0, 1813.0, 1810.0, 1811.0, 1814.0, 1818.0, 1819.0, 1817.0, 1817.0, 1815.0, 1813.0, 1812.0, 1812.0, 1811.0, 1810.0, 1813.0, 1814.0, 1814.0, 1813.0, 1812.0, 1810.0, 1811.0, 1813.0, 1813.0, 1812.0, 1813.0, 1810.0, 1810.0, 1815.0, 1818.0, 1816.0, 1812.0, 1812.0, 1812.0, 1814.0, 1818.0, 1817.0, 1816.0, 1814.0, 1812.0, 1813.0, 1814.0, 1815.0, 1815.0, 1816.0, 1815.0, 1816.0, 1817.0, 1817.0, 1816.0, 1813.0, 1813.0, 1813.0, 1812.0, 1811.0, 1812.0, 1812.0, 1813.0, 1813.0, 1814.0, 1813.0, 1809.0, 1807.0, 1806.0, 1808.0, 1809.0, 1810.0, 1810.0, 1809.0, 1809.0, 1811.0, 1812.0, 1812.0, 1809.0, 1807.0, 1807.0, 1810.0, 1812.0, 1814.0, 1816.0, 1815.0, 1814.0, 1812.0, 1811.0, 1812.0, 1810.0, 1809.0, 1810.0, 1812.0, 1813.0, 1812.0, 1812.0, 1810.0, 1809.0, 1808.0, 1806.0, 1806.0, 1806.0, 1805.0, 1808.0, 1810.0, 1813.0, 1813.0, 1812.0, 1812.0, 1814.0, 1814.0, 1815.0, 1811.0, 1807.0, 1803.0, 1803.0, 1805.0, 1809.0, 1810.0, 1808.0, 1806.0, 1805.0, 1807.0, 1809.0, 1808.0, 1805.0, 1804.0, 1806.0, 1810.0, 1808.0, 1809.0, 1813.0, 1812.0, 1812.0, 1810.0, 1808.0, 1811.0, 1813.0, 1810.0, 1809.0, 1808.0, 1808.0, 1808.0, 1806.0, 1806.0, 1807.0, 1806.0, 1806.0, 1806.0, 1805.0, 1807.0, 1811.0, 1811.0, 1811.0, 1816.0, 1813.0, 1810.0, 1808.0, 1808.0, 1811.0, 1814.0, 1814.0, 1811.0, 1809.0, 1812.0, 1815.0, 1814.0, 1813.0, 1809.0, 1809.0, 1810.0, 1812.0, 1812.0, 1809.0, 1808.0, 1810.0, 1815.0, 1815.0, 1814.0, 1812.0, 1809.0, 1806.0]
    },
    "slices": {}
  }
}