{
  "AcquisitionMatrixPE": 100,
  "AcquisitionNumber": 1,
  "AcquisitionTime": "11:08:40.800000",
  "BandwidthPerPixelPhaseEncode": 18.519,
  "BaseResolution": 100,
  "BodyPartExamined": "BRAIN",
  "ConsistencyInfo": "N4_VE11C_LATEST_20160120",
  "ConversionSoftware": "dcm2niix",
  "ConversionSoftwareVersion": "v1.0.20180622 GCC4.9.2",
  "DerivedVendorReportedEchoSpacing": 0.000539986,
  "DeviceSerialNumber": "166078",
  "DwellTime": 2.1e-06,
  "EchoTime": 0.034,
  "EchoTrainLength": 100,
  "EffectiveEchoSpacing": 0.000539986,
  "FlipAngle": 90,
  "ImageOrientationPatientDICOM": [1, 0, 0, 0, 0.964557, -0.263873],
  "ImageType": [
    "ORIGINAL",
    "PRIMARY",
    "M",
    "ND",
    "MOSAIC"
],
  "InPlanePhaseEncodingDirectionDICOM": "COL",
  "InstitutionAddress": "Street_StreetNo_Bei_Jing_District_CN_ZIP",
  "InstitutionName": "BeiJing_Normal_University",
  "InstitutionalDepartmentName": "Department",
  "MRAcquisitionType": "2D",
  "MagneticFieldStrength": 3,
  "Manufacturer": "Siemens",
  "ManufacturersModelName": "Prisma",
  "Modality": "MR",
  "MultibandAccelerationFactor": 3,
  "PartialFourier": 1,
  "PatientPosition": "HFS",
  "PercentPhaseFOV": 100,
  "PhaseEncodingDirection": "j-",
  "PhaseEncodingSteps": 100,
  "PhaseResolution": 1,
  "PixelBandwidth": 2380,
  "ProcedureStepDescription": "BNU_P2018_64CH_Zhen.ZongLei",
  "ProtocolName": "bold_100x100_s3_2x2x2_static_256",
  "PulseSequenceDetails": "%SiemensSeq%_ep2d_bold",
  "ReceiveCoilActiveElements": "HC1-7;NC1",
  "ReceiveCoilName": "HeadNeck_64",
  "ReconMatrixPE": 100,
  "RepetitionTime": 2,
  "SAR": 0.0869097,
  "ScanOptions": "FS",
  "ScanningSequence": "EP",
  "SequenceName": "_epfid2d1_100",
  "SequenceVariant": "SK",
  "SeriesDescription": "bold_100x100_s3_2x2x2_static_256",
  "SeriesNumber": 3,
  "ShimSetting": [-5458, -11476, -1285, 418, -8, -101, -131, 76],
  "SliceThickness": 2,
  "SliceTiming": [1.485, 0, 0.99, 0.0825, 1.0725, 0.165, 1.155, 0.2475, 1.2375, 0.33, 1.32, 0.4125, 1.4025, 0.5775, 1.5675, 0.66, 1.65, 0.7425, 1.7325, 0.825, 1.815, 0.9075, 1.895, 0.495, 1.485, 0, 0.99, 0.0825, 1.0725, 0.165, 1.155, 0.2475, 1.2375, 0.33, 1.32, 0.4125, 1.4025, 0.5775, 1.5675, 0.66, 1.65, 0.7425, 1.7325, 0.825, 1.815, 0.9075, 1.895, 0.495, 1.485, 0, 0.99, 0.0825, 1.0725, 0.165, 1.155, 0.2475, 1.2375, 0.33, 1.32, 0.4125, 1.4025, 0.5775, 1.5675, 0.66, 1.65, 0.7425, 1.7325, 0.825, 1.815, 0.9075, 1.895, 0.495],
  "SoftwareVersions": "syngo_MR_E11",
  "SpacingBetweenSlices": 2,
  "StationName": "AWP166078",
  "TaskName": "naturalvision",
  "TotalReadoutTime": 0.0534586,
  "TxRefAmp": 233.897,
  "dcmmeta_affine": [
    [-2.0, 0.0, 0.0, 100.0],
    [0.0, 1.929114818572998, -0.5277460813522339, -75.0446548461914],
    [0.0, 0.5277460813522339, 1.929114818572998, -104.2130126953125],
    [0.0, 0.0, 0.0, 1.0]
],
  "dcmmeta_reorient_transform": [
    [0.0, -1.0, 0.0, 99.0],
    [1.0, 0.0, 0.0, 0.0],
    [0.0, 0.0, 1.0, 0.0],
    [0.0, 0.0, 0.0, 1.0]
],
  "dcmmeta_shape": [100, 100, 72, 256],
  "dcmmeta_slice_dim": 2,
  "dcmmeta_version": 0.6,
  "global": {
    "const": {
      "AcquisitionMatrix": [100, 0, 0, 100],
      "AngioFlag": "N",
      "BitsAllocated": 16,
      "BitsStored": 12,
      "BodyPartExamined": "BRAIN",
      "Columns": 900,
      "EchoNumbers": 1,
      "EchoTime": 34.0,
      "EchoTrainLength": 100,
      "FlipAngle": 90.0,
      "HighBit": 11,
      "ImageOrientationPatient": [1.0, 0.0, 0.0, 0.0, 0.96455741917473, -0.2638730473447],
      "ImagePositionPatient": [-900.0, -887.58365090533, 159.1322880204],
      "ImageType": [
        "ORIGINAL",
        "PRIMARY",
        "M",
        "ND",
        "MOSAIC"
],
      "ImagedNucleus": "1H",
      "ImagingFrequency": 123.257771,
      "InPlanePhaseEncodingDirection": "COL",
      "MRAcquisitionType": "2D",
      "MagneticFieldStrength": 3.0,
      "Manufacturer": "SIEMENS",
      "ManufacturerModelName": "Prisma",
      "Modality": "MR",
      "NumberOfAverages": 1.0,
      "NumberOfPhaseEncodingSteps": 100,
      "PercentPhaseFieldOfView": 100.0,
      "PercentSampling": 100.0,
      "PerformedProcedureStepStartTime": "110550.613000",
      "PhotometricInterpretation": "MONOCHROME2",
      "PixelBandwidth": 2380.0,
      "PixelRepresentation": 0,
      "PixelSpacing": [2.0, 2.0],
      "ProtocolName": "bold_100x100_s3_2x2x2_static_256",
      "RepetitionTime": 2000.0,
      "Rows": 900,
      "SAR": 0.08690972422199,
      "SamplesPerPixel": 1,
      "ScanOptions": "FS",
      "ScanningSequence": "EP",
      "SequenceName": "*epfid2d1_100",
      "SequenceVariant": "SK",
      "SeriesDescription": "bold_100x100_s3_2x2x2_static_256",
      "SeriesNumber": 3,
      "SeriesTime": "110843.485000",
      "SliceLocation": -80.71717369741,
      "SliceThickness": 2.0,
      "SmallestImagePixelValue": 0,
      "SoftwareVersions": "syngo MR E11",
      "SpacingBetweenSlices": 1.9999999740285,
      "SpecificCharacterSet": "ISO_IR 100",
      "StudyID": "1",
      "StudyTime": "110550.541000",
      "TransmitCoilName": "Body",
      "VariableFlipAngleFlag": "N",
      "WindowCenterWidthExplanation": "Algo1",
      "dBdt": 0.0},
    "slices": {}
  },
  "time": {
    "samples": {
      "AcquisitionNumber": [1, 2, 3, 4, 5, 6, 7, 8, 9, 10, 11, 12, 13, 14, 15, 16, 17, 18, 19, 20, 21, 22, 23, 24, 25, 26, 27, 28, 29, 30, 31, 32, 33, 34, 35, 36, 37, 38, 39, 40, 41, 42, 43, 44, 45, 46, 47, 48, 49, 50, 51, 52, 53, 54, 55, 56, 57, 58, 59, 60, 61, 62, 63, 64, 65, 66, 67, 68, 69, 70, 71, 72, 73, 74, 75, 76, 77, 78, 79, 80, 81, 82, 83, 84, 85, 86, 87, 88, 89, 90, 91, 92, 93, 94, 95, 96, 97, 98, 99, 100, 101, 102, 103, 104, 105, 106, 107, 108, 109, 110, 111, 112, 113, 114, 115, 116, 117, 118, 119, 120, 121, 122, 123, 124, 125, 126, 127, 128, 129, 130, 131, 132, 133, 134, 135, 136, 137, 138, 139, 140, 141, 142, 143, 144, 145, 146, 147, 148, 149, 150, 151, 152, 153, 154, 155, 156, 157, 158, 159, 160, 161, 162, 163, 164, 165, 166, 167, 168, 169, 170, 171, 172, 173, 174, 175, 176, 177, 178, 179, 180, 181, 182, 183, 184, 185, 186, 187, 188, 189, 190, 191, 192, 193, 194, 195, 196, 197, 198, 199, 200, 201, 202, 203, 204, 205, 206, 207, 208, 209, 210, 211, 212, 213, 214, 215, 216, 217, 218, 219, 220, 221, 222, 223, 224, 225, 226, 227, 228, 229, 230, 231, 232, 233, 234, 235, 236, 237, 238, 239, 240, 241, 242, 243, 244, 245, 246, 247, 248, 249, 250, 251, 252, 253, 254, 255, 256],
      "AcquisitionTime": ["110840.800000", "110842.800000", "110844.800000", "110846.800000", "110848.800000", "110850.800000", "110852.800000", "110854.800000", "110856.800000", "110858.800000", "110900.800000", "110902.800000", "110904.800000", "110906.800000", "110908.800000", "110910.800000", "110912.800000", "110914.800000", "110916.800000", "110918.800000", "110920.800000", "110922.800000", "110924.800000", "110926.800000", "110928.800000", "110930.800000", "110932.800000", "110934.800000", "110936.800000", "110938.800000", "110940.800000", "110942.800000", "110944.800000", "110946.800000", "110948.800000", "110950.800000", "110952.800000", "110954.800000", "110956.800000", "110958.800000", "111000.800000", "111002.800000", "111004.800000", "111006.800000", "111008.800000", "111010.800000", "111012.800000", "111014.800000", "111016.800000", "111018.800000", "111020.800000", "111022.800000", "111024.800000", "111026.800000", "111028.800000", "111030.800000", "111032.800000", "111034.800000", "111036.800000", "111038.800000", "111040.800000", "111042.800000", "111044.800000", "111046.800000", "111048.800000", "111050.800000", "111052.800000", "111054.800000", "111056.800000", "111058.800000", "111100.800000", "111102.800000", "111104.800000", "111106.800000", "111108.800000", "111110.800000", "111112.800000", "111114.800000", "111116.800000", "111118.800000", "111120.800000", "111122.800000", "111124.800000", "111126.800000", "111128.800000", "111130.800000", "111132.800000", "111134.800000", "111136.800000", "111138.800000", "111140.800000", "111142.800000", "111144.800000", "111146.800000", "111148.800000", "111150.800000", "111152.800000", "111154.800000", "111156.800000", "111158.800000", "111200.800000", "111202.800000", "111204.800000", "111206.800000", "111208.800000", "111210.800000", "111212.800000", "111214.800000", "111216.800000", "111218.800000", "111220.800000", "111222.800000", "111224.800000", "111226.800000", "111228.800000", "111230.800000", "111232.800000", "111234.800000", "111236.800000", "111238.800000", "111240.800000", "111242.800000", "111244.800000", "111246.800000", "111248.800000", "111250.800000", "111252.800000", "111254.800000", "111256.800000", "111258.800000", "111300.800000", "111302.800000", "111304.800000", "111306.800000", "111308.800000", "111310.800000", "111312.800000", "111314.800000", "111316.800000", "111318.800000", "111320.800000", "111322.800000", "111324.800000", "111326.800000", "111328.800000", "111330.800000", "111332.800000", "111334.800000", "111336.800000", "111338.800000", "111340.800000", "111342.800000", "111344.800000", "111346.800000", "111348.800000", "111350.800000", "111352.800000", "111354.800000", "111356.800000", "111358.800000", "111400.800000", "111402.800000", "111404.800000", "111406.800000", "111408.800000", "111410.800000", "111412.800000", "111414.800000", "111416.800000", "111418.800000", "111420.800000", "111422.800000", "111424.800000", "111426.800000", "111428.800000", "111430.800000", "111432.800000", "111434.800000", "111436.800000", "111438.800000", "111440.800000", "111442.800000", "111444.800000", "111446.800000", "111448.800000", "111450.800000", "111452.800000", "111454.800000", "111456.800000", "111458.800000", "111500.800000", "111502.800000", "111504.800000", "111506.800000", "111508.800000", "111510.800000", "111512.800000", "111514.800000", "111516.800000", "111518.800000", "111520.800000", "111522.800000", "111524.800000", "111526.800000", "111528.800000", "111530.800000", "111532.800000", "111534.800000", "111536.800000", "111538.800000", "111540.800000", "111542.800000", "111544.800000", "111546.800000", "111548.800000", "111550.800000", "111552.800000", "111554.800000", "111556.800000", "111558.800000", "111600.800000", "111602.800000", "111604.800000", "111606.800000", "111608.800000", "111610.800000", "111612.800000", "111614.800000", "111616.800000", "111618.800000", "111620.800000", "111622.800000", "111624.800000", "111626.800000", "111628.800000", "111630.800000", "111632.800000", "111634.800000", "111636.800000", "111638.800000", "111640.800000", "111642.800000", "111644.800000", "111646.800000", "111648.800000", "111650.800000", "111652.800000", "111654.800000", "111656.800000", "111658.800000", "111700.800000", "111702.800000", "111704.800000", "111706.800000", "111708.800000", "111710.800000"],
      "ContentTime": ["110843.489000", "110844.983000", "110846.984000", "110848.983000", "110850.983000", "110852.983000", "110854.983000", "110856.985000", "110858.985000", "110900.984000", "110902.983000", "110904.983000", "110906.983000", "110908.984000", "110910.983000", "110912.984000", "110914.985000", "110916.984000", "110918.983000", "110920.983000", "110922.984000", "110924.984000", "110926.983000", "110928.984000", "110930.984000", "110932.985000", "110934.984000", "110936.983000", "110938.984000", "110940.983000", "110942.984000", "110944.983000", "110946.983000", "110948.984000", "110950.985000", "110952.985000", "110954.988000", "110956.983000", "110958.983000", "111000.983000", "111002.983000", "111004.983000", "111006.984000", "111008.984000", "111010.984000", "111012.983000", "111014.983000", "111016.984000", "111018.983000", "111020.983000", "111022.985000", "111024.985000", "111026.985000", "111028.984000", "111030.983000", "111032.984000", "111034.983000", "111036.984000", "111038.984000", "111040.984000", "111042.985000", "111044.990000", "111046.983000", "111048.984000", "111050.984000", "111052.984000", "111054.984000", "111056.984000", "111058.984000", "111100.985000", "111102.984000", "111104.983000", "111106.983000", "111108.983000", "111110.984000", "111112.985000", "111114.984000", "111116.985000", "111118.984000", "111120.984000", "111122.983000", "111124.983000", "111126.983000", "111128.983000", "111130.984000", "111132.985000", "111134.985000", "111136.984000", "111138.983000", "111140.984000", "111142.984000", "111144.983000", "111146.983000", "111148.984000", "111150.984000", "111152.984000", "111154.984000", "111156.983000", "111158.983000", "111200.984000", "111202.984000", "111204.984000", "111206.984000", "111208.985000", "111210.984000", "111212.984000", "111214.983000", "111216.984000", "111218.983000", "111220.983000", "111222.983000", "111224.983000", "111226.984000", "111228.984000", "111230.985000", "111232.984000", "111234.983000", "111236.984000", "111238.984000", "111240.984000", "111242.984000", "111244.985000", "111246.984000", "111248.983000", "111250.983000", "111252.983000", "111254.984000", "111256.984000", "111258.984000", "111300.984000", "111302.985000", "111304.984000", "111306.984000", "111308.983000", "111310.984000", "111312.984000", "111314.983000", "111316.984000", "111318.985000", "111320.984000", "111322.984000", "111324.983000", "111326.983000", "111328.983000", "111330.983000", "111332.984000", "111334.983000", "111336.985000", "111338.985000", "111340.985000", "111342.983000", "111344.983000", "111346.983000", "111348.983000", "111350.984000", "111352.985000", "111354.985000", "111356.984000", "111358.984000", "111400.983000", "111402.983000", "111404.984000", "111406.984000", "111408.983000", "111410.985000", "111412.984000", "111414.984000", "111416.983000", "111418.983000", "111420.984000", "111422.984000", "111424.983000", "111426.983000", "111428.985000", "111430.985000", "111432.984000", "111434.983000", "111436.983000", "111438.983000", "111440.983000", "111442.983000", "111444.983000", "111446.984000", "111448.984000", "111450.984000", "111452.983000", "111454.984000", "111456.984000", "111458.983000", "111500.983000", "111502.985000", "111504.984000", "111506.984000", "111508.983000", "111510.983000", "111512.983000", "111514.984000", "111516.984000", "111518.984000", "111520.985000", "111522.985000", "111524.984000", "111526.983000", "111528.983000", "111530.984000", "111532.983000", "111534.983000", "111536.984000", "111538.985000", "111540.985000", "111542.984000", "111544.983000", "111546.984000", "111548.983000", "111550.984000", "111552.984000", "111554.983000", "111556.985000", "111558.985000", "111600.985000", "111602.984000", "111604.983000", "111606.984000", "111608.984000", "111610.983000", "111612.984000", "111614.984000", "111616.985000", "111618.983000", "111620.983000", "111622.983000", "111624.983000", "111626.984000", "111628.984000", "111630.985000", "111632.984000", "111634.984000", "111636.984000", "111638.984000", "111640.983000", "111642.984000", "111644.984000", "111646.984000", "111648.985000", "111650.985000", "111652.985000", "111654.984000", "111656.984000", "111658.983000", "111700.984000", "111702.984000", "111704.985000", "111706.984000", "111708.984000", "111710.985000", "111712.728000"],
      "InstanceCreationTime": ["110843.489000", "110844.983000", "110846.984000", "110848.983000", "110850.983000", "110852.983000", "110854.983000", "110856.985000", "110858.985000", "110900.984000", "110902.983000", "110904.983000", "110906.983000", "110908.984000", "110910.983000", "110912.984000", "110914.985000", "110916.984000", "110918.983000", "110920.983000", "110922.984000", "110924.984000", "110926.983000", "110928.984000", "110930.984000", "110932.985000", "110934.984000", "110936.983000", "110938.984000", "110940.983000", "110942.984000", "110944.983000", "110946.983000", "110948.984000", "110950.985000", "110952.985000", "110954.988000", "110956.983000", "110958.983000", "111000.983000", "111002.983000", "111004.983000", "111006.984000", "111008.984000", "111010.984000", "111012.983000", "111014.983000", "111016.984000", "111018.983000", "111020.983000", "111022.985000", "111024.985000", "111026.985000", "111028.984000", "111030.983000", "111032.984000", "111034.983000", "111036.984000", "111038.984000", "111040.984000", "111042.985000", "111044.990000", "111046.983000", "111048.984000", "111050.984000", "111052.984000", "111054.984000", "111056.984000", "111058.984000", "111100.985000", "111102.984000", "111104.983000", "111106.983000", "111108.983000", "111110.984000", "111112.985000", "111114.984000", "111116.985000", "111118.984000", "111120.984000", "111122.983000", "111124.983000", "111126.983000", "111128.983000", "111130.984000", "111132.985000", "111134.985000", "111136.984000", "111138.983000", "111140.984000", "111142.984000", "111144.983000", "111146.983000", "111148.984000", "111150.984000", "111152.984000", "111154.984000", "111156.983000", "111158.983000", "111200.984000", "111202.984000", "111204.984000", "111206.984000", "111208.985000", "111210.984000", "111212.984000", "111214.983000", "111216.984000", "111218.983000", "111220.983000", "111222.983000", "111224.983000", "111226.984000", "111228.984000", "111230.985000", "111232.984000", "111234.983000", "111236.984000", "111238.984000", "111240.984000", "111242.984000", "111244.985000", "111246.984000", "111248.983000", "111250.983000", "111252.983000", "111254.984000", "111256.984000", "111258.984000", "111300.984000", "111302.985000", "111304.984000", "111306.984000", "111308.983000", "111310.984000", "111312.984000", "111314.983000", "111316.984000", "111318.985000", "111320.984000", "111322.984000", "111324.983000", "111326.983000", "111328.983000", "111330.983000", "111332.984000", "111334.983000", "111336.985000", "111338.985000", "111340.985000", "111342.983000", "111344.983000", "111346.983000", "111348.983000", "111350.984000", "111352.985000", "111354.985000", "111356.984000", "111358.984000", "111400.983000", "111402.983000", "111404.984000", "111406.984000", "111408.983000", "111410.985000", "111412.984000", "111414.984000", "111416.983000", "111418.983000", "111420.984000", "111422.984000", "111424.983000", "111426.983000", "111428.985000", "111430.985000", "111432.984000", "111434.983000", "111436.983000", "111438.983000", "111440.983000", "111442.983000", "111444.983000", "111446.984000", "111448.984000", "111450.984000", "111452.983000", "111454.984000", "111456.984000", "111458.983000", "111500.983000", "111502.985000", "111504.984000", "111506.984000", "111508.983000", "111510.983000", "111512.983000", "111514.984000", "111516.984000", "111518.984000", "111520.985000", "111522.985000", "111524.984000", "111526.983000", "111528.983000", "111530.984000", "111532.983000", "111534.983000", "111536.984000", "111538.985000", "111540.985000", "111542.984000", "111544.983000", "111546.984000", "111548.983000", "111550.984000", "111552.984000", "111554.983000", "111556.985000", "111558.985000", "111600.985000", "111602.984000", "111604.983000", "111606.984000", "111608.984000", "111610.983000", "111612.984000", "111614.984000", "111616.985000", "111618.983000", "111620.983000", "111622.983000", "111624.983000", "111626.984000", "111628.984000", "111630.985000", "111632.984000", "111634.984000", "111636.984000", "111638.984000", "111640.983000", "111642.984000", "111644.984000", "111646.984000", "111648.985000", "111650.985000", "111652.985000", "111654.984000", "111656.984000", "111658.983000", "111700.984000", "111702.984000", "111704.985000", "111706.984000", "111708.984000", "111710.985000", "111712.728000"],
      "InstanceNumber": [1, 2, 3, 4, 5, 6, 7, 8, 9, 10, 11, 12, 13, 14, 15, 16, 17, 18, 19, 20, 21, 22, 23, 24, 25, 26, 27, 28, 29, 30, 31, 32, 33, 34, 35, 36, 37, 38, 39, 40, 41, 42, 43, 44, 45, 46, 47, 48, 49, 50, 51, 52, 53, 54, 55, 56, 57, 58, 59, 60, 61, 62, 63, 64, 65, 66, 67, 68, 69, 70, 71, 72, 73, 74, 75, 76, 77, 78, 79, 80, 81, 82, 83, 84, 85, 86, 87, 88, 89, 90, 91, 92, 93, 94, 95, 96, 97, 98, 99, 100, 101, 102, 103, 104, 105, 106, 107, 108, 109, 110, 111, 112, 113, 114, 115, 116, 117, 118, 119, 120, 121, 122, 123, 124, 125, 126, 127, 128, 129, 130, 131, 132, 133, 134, 135, 136, 137, 138, 139, 140, 141, 142, 143, 144, 145, 146, 147, 148, 149, 150, 151, 152, 153, 154, 155, 156, 157, 158, 159, 160, 161, 162, 163, 164, 165, 166, 167, 168, 169, 170, 171, 172, 173, 174, 175, 176, 177, 178, 179, 180, 181, 182, 183, 184, 185, 186, 187, 188, 189, 190, 191, 192, 193, 194, 195, 196, 197, 198, 199, 200, 201, 202, 203, 204, 205, 206, 207, 208, 209, 210, 211, 212, 213, 214, 215, 216, 217, 218, 219, 220, 221, 222, 223, 224, 225, 226, 227, 228, 229, 230, 231, 232, 233, 234, 235, 236, 237, 238, 239, 240, 241, 242, 243, 244, 245, 246, 247, 248, 249, 250, 251, 252, 253, 254, 255, 256],
      "LargestImagePixelValue": [3474, 3469, 3438, 3431, 3396, 3395, 3420, 3439, 3402, 3375, 3361, 3371, 3406, 3456, 3409, 3436, 3463, 3389, 3401, 3405, 3373, 3388, 3375, 3376, 3361, 3371, 3388, 3406, 3401, 3389, 3404, 3356, 3408, 3406, 3356, 3371, 3357, 3412, 3376, 3373, 3351, 3401, 3381, 3440, 3389, 3393, 3404, 3367, 3383, 3413, 3366, 3362, 3366, 3372, 3436, 3432, 3408, 3356, 3321, 3336, 3348, 3359, 3360, 3377, 3355, 3383, 3414, 3430, 3394, 3392, 3358, 3361, 3380, 3349, 3351, 3356, 3357, 3362, 3403, 3411, 3407, 3377, 3366, 3356, 3350, 3370, 3360, 3362, 3359, 3349, 3392, 3349, 3363, 3415, 3395, 3356, 3374, 3362, 3392, 3374, 3417, 3428, 3457, 3403, 3395, 3368, 3437, 3409, 3354, 3349, 3393, 3399, 3410, 3407, 3384, 3364, 3344, 3356, 3386, 3377, 3378, 3415, 3421, 3414, 3404, 3415, 3406, 3403, 3405, 3425, 3384, 3376, 3360, 3383, 3356, 3372, 3367, 3357, 3355, 3348, 3402, 3410, 3434, 3367, 3388, 3399, 3349, 3364, 3388, 3381, 3410, 3412, 3394, 3465, 3411, 3336, 3337, 3396, 3335, 3326, 3357, 3366, 3380, 3387, 3415, 3417, 3399, 3394, 3375, 3376, 3353, 3355, 3351, 3349, 3376, 3371, 3436, 3361, 3380, 3313, 3400, 3434, 3407, 3413, 3385, 3373, 3355, 3372, 3310, 3336, 3401, 3390, 3421, 3423, 3370, 3463, 3347, 3359, 3406, 3392, 3402, 3358, 3383, 3383, 3409, 3420, 3390, 3368, 3361, 3366, 3347, 3314, 3348, 3319, 3357, 3336, 3372, 3349, 3400, 3381, 3325, 3378, 3374, 3406, 3420, 3460, 3433, 3389, 3362, 3387, 3344, 3369, 3353, 3331, 3410, 3342, 3312, 3298, 3347, 3281, 3327, 3329, 3321, 3285, 3342, 3282, 3302, 3333, 3336, 3316, 3409, 3391, 3353, 3364, 3395, 3444],
      "WindowCenter": [839.0, 837.0, 840.0, 840.0, 839.0, 838.0, 837.0, 837.0, 837.0, 838.0, 839.0, 839.0, 838.0, 839.0, 840.0, 839.0, 838.0, 837.0, 837.0, 836.0, 838.0, 838.0, 837.0, 836.0, 836.0, 836.0, 836.0, 835.0, 835.0, 835.0, 837.0, 837.0, 837.0, 835.0, 835.0, 836.0, 836.0, 836.0, 835.0, 836.0, 837.0, 837.0, 838.0, 838.0, 837.0, 838.0, 838.0, 837.0, 837.0, 836.0, 834.0, 834.0, 835.0, 836.0, 837.0, 838.0, 837.0, 835.0, 834.0, 833.0, 834.0, 835.0, 837.0, 838.0, 837.0, 836.0, 836.0, 835.0, 835.0, 835.0, 835.0, 835.0, 836.0, 836.0, 837.0, 834.0, 833.0, 835.0, 836.0, 836.0, 835.0, 833.0, 833.0, 834.0, 836.0, 835.0, 835.0, 836.0, 836.0, 836.0, 836.0, 834.0, 834.0, 835.0, 837.0, 837.0, 837.0, 835.0, 835.0, 836.0, 838.0, 840.0, 839.0, 837.0, 836.0, 837.0, 837.0, 836.0, 835.0, 836.0, 837.0, 837.0, 837.0, 836.0, 836.0, 837.0, 838.0, 837.0, 836.0, 835.0, 836.0, 837.0, 837.0, 836.0, 836.0, 837.0, 838.0, 837.0, 835.0, 834.0, 835.0, 836.0, 837.0, 837.0, 835.0, 835.0, 834.0, 834.0, 836.0, 835.0, 835.0, 835.0, 836.0, 837.0, 837.0, 836.0, 835.0, 836.0, 837.0, 837.0, 838.0, 838.0, 839.0, 838.0, 836.0, 834.0, 834.0, 835.0, 835.0, 835.0, 836.0, 836.0, 836.0, 836.0, 837.0, 837.0, 837.0, 838.0, 837.0, 837.0, 836.0, 835.0, 835.0, 836.0, 837.0, 836.0, 834.0, 834.0, 834.0, 835.0, 838.0, 840.0, 839.0, 837.0, 836.0, 836.0, 836.0, 836.0, 836.0, 836.0, 836.0, 835.0, 835.0, 834.0, 834.0, 835.0, 834.0, 835.0, 836.0, 836.0, 835.0, 834.0, 835.0, 835.0, 836.0, 836.0, 836.0, 836.0, 836.0, 836.0, 835.0, 834.0, 834.0, 834.0, 835.0, 836.0, 836.0, 836.0, 837.0, 836.0, 835.0, 834.0, 834.0, 836.0, 837.0, 837.0, 837.0, 837.0, 837.0, 838.0, 837.0, 836.0, 835.0, 836.0, 838.0, 837.0, 836.0, 834.0, 834.0, 834.0, 835.0, 836.0, 836.0, 836.0, 835.0, 834.0, 834.0, 835.0, 834.0, 836.0, 837.0, 837.0, 835.0, 835.0, 835.0, 836.0],
      "WindowWidth": [1807.0, 1802.0, 1808.0, 1810.0, 1805.0, 1802.0, 1801.0, 1801.0, 1802.0, 1802.0, 1805.0, 1806.0, 1805.0, 1806.0, 1808.0, 1807.0, 1804.0, 1801.0, 1801.0, 1799.0, 1802.0, 1803.0, 1800.0, 1797.0, 1797.0, 1798.0, 1798.0, 1797.0, 1796.0, 1797.0, 1800.0, 1801.0, 1800.0, 1796.0, 1794.0, 1798.0, 1799.0, 1798.0, 1796.0, 1799.0, 1801.0, 1802.0, 1804.0, 1804.0, 1801.0, 1803.0, 1802.0, 1800.0, 1800.0, 1797.0, 1793.0, 1793.0, 1795.0, 1799.0, 1801.0, 1802.0, 1799.0, 1795.0, 1791.0, 1791.0, 1791.0, 1795.0, 1799.0, 1801.0, 1798.0, 1798.0, 1798.0, 1795.0, 1793.0, 1795.0, 1795.0, 1796.0, 1797.0, 1798.0, 1798.0, 1793.0, 1789.0, 1794.0, 1797.0, 1797.0, 1794.0, 1791.0, 1790.0, 1794.0, 1797.0, 1795.0, 1793.0, 1796.0, 1797.0, 1797.0, 1796.0, 1792.0, 1791.0, 1795.0, 1799.0, 1799.0, 1799.0, 1795.0, 1794.0, 1797.0, 1803.0, 1808.0, 1805.0, 1798.0, 1796.0, 1798.0, 1800.0, 1797.0, 1794.0, 1797.0, 1800.0, 1799.0, 1798.0, 1796.0, 1795.0, 1800.0, 1801.0, 1799.0, 1796.0, 1794.0, 1796.0, 1800.0, 1799.0, 1798.0, 1796.0, 1800.0, 1802.0, 1799.0, 1794.0, 1792.0, 1794.0, 1797.0, 1800.0, 1799.0, 1794.0, 1793.0, 1792.0, 1793.0, 1796.0, 1795.0, 1793.0, 1795.0, 1798.0, 1798.0, 1798.0, 1795.0, 1794.0, 1798.0, 1800.0, 1800.0, 1801.0, 1802.0, 1803.0, 1800.0, 1796.0, 1791.0, 1790.0, 1793.0, 1793.0, 1794.0, 1797.0, 1797.0, 1797.0, 1797.0, 1798.0, 1799.0, 1799.0, 1801.0, 1800.0, 1799.0, 1796.0, 1794.0, 1794.0, 1795.0, 1797.0, 1795.0, 1791.0, 1789.0, 1792.0, 1794.0, 1803.0, 1806.0, 1803.0, 1798.0, 1796.0, 1795.0, 1796.0, 1796.0, 1794.0, 1794.0, 1795.0, 1794.0, 1794.0, 1791.0, 1791.0, 1792.0, 1791.0, 1792.0, 1796.0, 1795.0, 1792.0, 1791.0, 1794.0, 1794.0, 1794.0, 1796.0, 1797.0, 1795.0, 1795.0, 1794.0, 1792.0, 1790.0, 1790.0, 1791.0, 1792.0, 1794.0, 1794.0, 1795.0, 1797.0, 1795.0, 1792.0, 1791.0, 1792.0, 1795.0, 1797.0, 1798.0, 1799.0, 1798.0, 1798.0, 1800.0, 1797.0, 1795.0, 1793.0, 1794.0, 1800.0, 1798.0, 1794.0, 1790.0, 1790.0, 1791.0, 1794.0, 1795.0, 1795.0, 1794.0, 1792.0, 1790.0, 1791.0, 1792.0, 1791.0, 1794.0, 1798.0, 1796.0, 1793.0, 1792.0, 1794.0, 1797.0]
    },
    "slices": {}
  }
}