{
  "AcquisitionMatrixPE": 100,
  "AcquisitionNumber": 1,
  "AcquisitionTime": "12:19:31.600000",
  "BandwidthPerPixelPhaseEncode": 18.519,
  "BaseResolution": 100,
  "BodyPartExamined": "BRAIN",
  "ConsistencyInfo": "N4_VE11C_LATEST_20160120",
  "ConversionSoftware": "dcm2niix",
  "ConversionSoftwareVersion": "v1.0.20180622 GCC4.9.2",
  "DerivedVendorReportedEchoSpacing": 0.000539986,
  "DeviceSerialNumber": "166078",
  "DwellTime": 2.1e-06,
  "EchoTime": 0.034,
  "EchoTrainLength": 100,
  "EffectiveEchoSpacing": 0.000539986,
  "FlipAngle": 90,
  "ImageOrientationPatientDICOM": [1, 0, 0, 0, 0.964557, -0.263873],
  "ImageType": [
    "ORIGINAL",
    "PRIMARY",
    "M",
    "ND",
    "MOSAIC"
],
  "InPlanePhaseEncodingDirectionDICOM": "COL",
  "InstitutionAddress": "Street_StreetNo_Bei_Jing_District_CN_ZIP",
  "InstitutionName": "BeiJing_Normal_University",
  "InstitutionalDepartmentName": "Department",
  "MRAcquisitionType": "2D",
  "MagneticFieldStrength": 3,
  "Manufacturer": "Siemens",
  "ManufacturersModelName": "Prisma",
  "Modality": "MR",
  "MultibandAccelerationFactor": 3,
  "PartialFourier": 1,
  "PatientPosition": "HFS",
  "PercentPhaseFOV": 100,
  "PhaseEncodingDirection": "j-",
  "PhaseEncodingSteps": 100,
  "PhaseResolution": 1,
  "PixelBandwidth": 2380,
  "ProcedureStepDescription": "BNU_P2018_64CH_Zhen.ZongLei",
  "ProtocolName": "bold_100x100_s3_2x2x2_static_256",
  "PulseSequenceDetails": "%SiemensSeq%_ep2d_bold",
  "ReceiveCoilActiveElements": "HC1-7;NC1",
  "ReceiveCoilName": "HeadNeck_64",
  "ReconMatrixPE": 100,
  "RepetitionTime": 2,
  "SAR": 0.0869097,
  "ScanOptions": "FS",
  "ScanningSequence": "EP",
  "SequenceName": "_epfid2d1_100",
  "SequenceVariant": "SK",
  "SeriesDescription": "bold_100x100_s3_2x2x2_static_256",
  "SeriesNumber": 12,
  "ShimSetting": [-5458, -11476, -1285, 418, -8, -101, -131, 76],
  "SliceThickness": 2,
  "SliceTiming": [1.485, 0, 0.99, 0.0825, 1.0725, 0.165, 1.155, 0.2475, 1.2375, 0.33, 1.32, 0.4125, 1.4025, 0.5775, 1.5675, 0.66, 1.65, 0.7425, 1.7325, 0.825, 1.815, 0.9075, 1.8975, 0.495, 1.485, 0, 0.99, 0.0825, 1.0725, 0.165, 1.155, 0.2475, 1.2375, 0.33, 1.32, 0.4125, 1.4025, 0.5775, 1.5675, 0.66, 1.65, 0.7425, 1.7325, 0.825, 1.815, 0.9075, 1.8975, 0.495, 1.485, 0, 0.99, 0.0825, 1.0725, 0.165, 1.155, 0.2475, 1.2375, 0.33, 1.32, 0.4125, 1.4025, 0.5775, 1.5675, 0.66, 1.65, 0.7425, 1.7325, 0.825, 1.815, 0.9075, 1.8975, 0.495],
  "SoftwareVersions": "syngo_MR_E11",
  "SpacingBetweenSlices": 2,
  "StationName": "AWP166078",
  "TaskName": "naturalvision",
  "TotalReadoutTime": 0.0534586,
  "TxRefAmp": 233.897,
  "dcmmeta_affine": [
    [-2.0, 0.0, 0.0, 100.0],
    [0.0, 1.929114818572998, -0.5277460813522339, -75.0446548461914],
    [0.0, 0.5277460813522339, 1.929114818572998, -104.2130126953125],
    [0.0, 0.0, 0.0, 1.0]
],
  "dcmmeta_reorient_transform": [
    [0.0, -1.0, 0.0, 99.0],
    [1.0, 0.0, 0.0, 0.0],
    [0.0, 0.0, 1.0, 0.0],
    [0.0, 0.0, 0.0, 1.0]
],
  "dcmmeta_shape": [100, 100, 72, 256],
  "dcmmeta_slice_dim": 2,
  "dcmmeta_version": 0.6,
  "global": {
    "const": {
      "AcquisitionMatrix": [100, 0, 0, 100],
      "AngioFlag": "N",
      "BitsAllocated": 16,
      "BitsStored": 12,
      "BodyPartExamined": "BRAIN",
      "Columns": 900,
      "EchoNumbers": 1,
      "EchoTime": 34.0,
      "EchoTrainLength": 100,
      "FlipAngle": 90.0,
      "HighBit": 11,
      "ImageOrientationPatient": [1.0, 0.0, 0.0, 0.0, 0.96455741917473, -0.2638730473447],
      "ImagePositionPatient": [-900.0, -887.58365090533, 159.1322880204],
      "ImageType": [
        "ORIGINAL",
        "PRIMARY",
        "M",
        "ND",
        "MOSAIC"
],
      "ImagedNucleus": "1H",
      "ImagingFrequency": 123.257788,
      "InPlanePhaseEncodingDirection": "COL",
      "MRAcquisitionType": "2D",
      "MagneticFieldStrength": 3.0,
      "Manufacturer": "SIEMENS",
      "ManufacturerModelName": "Prisma",
      "Modality": "MR",
      "NumberOfAverages": 1.0,
      "NumberOfPhaseEncodingSteps": 100,
      "PercentPhaseFieldOfView": 100.0,
      "PercentSampling": 100.0,
      "PerformedProcedureStepStartTime": "110550.613000",
      "PhotometricInterpretation": "MONOCHROME2",
      "PixelBandwidth": 2380.0,
      "PixelRepresentation": 0,
      "PixelSpacing": [2.0, 2.0],
      "ProtocolName": "bold_100x100_s3_2x2x2_static_256",
      "RepetitionTime": 2000.0,
      "Rows": 900,
      "SAR": 0.08690972422199,
      "SamplesPerPixel": 1,
      "ScanOptions": "FS",
      "ScanningSequence": "EP",
      "SequenceName": "*epfid2d1_100",
      "SequenceVariant": "SK",
      "SeriesDescription": "bold_100x100_s3_2x2x2_static_256",
      "SeriesNumber": 12,
      "SeriesTime": "121934.801000",
      "SliceLocation": -80.71717369741,
      "SliceThickness": 2.0,
      "SmallestImagePixelValue": 0,
      "SoftwareVersions": "syngo MR E11",
      "SpacingBetweenSlices": 1.9999999740285,
      "SpecificCharacterSet": "ISO_IR 100",
      "StudyID": "1",
      "StudyTime": "110550.541000",
      "TransmitCoilName": "Body",
      "VariableFlipAngleFlag": "N",
      "WindowCenterWidthExplanation": "Algo1",
      "dBdt": 0.0},
    "slices": {}
  },
  "time": {
    "samples": {
      "AcquisitionNumber": [1, 2, 3, 4, 5, 6, 7, 8, 9, 10, 11, 12, 13, 14, 15, 16, 17, 18, 19, 20, 21, 22, 23, 24, 25, 26, 27, 28, 29, 30, 31, 32, 33, 34, 35, 36, 37, 38, 39, 40, 41, 42, 43, 44, 45, 46, 47, 48, 49, 50, 51, 52, 53, 54, 55, 56, 57, 58, 59, 60, 61, 62, 63, 64, 65, 66, 67, 68, 69, 70, 71, 72, 73, 74, 75, 76, 77, 78, 79, 80, 81, 82, 83, 84, 85, 86, 87, 88, 89, 90, 91, 92, 93, 94, 95, 96, 97, 98, 99, 100, 101, 102, 103, 104, 105, 106, 107, 108, 109, 110, 111, 112, 113, 114, 115, 116, 117, 118, 119, 120, 121, 122, 123, 124, 125, 126, 127, 128, 129, 130, 131, 132, 133, 134, 135, 136, 137, 138, 139, 140, 141, 142, 143, 144, 145, 146, 147, 148, 149, 150, 151, 152, 153, 154, 155, 156, 157, 158, 159, 160, 161, 162, 163, 164, 165, 166, 167, 168, 169, 170, 171, 172, 173, 174, 175, 176, 177, 178, 179, 180, 181, 182, 183, 184, 185, 186, 187, 188, 189, 190, 191, 192, 193, 194, 195, 196, 197, 198, 199, 200, 201, 202, 203, 204, 205, 206, 207, 208, 209, 210, 211, 212, 213, 214, 215, 216, 217, 218, 219, 220, 221, 222, 223, 224, 225, 226, 227, 228, 229, 230, 231, 232, 233, 234, 235, 236, 237, 238, 239, 240, 241, 242, 243, 244, 245, 246, 247, 248, 249, 250, 251, 252, 253, 254, 255, 256],
      "AcquisitionTime": ["121931.600000", "121933.600000", "121935.600000", "121937.600000", "121939.600000", "121941.600000", "121943.600000", "121945.600000", "121947.600000", "121949.600000", "121951.600000", "121953.600000", "121955.600000", "121957.600000", "121959.600000", "122001.600000", "122003.600000", "122005.600000", "122007.600000", "122009.600000", "122011.600000", "122013.600000", "122015.600000", "122017.600000", "122019.600000", "122021.600000", "122023.600000", "122025.600000", "122027.600000", "122029.600000", "122031.600000", "122033.600000", "122035.600000", "122037.600000", "122039.600000", "122041.600000", "122043.600000", "122045.600000", "122047.600000", "122049.600000", "122051.600000", "122053.600000", "122055.600000", "122057.600000", "122059.600000", "122101.600000", "122103.600000", "122105.600000", "122107.600000", "122109.600000", "122111.600000", "122113.600000", "122115.600000", "122117.600000", "122119.600000", "122121.600000", "122123.600000", "122125.600000", "122127.600000", "122129.600000", "122131.600000", "122133.600000", "122135.600000", "122137.600000", "122139.600000", "122141.600000", "122143.600000", "122145.600000", "122147.600000", "122149.600000", "122151.600000", "122153.600000", "122155.600000", "122157.600000", "122159.600000", "122201.600000", "122203.600000", "122205.600000", "122207.600000", "122209.600000", "122211.600000", "122213.600000", "122215.600000", "122217.600000", "122219.600000", "122221.600000", "122223.600000", "122225.600000", "122227.600000", "122229.600000", "122231.600000", "122233.600000", "122235.600000", "122237.600000", "122239.600000", "122241.600000", "122243.600000", "122245.600000", "122247.600000", "122249.600000", "122251.600000", "122253.600000", "122255.600000", "122257.600000", "122259.600000", "122301.600000", "122303.600000", "122305.600000", "122307.600000", "122309.600000", "122311.600000", "122313.600000", "122315.600000", "122317.600000", "122319.600000", "122321.600000", "122323.600000", "122325.600000", "122327.600000", "122329.600000", "122331.600000", "122333.600000", "122335.600000", "122337.600000", "122339.600000", "122341.600000", "122343.600000", "122345.600000", "122347.600000", "122349.600000", "122351.600000", "122353.600000", "122355.600000", "122357.600000", "122359.600000", "122401.600000", "122403.600000", "122405.600000", "122407.600000", "122409.600000", "122411.600000", "122413.600000", "122415.600000", "122417.600000", "122419.600000", "122421.600000", "122423.600000", "122425.600000", "122427.600000", "122429.600000", "122431.600000", "122433.600000", "122435.600000", "122437.600000", "122439.600000", "122441.600000", "122443.600000", "122445.600000", "122447.600000", "122449.600000", "122451.600000", "122453.600000", "122455.600000", "122457.600000", "122459.600000", "122501.600000", "122503.600000", "122505.600000", "122507.600000", "122509.600000", "122511.600000", "122513.600000", "122515.600000", "122517.600000", "122519.600000", "122521.600000", "122523.600000", "122525.600000", "122527.600000", "122529.600000", "122531.600000", "122533.600000", "122535.600000", "122537.600000", "122539.600000", "122541.600000", "122543.600000", "122545.600000", "122547.600000", "122549.600000", "122551.600000", "122553.600000", "122555.600000", "122557.600000", "122559.600000", "122601.600000", "122603.600000", "122605.600000", "122607.600000", "122609.600000", "122611.600000", "122613.600000", "122615.600000", "122617.600000", "122619.600000", "122621.600000", "122623.600000", "122625.600000", "122627.600000", "122629.600000", "122631.600000", "122633.600000", "122635.600000", "122637.600000", "122639.600000", "122641.600000", "122643.600000", "122645.600000", "122647.600000", "122649.600000", "122651.600000", "122653.600000", "122655.600000", "122657.600000", "122659.600000", "122701.600000", "122703.600000", "122705.600000", "122707.600000", "122709.600000", "122711.600000", "122713.600000", "122715.600000", "122717.600000", "122719.600000", "122721.600000", "122723.600000", "122725.600000", "122727.600000", "122729.600000", "122731.600000", "122733.600000", "122735.600000", "122737.600000", "122739.600000", "122741.600000", "122743.600000", "122745.600000", "122747.600000", "122749.600000", "122751.600000", "122753.600000", "122755.600000", "122757.600000", "122759.600000", "122801.600000"],
      "ContentTime": ["121934.805000", "121936.300000", "121938.300000", "121940.300000", "121942.300000", "121944.301000", "121946.300000", "121948.301000", "121950.300000", "121952.300000", "121954.301000", "121956.301000", "121958.301000", "122000.300000", "122002.300000", "122004.301000", "122006.301000", "122008.301000", "122010.300000", "122012.301000", "122014.301000", "122016.301000", "122018.301000", "122020.300000", "122022.301000", "122024.301000", "122026.300000", "122028.300000", "122030.300000", "122032.300000", "122034.300000", "122036.300000", "122038.300000", "122040.301000", "122042.301000", "122044.301000", "122046.301000", "122048.301000", "122050.300000", "122052.301000", "122054.301000", "122056.300000", "122058.301000", "122100.301000", "122102.300000", "122104.301000", "122106.300000", "122108.301000", "122110.300000", "122112.301000", "122114.300000", "122116.301000", "122118.300000", "122120.300000", "122122.301000", "122124.301000", "122126.301000", "122128.300000", "122130.301000", "122132.301000", "122134.301000", "122136.300000", "122138.300000", "122140.301000", "122142.301000", "122144.301000", "122146.301000", "122148.301000", "122150.301000", "122152.301000", "122154.301000", "122156.300000", "122158.301000", "122200.300000", "122202.300000", "122204.300000", "122206.300000", "122208.300000", "122210.301000", "122212.300000", "122214.300000", "122216.301000", "122218.301000", "122220.300000", "122222.301000", "122224.301000", "122226.301000", "122228.300000", "122230.300000", "122232.300000", "122234.301000", "122236.300000", "122238.301000", "122240.300000", "122242.301000", "122244.300000", "122246.301000", "122248.301000", "122250.301000", "122252.301000", "122254.301000", "122256.302000", "122258.301000", "122300.301000", "122302.301000", "122304.301000", "122306.300000", "122308.301000", "122310.301000", "122312.301000", "122314.300000", "122316.301000", "122318.301000", "122320.301000", "122322.301000", "122324.301000", "122326.301000", "122328.300000", "122330.301000", "122332.301000", "122334.301000", "122336.301000", "122338.301000", "122340.301000", "122342.301000", "122344.300000", "122346.300000", "122348.301000", "122350.301000", "122352.300000", "122354.301000", "122356.300000", "122358.301000", "122400.301000", "122402.301000", "122404.300000", "122406.302000", "122408.301000", "122410.300000", "122412.301000", "122414.301000", "122416.301000", "122418.301000", "122420.301000", "122422.301000", "122424.301000", "122426.301000", "122428.301000", "122430.301000", "122432.301000", "122434.300000", "122436.300000", "122438.300000", "122440.301000", "122442.301000", "122444.300000", "122446.301000", "122448.301000", "122450.301000", "122452.301000", "122454.300000", "122456.301000", "122458.301000", "122500.301000", "122502.300000", "122504.301000", "122506.301000", "122508.301000", "122510.301000", "122512.301000", "122514.301000", "122516.301000", "122518.301000", "122520.301000", "122522.301000", "122524.301000", "122526.301000", "122528.300000", "122530.300000", "122532.301000", "122534.300000", "122536.300000", "122538.301000", "122540.301000", "122542.301000", "122544.301000", "122546.301000", "122548.301000", "122550.300000", "122552.301000", "122554.301000", "122556.301000", "122558.301000", "122600.301000", "122602.301000", "122604.300000", "122606.301000", "122608.300000", "122610.301000", "122612.301000", "122614.301000", "122616.301000", "122618.301000", "122620.301000", "122622.300000", "122624.300000", "122626.302000", "122628.301000", "122630.300000", "122632.300000", "122634.300000", "122636.301000", "122638.301000", "122640.301000", "122642.300000", "122644.300000", "122646.301000", "122648.300000", "122650.301000", "122652.300000", "122654.301000", "122656.301000", "122658.301000", "122700.300000", "122702.300000", "122704.301000", "122706.301000", "122708.301000", "122710.301000", "122712.300000", "122714.301000", "122716.301000", "122718.301000", "122720.301000", "122722.301000", "122724.301000", "122726.301000", "122728.301000", "122730.301000", "122732.301000", "122734.300000", "122736.301000", "122738.317000", "122740.301000", "122742.301000", "122744.301000", "122746.301000", "122748.301000", "122750.300000", "122752.301000", "122754.301000", "122756.301000", "122758.301000", "122800.301000", "122802.300000", "122803.884000"],
      "InstanceCreationTime": ["121934.805000", "121936.300000", "121938.300000", "121940.300000", "121942.300000", "121944.301000", "121946.300000", "121948.301000", "121950.300000", "121952.300000", "121954.301000", "121956.301000", "121958.301000", "122000.300000", "122002.300000", "122004.301000", "122006.301000", "122008.301000", "122010.300000", "122012.301000", "122014.301000", "122016.301000", "122018.301000", "122020.300000", "122022.301000", "122024.301000", "122026.300000", "122028.300000", "122030.300000", "122032.300000", "122034.300000", "122036.300000", "122038.300000", "122040.301000", "122042.301000", "122044.301000", "122046.301000", "122048.301000", "122050.300000", "122052.301000", "122054.301000", "122056.300000", "122058.301000", "122100.301000", "122102.300000", "122104.301000", "122106.300000", "122108.301000", "122110.300000", "122112.301000", "122114.300000", "122116.301000", "122118.300000", "122120.300000", "122122.301000", "122124.301000", "122126.301000", "122128.300000", "122130.301000", "122132.301000", "122134.301000", "122136.300000", "122138.300000", "122140.301000", "122142.301000", "122144.301000", "122146.301000", "122148.301000", "122150.301000", "122152.301000", "122154.301000", "122156.300000", "122158.301000", "122200.300000", "122202.300000", "122204.300000", "122206.300000", "122208.300000", "122210.301000", "122212.300000", "122214.300000", "122216.301000", "122218.301000", "122220.300000", "122222.301000", "122224.301000", "122226.301000", "122228.300000", "122230.300000", "122232.300000", "122234.301000", "122236.300000", "122238.301000", "122240.300000", "122242.301000", "122244.300000", "122246.301000", "122248.301000", "122250.301000", "122252.301000", "122254.301000", "122256.302000", "122258.301000", "122300.301000", "122302.301000", "122304.301000", "122306.300000", "122308.301000", "122310.301000", "122312.301000", "122314.300000", "122316.301000", "122318.301000", "122320.301000", "122322.301000", "122324.301000", "122326.301000", "122328.300000", "122330.301000", "122332.301000", "122334.301000", "122336.301000", "122338.301000", "122340.301000", "122342.301000", "122344.300000", "122346.300000", "122348.301000", "122350.301000", "122352.300000", "122354.301000", "122356.300000", "122358.301000", "122400.301000", "122402.301000", "122404.300000", "122406.302000", "122408.301000", "122410.300000", "122412.301000", "122414.301000", "122416.301000", "122418.301000", "122420.301000", "122422.301000", "122424.301000", "122426.301000", "122428.301000", "122430.301000", "122432.301000", "122434.300000", "122436.300000", "122438.300000", "122440.301000", "122442.301000", "122444.300000", "122446.301000", "122448.301000", "122450.301000", "122452.301000", "122454.300000", "122456.301000", "122458.301000", "122500.301000", "122502.300000", "122504.301000", "122506.301000", "122508.301000", "122510.301000", "122512.301000", "122514.301000", "122516.301000", "122518.301000", "122520.301000", "122522.301000", "122524.301000", "122526.301000", "122528.300000", "122530.300000", "122532.301000", "122534.300000", "122536.300000", "122538.301000", "122540.301000", "122542.301000", "122544.301000", "122546.301000", "122548.301000", "122550.300000", "122552.301000", "122554.301000", "122556.301000", "122558.301000", "122600.301000", "122602.301000", "122604.300000", "122606.301000", "122608.300000", "122610.301000", "122612.301000", "122614.301000", "122616.301000", "122618.301000", "122620.301000", "122622.300000", "122624.300000", "122626.302000", "122628.301000", "122630.300000", "122632.300000", "122634.300000", "122636.301000", "122638.301000", "122640.301000", "122642.300000", "122644.300000", "122646.301000", "122648.300000", "122650.301000", "122652.300000", "122654.301000", "122656.301000", "122658.301000", "122700.300000", "122702.300000", "122704.301000", "122706.301000", "122708.301000", "122710.301000", "122712.300000", "122714.301000", "122716.301000", "122718.301000", "122720.301000", "122722.301000", "122724.301000", "122726.301000", "122728.301000", "122730.301000", "122732.301000", "122734.300000", "122736.301000", "122738.317000", "122740.301000", "122742.301000", "122744.301000", "122746.301000", "122748.301000", "122750.300000", "122752.301000", "122754.301000", "122756.301000", "122758.301000", "122800.301000", "122802.300000", "122803.884000"],
      "InstanceNumber": [1, 2, 3, 4, 5, 6, 7, 8, 9, 10, 11, 12, 13, 14, 15, 16, 17, 18, 19, 20, 21, 22, 23, 24, 25, 26, 27, 28, 29, 30, 31, 32, 33, 34, 35, 36, 37, 38, 39, 40, 41, 42, 43, 44, 45, 46, 47, 48, 49, 50, 51, 52, 53, 54, 55, 56, 57, 58, 59, 60, 61, 62, 63, 64, 65, 66, 67, 68, 69, 70, 71, 72, 73, 74, 75, 76, 77, 78, 79, 80, 81, 82, 83, 84, 85, 86, 87, 88, 89, 90, 91, 92, 93, 94, 95, 96, 97, 98, 99, 100, 101, 102, 103, 104, 105, 106, 107, 108, 109, 110, 111, 112, 113, 114, 115, 116, 117, 118, 119, 120, 121, 122, 123, 124, 125, 126, 127, 128, 129, 130, 131, 132, 133, 134, 135, 136, 137, 138, 139, 140, 141, 142, 143, 144, 145, 146, 147, 148, 149, 150, 151, 152, 153, 154, 155, 156, 157, 158, 159, 160, 161, 162, 163, 164, 165, 166, 167, 168, 169, 170, 171, 172, 173, 174, 175, 176, 177, 178, 179, 180, 181, 182, 183, 184, 185, 186, 187, 188, 189, 190, 191, 192, 193, 194, 195, 196, 197, 198, 199, 200, 201, 202, 203, 204, 205, 206, 207, 208, 209, 210, 211, 212, 213, 214, 215, 216, 217, 218, 219, 220, 221, 222, 223, 224, 225, 226, 227, 228, 229, 230, 231, 232, 233, 234, 235, 236, 237, 238, 239, 240, 241, 242, 243, 244, 245, 246, 247, 248, 249, 250, 251, 252, 253, 254, 255, 256],
      "LargestImagePixelValue": [3670, 3588, 3587, 3581, 3537, 3557, 3586, 3518, 3506, 3487, 3496, 3560, 3527, 3496, 3489, 3461, 3496, 3507, 3494, 3480, 3501, 3530, 3524, 3468, 3459, 3518, 3543, 3538, 3494, 3502, 3427, 3471, 3508, 3533, 3479, 3437, 3436, 3477, 3449, 3419, 3399, 3441, 3430, 3434, 3465, 3452, 3465, 3462, 3430, 3415, 3382, 3369, 3367, 3465, 3423, 3410, 3389, 3381, 3430, 3390, 3375, 3380, 3399, 3418, 3353, 3374, 3384, 3385, 3336, 3329, 3344, 3340, 3344, 3353, 3364, 3356, 3356, 3351, 3374, 3353, 3339, 3354, 3357, 3355, 3398, 3377, 3375, 3367, 3376, 3394, 3418, 3332, 3381, 3424, 3345, 3354, 3362, 3373, 3376, 3367, 3384, 3346, 3351, 3351, 3320, 3330, 3354, 3335, 3319, 3311, 3334, 3314, 3322, 3365, 3352, 3334, 3357, 3345, 3364, 3334, 3347, 3358, 3336, 3323, 3362, 3340, 3330, 3340, 3352, 3327, 3361, 3341, 3347, 3332, 3364, 3387, 3381, 3337, 3314, 3343, 3335, 3348, 3353, 3372, 3336, 3357, 3350, 3378, 3373, 3363, 3369, 3392, 3361, 3348, 3391, 3325, 3325, 3340, 3356, 3371, 3366, 3387, 3350, 3368, 3399, 3424, 3372, 3333, 3355, 3367, 3397, 3377, 3393, 3383, 3377, 3355, 3345, 3329, 3326, 3321, 3322, 3321, 3309, 3362, 3338, 3364, 3371, 3343, 3376, 3345, 3361, 3326, 3377, 3378, 3346, 3342, 3326, 3338, 3351, 3338, 3340, 3356, 3327, 3338, 3356, 3358, 3356, 3350, 3377, 3372, 3393, 3405, 3353, 3354, 3360, 3389, 3370, 3347, 3339, 3350, 3341, 3321, 3323, 3309, 3333, 3342, 3375, 3342, 3344, 3365, 3356, 3366, 3380, 3367, 3368, 3349, 3356, 3308, 3366, 3391, 3359, 3380, 3356, 3398, 3387, 3386, 3367, 3388, 3368, 3344, 3360, 3338, 3330, 3316, 3376, 3344],
      "WindowCenter": [842.0, 840.0, 840.0, 841.0, 840.0, 841.0, 841.0, 841.0, 842.0, 843.0, 842.0, 841.0, 841.0, 840.0, 840.0, 841.0, 841.0, 841.0, 840.0, 839.0, 837.0, 837.0, 836.0, 836.0, 836.0, 836.0, 836.0, 836.0, 835.0, 835.0, 835.0, 836.0, 836.0, 836.0, 837.0, 838.0, 838.0, 837.0, 836.0, 837.0, 838.0, 838.0, 838.0, 837.0, 837.0, 838.0, 840.0, 840.0, 840.0, 839.0, 839.0, 839.0, 838.0, 837.0, 836.0, 836.0, 837.0, 838.0, 839.0, 840.0, 840.0, 840.0, 839.0, 839.0, 839.0, 840.0, 839.0, 838.0, 837.0, 836.0, 837.0, 838.0, 839.0, 839.0, 839.0, 838.0, 837.0, 837.0, 836.0, 836.0, 838.0, 839.0, 840.0, 840.0, 839.0, 837.0, 836.0, 836.0, 836.0, 836.0, 836.0, 838.0, 838.0, 838.0, 837.0, 836.0, 837.0, 837.0, 837.0, 837.0, 837.0, 838.0, 838.0, 838.0, 837.0, 838.0, 838.0, 838.0, 838.0, 838.0, 838.0, 838.0, 837.0, 836.0, 836.0, 837.0, 838.0, 839.0, 839.0, 839.0, 837.0, 836.0, 836.0, 837.0, 838.0, 837.0, 837.0, 837.0, 837.0, 837.0, 839.0, 839.0, 838.0, 838.0, 837.0, 837.0, 837.0, 839.0, 840.0, 840.0, 838.0, 837.0, 837.0, 838.0, 839.0, 839.0, 838.0, 838.0, 838.0, 837.0, 837.0, 836.0, 835.0, 836.0, 838.0, 839.0, 838.0, 836.0, 836.0, 836.0, 837.0, 838.0, 838.0, 838.0, 837.0, 836.0, 838.0, 838.0, 839.0, 837.0, 837.0, 836.0, 836.0, 837.0, 837.0, 837.0, 838.0, 840.0, 840.0, 840.0, 842.0, 841.0, 839.0, 837.0, 836.0, 835.0, 836.0, 836.0, 837.0, 838.0, 838.0, 838.0, 838.0, 839.0, 838.0, 838.0, 839.0, 839.0, 839.0, 838.0, 837.0, 837.0, 838.0, 839.0, 839.0, 838.0, 837.0, 837.0, 837.0, 837.0, 837.0, 838.0, 839.0, 839.0, 837.0, 838.0, 838.0, 839.0, 839.0, 838.0, 839.0, 839.0, 838.0, 838.0, 838.0, 837.0, 839.0, 840.0, 840.0, 839.0, 838.0, 837.0, 837.0, 838.0, 838.0, 838.0, 838.0, 837.0, 837.0, 837.0, 837.0, 838.0, 837.0, 836.0, 835.0, 836.0, 837.0, 837.0, 837.0, 837.0, 838.0, 840.0, 840.0, 840.0, 840.0, 838.0],
      "WindowWidth": [1809.0, 1804.0, 1804.0, 1805.0, 1804.0, 1805.0, 1805.0, 1807.0, 1808.0, 1810.0, 1809.0, 1807.0, 1805.0, 1803.0, 1804.0, 1806.0, 1806.0, 1807.0, 1804.0, 1800.0, 1796.0, 1795.0, 1794.0, 1793.0, 1794.0, 1795.0, 1794.0, 1793.0, 1792.0, 1791.0, 1792.0, 1794.0, 1793.0, 1794.0, 1796.0, 1798.0, 1798.0, 1796.0, 1794.0, 1796.0, 1798.0, 1798.0, 1797.0, 1797.0, 1796.0, 1798.0, 1803.0, 1805.0, 1802.0, 1802.0, 1802.0, 1802.0, 1799.0, 1796.0, 1793.0, 1793.0, 1795.0, 1798.0, 1802.0, 1803.0, 1803.0, 1803.0, 1801.0, 1801.0, 1800.0, 1803.0, 1802.0, 1799.0, 1795.0, 1794.0, 1796.0, 1798.0, 1800.0, 1800.0, 1800.0, 1799.0, 1796.0, 1795.0, 1794.0, 1794.0, 1798.0, 1802.0, 1804.0, 1803.0, 1800.0, 1795.0, 1792.0, 1792.0, 1792.0, 1793.0, 1794.0, 1797.0, 1799.0, 1798.0, 1794.0, 1793.0, 1795.0, 1796.0, 1796.0, 1795.0, 1797.0, 1797.0, 1798.0, 1797.0, 1795.0, 1797.0, 1797.0, 1797.0, 1796.0, 1797.0, 1798.0, 1797.0, 1795.0, 1793.0, 1794.0, 1795.0, 1798.0, 1800.0, 1801.0, 1799.0, 1796.0, 1793.0, 1794.0, 1795.0, 1798.0, 1796.0, 1795.0, 1795.0, 1794.0, 1796.0, 1800.0, 1800.0, 1797.0, 1796.0, 1795.0, 1795.0, 1796.0, 1799.0, 1802.0, 1801.0, 1796.0, 1794.0, 1795.0, 1797.0, 1799.0, 1799.0, 1798.0, 1797.0, 1796.0, 1794.0, 1793.0, 1792.0, 1790.0, 1792.0, 1798.0, 1801.0, 1797.0, 1793.0, 1792.0, 1792.0, 1794.0, 1797.0, 1797.0, 1796.0, 1794.0, 1793.0, 1796.0, 1798.0, 1800.0, 1796.0, 1794.0, 1792.0, 1793.0, 1794.0, 1795.0, 1794.0, 1797.0, 1803.0, 1801.0, 1803.0, 1807.0, 1804.0, 1798.0, 1793.0, 1791.0, 1790.0, 1791.0, 1792.0, 1794.0, 1796.0, 1798.0, 1797.0, 1797.0, 1798.0, 1797.0, 1796.0, 1799.0, 1800.0, 1800.0, 1797.0, 1794.0, 1795.0, 1797.0, 1800.0, 1799.0, 1797.0, 1795.0, 1796.0, 1793.0, 1795.0, 1795.0, 1798.0, 1799.0, 1801.0, 1795.0, 1796.0, 1797.0, 1800.0, 1799.0, 1798.0, 1798.0, 1798.0, 1798.0, 1797.0, 1796.0, 1794.0, 1798.0, 1802.0, 1802.0, 1799.0, 1796.0, 1794.0, 1795.0, 1796.0, 1797.0, 1798.0, 1797.0, 1795.0, 1794.0, 1794.0, 1795.0, 1797.0, 1794.0, 1792.0, 1789.0, 1791.0, 1795.0, 1795.0, 1794.0, 1795.0, 1798.0, 1801.0, 1802.0, 1801.0, 1801.0, 1797.0]
    },
    "slices": {}
  }
}