{
 "AcquisitionMatrixPE": 100,
 "AcquisitionNumber": 1,
 "AcquisitionTime": "12:29:40.860000",
 "BandwidthPerPixelPhaseEncode": 18.519,
 "BaseResolution": 100,
 "BodyPartExamined": "BRAIN",
 "ConsistencyInfo": "N4_VE11C_LATEST_20160120",
 "ConversionSoftware": "dcm2niix",
 "ConversionSoftwareVersion": "v1.0.20180622 GCC4.9.2",
 "DerivedVendorReportedEchoSpacing": 0.000539986,
 "DeviceSerialNumber": "166078",
 "DwellTime": 2.1e-06,
 "EchoTime": 0.034,
 "EchoTrainLength": 100,
 "EffectiveEchoSpacing": 0.000539986,
 "FlipAngle": 90,
 "ImageOrientationPatientDICOM": [
  1,
  0,
  0,
  0,
  0.964557,
  -0.263873
 ],
 "ImageType": [
  "ORIGINAL",
  "PRIMARY",
  "M",
  "ND",
  "MOSAIC"
 ],
 "InPlanePhaseEncodingDirectionDICOM": "COL",
 "InstitutionAddress": "Street_StreetNo_Bei_Jing_District_CN_ZIP",
 "InstitutionName": "BeiJing_Normal_University",
 "InstitutionalDepartmentName": "Department",
 "MRAcquisitionType": "2D",
 "MagneticFieldStrength": 3,
 "Manufacturer": "Siemens",
 "ManufacturersModelName": "Prisma",
 "Modality": "MR",
 "MultibandAccelerationFactor": 3,
 "PartialFourier": 1,
 "PatientPosition": "HFS",
 "PercentPhaseFOV": 100,
 "PhaseEncodingDirection": "j-",
 "PhaseEncodingSteps": 100,
 "PhaseResolution": 1,
 "PixelBandwidth": 2380,
 "ProcedureStepDescription": "BNU_P2018_64CH_Zhen.ZongLei",
 "ProtocolName": "bold_100x100_s3_2x2x2_static_256",
 "PulseSequenceDetails": "%SiemensSeq%_ep2d_bold",
 "ReceiveCoilActiveElements": "HC1-7;NC1",
 "ReceiveCoilName": "HeadNeck_64",
 "ReconMatrixPE": 100,
 "RepetitionTime": 2,
 "SAR": 0.0869097,
 "ScanOptions": "FS",
 "ScanningSequence": "EP",
 "SequenceName": "_epfid2d1_100",
 "SequenceVariant": "SK",
 "SeriesDescription": "bold_100x100_s3_2x2x2_static_256",
 "SeriesNumber": 13,
 "ShimSetting": [
  -5458,
  -11476,
  -1285,
  418,
  -8,
  -101,
  -131,
  76
 ],
 "SliceThickness": 2,
 "SliceTiming": [
  1.485,
  0,
  0.99,
  0.0825,
  1.0725,
  0.165,
  1.155,
  0.2475,
  1.2375,
  0.33,
  1.32,
  0.4125,
  1.4025,
  0.5775,
  1.5675,
  0.66,
  1.65,
  0.7425,
  1.7325,
  0.825,
  1.815,
  0.9075,
  1.8975,
  0.495,
  1.485,
  0,
  0.99,
  0.0825,
  1.0725,
  0.165,
  1.155,
  0.2475,
  1.2375,
  0.33,
  1.32,
  0.4125,
  1.4025,
  0.5775,
  1.5675,
  0.66,
  1.65,
  0.7425,
  1.7325,
  0.825,
  1.815,
  0.9075,
  1.8975,
  0.495,
  1.485,
  0,
  0.99,
  0.0825,
  1.0725,
  0.165,
  1.155,
  0.2475,
  1.2375,
  0.33,
  1.32,
  0.4125,
  1.4025,
  0.5775,
  1.5675,
  0.66,
  1.65,
  0.7425,
  1.7325,
  0.825,
  1.815,
  0.9075,
  1.8975,
  0.495
 ],
 "SoftwareVersions": "syngo_MR_E11",
 "SpacingBetweenSlices": 2,
 "StationName": "AWP166078",
 "TaskName": "imagenet",
 "TotalReadoutTime": 0.0534586,
 "TxRefAmp": 233.897,
 "dcmmeta_affine": [
  [
   -2.0,
   0.0,
   0.0,
   100.0
  ],
  [
   0.0,
   1.929114818572998,
   -0.5277460813522339,
   -75.0446548461914
  ],
  [
   0.0,
   0.5277460813522339,
   1.929114818572998,
   -104.2130126953125
  ],
  [
   0.0,
   0.0,
   0.0,
   1.0
  ]
 ],
 "dcmmeta_reorient_transform": [
  [
   0.0,
   -1.0,
   0.0,
   99.0
  ],
  [
   1.0,
   0.0,
   0.0,
   0.0
  ],
  [
   0.0,
   0.0,
   1.0,
   0.0
  ],
  [
   0.0,
   0.0,
   0.0,
   1.0
  ]
 ],
 "dcmmeta_shape": [
  100,
  100,
  72,
  256
 ],
 "dcmmeta_slice_dim": 2,
 "dcmmeta_version": 0.6,
 "global": {
  "const": {
   "AcquisitionMatrix": [
    100,
    0,
    0,
    100
   ],
   "AngioFlag": "N",
   "BitsAllocated": 16,
   "BitsStored": 12,
   "BodyPartExamined": "BRAIN",
   "Columns": 900,
   "EchoNumbers": 1,
   "EchoTime": 34.0,
   "EchoTrainLength": 100,
   "FlipAngle": 90.0,
   "HighBit": 11,
   "ImageOrientationPatient": [
    1.0,
    0.0,
    0.0,
    0.0,
    0.96455741917473,
    -0.2638730473447
   ],
   "ImagePositionPatient": [
    -900.0,
    -887.58365090533,
    159.1322880204
   ],
   "ImageType": [
    "ORIGINAL",
    "PRIMARY",
    "M",
    "ND",
    "MOSAIC"
   ],
   "ImagedNucleus": "1H",
   "ImagingFrequency": 123.257788,
   "InPlanePhaseEncodingDirection": "COL",
   "MRAcquisitionType": "2D",
   "MagneticFieldStrength": 3.0,
   "Manufacturer": "SIEMENS",
   "ManufacturerModelName": "Prisma",
   "Modality": "MR",
   "NumberOfAverages": 1.0,
   "NumberOfPhaseEncodingSteps": 100,
   "PercentPhaseFieldOfView": 100.0,
   "PercentSampling": 100.0,
   "PerformedProcedureStepStartTime": "110550.613000",
   "PhotometricInterpretation": "MONOCHROME2",
   "PixelBandwidth": 2380.0,
   "PixelRepresentation": 0,
   "PixelSpacing": [
    2.0,
    2.0
   ],
   "ProtocolName": "bold_100x100_s3_2x2x2_static_256",
   "RepetitionTime": 2000.0,
   "Rows": 900,
   "SAR": 0.08690972422199,
   "SamplesPerPixel": 1,
   "ScanOptions": "FS",
   "ScanningSequence": "EP",
   "SequenceName": "*epfid2d1_100",
   "SequenceVariant": "SK",
   "SeriesDescription": "bold_100x100_s3_2x2x2_static_256",
   "SeriesNumber": 13,
   "SeriesTime": "122942.877000",
   "SliceLocation": -80.71717369741,
   "SliceThickness": 2.0,
   "SmallestImagePixelValue": 0,
   "SoftwareVersions": "syngo MR E11",
   "SpacingBetweenSlices": 1.9999999740285,
   "SpecificCharacterSet": "ISO_IR 100",
   "StudyID": "1",
   "StudyTime": "110550.541000",
   "TransmitCoilName": "Body",
   "VariableFlipAngleFlag": "N",
   "WindowCenterWidthExplanation": "Algo1",
   "dBdt": 0.0
  },
  "slices": {}
 },
 "time": {
  "samples": {
   "AcquisitionNumber": [
    1,
    2,
    3,
    4,
    5,
    6,
    7,
    8,
    9,
    10,
    11,
    12,
    13,
    14,
    15,
    16,
    17,
    18,
    19,
    20,
    21,
    22,
    23,
    24,
    25,
    26,
    27,
    28,
    29,
    30,
    31,
    32,
    33,
    34,
    35,
    36,
    37,
    38,
    39,
    40,
    41,
    42,
    43,
    44,
    45,
    46,
    47,
    48,
    49,
    50,
    51,
    52,
    53,
    54,
    55,
    56,
    57,
    58,
    59,
    60,
    61,
    62,
    63,
    64,
    65,
    66,
    67,
    68,
    69,
    70,
    71,
    72,
    73,
    74,
    75,
    76,
    77,
    78,
    79,
    80,
    81,
    82,
    83,
    84,
    85,
    86,
    87,
    88,
    89,
    90,
    91,
    92,
    93,
    94,
    95,
    96,
    97,
    98,
    99,
    100,
    101,
    102,
    103,
    104,
    105,
    106,
    107,
    108,
    109,
    110,
    111,
    112,
    113,
    114,
    115,
    116,
    117,
    118,
    119,
    120,
    121,
    122,
    123,
    124,
    125,
    126,
    127,
    128,
    129,
    130,
    131,
    132,
    133,
    134,
    135,
    136,
    137,
    138,
    139,
    140,
    141,
    142,
    143,
    144,
    145,
    146,
    147,
    148,
    149,
    150,
    151,
    152,
    153,
    154,
    155,
    156,
    157,
    158,
    159,
    160,
    161,
    162,
    163,
    164,
    165,
    166,
    167,
    168,
    169,
    170,
    171,
    172,
    173,
    174,
    175,
    176,
    177,
    178,
    179,
    180,
    181,
    182,
    183,
    184,
    185,
    186,
    187,
    188,
    189,
    190,
    191,
    192,
    193,
    194,
    195,
    196,
    197,
    198,
    199,
    200,
    201,
    202,
    203,
    204,
    205,
    206,
    207,
    208,
    209,
    210,
    211,
    212,
    213,
    214,
    215,
    216,
    217,
    218,
    219,
    220,
    221,
    222,
    223,
    224,
    225,
    226,
    227,
    228,
    229,
    230,
    231,
    232,
    233,
    234,
    235,
    236,
    237,
    238,
    239,
    240,
    241,
    242,
    243,
    244,
    245,
    246,
    247,
    248,
    249,
    250,
    251,
    252,
    253,
    254,
    255,
    256
   ],
   "AcquisitionTime": [
    "122940.860000",
    "122942.860000",
    "122944.860000",
    "122946.860000",
    "122948.860000",
    "122950.860000",
    "122952.860000",
    "122954.860000",
    "122956.860000",
    "122958.860000",
    "123000.860000",
    "123002.860000",
    "123004.860000",
    "123006.860000",
    "123008.860000",
    "123010.860000",
    "123012.860000",
    "123014.860000",
    "123016.860000",
    "123018.860000",
    "123020.860000",
    "123022.860000",
    "123024.860000",
    "123026.860000",
    "123028.860000",
    "123030.860000",
    "123032.860000",
    "123034.860000",
    "123036.860000",
    "123038.860000",
    "123040.860000",
    "123042.860000",
    "123044.860000",
    "123046.860000",
    "123048.860000",
    "123050.860000",
    "123052.860000",
    "123054.860000",
    "123056.860000",
    "123058.860000",
    "123100.860000",
    "123102.860000",
    "123104.860000",
    "123106.860000",
    "123108.860000",
    "123110.860000",
    "123112.860000",
    "123114.860000",
    "123116.860000",
    "123118.860000",
    "123120.860000",
    "123122.860000",
    "123124.860000",
    "123126.860000",
    "123128.860000",
    "123130.860000",
    "123132.860000",
    "123134.860000",
    "123136.860000",
    "123138.860000",
    "123140.860000",
    "123142.860000",
    "123144.860000",
    "123146.860000",
    "123148.860000",
    "123150.860000",
    "123152.860000",
    "123154.860000",
    "123156.860000",
    "123158.860000",
    "123200.860000",
    "123202.860000",
    "123204.860000",
    "123206.860000",
    "123208.860000",
    "123210.860000",
    "123212.860000",
    "123214.860000",
    "123216.860000",
    "123218.860000",
    "123220.860000",
    "123222.860000",
    "123224.860000",
    "123226.860000",
    "123228.860000",
    "123230.860000",
    "123232.860000",
    "123234.860000",
    "123236.860000",
    "123238.860000",
    "123240.860000",
    "123242.860000",
    "123244.860000",
    "123246.860000",
    "123248.860000",
    "123250.860000",
    "123252.860000",
    "123254.860000",
    "123256.860000",
    "123258.860000",
    "123300.860000",
    "123302.860000",
    "123304.860000",
    "123306.860000",
    "123308.860000",
    "123310.860000",
    "123312.860000",
    "123314.860000",
    "123316.860000",
    "123318.860000",
    "123320.860000",
    "123322.860000",
    "123324.860000",
    "123326.860000",
    "123328.860000",
    "123330.860000",
    "123332.860000",
    "123334.860000",
    "123336.860000",
    "123338.860000",
    "123340.860000",
    "123342.860000",
    "123344.860000",
    "123346.860000",
    "123348.860000",
    "123350.860000",
    "123352.860000",
    "123354.860000",
    "123356.860000",
    "123358.860000",
    "123400.860000",
    "123402.860000",
    "123404.860000",
    "123406.860000",
    "123408.860000",
    "123410.860000",
    "123412.860000",
    "123414.860000",
    "123416.860000",
    "123418.860000",
    "123420.860000",
    "123422.860000",
    "123424.860000",
    "123426.860000",
    "123428.860000",
    "123430.860000",
    "123432.860000",
    "123434.860000",
    "123436.860000",
    "123438.860000",
    "123440.860000",
    "123442.860000",
    "123444.860000",
    "123446.860000",
    "123448.860000",
    "123450.860000",
    "123452.860000",
    "123454.860000",
    "123456.860000",
    "123458.860000",
    "123500.860000",
    "123502.860000",
    "123504.860000",
    "123506.860000",
    "123508.860000",
    "123510.860000",
    "123512.860000",
    "123514.860000",
    "123516.860000",
    "123518.860000",
    "123520.860000",
    "123522.860000",
    "123524.860000",
    "123526.860000",
    "123528.860000",
    "123530.860000",
    "123532.860000",
    "123534.860000",
    "123536.860000",
    "123538.860000",
    "123540.860000",
    "123542.860000",
    "123544.860000",
    "123546.860000",
    "123548.860000",
    "123550.860000",
    "123552.860000",
    "123554.860000",
    "123556.860000",
    "123558.860000",
    "123600.860000",
    "123602.860000",
    "123604.860000",
    "123606.860000",
    "123608.860000",
    "123610.860000",
    "123612.860000",
    "123614.860000",
    "123616.860000",
    "123618.860000",
    "123620.860000",
    "123622.860000",
    "123624.860000",
    "123626.860000",
    "123628.860000",
    "123630.860000",
    "123632.860000",
    "123634.860000",
    "123636.860000",
    "123638.860000",
    "123640.860000",
    "123642.860000",
    "123644.860000",
    "123646.860000",
    "123648.860000",
    "123650.860000",
    "123652.860000",
    "123654.860000",
    "123656.860000",
    "123658.860000",
    "123700.860000",
    "123702.860000",
    "123704.860000",
    "123706.860000",
    "123708.860000",
    "123710.860000",
    "123712.860000",
    "123714.860000",
    "123716.860000",
    "123718.860000",
    "123720.860000",
    "123722.860000",
    "123724.860000",
    "123726.860000",
    "123728.860000",
    "123730.860000",
    "123732.860000",
    "123734.860000",
    "123736.860000",
    "123738.860000",
    "123740.860000",
    "123742.860000",
    "123744.860000",
    "123746.860000",
    "123748.860000",
    "123750.860000",
    "123752.860000",
    "123754.860000",
    "123756.860000",
    "123758.860000",
    "123800.860000",
    "123802.860000",
    "123804.860000",
    "123806.860000",
    "123808.860000",
    "123810.860000"
   ],
   "ContentTime": [
    "122942.881000",
    "122944.377000",
    "122946.376000",
    "122948.377000",
    "122950.376000",
    "122952.376000",
    "122954.376000",
    "122956.376000",
    "122958.376000",
    "123000.376000",
    "123002.376000",
    "123004.377000",
    "123006.376000",
    "123008.377000",
    "123010.375000",
    "123012.375000",
    "123014.376000",
    "123016.376000",
    "123018.376000",
    "123020.376000",
    "123022.376000",
    "123024.376000",
    "123026.376000",
    "123028.375000",
    "123030.375000",
    "123032.377000",
    "123034.376000",
    "123036.377000",
    "123038.376000",
    "123040.377000",
    "123042.376000",
    "123044.375000",
    "123046.375000",
    "123048.376000",
    "123050.376000",
    "123052.376000",
    "123054.377000",
    "123056.377000",
    "123058.376000",
    "123100.376000",
    "123102.376000",
    "123104.376000",
    "123106.377000",
    "123108.376000",
    "123110.377000",
    "123112.377000",
    "123114.377000",
    "123116.376000",
    "123118.377000",
    "123120.375000",
    "123122.375000",
    "123124.376000",
    "123126.376000",
    "123128.376000",
    "123130.377000",
    "123132.377000",
    "123134.376000",
    "123136.376000",
    "123138.376000",
    "123140.376000",
    "123142.377000",
    "123144.376000",
    "123146.376000",
    "123148.376000",
    "123150.377000",
    "123152.376000",
    "123154.375000",
    "123156.376000",
    "123158.377000",
    "123200.377000",
    "123202.377000",
    "123204.377000",
    "123206.376000",
    "123208.376000",
    "123210.376000",
    "123212.375000",
    "123214.375000",
    "123216.377000",
    "123218.376000",
    "123220.376000",
    "123222.377000",
    "123224.376000",
    "123226.377000",
    "123228.377000",
    "123230.376000",
    "123232.375000",
    "123234.376000",
    "123236.376000",
    "123238.376000",
    "123240.376000",
    "123242.377000",
    "123244.377000",
    "123246.375000",
    "123248.375000",
    "123250.375000",
    "123252.376000",
    "123254.376000",
    "123256.376000",
    "123258.376000",
    "123300.376000",
    "123302.377000",
    "123304.376000",
    "123306.376000",
    "123308.377000",
    "123310.376000",
    "123312.376000",
    "123314.377000",
    "123316.376000",
    "123318.377000",
    "123320.377000",
    "123322.376000",
    "123324.376000",
    "123326.376000",
    "123328.377000",
    "123330.376000",
    "123332.377000",
    "123334.376000",
    "123336.376000",
    "123338.377000",
    "123340.375000",
    "123342.376000",
    "123344.376000",
    "123346.376000",
    "123348.377000",
    "123350.376000",
    "123352.377000",
    "123354.377000",
    "123356.375000",
    "123358.376000",
    "123400.376000",
    "123402.377000",
    "123404.377000",
    "123406.376000",
    "123408.377000",
    "123410.376000",
    "123412.376000",
    "123414.375000",
    "123416.375000",
    "123418.377000",
    "123420.376000",
    "123422.377000",
    "123424.377000",
    "123426.376000",
    "123428.377000",
    "123430.377000",
    "123432.376000",
    "123434.376000",
    "123436.377000",
    "123438.377000",
    "123440.376000",
    "123442.376000",
    "123444.377000",
    "123446.376000",
    "123448.377000",
    "123450.375000",
    "123452.375000",
    "123454.376000",
    "123456.377000",
    "123458.377000",
    "123500.376000",
    "123502.376000",
    "123504.377000",
    "123506.376000",
    "123508.375000",
    "123510.376000",
    "123512.376000",
    "123514.376000",
    "123516.376000",
    "123518.376000",
    "123520.376000",
    "123522.377000",
    "123524.376000",
    "123526.376000",
    "123528.377000",
    "123530.376000",
    "123532.377000",
    "123534.377000",
    "123536.377000",
    "123538.376000",
    "123540.377000",
    "123542.376000",
    "123544.376000",
    "123546.377000",
    "123548.376000",
    "123550.377000",
    "123552.377000",
    "123554.377000",
    "123556.377000",
    "123558.377000",
    "123600.375000",
    "123602.375000",
    "123604.377000",
    "123606.376000",
    "123608.377000",
    "123610.376000",
    "123612.376000",
    "123614.376000",
    "123616.376000",
    "123618.376000",
    "123620.376000",
    "123622.376000",
    "123624.376000",
    "123626.376000",
    "123628.376000",
    "123630.376000",
    "123632.376000",
    "123634.375000",
    "123636.375000",
    "123638.377000",
    "123640.376000",
    "123642.376000",
    "123644.377000",
    "123646.377000",
    "123648.377000",
    "123650.376000",
    "123652.376000",
    "123654.376000",
    "123656.376000",
    "123658.376000",
    "123700.377000",
    "123702.377000",
    "123704.377000",
    "123706.376000",
    "123708.376000",
    "123710.375000",
    "123712.376000",
    "123714.377000",
    "123716.377000",
    "123718.376000",
    "123720.376000",
    "123722.377000",
    "123724.377000",
    "123726.375000",
    "123728.376000",
    "123730.376000",
    "123732.376000",
    "123734.377000",
    "123736.377000",
    "123738.376000",
    "123740.376000",
    "123742.377000",
    "123744.375000",
    "123746.387000",
    "123748.376000",
    "123750.377000",
    "123752.376000",
    "123754.377000",
    "123756.377000",
    "123758.377000",
    "123800.376000",
    "123802.375000",
    "123804.375000",
    "123806.376000",
    "123808.377000",
    "123810.377000",
    "123812.297000"
   ],
   "InstanceCreationTime": [
    "122942.881000",
    "122944.377000",
    "122946.376000",
    "122948.377000",
    "122950.376000",
    "122952.376000",
    "122954.376000",
    "122956.376000",
    "122958.376000",
    "123000.376000",
    "123002.376000",
    "123004.377000",
    "123006.376000",
    "123008.377000",
    "123010.375000",
    "123012.375000",
    "123014.376000",
    "123016.376000",
    "123018.376000",
    "123020.376000",
    "123022.376000",
    "123024.376000",
    "123026.376000",
    "123028.375000",
    "123030.375000",
    "123032.377000",
    "123034.376000",
    "123036.377000",
    "123038.376000",
    "123040.377000",
    "123042.376000",
    "123044.375000",
    "123046.375000",
    "123048.376000",
    "123050.376000",
    "123052.376000",
    "123054.377000",
    "123056.377000",
    "123058.376000",
    "123100.376000",
    "123102.376000",
    "123104.376000",
    "123106.377000",
    "123108.376000",
    "123110.377000",
    "123112.377000",
    "123114.377000",
    "123116.376000",
    "123118.377000",
    "123120.375000",
    "123122.375000",
    "123124.376000",
    "123126.376000",
    "123128.376000",
    "123130.377000",
    "123132.377000",
    "123134.376000",
    "123136.376000",
    "123138.376000",
    "123140.376000",
    "123142.377000",
    "123144.376000",
    "123146.376000",
    "123148.376000",
    "123150.377000",
    "123152.376000",
    "123154.375000",
    "123156.376000",
    "123158.377000",
    "123200.377000",
    "123202.377000",
    "123204.377000",
    "123206.376000",
    "123208.376000",
    "123210.376000",
    "123212.375000",
    "123214.375000",
    "123216.377000",
    "123218.376000",
    "123220.376000",
    "123222.377000",
    "123224.376000",
    "123226.377000",
    "123228.377000",
    "123230.376000",
    "123232.375000",
    "123234.376000",
    "123236.376000",
    "123238.376000",
    "123240.376000",
    "123242.377000",
    "123244.377000",
    "123246.375000",
    "123248.375000",
    "123250.375000",
    "123252.376000",
    "123254.376000",
    "123256.376000",
    "123258.376000",
    "123300.376000",
    "123302.377000",
    "123304.376000",
    "123306.376000",
    "123308.377000",
    "123310.376000",
    "123312.376000",
    "123314.377000",
    "123316.376000",
    "123318.377000",
    "123320.377000",
    "123322.376000",
    "123324.376000",
    "123326.376000",
    "123328.377000",
    "123330.376000",
    "123332.377000",
    "123334.376000",
    "123336.376000",
    "123338.377000",
    "123340.375000",
    "123342.376000",
    "123344.376000",
    "123346.376000",
    "123348.377000",
    "123350.376000",
    "123352.377000",
    "123354.377000",
    "123356.375000",
    "123358.376000",
    "123400.376000",
    "123402.377000",
    "123404.377000",
    "123406.376000",
    "123408.377000",
    "123410.376000",
    "123412.376000",
    "123414.375000",
    "123416.375000",
    "123418.377000",
    "123420.376000",
    "123422.377000",
    "123424.377000",
    "123426.376000",
    "123428.377000",
    "123430.377000",
    "123432.376000",
    "123434.376000",
    "123436.377000",
    "123438.377000",
    "123440.376000",
    "123442.376000",
    "123444.377000",
    "123446.376000",
    "123448.377000",
    "123450.375000",
    "123452.375000",
    "123454.376000",
    "123456.377000",
    "123458.377000",
    "123500.376000",
    "123502.376000",
    "123504.377000",
    "123506.376000",
    "123508.375000",
    "123510.376000",
    "123512.376000",
    "123514.376000",
    "123516.376000",
    "123518.376000",
    "123520.376000",
    "123522.377000",
    "123524.376000",
    "123526.376000",
    "123528.377000",
    "123530.376000",
    "123532.377000",
    "123534.377000",
    "123536.377000",
    "123538.376000",
    "123540.377000",
    "123542.376000",
    "123544.376000",
    "123546.377000",
    "123548.376000",
    "123550.377000",
    "123552.377000",
    "123554.377000",
    "123556.377000",
    "123558.377000",
    "123600.375000",
    "123602.375000",
    "123604.377000",
    "123606.376000",
    "123608.377000",
    "123610.376000",
    "123612.376000",
    "123614.376000",
    "123616.376000",
    "123618.376000",
    "123620.376000",
    "123622.376000",
    "123624.376000",
    "123626.376000",
    "123628.376000",
    "123630.376000",
    "123632.376000",
    "123634.375000",
    "123636.375000",
    "123638.377000",
    "123640.376000",
    "123642.376000",
    "123644.377000",
    "123646.377000",
    "123648.377000",
    "123650.376000",
    "123652.376000",
    "123654.376000",
    "123656.376000",
    "123658.376000",
    "123700.377000",
    "123702.377000",
    "123704.377000",
    "123706.376000",
    "123708.376000",
    "123710.375000",
    "123712.376000",
    "123714.377000",
    "123716.377000",
    "123718.376000",
    "123720.376000",
    "123722.377000",
    "123724.377000",
    "123726.375000",
    "123728.376000",
    "123730.376000",
    "123732.376000",
    "123734.377000",
    "123736.377000",
    "123738.376000",
    "123740.376000",
    "123742.377000",
    "123744.375000",
    "123746.387000",
    "123748.376000",
    "123750.377000",
    "123752.376000",
    "123754.377000",
    "123756.377000",
    "123758.377000",
    "123800.376000",
    "123802.375000",
    "123804.375000",
    "123806.376000",
    "123808.377000",
    "123810.377000",
    "123812.297000"
   ],
   "InstanceNumber": [
    1,
    2,
    3,
    4,
    5,
    6,
    7,
    8,
    9,
    10,
    11,
    12,
    13,
    14,
    15,
    16,
    17,
    18,
    19,
    20,
    21,
    22,
    23,
    24,
    25,
    26,
    27,
    28,
    29,
    30,
    31,
    32,
    33,
    34,
    35,
    36,
    37,
    38,
    39,
    40,
    41,
    42,
    43,
    44,
    45,
    46,
    47,
    48,
    49,
    50,
    51,
    52,
    53,
    54,
    55,
    56,
    57,
    58,
    59,
    60,
    61,
    62,
    63,
    64,
    65,
    66,
    67,
    68,
    69,
    70,
    71,
    72,
    73,
    74,
    75,
    76,
    77,
    78,
    79,
    80,
    81,
    82,
    83,
    84,
    85,
    86,
    87,
    88,
    89,
    90,
    91,
    92,
    93,
    94,
    95,
    96,
    97,
    98,
    99,
    100,
    101,
    102,
    103,
    104,
    105,
    106,
    107,
    108,
    109,
    110,
    111,
    112,
    113,
    114,
    115,
    116,
    117,
    118,
    119,
    120,
    121,
    122,
    123,
    124,
    125,
    126,
    127,
    128,
    129,
    130,
    131,
    132,
    133,
    134,
    135,
    136,
    137,
    138,
    139,
    140,
    141,
    142,
    143,
    144,
    145,
    146,
    147,
    148,
    149,
    150,
    151,
    152,
    153,
    154,
    155,
    156,
    157,
    158,
    159,
    160,
    161,
    162,
    163,
    164,
    165,
    166,
    167,
    168,
    169,
    170,
    171,
    172,
    173,
    174,
    175,
    176,
    177,
    178,
    179,
    180,
    181,
    182,
    183,
    184,
    185,
    186,
    187,
    188,
    189,
    190,
    191,
    192,
    193,
    194,
    195,
    196,
    197,
    198,
    199,
    200,
    201,
    202,
    203,
    204,
    205,
    206,
    207,
    208,
    209,
    210,
    211,
    212,
    213,
    214,
    215,
    216,
    217,
    218,
    219,
    220,
    221,
    222,
    223,
    224,
    225,
    226,
    227,
    228,
    229,
    230,
    231,
    232,
    233,
    234,
    235,
    236,
    237,
    238,
    239,
    240,
    241,
    242,
    243,
    244,
    245,
    246,
    247,
    248,
    249,
    250,
    251,
    252,
    253,
    254,
    255,
    256
   ],
   "LargestImagePixelValue": [
    3696,
    3571,
    3550,
    3553,
    3521,
    3591,
    3574,
    3561,
    3570,
    3517,
    3576,
    3511,
    3522,
    3531,
    3561,
    3573,
    3565,
    3536,
    3482,
    3529,
    3535,
    3519,
    3538,
    3536,
    3558,
    3528,
    3558,
    3534,
    3576,
    3551,
    3550,
    3475,
    3522,
    3543,
    3532,
    3548,
    3550,
    3575,
    3562,
    3558,
    3572,
    3558,
    3585,
    3559,
    3551,
    3510,
    3541,
    3563,
    3586,
    3539,
    3511,
    3560,
    3521,
    3498,
    3491,
    3499,
    3535,
    3540,
    3535,
    3521,
    3534,
    3545,
    3555,
    3534,
    3586,
    3548,
    3529,
    3564,
    3568,
    3524,
    3544,
    3567,
    3569,
    3546,
    3544,
    3530,
    3568,
    3537,
    3546,
    3558,
    3594,
    3578,
    3599,
    3568,
    3532,
    3510,
    3536,
    3537,
    3600,
    3580,
    3598,
    3575,
    3569,
    3498,
    3535,
    3582,
    3574,
    3555,
    3562,
    3566,
    3551,
    3556,
    3542,
    3565,
    3581,
    3539,
    3559,
    3580,
    3549,
    3555,
    3573,
    3543,
    3546,
    3539,
    3577,
    3563,
    3539,
    3555,
    3568,
    3514,
    3535,
    3562,
    3519,
    3551,
    3568,
    3535,
    3582,
    3547,
    3574,
    3553,
    3548,
    3510,
    3528,
    3551,
    3565,
    3590,
    3564,
    3506,
    3498,
    3501,
    3468,
    3500,
    3542,
    3503,
    3498,
    3518,
    3550,
    3560,
    3592,
    3527,
    3540,
    3563,
    3547,
    3555,
    3562,
    3551,
    3578,
    3522,
    3512,
    3522,
    3492,
    3486,
    3523,
    3514,
    3534,
    3545,
    3526,
    3525,
    3547,
    3517,
    3531,
    3517,
    3522,
    3534,
    3516,
    3496,
    3518,
    3486,
    3446,
    3527,
    3457,
    3478,
    3484,
    3441,
    3431,
    3485,
    3461,
    3430,
    3462,
    3443,
    3465,
    3450,
    3461,
    3441,
    3460,
    3500,
    3445,
    3438,
    3412,
    3410,
    3442,
    3534,
    3523,
    3461,
    3484,
    3487,
    3490,
    3511,
    3472,
    3538,
    3529,
    3460,
    3462,
    3477,
    3481,
    3494,
    3526,
    3531,
    3492,
    3481,
    3449,
    3483,
    3473,
    3494,
    3460,
    3536,
    3494,
    3504,
    3501,
    3554,
    3489,
    3470,
    3458,
    3521,
    3536,
    3533,
    3520,
    3494,
    3531,
    3528,
    3543,
    3520,
    3480,
    3468,
    3495,
    3487,
    3460,
    3444,
    3451,
    3444,
    3471,
    3462,
    3429,
    3443,
    3453,
    3474
   ],
   "WindowCenter": [
    842.0,
    838.0,
    838.0,
    839.0,
    839.0,
    839.0,
    840.0,
    839.0,
    839.0,
    838.0,
    839.0,
    839.0,
    838.0,
    838.0,
    838.0,
    839.0,
    838.0,
    837.0,
    836.0,
    836.0,
    836.0,
    837.0,
    838.0,
    838.0,
    837.0,
    837.0,
    838.0,
    838.0,
    838.0,
    838.0,
    838.0,
    838.0,
    837.0,
    838.0,
    839.0,
    841.0,
    841.0,
    841.0,
    841.0,
    841.0,
    842.0,
    841.0,
    840.0,
    839.0,
    838.0,
    838.0,
    839.0,
    840.0,
    840.0,
    839.0,
    839.0,
    840.0,
    841.0,
    840.0,
    839.0,
    840.0,
    841.0,
    842.0,
    842.0,
    843.0,
    843.0,
    842.0,
    841.0,
    841.0,
    841.0,
    842.0,
    842.0,
    840.0,
    839.0,
    839.0,
    839.0,
    840.0,
    841.0,
    841.0,
    841.0,
    840.0,
    840.0,
    840.0,
    840.0,
    840.0,
    839.0,
    840.0,
    841.0,
    842.0,
    842.0,
    842.0,
    842.0,
    841.0,
    841.0,
    840.0,
    840.0,
    840.0,
    840.0,
    841.0,
    841.0,
    842.0,
    842.0,
    841.0,
    840.0,
    839.0,
    839.0,
    841.0,
    841.0,
    840.0,
    840.0,
    840.0,
    841.0,
    841.0,
    840.0,
    841.0,
    840.0,
    840.0,
    840.0,
    840.0,
    840.0,
    840.0,
    840.0,
    841.0,
    841.0,
    841.0,
    840.0,
    840.0,
    839.0,
    838.0,
    839.0,
    839.0,
    840.0,
