{
 "AcquisitionMatrixPE": 100,
 "AcquisitionNumber": 1,
 "AcquisitionTime": "11:48:11.127500",
 "BandwidthPerPixelPhaseEncode": 18.519,
 "BaseResolution": 100,
 "BodyPartExamined": "BRAIN",
 "ConsistencyInfo": "N4_VE11C_LATEST_20160120",
 "ConversionSoftware": "dcm2niix",
 "ConversionSoftwareVersion": "v1.0.20180622 GCC4.9.2",
 "DerivedVendorReportedEchoSpacing": 0.000539986,
 "DeviceSerialNumber": "166078",
 "DwellTime": 2.1e-06,
 "EchoTime": 0.034,
 "EchoTrainLength": 100,
 "EffectiveEchoSpacing": 0.000539986,
 "FlipAngle": 90,
 "ImageOrientationPatientDICOM": [
  1,
  0,
  0,
  0,
  0.964557,
  -0.263873
 ],
 "ImageType": [
  "ORIGINAL",
  "PRIMARY",
  "M",
  "ND",
  "MOSAIC"
 ],
 "InPlanePhaseEncodingDirectionDICOM": "COL",
 "InstitutionAddress": "Street_StreetNo_Bei_Jing_District_CN_ZIP",
 "InstitutionName": "BeiJing_Normal_University",
 "InstitutionalDepartmentName": "Department",
 "MRAcquisitionType": "2D",
 "MagneticFieldStrength": 3,
 "Manufacturer": "Siemens",
 "ManufacturersModelName": "Prisma",
 "Modality": "MR",
 "MultibandAccelerationFactor": 3,
 "PartialFourier": 1,
 "PatientPosition": "HFS",
 "PercentPhaseFOV": 100,
 "PhaseEncodingDirection": "j-",
 "PhaseEncodingSteps": 100,
 "PhaseResolution": 1,
 "PixelBandwidth": 2380,
 "ProcedureStepDescription": "BNU_P2018_64CH_Zhen.ZongLei",
 "ProtocolName": "bold_100x100_s3_2x2x2_static_256",
 "PulseSequenceDetails": "%SiemensSeq%_ep2d_bold",
 "ReceiveCoilActiveElements": "HC1-7;NC1",
 "ReceiveCoilName": "HeadNeck_64",
 "ReconMatrixPE": 100,
 "RepetitionTime": 2,
 "SAR": 0.0869097,
 "ScanOptions": "FS",
 "ScanningSequence": "EP",
 "SequenceName": "_epfid2d1_100",
 "SequenceVariant": "SK",
 "SeriesDescription": "bold_100x100_s3_2x2x2_static_256",
 "SeriesNumber": 7,
 "ShimSetting": [
  -5458,
  -11476,
  -1285,
  418,
  -8,
  -101,
  -131,
  76
 ],
 "SliceThickness": 2,
 "SliceTiming": [
  1.485,
  0,
  0.99,
  0.0825,
  1.0725,
  0.165,
  1.155,
  0.2475,
  1.2375,
  0.33,
  1.32,
  0.4125,
  1.4025,
  0.5775,
  1.5675,
  0.66,
  1.65,
  0.7425,
  1.7325,
  0.825,
  1.815,
  0.9075,
  1.8975,
  0.495,
  1.485,
  0,
  0.99,
  0.0825,
  1.0725,
  0.165,
  1.155,
  0.2475,
  1.2375,
  0.33,
  1.32,
  0.4125,
  1.4025,
  0.5775,
  1.5675,
  0.66,
  1.65,
  0.7425,
  1.7325,
  0.825,
  1.815,
  0.9075,
  1.8975,
  0.495,
  1.485,
  0,
  0.99,
  0.0825,
  1.0725,
  0.165,
  1.155,
  0.2475,
  1.2375,
  0.33,
  1.32,
  0.4125,
  1.4025,
  0.5775,
  1.5675,
  0.66,
  1.65,
  0.7425,
  1.7325,
  0.825,
  1.815,
  0.9075,
  1.8975,
  0.495
 ],
 "SoftwareVersions": "syngo_MR_E11",
 "SpacingBetweenSlices": 2,
 "StationName": "AWP166078",
 "TaskName": "imagenet",
 "TotalReadoutTime": 0.0534586,
 "TxRefAmp": 233.897,
 "dcmmeta_affine": [
  [
   -2.0,
   0.0,
   0.0,
   100.0
  ],
  [
   0.0,
   1.929114818572998,
   -0.5277460813522339,
   -75.0446548461914
  ],
  [
   0.0,
   0.5277460813522339,
   1.929114818572998,
   -104.2130126953125
  ],
  [
   0.0,
   0.0,
   0.0,
   1.0
  ]
 ],
 "dcmmeta_reorient_transform": [
  [
   0.0,
   -1.0,
   0.0,
   99.0
  ],
  [
   1.0,
   0.0,
   0.0,
   0.0
  ],
  [
   0.0,
   0.0,
   1.0,
   0.0
  ],
  [
   0.0,
   0.0,
   0.0,
   1.0
  ]
 ],
 "dcmmeta_shape": [
  100,
  100,
  72,
  256
 ],
 "dcmmeta_slice_dim": 2,
 "dcmmeta_version": 0.6,
 "global": {
  "const": {
   "AcquisitionMatrix": [
    100,
    0,
    0,
    100
   ],
   "AngioFlag": "N",
   "BitsAllocated": 16,
   "BitsStored": 12,
   "BodyPartExamined": "BRAIN",
   "Columns": 900,
   "EchoNumbers": 1,
   "EchoTime": 34.0,
   "EchoTrainLength": 100,
   "FlipAngle": 90.0,
   "HighBit": 11,
   "ImageOrientationPatient": [
    1.0,
    0.0,
    0.0,
    0.0,
    0.96455741917473,
    -0.2638730473447
   ],
   "ImagePositionPatient": [
    -900.0,
    -887.58365090533,
    159.1322880204
   ],
   "ImageType": [
    "ORIGINAL",
    "PRIMARY",
    "M",
    "ND",
    "MOSAIC"
   ],
   "ImagedNucleus": "1H",
   "ImagingFrequency": 123.257783,
   "InPlanePhaseEncodingDirection": "COL",
   "MRAcquisitionType": "2D",
   "MagneticFieldStrength": 3.0,
   "Manufacturer": "SIEMENS",
   "ManufacturerModelName": "Prisma",
   "Modality": "MR",
   "NumberOfAverages": 1.0,
   "NumberOfPhaseEncodingSteps": 100,
   "PercentPhaseFieldOfView": 100.0,
   "PercentSampling": 100.0,
   "PerformedProcedureStepStartTime": "110550.613000",
   "PhotometricInterpretation": "MONOCHROME2",
   "PixelBandwidth": 2380.0,
   "PixelRepresentation": 0,
   "PixelSpacing": [
    2.0,
    2.0
   ],
   "ProtocolName": "bold_100x100_s3_2x2x2_static_256",
   "RepetitionTime": 2000.0,
   "Rows": 900,
   "SAR": 0.08690972422199,
   "SamplesPerPixel": 1,
   "ScanOptions": "FS",
   "ScanningSequence": "EP",
   "SequenceName": "*epfid2d1_100",
   "SequenceVariant": "SK",
   "SeriesDescription": "bold_100x100_s3_2x2x2_static_256",
   "SeriesNumber": 7,
   "SeriesTime": "114813.681000",
   "SliceLocation": -80.71717369741,
   "SliceThickness": 2.0,
   "SmallestImagePixelValue": 0,
   "SoftwareVersions": "syngo MR E11",
   "SpacingBetweenSlices": 1.9999999740285,
   "SpecificCharacterSet": "ISO_IR 100",
   "StudyID": "1",
   "StudyTime": "110550.541000",
   "TransmitCoilName": "Body",
   "VariableFlipAngleFlag": "N",
   "WindowCenterWidthExplanation": "Algo1",
   "dBdt": 0.0
  },
  "slices": {}
 },
 "time": {
  "samples": {
   "AcquisitionNumber": [
    1,
    2,
    3,
    4,
    5,
    6,
    7,
    8,
    9,
    10,
    11,
    12,
    13,
    14,
    15,
    16,
    17,
    18,
    19,
    20,
    21,
    22,
    23,
    24,
    25,
    26,
    27,
    28,
    29,
    30,
    31,
    32,
    33,
    34,
    35,
    36,
    37,
    38,
    39,
    40,
    41,
    42,
    43,
    44,
    45,
    46,
    47,
    48,
    49,
    50,
    51,
    52,
    53,
    54,
    55,
    56,
    57,
    58,
    59,
    60,
    61,
    62,
    63,
    64,
    65,
    66,
    67,
    68,
    69,
    70,
    71,
    72,
    73,
    74,
    75,
    76,
    77,
    78,
    79,
    80,
    81,
    82,
    83,
    84,
    85,
    86,
    87,
    88,
    89,
    90,
    91,
    92,
    93,
    94,
    95,
    96,
    97,
    98,
    99,
    100,
    101,
    102,
    103,
    104,
    105,
    106,
    107,
    108,
    109,
    110,
    111,
    112,
    113,
    114,
    115,
    116,
    117,
    118,
    119,
    120,
    121,
    122,
    123,
    124,
    125,
    126,
    127,
    128,
    129,
    130,
    131,
    132,
    133,
    134,
    135,
    136,
    137,
    138,
    139,
    140,
    141,
    142,
    143,
    144,
    145,
    146,
    147,
    148,
    149,
    150,
    151,
    152,
    153,
    154,
    155,
    156,
    157,
    158,
    159,
    160,
    161,
    162,
    163,
    164,
    165,
    166,
    167,
    168,
    169,
    170,
    171,
    172,
    173,
    174,
    175,
    176,
    177,
    178,
    179,
    180,
    181,
    182,
    183,
    184,
    185,
    186,
    187,
    188,
    189,
    190,
    191,
    192,
    193,
    194,
    195,
    196,
    197,
    198,
    199,
    200,
    201,
    202,
    203,
    204,
    205,
    206,
    207,
    208,
    209,
    210,
    211,
    212,
    213,
    214,
    215,
    216,
    217,
    218,
    219,
    220,
    221,
    222,
    223,
    224,
    225,
    226,
    227,
    228,
    229,
    230,
    231,
    232,
    233,
    234,
    235,
    236,
    237,
    238,
    239,
    240,
    241,
    242,
    243,
    244,
    245,
    246,
    247,
    248,
    249,
    250,
    251,
    252,
    253,
    254,
    255,
    256
   ],
   "AcquisitionTime": [
    "114811.127500",
    "114813.127500",
    "114815.127500",
    "114817.127500",
    "114819.127500",
    "114821.127500",
    "114823.127500",
    "114825.127500",
    "114827.127500",
    "114829.127500",
    "114831.127500",
    "114833.127500",
    "114835.127500",
    "114837.127500",
    "114839.127500",
    "114841.127500",
    "114843.127500",
    "114845.127500",
    "114847.127500",
    "114849.127500",
    "114851.127500",
    "114853.127500",
    "114855.127500",
    "114857.127500",
    "114859.127500",
    "114901.127500",
    "114903.127500",
    "114905.127500",
    "114907.127500",
    "114909.127500",
    "114911.127500",
    "114913.127500",
    "114915.127500",
    "114917.127500",
    "114919.127500",
    "114921.127500",
    "114923.127500",
    "114925.127500",
    "114927.127500",
    "114929.127500",
    "114931.127500",
    "114933.127500",
    "114935.127500",
    "114937.127500",
    "114939.127500",
    "114941.127500",
    "114943.127500",
    "114945.127500",
    "114947.127500",
    "114949.127500",
    "114951.127500",
    "114953.127500",
    "114955.127500",
    "114957.127500",
    "114959.127500",
    "115001.127500",
    "115003.127500",
    "115005.127500",
    "115007.127500",
    "115009.127500",
    "115011.127500",
    "115013.127500",
    "115015.127500",
    "115017.127500",
    "115019.127500",
    "115021.127500",
    "115023.127500",
    "115025.127500",
    "115027.127500",
    "115029.127500",
    "115031.127500",
    "115033.127500",
    "115035.127500",
    "115037.127500",
    "115039.127500",
    "115041.127500",
    "115043.127500",
    "115045.127500",
    "115047.127500",
    "115049.127500",
    "115051.127500",
    "115053.127500",
    "115055.127500",
    "115057.127500",
    "115059.127500",
    "115101.127500",
    "115103.127500",
    "115105.127500",
    "115107.127500",
    "115109.127500",
    "115111.127500",
    "115113.127500",
    "115115.127500",
    "115117.127500",
    "115119.127500",
    "115121.127500",
    "115123.127500",
    "115125.127500",
    "115127.127500",
    "115129.127500",
    "115131.127500",
    "115133.127500",
    "115135.127500",
    "115137.127500",
    "115139.127500",
    "115141.127500",
    "115143.127500",
    "115145.127500",
    "115147.127500",
    "115149.127500",
    "115151.127500",
    "115153.127500",
    "115155.127500",
    "115157.127500",
    "115159.127500",
    "115201.127500",
    "115203.127500",
    "115205.127500",
    "115207.127500",
    "115209.127500",
    "115211.127500",
    "115213.127500",
    "115215.127500",
    "115217.127500",
    "115219.127500",
    "115221.127500",
    "115223.127500",
    "115225.127500",
    "115227.127500",
    "115229.127500",
    "115231.127500",
    "115233.127500",
    "115235.127500",
    "115237.127500",
    "115239.127500",
    "115241.127500",
    "115243.127500",
    "115245.127500",
    "115247.127500",
    "115249.127500",
    "115251.127500",
    "115253.127500",
    "115255.127500",
    "115257.127500",
    "115259.127500",
    "115301.127500",
    "115303.127500",
    "115305.127500",
    "115307.127500",
    "115309.127500",
    "115311.127500",
    "115313.127500",
    "115315.127500",
    "115317.127500",
    "115319.127500",
    "115321.127500",
    "115323.127500",
    "115325.127500",
    "115327.127500",
    "115329.127500",
    "115331.127500",
    "115333.127500",
    "115335.127500",
    "115337.127500",
    "115339.127500",
    "115341.127500",
    "115343.127500",
    "115345.127500",
    "115347.127500",
    "115349.127500",
    "115351.127500",
    "115353.127500",
    "115355.127500",
    "115357.127500",
    "115359.127500",
    "115401.127500",
    "115403.127500",
    "115405.127500",
    "115407.127500",
    "115409.127500",
    "115411.127500",
    "115413.127500",
    "115415.127500",
    "115417.127500",
    "115419.127500",
    "115421.127500",
    "115423.127500",
    "115425.127500",
    "115427.127500",
    "115429.127500",
    "115431.127500",
    "115433.127500",
    "115435.127500",
    "115437.127500",
    "115439.127500",
    "115441.127500",
    "115443.127500",
    "115445.127500",
    "115447.127500",
    "115449.127500",
    "115451.127500",
    "115453.127500",
    "115455.127500",
    "115457.127500",
    "115459.127500",
    "115501.127500",
    "115503.127500",
    "115505.127500",
    "115507.127500",
    "115509.127500",
    "115511.127500",
    "115513.127500",
    "115515.127500",
    "115517.127500",
    "115519.127500",
    "115521.127500",
    "115523.127500",
    "115525.127500",
    "115527.127500",
    "115529.127500",
    "115531.127500",
    "115533.127500",
    "115535.127500",
    "115537.127500",
    "115539.127500",
    "115541.127500",
    "115543.127500",
    "115545.127500",
    "115547.127500",
    "115549.127500",
    "115551.127500",
    "115553.127500",
    "115555.127500",
    "115557.127500",
    "115559.127500",
    "115601.127500",
    "115603.127500",
    "115605.127500",
    "115607.127500",
    "115609.127500",
    "115611.127500",
    "115613.127500",
    "115615.127500",
    "115617.127500",
    "115619.127500",
    "115621.127500",
    "115623.127500",
    "115625.127500",
    "115627.127500",
    "115629.127500",
    "115631.127500",
    "115633.127500",
    "115635.127500",
    "115637.127500",
    "115639.127500",
    "115641.127500"
   ],
   "ContentTime": [
    "114813.685000",
    "114815.180000",
    "114817.182000",
    "114819.182000",
    "114821.181000",
    "114823.182000",
    "114825.181000",
    "114827.182000",
    "114829.182000",
    "114831.180000",
    "114833.180000",
    "114835.182000",
    "114837.181000",
    "114839.181000",
    "114841.182000",
    "114843.182000",
    "114845.181000",
    "114847.181000",
    "114849.180000",
    "114851.181000",
    "114853.182000",
    "114855.181000",
    "114857.182000",
    "114859.181000",
    "114901.182000",
    "114903.182000",
    "114905.180000",
    "114907.181000",
    "114909.181000",
    "114911.182000",
    "114913.182000",
    "114915.182000",
    "114917.182000",
    "114919.182000",
    "114921.181000",
    "114923.181000",
    "114925.181000",
    "114927.181000",
    "114929.182000",
    "114931.181000",
    "114933.182000",
    "114935.182000",
    "114937.181000",
    "114939.182000",
    "114941.180000",
    "114943.181000",
    "114945.181000",
    "114947.182000",
    "114949.182000",
    "114951.182000",
    "114953.182000",
    "114955.181000",
    "114957.180000",
    "114959.180000",
    "115001.181000",
    "115003.181000",
    "115005.182000",
    "115007.182000",
    "115009.181000",
    "115011.182000",
    "115013.182000",
    "115015.180000",
    "115017.181000",
    "115019.181000",
    "115021.182000",
    "115023.181000",
    "115025.182000",
    "115027.181000",
    "115029.182000",
    "115031.181000",
    "115033.181000",
    "115035.180000",
    "115037.182000",
    "115039.182000",
    "115041.181000",
    "115043.182000",
    "115045.182000",
    "115047.181000",
    "115049.182000",
    "115051.181000",
    "115053.182000",
    "115055.181000",
    "115057.181000",
    "115059.181000",
    "115101.182000",
    "115103.182000",
    "115105.182000",
    "115107.181000",
    "115109.180000",
    "115111.182000",
    "115113.182000",
    "115115.181000",
    "115117.182000",
    "115119.181000",
    "115121.182000",
    "115123.182000",
    "115125.181000",
    "115127.181000",
    "115129.182000",
    "115131.182000",
    "115133.182000",
    "115135.181000",
    "115137.181000",
    "115139.182000",
    "115141.182000",
    "115143.180000",
    "115145.180000",
    "115147.182000",
    "115149.182000",
    "115151.182000",
    "115153.181000",
    "115155.182000",
    "115157.182000",
    "115159.181000",
    "115201.181000",
    "115203.182000",
    "115205.181000",
    "115207.182000",
    "115209.182000",
    "115211.182000",
    "115213.182000",
    "115215.195000",
    "115217.181000",
    "115219.180000",
    "115221.182000",
    "115223.181000",
    "115225.181000",
    "115227.181000",
    "115229.181000",
    "115231.181000",
    "115233.182000",
    "115235.181000",
    "115237.181000",
    "115239.181000",
    "115241.181000",
    "115243.182000",
    "115245.182000",
    "115247.182000",
    "115249.182000",
    "115251.181000",
    "115253.181000",
    "115255.181000",
    "115257.182000",
    "115259.181000",
    "115301.181000",
    "115303.181000",
    "115305.181000",
    "115307.182000",
    "115309.181000",
    "115311.180000",
    "115313.181000",
    "115315.181000",
    "115317.181000",
    "115319.182000",
    "115321.182000",
    "115323.182000",
    "115325.182000",
    "115327.180000",
    "115329.180000",
    "115331.182000",
    "115333.182000",
    "115335.182000",
    "115337.182000",
    "115339.182000",
    "115341.182000",
    "115343.182000",
    "115345.181000",
    "115347.181000",
    "115349.181000",
    "115351.182000",
    "115353.181000",
    "115355.182000",
    "115357.182000",
    "115359.182000",
    "115401.182000",
    "115403.180000",
    "115405.181000",
    "115407.182000",
    "115409.182000",
    "115411.181000",
    "115413.182000",
    "115415.182000",
    "115417.181000",
    "115419.182000",
    "115421.181000",
    "115423.181000",
    "115425.181000",
    "115427.182000",
    "115429.182000",
    "115431.182000",
    "115433.182000",
    "115435.181000",
    "115437.181000",
    "115439.181000",
    "115441.181000",
    "115443.181000",
    "115445.182000",
    "115447.181000",
    "115449.182000",
    "115451.182000",
    "115453.182000",
    "115455.181000",
    "115457.181000",
    "115459.182000",
    "115501.182000",
    "115503.181000",
    "115505.182000",
    "115507.182000",
    "115509.182000",
    "115511.182000",
    "115513.181000",
    "115515.180000",
    "115517.182000",
    "115519.181000",
    "115521.182000",
    "115523.181000",
    "115525.181000",
    "115527.182000",
    "115529.182000",
    "115531.181000",
    "115533.182000",
    "115535.182000",
    "115537.182000",
    "115539.182000",
    "115541.182000",
    "115543.181000",
    "115545.182000",
    "115547.181000",
    "115549.181000",
    "115551.181000",
    "115553.182000",
    "115555.181000",
    "115557.182000",
    "115559.182000",
    "115601.182000",
    "115603.182000",
    "115605.180000",
    "115607.180000",
    "115609.182000",
    "115611.182000",
    "115613.182000",
    "115615.182000",
    "115617.182000",
    "115619.181000",
    "115621.182000",
    "115623.181000",
    "115625.181000",
    "115627.182000",
    "115629.181000",
    "115631.182000",
    "115633.182000",
    "115635.181000",
    "115637.182000",
    "115639.181000",
    "115641.180000",
    "115642.890000"
   ],
   "InstanceCreationTime": [
    "114813.685000",
    "114815.180000",
    "114817.182000",
    "114819.182000",
    "114821.181000",
    "114823.182000",
    "114825.181000",
    "114827.182000",
    "114829.182000",
    "114831.180000",
    "114833.180000",
    "114835.182000",
    "114837.181000",
    "114839.181000",
    "114841.182000",
    "114843.182000",
    "114845.181000",
    "114847.181000",
    "114849.180000",
    "114851.181000",
    "114853.182000",
    "114855.181000",
    "114857.182000",
    "114859.181000",
    "114901.182000",
    "114903.182000",
    "114905.180000",
    "114907.181000",
    "114909.181000",
    "114911.182000",
    "114913.182000",
    "114915.182000",
    "114917.182000",
    "114919.182000",
    "114921.181000",
    "114923.181000",
    "114925.181000",
    "114927.181000",
    "114929.182000",
    "114931.181000",
    "114933.182000",
    "114935.182000",
    "114937.181000",
    "114939.182000",
    "114941.180000",
    "114943.181000",
    "114945.181000",
    "114947.182000",
    "114949.182000",
    "114951.182000",
    "114953.182000",
    "114955.181000",
    "114957.180000",
    "114959.180000",
    "115001.181000",
    "115003.181000",
    "115005.182000",
    "115007.182000",
    "115009.181000",
    "115011.182000",
    "115013.182000",
    "115015.180000",
    "115017.181000",
    "115019.181000",
    "115021.182000",
    "115023.181000",
    "115025.182000",
    "115027.181000",
    "115029.182000",
    "115031.181000",
    "115033.181000",
    "115035.180000",
    "115037.182000",
    "115039.182000",
    "115041.181000",
    "115043.182000",
    "115045.182000",
    "115047.181000",
    "115049.182000",
    "115051.181000",
    "115053.182000",
    "115055.181000",
    "115057.181000",
    "115059.181000",
    "115101.182000",
    "115103.182000",
    "115105.182000",
    "115107.181000",
    "115109.180000",
    "115111.182000",
    "115113.182000",
    "115115.181000",
    "115117.182000",
    "115119.181000",
    "115121.182000",
    "115123.182000",
    "115125.181000",
    "115127.181000",
    "115129.182000",
    "115131.182000",
    "115133.182000",
    "115135.181000",
    "115137.181000",
    "115139.182000",
    "115141.182000",
    "115143.180000",
    "115145.180000",
    "115147.182000",
    "115149.182000",
    "115151.182000",
    "115153.181000",
    "115155.182000",
    "115157.182000",
    "115159.181000",
    "115201.181000",
    "115203.182000",
    "115205.181000",
    "115207.182000",
    "115209.182000",
    "115211.182000",
    "115213.182000",
    "115215.195000",
    "115217.181000",
    "115219.180000",
    "115221.182000",
    "115223.181000",
    "115225.181000",
    "115227.181000",
    "115229.181000",
    "115231.181000",
    "115233.182000",
    "115235.181000",
    "115237.181000",
    "115239.181000",
    "115241.181000",
    "115243.182000",
    "115245.182000",
    "115247.182000",
    "115249.182000",
    "115251.181000",
    "115253.181000",
    "115255.181000",
    "115257.182000",
    "115259.181000",
    "115301.181000",
    "115303.181000",
    "115305.181000",
    "115307.182000",
    "115309.181000",
    "115311.180000",
    "115313.181000",
    "115315.181000",
    "115317.181000",
    "115319.182000",
    "115321.182000",
    "115323.182000",
    "115325.182000",
    "115327.180000",
    "115329.180000",
    "115331.182000",
    "115333.182000",
    "115335.182000",
    "115337.182000",
    "115339.182000",
    "115341.182000",
    "115343.182000",
    "115345.181000",
    "115347.181000",
    "115349.181000",
    "115351.182000",
    "115353.181000",
    "115355.182000",
    "115357.182000",
    "115359.182000",
    "115401.182000",
    "115403.180000",
    "115405.181000",
    "115407.182000",
    "115409.182000",
    "115411.181000",
    "115413.182000",
    "115415.182000",
    "115417.181000",
    "115419.182000",
    "115421.181000",
    "115423.181000",
    "115425.181000",
    "115427.182000",
    "115429.182000",
    "115431.182000",
    "115433.182000",
    "115435.181000",
    "115437.181000",
    "115439.181000",
    "115441.181000",
    "115443.181000",
    "115445.182000",
    "115447.181000",
    "115449.182000",
    "115451.182000",
    "115453.182000",
    "115455.181000",
    "115457.181000",
    "115459.182000",
    "115501.182000",
    "115503.181000",
    "115505.182000",
    "115507.182000",
    "115509.182000",
    "115511.182000",
    "115513.181000",
    "115515.180000",
    "115517.182000",
    "115519.181000",
    "115521.182000",
    "115523.181000",
    "115525.181000",
    "115527.182000",
    "115529.182000",
    "115531.181000",
    "115533.182000",
    "115535.182000",
    "115537.182000",
    "115539.182000",
    "115541.182000",
    "115543.181000",
    "115545.182000",
    "115547.181000",
    "115549.181000",
    "115551.181000",
    "115553.182000",
    "115555.181000",
    "115557.182000",
    "115559.182000",
    "115601.182000",
    "115603.182000",
    "115605.180000",
    "115607.180000",
    "115609.182000",
    "115611.182000",
    "115613.182000",
    "115615.182000",
    "115617.182000",
    "115619.181000",
    "115621.182000",
    "115623.181000",
    "115625.181000",
    "115627.182000",
    "115629.181000",
    "115631.182000",
    "115633.182000",
    "115635.181000",
    "115637.182000",
    "115639.181000",
    "115641.180000",
    "115642.890000"
   ],
   "InstanceNumber": [
    1,
    2,
    3,
    4,
    5,
    6,
    7,
    8,
    9,
    10,
    11,
    12,
    13,
    14,
    15,
    16,
    17,
    18,
    19,
    20,
    21,
    22,
    23,
    24,
    25,
    26,
    27,
    28,
    29,
    30,
    31,
    32,
    33,
    34,
    35,
    36,
    37,
    38,
    39,
    40,
    41,
    42,
    43,
    44,
    45,
    46,
    47,
    48,
    49,
    50,
    51,
    52,
    53,
    54,
    55,
    56,
    57,
    58,
    59,
    60,
    61,
    62,
    63,
    64,
    65,
    66,
    67,
    68,
    69,
    70,
    71,
    72,
    73,
    74,
    75,
    76,
    77,
    78,
    79,
    80,
    81,
    82,
    83,
    84,
    85,
    86,
    87,
    88,
    89,
    90,
    91,
    92,
    93,
    94,
    95,
    96,
    97,
    98,
    99,
    100,
    101,
    102,
    103,
    104,
    105,
    106,
    107,
    108,
    109,
    110,
    111,
    112,
    113,
    114,
    115,
    116,
    117,
    118,
    119,
    120,
    121,
    122,
    123,
    124,
    125,
    126,
    127,
    128,
    129,
    130,
    131,
    132,
    133,
    134,
    135,
    136,
    137,
    138,
    139,
    140,
    141,
    142,
    143,
    144,
    145,
    146,
    147,
    148,
    149,
    150,
    151,
    152,
    153,
    154,
    155,
    156,
    157,
    158,
    159,
    160,
    161,
    162,
    163,
    164,
    165,
    166,
    167,
    168,
    169,
    170,
    171,
    172,
    173,
    174,
    175,
    176,
    177,
    178,
    179,
    180,
    181,
    182,
    183,
    184,
    185,
    186,
    187,
    188,
    189,
    190,
    191,
    192,
    193,
    194,
    195,
    196,
    197,
    198,
    199,
    200,
    201,
    202,
    203,
    204,
    205,
    206,
    207,
    208,
    209,
    210,
    211,
    212,
    213,
    214,
    215,
    216,
    217,
    218,
    219,
    220,
    221,
    222,
    223,
    224,
    225,
    226,
    227,
    228,
    229,
    230,
    231,
    232,
    233,
    234,
    235,
    236,
    237,
    238,
    239,
    240,
    241,
    242,
    243,
    244,
    245,
    246,
    247,
    248,
    249,
    250,
    251,
    252,
    253,
    254,
    255,
    256
   ],
   "LargestImagePixelValue": [
    3464,
    3398,
    3316,
    3306,
    3417,
    3429,
    3286,
    3399,
    3418,
    3405,
    3435,
    3466,
    3487,
    3373,
    3472,
    3432,
    3421,
    3423,
    3425,
    3398,
    3348,
    3351,
    3382,
    3465,
    3465,
    3433,
    3424,
    3408,
    3422,
    3404,
    3377,
    3443,
    3498,
    3465,
    3467,
    3426,
    3383,
    3457,
    3403,
    3403,
    3402,
    3403,
    3397,
    3354,
    3389,
    3398,
    3383,
    3361,
    3316,
    3323,
    3253,
    3273,
    3310,
    3362,
    3404,
    3429,
    3444,
    3496,
    3450,
    3401,
    3349,
    3408,
    3406,
    3416,
    3409,
    3373,
    3366,
    3415,
    3449,
    3408,
    3381,
    3410,
    3400,
    3491,
    3476,
    3440,
    3427,
    3388,
    3386,
    3401,
    3423,
    3493,
    3465,
    3423,
    3369,
    3374,
    3337,
    3374,
    3348,
    3356,
    3335,
    3380,
    3393,
    3419,
    3397,
    3401,
    3361,
    3337,
    3340,
    3346,
    3409,
    3410,
    3381,
    3325,
    3353,
    3413,
    3438,
    3426,
    3452,
    3395,
    3407,
    3419,
    3413,
    3347,
    3416,
    3434,
    3418,
    3336,
    3354,
    3384,
    3397,
    3397,
    3372,
    3398,
    3414,
    3381,
    3408,
    3429,
    3440,
    3410,
    3339,
    3347,
    3352,
    3330,
    3368,
    3386,
    3439,
    3429,
    3467,
    3475,
    3500,
    3406,
    3377,
    3405,
    3345,
    3314,
    3313,
    3326,
    3372,
    3398,
    3391,
    3370,
    3405,
    3393,
    3387,
    3373,
    3360,
    3338,
    3321,
    3322,
    3327,
    3342,
    3358,
    3397,
    3430,
    3415,
    3397,
    3357,
    3342,
    3339,
    3310,
    3298,
    3320,
    3310,
    3304,
    3340,
    3331,
    3344,
    3351,
    3334,
    3359,
    3363,
    3358,
    3311,
    3329,
    3330,
    3305,
    3313,
    3327,
    3322,
    3377,
    3366,
    3361,
    3357,
    3378,
    3328,
    3337,
    3313,
    3341,
    3340,
    3304,
    3313,
    3359,
    3346,
    3332,
    3399,
    3420,
    3424,
    3379,
    3414,
    3394,
    3357,
    3358,
    3337,
    3357,
    3356,
    3353,
    3336,
    3317,
    3311,
    3342,
    3321,
    3312,
    3317,
    3423,
    3379,
    3360,
    3332,
    3328,
    3316,
    3299,
    3346,
    3344,
    3298,
    3293,
    3313,
    3315,
    3316,
    3328,
    3285,
    3283,
    3322,
    3277,
    3289,
    3291,
    3277,
    3324,
    3297,
    3334,
    3340,
    3363,
    3333,
    3321,
    3334,
    3298,
    3304
   ],
   "WindowCenter": [
    843.0,
    840.0,
    839.0,
    839.0,
    839.0,
    839.0,
    838.0,
    839.0,
    841.0,
    841.0,
    842.0,
    842.0,
    842.0,
    841.0,
    841.0,
    841.0,
    841.0,
    841.0,
    840.0,
    839.0,
    839.0,
    839.0,
    840.0,
    841.0,
    842.0,
    841.0,
    839.0,
    839.0,
    839.0,
    839.0,
    838.0,
    838.0,
    838.0,
    840.0,
    841.0,
    840.0,
    839.0,
    839.0,
    838.0,
    838.0,
    839.0,
    840.0,
    840.0,
    838.0,
    837.0,
    837.0,
    837.0,
    837.0,
    837.0,
    837.0,
    837.0,
    838.0,
    839.0,
    839.0,
    839.0,
    839.0,
    840.0,
    840.0,
    840.0,
    840.0,
    841.0,
    841.0,
    840.0,
    840.0,
    839.0,
    840.0,
    841.0,
    842.0,
    840.0,
    839.0,
    838.0,
    839.0,
    840.0,
    841.0,
    841.0,
    840.0,
    840.0,
    839.0,
    839.0,
    839.0,
    839.0,
    841.0,
    842.0,
    842.0,
    841.0,
    840.0,
    839.0,
    839.0,
    839.0,
    839.0,
    839.0,
    840.0,
    840.0,
    840.0,
    840.0,
    840.0,
    840.0,
    840.0,
    839.0,
    839.0,
    839.0,
    839.0,
    839.0,
    839.0,
    839.0,
    839.0,
    839.0,
    839.0,
    840.0,
    839.0,
    840.0,
    840.0,
    838.0,
    838.0,
    839.0,
    840.0,
    840.0,
    839.0,
    839.0,
    840.0,
    841.0,
    841.0,
    839.0,
    838.0,
    838.0,
    839.0,
    840.0,
