{
  "AcquisitionMatrixPE": 100,
  "AcquisitionNumber": 1,
  "AcquisitionTime": "11:20:15.120000",
  "BandwidthPerPixelPhaseEncode": 18.519,
  "BaseResolution": 100,
  "BodyPartExamined": "BRAIN",
  "ConsistencyInfo": "N4_VE11C_LATEST_20160120",
  "ConversionSoftware": "dcm2niix",
  "ConversionSoftwareVersion": "v1.0.20180622 GCC4.9.2",
  "DerivedVendorReportedEchoSpacing": 0.000539986,
  "DeviceSerialNumber": "166078",
  "DwellTime": 2.1e-06,
  "EchoTime": 0.034,
  "EchoTrainLength": 100,
  "EffectiveEchoSpacing": 0.000539986,
  "FlipAngle": 90,
  "ImageOrientationPatientDICOM": [1, 0, 0, 0, 0.996637, -0.0819385],
  "ImageType": [
    "ORIGINAL",
    "PRIMARY",
    "M",
    "ND",
    "MOSAIC"
],
  "InPlanePhaseEncodingDirectionDICOM": "COL",
  "InstitutionAddress": "Street_StreetNo_Bei_Jing_District_CN_ZIP",
  "InstitutionName": "BeiJing_Normal_University",
  "InstitutionalDepartmentName": "Department",
  "MRAcquisitionType": "2D",
  "MagneticFieldStrength": 3,
  "Manufacturer": "Siemens",
  "ManufacturersModelName": "Prisma",
  "Modality": "MR",
  "MultibandAccelerationFactor": 3,
  "PartialFourier": 1,
  "PatientPosition": "HFS",
  "PercentPhaseFOV": 100,
  "PhaseEncodingDirection": "j-",
  "PhaseEncodingSteps": 100,
  "PhaseResolution": 1,
  "PixelBandwidth": 2380,
  "ProcedureStepDescription": "BNU_P2018_64CH_Zhen.ZongLei",
  "ProtocolName": "bold_100x100_s3_2x2x2_retino_150",
  "PulseSequenceDetails": "%SiemensSeq%_ep2d_bold",
  "ReceiveCoilActiveElements": "HC1-7;NC1",
  "ReceiveCoilName": "HeadNeck_64",
  "ReconMatrixPE": 100,
  "RepetitionTime": 2,
  "SAR": 0.0713399,
  "ScanOptions": "FS",
  "ScanningSequence": "EP",
  "SequenceName": "_epfid2d1_100",
  "SequenceVariant": "SK",
  "SeriesDescription": "bold_100x100_s3_2x2x2_retino_150",
  "SeriesNumber": 7,
  "ShimSetting": [-5464, -11491, -1271, 207, -67, -268, -229, 29],
  "SliceThickness": 2,
  "SliceTiming": [1.485, 0, 0.99, 0.0825, 1.0725, 0.165, 1.155, 0.2475, 1.2375, 0.33, 1.32, 0.4125, 1.4025, 0.5775, 1.5675, 0.66, 1.65, 0.7425, 1.7325, 0.825, 1.815, 0.9075, 1.8975, 0.495, 1.485, 0, 0.99, 0.0825, 1.0725, 0.165, 1.155, 0.2475, 1.2375, 0.33, 1.32, 0.4125, 1.4025, 0.5775, 1.5675, 0.66, 1.65, 0.7425, 1.7325, 0.825, 1.815, 0.9075, 1.8975, 0.495, 1.485, 0, 0.99, 0.0825, 1.0725, 0.165, 1.155, 0.2475, 1.2375, 0.33, 1.32, 0.4125, 1.4025, 0.5775, 1.5675, 0.66, 1.65, 0.7425, 1.7325, 0.825, 1.815, 0.9075, 1.8975, 0.495],
  "SoftwareVersions": "syngo_MR_E11",
  "SpacingBetweenSlices": 2,
  "StationName": "AWP166078",
  "TaskName": "retinotopy",
  "TotalReadoutTime": 0.0534586,
  "TxRefAmp": 220.93,
  "dcmmeta_affine": [
    [-2.0, 0.0, 0.0, 100.67469787597656],
    [0.0, 1.9932748079299927, -0.16387702524662018, -88.54198455810547],
    [0.0, 0.16387702524662018, 1.9932748079299927, -80.93099212646484],
    [0.0, 0.0, 0.0, 1.0]
],
  "dcmmeta_reorient_transform": [
    [0.0, -1.0, 0.0, 99.0],
    [1.0, 0.0, 0.0, 0.0],
    [0.0, 0.0, 1.0, 0.0],
    [0.0, 0.0, 0.0, 1.0]
],
  "dcmmeta_shape": [100, 100, 72, 150],
  "dcmmeta_slice_dim": 2,
  "dcmmeta_version": 0.6,
  "global": {
    "const": {
      "AcquisitionMatrix": [100, 0, 0, 100],
      "AngioFlag": "N",
      "BitsAllocated": 16,
      "BitsStored": 12,
      "BodyPartExamined": "BRAIN",
      "Columns": 900,
      "EchoNumbers": 1,
      "EchoTime": 34.0,
      "EchoTrainLength": 100,
      "FlipAngle": 90.0,
      "HighBit": 11,
      "ImageOrientationPatient": [1.0, 0.0, 0.0, 0.0, 0.99663738671133, -0.0819385099279],
      "ImagePositionPatient": [-900.67469877005, -906.10212513675, 0.84364269976744],
      "ImageType": [
        "ORIGINAL",
        "PRIMARY",
        "M",
        "ND",
        "MOSAIC"
],
      "ImagedNucleus": "1H",
      "ImagingFrequency": 123.257775,
      "InPlanePhaseEncodingDirection": "COL",
      "MRAcquisitionType": "2D",
      "MagneticFieldStrength": 3.0,
      "Manufacturer": "SIEMENS",
      "ManufacturerModelName": "Prisma",
      "Modality": "MR",
      "NumberOfAverages": 1.0,
      "NumberOfPhaseEncodingSteps": 100,
      "PercentPhaseFieldOfView": 100.0,
      "PercentSampling": 100.0,
      "PerformedProcedureStepStartTime": "105032.488000",
      "PhotometricInterpretation": "MONOCHROME2",
      "PixelBandwidth": 2380.0,
      "PixelRepresentation": 0,
      "PixelSpacing": [2.0, 2.0],
      "ProtocolName": "bold_100x100_s3_2x2x2_retino_150",
      "RepetitionTime": 2000.0,
      "Rows": 900,
      "SAR": 0.07133989196053,
      "SamplesPerPixel": 1,
      "ScanOptions": "FS",
      "ScanningSequence": "EP",
      "SequenceName": "*epfid2d1_100",
      "SequenceVariant": "SK",
      "SeriesDescription": "bold_100x100_s3_2x2x2_retino_150",
      "SeriesNumber": 7,
      "SeriesTime": "112017.990000",
      "SliceLocation": -73.403852120604,
      "SliceThickness": 2.0,
      "SmallestImagePixelValue": 0,
      "SoftwareVersions": "syngo MR E11",
      "SpacingBetweenSlices": 2.000000075446,
      "SpecificCharacterSet": "ISO_IR 100",
      "StudyID": "1",
      "StudyTime": "105032.385000",
      "TransmitCoilName": "Body",
      "VariableFlipAngleFlag": "N",
      "WindowCenterWidthExplanation": "Algo1",
      "dBdt": 0.0},
    "slices": {}
  },
  "time": {
    "samples": {
      "AcquisitionNumber": [1, 2, 3, 4, 5, 6, 7, 8, 9, 10, 11, 12, 13, 14, 15, 16, 17, 18, 19, 20, 21, 22, 23, 24, 25, 26, 27, 28, 29, 30, 31, 32, 33, 34, 35, 36, 37, 38, 39, 40, 41, 42, 43, 44, 45, 46, 47, 48, 49, 50, 51, 52, 53, 54, 55, 56, 57, 58, 59, 60, 61, 62, 63, 64, 65, 66, 67, 68, 69, 70, 71, 72, 73, 74, 75, 76, 77, 78, 79, 80, 81, 82, 83, 84, 85, 86, 87, 88, 89, 90, 91, 92, 93, 94, 95, 96, 97, 98, 99, 100, 101, 102, 103, 104, 105, 106, 107, 108, 109, 110, 111, 112, 113, 114, 115, 116, 117, 118, 119, 120, 121, 122, 123, 124, 125, 126, 127, 128, 129, 130, 131, 132, 133, 134, 135, 136, 137, 138, 139, 140, 141, 142, 143, 144, 145, 146, 147, 148, 149, 150],
      "AcquisitionTime": ["112015.120000", "112017.120000", "112019.120000", "112021.120000", "112023.120000", "112025.120000", "112027.120000", "112029.120000", "112031.120000", "112033.120000", "112035.120000", "112037.120000", "112039.120000", "112041.120000", "112043.120000", "112045.120000", "112047.120000", "112049.120000", "112051.120000", "112053.120000", "112055.120000", "112057.120000", "112059.120000", "112101.120000", "112103.120000", "112105.120000", "112107.120000", "112109.120000", "112111.120000", "112113.120000", "112115.120000", "112117.120000", "112119.120000", "112121.120000", "112123.120000", "112125.120000", "112127.120000", "112129.120000", "112131.120000", "112133.120000", "112135.120000", "112137.120000", "112139.120000", "112141.120000", "112143.120000", "112145.120000", "112147.120000", "112149.120000", "112151.120000", "112153.120000", "112155.120000", "112157.120000", "112159.120000", "112201.120000", "112203.120000", "112205.120000", "112207.120000", "112209.120000", "112211.120000", "112213.120000", "112215.120000", "112217.120000", "112219.120000", "112221.120000", "112223.120000", "112225.120000", "112227.120000", "112229.120000", "112231.120000", "112233.120000", "112235.120000", "112237.120000", "112239.120000", "112241.120000", "112243.120000", "112245.120000", "112247.120000", "112249.120000", "112251.120000", "112253.120000", "112255.120000", "112257.120000", "112259.120000", "112301.120000", "112303.120000", "112305.120000", "112307.120000", "112309.120000", "112311.120000", "112313.120000", "112315.120000", "112317.120000", "112319.120000", "112321.120000", "112323.120000", "112325.120000", "112327.120000", "112329.120000", "112331.120000", "112333.120000", "112335.120000", "112337.120000", "112339.120000", "112341.120000", "112343.120000", "112345.120000", "112347.120000", "112349.120000", "112351.120000", "112353.120000", "112355.120000", "112357.120000", "112359.120000", "112401.120000", "112403.120000", "112405.120000", "112407.120000", "112409.120000", "112411.120000", "112413.120000", "112415.120000", "112417.120000", "112419.120000", "112421.120000", "112423.120000", "112425.120000", "112427.120000", "112429.120000", "112431.120000", "112433.120000", "112435.120000", "112437.120000", "112439.120000", "112441.120000", "112443.120000", "112445.120000", "112447.120000", "112449.120000", "112451.120000", "112453.120000", "112455.120000", "112457.120000", "112459.120000", "112501.120000", "112503.120000", "112505.120000", "112507.120000", "112509.120000", "112511.120000", "112513.120000"],
      "ContentTime": ["112017.993000", "112019.489000", "112021.488000", "112023.488000", "112025.489000", "112027.489000", "112029.489000", "112031.490000", "112033.489000", "112035.488000", "112037.489000", "112039.489000", "112041.489000", "112043.488000", "112045.489000", "112047.490000", "112049.490000", "112051.488000", "112053.489000", "112055.489000", "112057.489000", "112059.489000", "112101.488000", "112103.489000", "112105.490000", "112107.489000", "112109.488000", "112111.489000", "112113.489000", "112115.489000", "112117.489000", "112119.489000", "112121.488000", "112123.489000", "112125.490000", "112127.489000", "112129.489000", "112131.489000", "112133.488000", "112135.488000", "112137.489000", "112139.488000", "112141.489000", "112143.489000", "112145.489000", "112147.488000", "112149.489000", "112151.489000", "112153.488000", "112155.488000", "112157.489000", "112159.490000", "112201.489000", "112203.489000", "112205.489000", "112207.489000", "112209.488000", "112211.489000", "112213.509000", "112215.490000", "112217.490000", "112219.488000", "112221.489000", "112223.489000", "112225.489000", "112227.489000", "112229.489000", "112231.488000", "112233.490000", "112235.489000", "112237.488000", "112239.489000", "112241.489000", "112243.488000", "112245.489000", "112247.488000", "112249.488000", "112251.489000", "112253.488000", "112255.488000", "112257.488000", "112259.489000", "112301.489000", "112303.489000", "112305.489000", "112307.489000", "112309.490000", "112311.489000", "112313.488000", "112315.488000", "112317.489000", "112319.489000", "112321.489000", "112323.489000", "112325.489000", "112327.490000", "112329.489000", "112331.488000", "112333.489000", "112335.489000", "112337.489000", "112339.489000", "112341.488000", "112343.490000", "112345.490000", "112347.489000", "112349.488000", "112351.488000", "112353.488000", "112355.489000", "112357.489000", "112359.488000", "112401.490000", "112403.489000", "112405.488000", "112407.489000", "112409.489000", "112411.488000", "112413.489000", "112415.488000", "112417.490000", "112419.489000", "112421.489000", "112423.488000", "112425.489000", "112427.488000", "112429.489000", "112431.488000", "112433.488000", "112435.490000", "112437.490000", "112439.489000", "112441.489000", "112443.489000", "112445.489000", "112447.489000", "112449.489000", "112451.489000", "112453.490000", "112455.489000", "112457.489000", "112459.489000", "112501.489000", "112503.489000", "112505.488000", "112507.489000", "112509.490000", "112511.490000", "112513.488000", "112515.144000"],
      "InstanceCreationTime": ["112017.993000", "112019.489000", "112021.488000", "112023.488000", "112025.489000", "112027.489000", "112029.489000", "112031.490000", "112033.489000", "112035.488000", "112037.489000", "112039.489000", "112041.489000", "112043.488000", "112045.489000", "112047.490000", "112049.490000", "112051.488000", "112053.489000", "112055.489000", "112057.489000", "112059.489000", "112101.488000", "112103.489000", "112105.490000", "112107.489000", "112109.488000", "112111.489000", "112113.489000", "112115.489000", "112117.489000", "112119.489000", "112121.488000", "112123.489000", "112125.490000", "112127.489000", "112129.489000", "112131.489000", "112133.488000", "112135.488000", "112137.489000", "112139.488000", "112141.489000", "112143.489000", "112145.489000", "112147.488000", "112149.489000", "112151.489000", "112153.488000", "112155.488000", "112157.489000", "112159.490000", "112201.489000", "112203.489000", "112205.489000", "112207.489000", "112209.488000", "112211.489000", "112213.509000", "112215.490000", "112217.490000", "112219.488000", "112221.489000", "112223.489000", "112225.489000", "112227.489000", "112229.489000", "112231.488000", "112233.490000", "112235.489000", "112237.488000", "112239.489000", "112241.489000", "112243.488000", "112245.489000", "112247.488000", "112249.488000", "112251.489000", "112253.488000", "112255.488000", "112257.488000", "112259.489000", "112301.489000", "112303.489000", "112305.489000", "112307.489000", "112309.490000", "112311.489000", "112313.488000", "112315.488000", "112317.489000", "112319.489000", "112321.489000", "112323.489000", "112325.489000", "112327.490000", "112329.489000", "112331.488000", "112333.489000", "112335.489000", "112337.489000", "112339.489000", "112341.488000", "112343.490000", "112345.490000", "112347.489000", "112349.488000", "112351.488000", "112353.488000", "112355.489000", "112357.489000", "112359.488000", "112401.490000", "112403.489000", "112405.488000", "112407.489000", "112409.489000", "112411.488000", "112413.489000", "112415.488000", "112417.490000", "112419.489000", "112421.489000", "112423.488000", "112425.489000", "112427.488000", "112429.489000", "112431.488000", "112433.488000", "112435.490000", "112437.490000", "112439.489000", "112441.489000", "112443.489000", "112445.489000", "112447.489000", "112449.489000", "112451.489000", "112453.490000", "112455.489000", "112457.489000", "112459.489000", "112501.489000", "112503.489000", "112505.488000", "112507.489000", "112509.490000", "112511.490000", "112513.488000", "112515.144000"],
      "InstanceNumber": [1, 2, 3, 4, 5, 6, 7, 8, 9, 10, 11, 12, 13, 14, 15, 16, 17, 18, 19, 20, 21, 22, 23, 24, 25, 26, 27, 28, 29, 30, 31, 32, 33, 34, 35, 36, 37, 38, 39, 40, 41, 42, 43, 44, 45, 46, 47, 48, 49, 50, 51, 52, 53, 54, 55, 56, 57, 58, 59, 60, 61, 62, 63, 64, 65, 66, 67, 68, 69, 70, 71, 72, 73, 74, 75, 76, 77, 78, 79, 80, 81, 82, 83, 84, 85, 86, 87, 88, 89, 90, 91, 92, 93, 94, 95, 96, 97, 98, 99, 100, 101, 102, 103, 104, 105, 106, 107, 108, 109, 110, 111, 112, 113, 114, 115, 116, 117, 118, 119, 120, 121, 122, 123, 124, 125, 126, 127, 128, 129, 130, 131, 132, 133, 134, 135, 136, 137, 138, 139, 140, 141, 142, 143, 144, 145, 146, 147, 148, 149, 150],
      "LargestImagePixelValue": [4095, 4095, 4077, 4093, 4081, 4092, 4075, 4068, 4089, 4095, 4076, 4075, 4084, 4082, 4074, 4092, 4095, 4086, 4073, 4080, 4085, 4080, 4080, 4094, 4090, 4095, 4078, 4095, 4066, 4091, 4095, 4082, 4050, 4084, 4095, 4078, 4084, 4081, 4095, 4077, 4056, 4085, 4078, 4074, 4095, 4074, 4095, 4095, 4082, 4085, 4071, 4071, 4046, 4071, 4047, 4090, 4069, 4095, 4081, 4088, 4068, 4095, 4074, 4095, 4036, 4095, 4072, 4065, 4095, 4074, 4092, 4068, 4079, 4065, 4087, 4091, 4095, 4063, 4095, 4095, 4095, 4095, 4095, 4095, 4087, 4095, 4095, 4095, 4095, 4091, 4095, 4095, 4095, 4071, 4095, 4095, 4084, 4087, 4095, 4095, 4085, 4091, 4088, 4095, 4075, 4095, 4078, 4095, 4095, 4095, 4095, 4066, 4092, 4095, 4095, 4093, 4095, 4081, 4095, 4090, 4069, 4083, 4086, 4095, 4095, 4095, 4095, 4090, 4064, 4069, 4095, 4075, 4071, 4089, 4044, 4093, 4095, 4069, 4076, 4075, 4095, 4091, 4095, 4058, 4090, 4081, 4084, 4076, 4095, 4064],
      "WindowCenter": [838.0, 837.0, 836.0, 836.0, 837.0, 837.0, 836.0, 834.0, 834.0, 834.0, 835.0, 835.0, 835.0, 834.0, 834.0, 834.0, 835.0, 835.0, 834.0, 834.0, 833.0, 833.0, 833.0, 833.0, 833.0, 833.0, 833.0, 833.0, 832.0, 832.0, 833.0, 833.0, 833.0, 834.0, 835.0, 835.0, 833.0, 831.0, 832.0, 831.0, 831.0, 831.0, 833.0, 833.0, 834.0, 834.0, 834.0, 834.0, 834.0, 836.0, 836.0, 837.0, 835.0, 834.0, 833.0, 834.0, 834.0, 835.0, 835.0, 835.0, 835.0, 835.0, 835.0, 835.0, 834.0, 834.0, 834.0, 834.0, 835.0, 835.0, 835.0, 834.0, 834.0, 834.0, 834.0, 835.0, 835.0, 834.0, 836.0, 836.0, 836.0, 835.0, 834.0, 834.0, 833.0, 834.0, 835.0, 836.0, 837.0, 836.0, 836.0, 835.0, 834.0, 833.0, 834.0, 834.0, 834.0, 835.0, 835.0, 835.0, 834.0, 834.0, 834.0, 834.0, 834.0, 835.0, 835.0, 836.0, 836.0, 835.0, 834.0, 833.0, 833.0, 832.0, 833.0, 831.0, 831.0, 831.0, 832.0, 833.0, 833.0, 833.0, 832.0, 832.0, 832.0, 833.0, 834.0, 835.0, 836.0, 835.0, 836.0, 835.0, 834.0, 834.0, 834.0, 834.0, 835.0, 834.0, 835.0, 834.0, 834.0, 833.0, 832.0, 832.0, 833.0, 833.0, 834.0, 833.0, 833.0, 833.0],
      "WindowWidth": [1839.0, 1837.0, 1833.0, 1833.0, 1835.0, 1835.0, 1832.0, 1827.0, 1827.0, 1827.0, 1830.0, 1829.0, 1830.0, 1827.0, 1827.0, 1828.0, 1830.0, 1829.0, 1828.0, 1827.0, 1825.0, 1825.0, 1825.0, 1825.0, 1824.0, 1825.0, 1824.0, 1825.0, 1822.0, 1824.0, 1824.0, 1825.0, 1824.0, 1827.0, 1831.0, 1830.0, 1824.0, 1820.0, 1821.0, 1819.0, 1819.0, 1821.0, 1824.0, 1825.0, 1828.0, 1827.0, 1827.0, 1827.0, 1828.0, 1832.0, 1834.0, 1836.0, 1829.0, 1827.0, 1825.0, 1826.0, 1828.0, 1831.0, 1831.0, 1832.0, 1830.0, 1832.0, 1830.0, 1831.0, 1828.0, 1829.0, 1828.0, 1828.0, 1831.0, 1830.0, 1832.0, 1828.0, 1829.0, 1827.0, 1828.0, 1829.0, 1830.0, 1828.0, 1832.0, 1832.0, 1833.0, 1830.0, 1826.0, 1826.0, 1824.0, 1827.0, 1830.0, 1833.0, 1835.0, 1834.0, 1831.0, 1829.0, 1828.0, 1825.0, 1826.0, 1826.0, 1828.0, 1829.0, 1829.0, 1830.0, 1828.0, 1828.0, 1827.0, 1828.0, 1827.0, 1830.0, 1830.0, 1834.0, 1832.0, 1830.0, 1826.0, 1824.0, 1825.0, 1822.0, 1824.0, 1820.0, 1819.0, 1819.0, 1821.0, 1825.0, 1824.0, 1825.0, 1822.0, 1822.0, 1823.0, 1825.0, 1828.0, 1831.0, 1831.0, 1831.0, 1832.0, 1829.0, 1828.0, 1826.0, 1827.0, 1827.0, 1830.0, 1829.0, 1830.0, 1828.0, 1827.0, 1824.0, 1822.0, 1822.0, 1825.0, 1824.0, 1826.0, 1825.0, 1825.0, 1825.0]
    },
    "slices": {}
  }
}