{
  "AcquisitionMatrixPE": 100,
  "AcquisitionNumber": 1,
  "AcquisitionTime": "11:59:37.237500",
  "BandwidthPerPixelPhaseEncode": 18.519,
  "BaseResolution": 100,
  "BodyPartExamined": "BRAIN",
  "ConsistencyInfo": "N4_VE11C_LATEST_20160120",
  "ConversionSoftware": "dcm2niix",
  "ConversionSoftwareVersion": "v1.0.20180622 GCC4.9.2",
  "DerivedVendorReportedEchoSpacing": 0.000539986,
  "DeviceSerialNumber": "166078",
  "DwellTime": 2.1e-06,
  "EchoTime": 0.034,
  "EchoTrainLength": 100,
  "EffectiveEchoSpacing": 0.000539986,
  "FlipAngle": 90,
  "ImageOrientationPatientDICOM": [1, 0, 0, 0, 0.996637, -0.0819385],
  "ImageType": [
    "ORIGINAL",
    "PRIMARY",
    "M",
    "ND",
    "MOSAIC"
],
  "InPlanePhaseEncodingDirectionDICOM": "COL",
  "InstitutionAddress": "Street_StreetNo_Bei_Jing_District_CN_ZIP",
  "InstitutionName": "BeiJing_Normal_University",
  "InstitutionalDepartmentName": "Department",
  "MRAcquisitionType": "2D",
  "MagneticFieldStrength": 3,
  "Manufacturer": "Siemens",
  "ManufacturersModelName": "Prisma",
  "Modality": "MR",
  "MultibandAccelerationFactor": 3,
  "PartialFourier": 1,
  "PatientPosition": "HFS",
  "PercentPhaseFOV": 100,
  "PhaseEncodingDirection": "j-",
  "PhaseEncodingSteps": 100,
  "PhaseResolution": 1,
  "PixelBandwidth": 2380,
  "ProcedureStepDescription": "BNU_P2018_64CH_Zhen.ZongLei",
  "ProtocolName": "bold_100x100_s3_2x2x2_retino_150",
  "PulseSequenceDetails": "%SiemensSeq%_ep2d_bold",
  "ReceiveCoilActiveElements": "HC1-7;NC1",
  "ReceiveCoilName": "HeadNeck_64",
  "ReconMatrixPE": 100,
  "RepetitionTime": 2,
  "SAR": 0.0713399,
  "ScanOptions": "FS",
  "ScanningSequence": "EP",
  "SequenceName": "_epfid2d1_100",
  "SequenceVariant": "SK",
  "SeriesDescription": "bold_100x100_s3_2x2x2_retino_150",
  "SeriesNumber": 15,
  "ShimSetting": [-5464, -11491, -1271, 207, -67, -268, -229, 29],
  "SliceThickness": 2,
  "SliceTiming": [1.485, 0, 0.99, 0.0825, 1.0725, 0.165, 1.155, 0.2475, 1.2375, 0.33, 1.32, 0.4125, 1.4025, 0.5775, 1.5675, 0.66, 1.65, 0.7425, 1.7325, 0.825, 1.815, 0.9075, 1.8975, 0.495, 1.485, 0, 0.99, 0.0825, 1.0725, 0.165, 1.155, 0.2475, 1.2375, 0.33, 1.32, 0.4125, 1.4025, 0.5775, 1.5675, 0.66, 1.65, 0.7425, 1.7325, 0.825, 1.815, 0.9075, 1.8975, 0.495, 1.485, 0, 0.99, 0.0825, 1.0725, 0.165, 1.155, 0.2475, 1.2375, 0.33, 1.32, 0.4125, 1.4025, 0.5775, 1.5675, 0.66, 1.65, 0.7425, 1.7325, 0.825, 1.815, 0.9075, 1.8975, 0.495],
  "SoftwareVersions": "syngo_MR_E11",
  "SpacingBetweenSlices": 2,
  "StationName": "AWP166078",
  "TaskName": "retinotopy",
  "TotalReadoutTime": 0.0534586,
  "TxRefAmp": 220.93,
  "dcmmeta_affine": [
    [-2.0, 0.0, 0.0, 100.67469787597656],
    [0.0, 1.9932748079299927, -0.16387702524662018, -88.54198455810547],
    [0.0, 0.16387702524662018, 1.9932748079299927, -80.93099212646484],
    [0.0, 0.0, 0.0, 1.0]
],
  "dcmmeta_reorient_transform": [
    [0.0, -1.0, 0.0, 99.0],
    [1.0, 0.0, 0.0, 0.0],
    [0.0, 0.0, 1.0, 0.0],
    [0.0, 0.0, 0.0, 1.0]
],
  "dcmmeta_shape": [100, 100, 72, 150],
  "dcmmeta_slice_dim": 2,
  "dcmmeta_version": 0.6,
  "global": {
    "const": {
      "AcquisitionMatrix": [100, 0, 0, 100],
      "AngioFlag": "N",
      "BitsAllocated": 16,
      "BitsStored": 12,
      "BodyPartExamined": "BRAIN",
      "Columns": 900,
      "EchoNumbers": 1,
      "EchoTime": 34.0,
      "EchoTrainLength": 100,
      "FlipAngle": 90.0,
      "HighBit": 11,
      "ImageOrientationPatient": [1.0, 0.0, 0.0, 0.0, 0.99663738671133, -0.0819385099279],
      "ImagePositionPatient": [-900.67469877005, -906.10212513675, 0.84364269976744],
      "ImageType": [
        "ORIGINAL",
        "PRIMARY",
        "M",
        "ND",
        "MOSAIC"
],
      "ImagedNucleus": "1H",
      "ImagingFrequency": 123.257778,
      "InPlanePhaseEncodingDirection": "COL",
      "MRAcquisitionType": "2D",
      "MagneticFieldStrength": 3.0,
      "Manufacturer": "SIEMENS",
      "ManufacturerModelName": "Prisma",
      "Modality": "MR",
      "NumberOfAverages": 1.0,
      "NumberOfPhaseEncodingSteps": 100,
      "PercentPhaseFieldOfView": 100.0,
      "PercentSampling": 100.0,
      "PerformedProcedureStepStartTime": "105032.488000",
      "PhotometricInterpretation": "MONOCHROME2",
      "PixelBandwidth": 2380.0,
      "PixelRepresentation": 0,
      "PixelSpacing": [2.0, 2.0],
      "ProtocolName": "bold_100x100_s3_2x2x2_retino_150",
      "RepetitionTime": 2000.0,
      "Rows": 900,
      "SAR": 0.07133989196053,
      "SamplesPerPixel": 1,
      "ScanOptions": "FS",
      "ScanningSequence": "EP",
      "SequenceName": "*epfid2d1_100",
      "SequenceVariant": "SK",
      "SeriesDescription": "bold_100x100_s3_2x2x2_retino_150",
      "SeriesNumber": 15,
      "SeriesTime": "115940.259000",
      "SliceLocation": -73.403852120604,
      "SliceThickness": 2.0,
      "SmallestImagePixelValue": 0,
      "SoftwareVersions": "syngo MR E11",
      "SpacingBetweenSlices": 2.000000075446,
      "SpecificCharacterSet": "ISO_IR 100",
      "StudyID": "1",
      "StudyTime": "105032.385000",
      "TransmitCoilName": "Body",
      "VariableFlipAngleFlag": "N",
      "WindowCenterWidthExplanation": "Algo1",
      "dBdt": 0.0},
    "slices": {}
  },
  "time": {
    "samples": {
      "AcquisitionNumber": [1, 2, 3, 4, 5, 6, 7, 8, 9, 10, 11, 12, 13, 14, 15, 16, 17, 18, 19, 20, 21, 22, 23, 24, 25, 26, 27, 28, 29, 30, 31, 32, 33, 34, 35, 36, 37, 38, 39, 40, 41, 42, 43, 44, 45, 46, 47, 48, 49, 50, 51, 52, 53, 54, 55, 56, 57, 58, 59, 60, 61, 62, 63, 64, 65, 66, 67, 68, 69, 70, 71, 72, 73, 74, 75, 76, 77, 78, 79, 80, 81, 82, 83, 84, 85, 86, 87, 88, 89, 90, 91, 92, 93, 94, 95, 96, 97, 98, 99, 100, 101, 102, 103, 104, 105, 106, 107, 108, 109, 110, 111, 112, 113, 114, 115, 116, 117, 118, 119, 120, 121, 122, 123, 124, 125, 126, 127, 128, 129, 130, 131, 132, 133, 134, 135, 136, 137, 138, 139, 140, 141, 142, 143, 144, 145, 146, 147, 148, 149, 150],
      "AcquisitionTime": ["115937.237500", "115939.237500", "115941.237500", "115943.237500", "115945.237500", "115947.237500", "115949.237500", "115951.237500", "115953.237500", "115955.237500", "115957.237500", "115959.237500", "120001.237500", "120003.237500", "120005.237500", "120007.237500", "120009.237500", "120011.237500", "120013.237500", "120015.237500", "120017.237500", "120019.237500", "120021.237500", "120023.237500", "120025.237500", "120027.237500", "120029.237500", "120031.237500", "120033.237500", "120035.237500", "120037.237500", "120039.237500", "120041.237500", "120043.237500", "120045.237500", "120047.237500", "120049.237500", "120051.237500", "120053.237500", "120055.237500", "120057.237500", "120059.237500", "120101.237500", "120103.237500", "120105.237500", "120107.237500", "120109.237500", "120111.237500", "120113.237500", "120115.237500", "120117.237500", "120119.237500", "120121.237500", "120123.237500", "120125.237500", "120127.237500", "120129.237500", "120131.237500", "120133.237500", "120135.237500", "120137.237500", "120139.237500", "120141.237500", "120143.237500", "120145.237500", "120147.237500", "120149.237500", "120151.237500", "120153.237500", "120155.237500", "120157.237500", "120159.237500", "120201.237500", "120203.237500", "120205.237500", "120207.237500", "120209.237500", "120211.237500", "120213.237500", "120215.237500", "120217.237500", "120219.237500", "120221.237500", "120223.237500", "120225.237500", "120227.237500", "120229.237500", "120231.237500", "120233.237500", "120235.237500", "120237.237500", "120239.237500", "120241.237500", "120243.237500", "120245.237500", "120247.237500", "120249.237500", "120251.237500", "120253.237500", "120255.237500", "120257.237500", "120259.237500", "120301.237500", "120303.237500", "120305.237500", "120307.237500", "120309.237500", "120311.237500", "120313.237500", "120315.237500", "120317.237500", "120319.237500", "120321.237500", "120323.237500", "120325.237500", "120327.237500", "120329.237500", "120331.237500", "120333.237500", "120335.237500", "120337.237500", "120339.237500", "120341.237500", "120343.237500", "120345.237500", "120347.237500", "120349.237500", "120351.237500", "120353.237500", "120355.237500", "120357.237500", "120359.237500", "120401.237500", "120403.237500", "120405.237500", "120407.237500", "120409.237500", "120411.237500", "120413.237500", "120415.237500", "120417.237500", "120419.237500", "120421.237500", "120423.237500", "120425.237500", "120427.237500", "120429.237500", "120431.237500", "120433.237500", "120435.237500"],
      "ContentTime": ["115940.268000", "115941.758000", "115943.757000", "115945.757000", "115947.756000", "115949.756000", "115951.757000", "115953.757000", "115955.757000", "115957.758000", "115959.757000", "120001.757000", "120003.758000", "120005.757000", "120007.758000", "120009.757000", "120011.757000", "120013.758000", "120015.757000", "120017.757000", "120019.757000", "120021.756000", "120023.757000", "120025.757000", "120027.757000", "120029.758000", "120031.757000", "120033.758000", "120035.757000", "120037.757000", "120039.757000", "120041.757000", "120043.758000", "120045.757000", "120047.758000", "120049.758000", "120051.757000", "120053.757000", "120055.757000", "120057.756000", "120059.756000", "120101.757000", "120103.758000", "120105.757000", "120107.757000", "120109.757000", "120111.757000", "120113.757000", "120115.756000", "120117.757000", "120119.758000", "120121.757000", "120123.757000", "120125.758000", "120127.758000", "120129.758000", "120131.757000", "120133.756000", "120135.758000", "120137.758000", "120139.758000", "120141.758000", "120143.758000", "120145.758000", "120147.757000", "120149.756000", "120151.756000", "120153.757000", "120155.757000", "120157.757000", "120159.758000", "120201.757000", "120203.758000", "120205.758000", "120207.756000", "120209.756000", "120211.757000", "120213.757000", "120215.758000", "120219.258000", "120221.758000", "120221.760000", "120223.758000", "120225.757000", "120227.757000", "120229.757000", "120231.758000", "120233.758000", "120235.758000", "120237.757000", "120239.757000", "120241.757000", "120243.756000", "120245.757000", "120247.758000", "120249.757000", "120251.757000", "120253.757000", "120255.758000", "120257.757000", "120259.757000", "120301.756000", "120303.757000", "120305.757000", "120307.757000", "120309.757000", "120311.758000", "120313.758000", "120315.758000", "120317.757000", "120319.757000", "120321.758000", "120323.758000", "120325.758000", "120327.758000", "120329.757000", "120331.758000", "120333.758000", "120335.757000", "120337.758000", "120339.758000", "120341.758000", "120343.758000", "120345.758000", "120347.758000", "120349.758000", "120351.757000", "120353.757000", "120355.758000", "120357.758000", "120359.758000", "120401.758000", "120403.758000", "120405.757000", "120407.758000", "120409.756000", "120411.756000", "120413.758000", "120415.758000", "120417.758000", "120419.758000", "120421.757000", "120423.757000", "120425.757000", "120427.756000", "120429.757000", "120431.758000", "120433.758000", "120435.758000", "120437.466000"],
      "InstanceCreationTime": ["115940.268000", "115941.758000", "115943.757000", "115945.757000", "115947.756000", "115949.756000", "115951.757000", "115953.757000", "115955.757000", "115957.758000", "115959.757000", "120001.757000", "120003.758000", "120005.757000", "120007.758000", "120009.757000", "120011.757000", "120013.758000", "120015.757000", "120017.757000", "120019.757000", "120021.756000", "120023.757000", "120025.757000", "120027.757000", "120029.758000", "120031.757000", "120033.758000", "120035.757000", "120037.757000", "120039.757000", "120041.757000", "120043.758000", "120045.757000", "120047.758000", "120049.758000", "120051.757000", "120053.757000", "120055.757000", "120057.756000", "120059.756000", "120101.757000", "120103.758000", "120105.757000", "120107.757000", "120109.757000", "120111.757000", "120113.757000", "120115.756000", "120117.757000", "120119.758000", "120121.757000", "120123.757000", "120125.758000", "120127.758000", "120129.758000", "120131.757000", "120133.756000", "120135.758000", "120137.758000", "120139.758000", "120141.758000", "120143.758000", "120145.758000", "120147.757000", "120149.756000", "120151.756000", "120153.757000", "120155.757000", "120157.757000", "120159.758000", "120201.757000", "120203.758000", "120205.758000", "120207.756000", "120209.756000", "120211.757000", "120213.757000", "120215.758000", "120219.258000", "120221.758000", "120221.760000", "120223.758000", "120225.757000", "120227.757000", "120229.757000", "120231.758000", "120233.758000", "120235.758000", "120237.757000", "120239.757000", "120241.757000", "120243.756000", "120245.757000", "120247.758000", "120249.757000", "120251.757000", "120253.757000", "120255.758000", "120257.757000", "120259.757000", "120301.756000", "120303.757000", "120305.757000", "120307.757000", "120309.757000", "120311.758000", "120313.758000", "120315.758000", "120317.757000", "120319.757000", "120321.758000", "120323.758000", "120325.758000", "120327.758000", "120329.757000", "120331.758000", "120333.758000", "120335.757000", "120337.758000", "120339.758000", "120341.758000", "120343.758000", "120345.758000", "120347.758000", "120349.758000", "120351.757000", "120353.757000", "120355.758000", "120357.758000", "120359.758000", "120401.758000", "120403.758000", "120405.757000", "120407.758000", "120409.756000", "120411.756000", "120413.758000", "120415.758000", "120417.758000", "120419.758000", "120421.757000", "120423.757000", "120425.757000", "120427.756000", "120429.757000", "120431.758000", "120433.758000", "120435.758000", "120437.466000"],
      "InstanceNumber": [1, 2, 3, 4, 5, 6, 7, 8, 9, 10, 11, 12, 13, 14, 15, 16, 17, 18, 19, 20, 21, 22, 23, 24, 25, 26, 27, 28, 29, 30, 31, 32, 33, 34, 35, 36, 37, 38, 39, 40, 41, 42, 43, 44, 45, 46, 47, 48, 49, 50, 51, 52, 53, 54, 55, 56, 57, 58, 59, 60, 61, 62, 63, 64, 65, 66, 67, 68, 69, 70, 71, 72, 73, 74, 75, 76, 77, 78, 79, 80, 81, 82, 83, 84, 85, 86, 87, 88, 89, 90, 91, 92, 93, 94, 95, 96, 97, 98, 99, 100, 101, 102, 103, 104, 105, 106, 107, 108, 109, 110, 111, 112, 113, 114, 115, 116, 117, 118, 119, 120, 121, 122, 123, 124, 125, 126, 127, 128, 129, 130, 131, 132, 133, 134, 135, 136, 137, 138, 139, 140, 141, 142, 143, 144, 145, 146, 147, 148, 149, 150],
      "LargestImagePixelValue": [4095, 4064, 4047, 4009, 4014, 4022, 4022, 4021, 4010, 4033, 4032, 4045, 4019, 4012, 4042, 4041, 4052, 4049, 4026, 4000, 4050, 4027, 4060, 4034, 4032, 4062, 4082, 4025, 4065, 4057, 4055, 4022, 4068, 4023, 4023, 4047, 4061, 4060, 4064, 4047, 4069, 4032, 4045, 4048, 4026, 4016, 4041, 4036, 4061, 4040, 4024, 4052, 4038, 4054, 4042, 4042, 4049, 4075, 4068, 4051, 4071, 4058, 4035, 4032, 4036, 4048, 4048, 4065, 4042, 4073, 4048, 4036, 4065, 4048, 4070, 4071, 4022, 4063, 4054, 4028, 4054, 4020, 4046, 4004, 4022, 4051, 4043, 4036, 4017, 4024, 4043, 4018, 4013, 4024, 4061, 4050, 4027, 4054, 4065, 4050, 4051, 4093, 4080, 4073, 4049, 4049, 4045, 4023, 4049, 4043, 4048, 4032, 4007, 4041, 4059, 4039, 4070, 4068, 4059, 4052, 4027, 4052, 4041, 4059, 4053, 4038, 4017, 4041, 4028, 4056, 4040, 4072, 4045, 4023, 4064, 4055, 4015, 4013, 4026, 4057, 4058, 4067, 4042, 4025, 4073, 4048, 4062, 4067, 4057, 4042],
      "WindowCenter": [840.0, 838.0, 837.0, 837.0, 838.0, 838.0, 838.0, 838.0, 837.0, 837.0, 836.0, 836.0, 835.0, 835.0, 836.0, 836.0, 837.0, 836.0, 835.0, 835.0, 834.0, 834.0, 835.0, 836.0, 835.0, 835.0, 835.0, 834.0, 835.0, 835.0, 836.0, 836.0, 836.0, 836.0, 835.0, 835.0, 836.0, 836.0, 836.0, 835.0, 834.0, 834.0, 834.0, 835.0, 835.0, 835.0, 835.0, 835.0, 835.0, 836.0, 836.0, 838.0, 837.0, 837.0, 836.0, 836.0, 835.0, 835.0, 836.0, 837.0, 837.0, 837.0, 837.0, 837.0, 837.0, 837.0, 835.0, 836.0, 835.0, 835.0, 835.0, 835.0, 835.0, 836.0, 836.0, 836.0, 836.0, 836.0, 836.0, 836.0, 838.0, 838.0, 839.0, 838.0, 838.0, 838.0, 837.0, 838.0, 838.0, 838.0, 838.0, 839.0, 838.0, 837.0, 837.0, 838.0, 838.0, 838.0, 838.0, 838.0, 837.0, 838.0, 838.0, 839.0, 838.0, 837.0, 836.0, 836.0, 836.0, 836.0, 837.0, 837.0, 837.0, 836.0, 837.0, 836.0, 837.0, 837.0, 838.0, 838.0, 838.0, 838.0, 837.0, 838.0, 838.0, 837.0, 836.0, 836.0, 835.0, 836.0, 837.0, 837.0, 836.0, 835.0, 835.0, 836.0, 837.0, 836.0, 836.0, 836.0, 836.0, 837.0, 837.0, 836.0, 836.0, 836.0, 837.0, 836.0, 837.0, 837.0],
      "WindowWidth": [1840.0, 1834.0, 1833.0, 1832.0, 1835.0, 1837.0, 1837.0, 1836.0, 1832.0, 1831.0, 1831.0, 1828.0, 1827.0, 1826.0, 1829.0, 1831.0, 1833.0, 1831.0, 1828.0, 1826.0, 1825.0, 1825.0, 1828.0, 1829.0, 1827.0, 1828.0, 1828.0, 1826.0, 1827.0, 1828.0, 1831.0, 1830.0, 1830.0, 1828.0, 1826.0, 1827.0, 1829.0, 1831.0, 1830.0, 1828.0, 1825.0, 1824.0, 1826.0, 1827.0, 1826.0, 1826.0, 1827.0, 1827.0, 1828.0, 1828.0, 1831.0, 1835.0, 1833.0, 1833.0, 1831.0, 1829.0, 1827.0, 1827.0, 1830.0, 1833.0, 1834.0, 1834.0, 1832.0, 1832.0, 1834.0, 1831.0, 1828.0, 1829.0, 1827.0, 1826.0, 1827.0, 1828.0, 1828.0, 1831.0, 1831.0, 1831.0, 1829.0, 1831.0, 1830.0, 1830.0, 1835.0, 1836.0, 1836.0, 1835.0, 1835.0, 1834.0, 1833.0, 1835.0, 1835.0, 1835.0, 1836.0, 1837.0, 1835.0, 1833.0, 1832.0, 1833.0, 1833.0, 1835.0, 1834.0, 1834.0, 1832.0, 1836.0, 1836.0, 1837.0, 1834.0, 1833.0, 1831.0, 1829.0, 1829.0, 1830.0, 1831.0, 1831.0, 1832.0, 1830.0, 1831.0, 1830.0, 1833.0, 1833.0, 1835.0, 1836.0, 1835.0, 1835.0, 1833.0, 1836.0, 1835.0, 1833.0, 1828.0, 1830.0, 1828.0, 1830.0, 1831.0, 1832.0, 1830.0, 1828.0, 1828.0, 1830.0, 1832.0, 1831.0, 1830.0, 1831.0, 1831.0, 1832.0, 1832.0, 1830.0, 1831.0, 1830.0, 1831.0, 1830.0, 1832.0, 1832.0]
    },
    "slices": {}
  }
}