{
  "AcquisitionMatrixPE": 100,
  "AcquisitionNumber": 1,
  "AcquisitionTime": "11:41:26.142500",
  "BandwidthPerPixelPhaseEncode": 18.519,
  "BaseResolution": 100,
  "BodyPartExamined": "BRAIN",
  "ConsistencyInfo": "N4_VE11C_LATEST_20160120",
  "ConversionSoftware": "dcm2niix",
  "ConversionSoftwareVersion": "v1.0.20180622 GCC4.9.2",
  "DerivedVendorReportedEchoSpacing": 0.000539986,
  "DeviceSerialNumber": "166078",
  "DwellTime": 2.1e-06,
  "EchoTime": 0.034,
  "EchoTrainLength": 100,
  "EffectiveEchoSpacing": 0.000539986,
  "FlipAngle": 90,
  "ImageOrientationPatientDICOM": [1, 0, 0, 0, 0.996637, -0.0819385],
  "ImageType": [
    "ORIGINAL",
    "PRIMARY",
    "M",
    "ND",
    "MOSAIC"
],
  "InPlanePhaseEncodingDirectionDICOM": "COL",
  "InstitutionAddress": "Street_StreetNo_Bei_Jing_District_CN_ZIP",
  "InstitutionName": "BeiJing_Normal_University",
  "InstitutionalDepartmentName": "Department",
  "MRAcquisitionType": "2D",
  "MagneticFieldStrength": 3,
  "Manufacturer": "Siemens",
  "ManufacturersModelName": "Prisma",
  "Modality": "MR",
  "MultibandAccelerationFactor": 3,
  "PartialFourier": 1,
  "PatientPosition": "HFS",
  "PercentPhaseFOV": 100,
  "PhaseEncodingDirection": "j-",
  "PhaseEncodingSteps": 100,
  "PhaseResolution": 1,
  "PixelBandwidth": 2380,
  "ProcedureStepDescription": "BNU_P2018_64CH_Zhen.ZongLei",
  "ProtocolName": "bold_100x100_s3_2x2x2_retino_150",
  "PulseSequenceDetails": "%SiemensSeq%_ep2d_bold",
  "ReceiveCoilActiveElements": "HC1-7;NC1",
  "ReceiveCoilName": "HeadNeck_64",
  "ReconMatrixPE": 100,
  "RepetitionTime": 2,
  "SAR": 0.0713399,
  "ScanOptions": "FS",
  "ScanningSequence": "EP",
  "SequenceName": "_epfid2d1_100",
  "SequenceVariant": "SK",
  "SeriesDescription": "bold_100x100_s3_2x2x2_retino_150",
  "SeriesNumber": 12,
  "ShimSetting": [-5464, -11491, -1271, 207, -67, -268, -229, 29],
  "SliceThickness": 2,
  "SliceTiming": [1.485, 0, 0.99, 0.0825, 1.0725, 0.165, 1.155, 0.2475, 1.2375, 0.33, 1.32, 0.4125, 1.4025, 0.5775, 1.5675, 0.66, 1.65, 0.7425, 1.7325, 0.825, 1.815, 0.9075, 1.8975, 0.495, 1.485, 0, 0.99, 0.0825, 1.0725, 0.165, 1.155, 0.2475, 1.2375, 0.33, 1.32, 0.4125, 1.4025, 0.5775, 1.5675, 0.66, 1.65, 0.7425, 1.7325, 0.825, 1.815, 0.9075, 1.8975, 0.495, 1.485, 0, 0.99, 0.0825, 1.0725, 0.165, 1.155, 0.2475, 1.2375, 0.33, 1.32, 0.4125, 1.4025, 0.5775, 1.5675, 0.66, 1.65, 0.7425, 1.7325, 0.825, 1.815, 0.9075, 1.8975, 0.495],
  "SoftwareVersions": "syngo_MR_E11",
  "SpacingBetweenSlices": 2,
  "StationName": "AWP166078",
  "TaskName": "retinotopy",
  "TotalReadoutTime": 0.0534586,
  "TxRefAmp": 220.93,
  "dcmmeta_affine": [
    [-2.0, 0.0, 0.0, 100.67469787597656],
    [0.0, 1.9932748079299927, -0.16387702524662018, -88.54198455810547],
    [0.0, 0.16387702524662018, 1.9932748079299927, -80.93099212646484],
    [0.0, 0.0, 0.0, 1.0]
],
  "dcmmeta_reorient_transform": [
    [0.0, -1.0, 0.0, 99.0],
    [1.0, 0.0, 0.0, 0.0],
    [0.0, 0.0, 1.0, 0.0],
    [0.0, 0.0, 0.0, 1.0]
],
  "dcmmeta_shape": [100, 100, 72, 150],
  "dcmmeta_slice_dim": 2,
  "dcmmeta_version": 0.6,
  "global": {
    "const": {
      "AcquisitionMatrix": [100, 0, 0, 100],
      "AngioFlag": "N",
      "BitsAllocated": 16,
      "BitsStored": 12,
      "BodyPartExamined": "BRAIN",
      "Columns": 900,
      "EchoNumbers": 1,
      "EchoTime": 34.0,
      "EchoTrainLength": 100,
      "FlipAngle": 90.0,
      "HighBit": 11,
      "ImageOrientationPatient": [1.0, 0.0, 0.0, 0.0, 0.99663738671133, -0.0819385099279],
      "ImagePositionPatient": [-900.67469877005, -906.10212513675, 0.84364269976744],
      "ImageType": [
        "ORIGINAL",
        "PRIMARY",
        "M",
        "ND",
        "MOSAIC"
],
      "ImagedNucleus": "1H",
      "ImagingFrequency": 123.257776,
      "InPlanePhaseEncodingDirection": "COL",
      "MRAcquisitionType": "2D",
      "MagneticFieldStrength": 3.0,
      "Manufacturer": "SIEMENS",
      "ManufacturerModelName": "Prisma",
      "Modality": "MR",
      "NumberOfAverages": 1.0,
      "NumberOfPhaseEncodingSteps": 100,
      "PercentPhaseFieldOfView": 100.0,
      "PercentSampling": 100.0,
      "PerformedProcedureStepStartTime": "105032.488000",
      "PhotometricInterpretation": "MONOCHROME2",
      "PixelBandwidth": 2380.0,
      "PixelRepresentation": 0,
      "PixelSpacing": [2.0, 2.0],
      "ProtocolName": "bold_100x100_s3_2x2x2_retino_150",
      "RepetitionTime": 2000.0,
      "Rows": 900,
      "SAR": 0.07133989196053,
      "SamplesPerPixel": 1,
      "ScanOptions": "FS",
      "ScanningSequence": "EP",
      "SequenceName": "*epfid2d1_100",
      "SequenceVariant": "SK",
      "SeriesDescription": "bold_100x100_s3_2x2x2_retino_150",
      "SeriesNumber": 12,
      "SeriesTime": "114128.520000",
      "SliceLocation": -73.403852120604,
      "SliceThickness": 2.0,
      "SmallestImagePixelValue": 0,
      "SoftwareVersions": "syngo MR E11",
      "SpacingBetweenSlices": 2.000000075446,
      "SpecificCharacterSet": "ISO_IR 100",
      "StudyID": "1",
      "StudyTime": "105032.385000",
      "TransmitCoilName": "Body",
      "VariableFlipAngleFlag": "N",
      "WindowCenterWidthExplanation": "Algo1",
      "dBdt": 0.0},
    "slices": {}
  },
  "time": {
    "samples": {
      "AcquisitionNumber": [1, 2, 3, 4, 5, 6, 7, 8, 9, 10, 11, 12, 13, 14, 15, 16, 17, 18, 19, 20, 21, 22, 23, 24, 25, 26, 27, 28, 29, 30, 31, 32, 33, 34, 35, 36, 37, 38, 39, 40, 41, 42, 43, 44, 45, 46, 47, 48, 49, 50, 51, 52, 53, 54, 55, 56, 57, 58, 59, 60, 61, 62, 63, 64, 65, 66, 67, 68, 69, 70, 71, 72, 73, 74, 75, 76, 77, 78, 79, 80, 81, 82, 83, 84, 85, 86, 87, 88, 89, 90, 91, 92, 93, 94, 95, 96, 97, 98, 99, 100, 101, 102, 103, 104, 105, 106, 107, 108, 109, 110, 111, 112, 113, 114, 115, 116, 117, 118, 119, 120, 121, 122, 123, 124, 125, 126, 127, 128, 129, 130, 131, 132, 133, 134, 135, 136, 137, 138, 139, 140, 141, 142, 143, 144, 145, 146, 147, 148, 149, 150],
      "AcquisitionTime": ["114126.142500", "114128.142500", "114130.142500", "114132.142500", "114134.142500", "114136.142500", "114138.142500", "114140.142500", "114142.142500", "114144.142500", "114146.142500", "114148.142500", "114150.142500", "114152.142500", "114154.142500", "114156.142500", "114158.142500", "114200.142500", "114202.142500", "114204.142500", "114206.142500", "114208.142500", "114210.142500", "114212.142500", "114214.142500", "114216.142500", "114218.142500", "114220.142500", "114222.142500", "114224.142500", "114226.142500", "114228.142500", "114230.142500", "114232.142500", "114234.142500", "114236.142500", "114238.142500", "114240.142500", "114242.142500", "114244.142500", "114246.142500", "114248.142500", "114250.142500", "114252.142500", "114254.142500", "114256.142500", "114258.142500", "114300.142500", "114302.142500", "114304.142500", "114306.142500", "114308.142500", "114310.142500", "114312.142500", "114314.142500", "114316.142500", "114318.142500", "114320.142500", "114322.142500", "114324.142500", "114326.142500", "114328.142500", "114330.142500", "114332.142500", "114334.142500", "114336.142500", "114338.142500", "114340.142500", "114342.142500", "114344.142500", "114346.142500", "114348.142500", "114350.142500", "114352.142500", "114354.142500", "114356.142500", "114358.142500", "114400.142500", "114402.142500", "114404.142500", "114406.142500", "114408.142500", "114410.142500", "114412.142500", "114414.142500", "114416.142500", "114418.142500", "114420.142500", "114422.142500", "114424.142500", "114426.142500", "114428.142500", "114430.142500", "114432.142500", "114434.142500", "114436.142500", "114438.142500", "114440.142500", "114442.142500", "114444.142500", "114446.142500", "114448.142500", "114450.142500", "114452.142500", "114454.142500", "114456.142500", "114458.142500", "114500.142500", "114502.142500", "114504.142500", "114506.142500", "114508.142500", "114510.142500", "114512.142500", "114514.142500", "114516.142500", "114518.142500", "114520.142500", "114522.142500", "114524.142500", "114526.142500", "114528.142500", "114530.142500", "114532.142500", "114534.142500", "114536.142500", "114538.142500", "114540.142500", "114542.142500", "114544.142500", "114546.142500", "114548.142500", "114550.142500", "114552.142500", "114554.142500", "114556.142500", "114558.142500", "114600.142500", "114602.142500", "114604.142500", "114606.142500", "114608.142500", "114610.142500", "114612.142500", "114614.142500", "114616.142500", "114618.142500", "114620.142500", "114622.142500", "114624.142500"],
      "ContentTime": ["114128.524000", "114130.006000", "114132.005000", "114134.005000", "114136.006000", "114138.005000", "114140.005000", "114142.005000", "114144.005000", "114146.005000", "114148.006000", "114150.005000", "114152.006000", "114154.006000", "114156.005000", "114158.005000", "114200.006000", "114202.006000", "114204.006000", "114206.006000", "114208.006000", "114210.005000", "114212.005000", "114214.005000", "114216.006000", "114218.005000", "114220.005000", "114222.007000", "114224.005000", "114226.005000", "114228.006000", "114230.005000", "114232.005000", "114234.005000", "114236.006000", "114238.005000", "114240.006000", "114242.006000", "114244.005000", "114246.005000", "114248.005000", "114250.005000", "114252.006000", "114254.006000", "114256.007000", "114258.007000", "114300.005000", "114302.006000", "114304.006000", "114306.005000", "114308.006000", "114310.005000", "114312.005000", "114314.007000", "114316.007000", "114318.006000", "114320.006000", "114322.005000", "114324.005000", "114326.006000", "114328.006000", "114330.005000", "114332.007000", "114334.006000", "114336.006000", "114338.005000", "114340.005000", "114342.005000", "114344.005000", "114346.006000", "114348.005000", "114350.006000", "114352.006000", "114354.005000", "114356.006000", "114358.006000", "114400.005000", "114402.006000", "114404.006000", "114406.007000", "114408.007000", "114410.005000", "114412.006000", "114414.005000", "114416.006000", "114418.005000", "114420.005000", "114422.006000", "114424.006000", "114426.007000", "114428.006000", "114430.006000", "114432.005000", "114434.005000", "114436.005000", "114438.006000", "114440.005000", "114442.007000", "114444.005000", "114446.005000", "114448.006000", "114450.006000", "114452.005000", "114454.006000", "114456.006000", "114458.005000", "114500.007000", "114502.005000", "114504.005000", "114506.006000", "114508.005000", "114510.005000", "114512.005000", "114514.006000", "114516.007000", "114518.006000", "114520.005000", "114522.005000", "114524.006000", "114526.005000", "114528.006000", "114530.005000", "114532.006000", "114534.006000", "114536.007000", "114538.006000", "114540.005000", "114542.006000", "114544.006000", "114546.006000", "114548.006000", "114550.005000", "114552.006000", "114554.005000", "114556.006000", "114558.006000", "114600.006000", "114602.006000", "114604.005000", "114606.005000", "114608.005000", "114610.007000", "114612.005000", "114614.006000", "114616.005000", "114618.005000", "114620.005000", "114622.006000", "114624.006000", "114625.658000"],
      "InstanceCreationTime": ["114128.524000", "114130.006000", "114132.005000", "114134.005000", "114136.006000", "114138.005000", "114140.005000", "114142.005000", "114144.005000", "114146.005000", "114148.006000", "114150.005000", "114152.006000", "114154.006000", "114156.005000", "114158.005000", "114200.006000", "114202.006000", "114204.006000", "114206.006000", "114208.006000", "114210.005000", "114212.005000", "114214.005000", "114216.006000", "114218.005000", "114220.005000", "114222.007000", "114224.005000", "114226.005000", "114228.006000", "114230.005000", "114232.005000", "114234.005000", "114236.006000", "114238.005000", "114240.006000", "114242.006000", "114244.005000", "114246.005000", "114248.005000", "114250.005000", "114252.006000", "114254.006000", "114256.007000", "114258.007000", "114300.005000", "114302.006000", "114304.006000", "114306.005000", "114308.006000", "114310.005000", "114312.005000", "114314.007000", "114316.007000", "114318.006000", "114320.006000", "114322.005000", "114324.005000", "114326.006000", "114328.006000", "114330.005000", "114332.007000", "114334.006000", "114336.006000", "114338.005000", "114340.005000", "114342.005000", "114344.005000", "114346.006000", "114348.005000", "114350.006000", "114352.006000", "114354.005000", "114356.006000", "114358.006000", "114400.005000", "114402.006000", "114404.006000", "114406.007000", "114408.007000", "114410.005000", "114412.006000", "114414.005000", "114416.006000", "114418.005000", "114420.005000", "114422.006000", "114424.006000", "114426.007000", "114428.006000", "114430.006000", "114432.005000", "114434.005000", "114436.005000", "114438.006000", "114440.005000", "114442.007000", "114444.005000", "114446.005000", "114448.006000", "114450.006000", "114452.005000", "114454.006000", "114456.006000", "114458.005000", "114500.007000", "114502.005000", "114504.005000", "114506.006000", "114508.005000", "114510.005000", "114512.005000", "114514.006000", "114516.007000", "114518.006000", "114520.005000", "114522.005000", "114524.006000", "114526.005000", "114528.006000", "114530.005000", "114532.006000", "114534.006000", "114536.007000", "114538.006000", "114540.005000", "114542.006000", "114544.006000", "114546.006000", "114548.006000", "114550.005000", "114552.006000", "114554.005000", "114556.006000", "114558.006000", "114600.006000", "114602.006000", "114604.005000", "114606.005000", "114608.005000", "114610.007000", "114612.005000", "114614.006000", "114616.005000", "114618.005000", "114620.005000", "114622.006000", "114624.006000", "114625.658000"],
      "InstanceNumber": [1, 2, 3, 4, 5, 6, 7, 8, 9, 10, 11, 12, 13, 14, 15, 16, 17, 18, 19, 20, 21, 22, 23, 24, 25, 26, 27, 28, 29, 30, 31, 32, 33, 34, 35, 36, 37, 38, 39, 40, 41, 42, 43, 44, 45, 46, 47, 48, 49, 50, 51, 52, 53, 54, 55, 56, 57, 58, 59, 60, 61, 62, 63, 64, 65, 66, 67, 68, 69, 70, 71, 72, 73, 74, 75, 76, 77, 78, 79, 80, 81, 82, 83, 84, 85, 86, 87, 88, 89, 90, 91, 92, 93, 94, 95, 96, 97, 98, 99, 100, 101, 102, 103, 104, 105, 106, 107, 108, 109, 110, 111, 112, 113, 114, 115, 116, 117, 118, 119, 120, 121, 122, 123, 124, 125, 126, 127, 128, 129, 130, 131, 132, 133, 134, 135, 136, 137, 138, 139, 140, 141, 142, 143, 144, 145, 146, 147, 148, 149, 150],
      "LargestImagePixelValue": [4001, 3986, 3971, 3964, 3940, 3929, 3957, 3932, 3935, 3958, 3920, 3918, 3921, 3982, 3914, 3904, 3935, 3985, 3931, 3901, 3939, 3938, 3901, 3917, 3906, 3913, 3908, 3940, 3901, 3912, 3939, 3934, 3929, 3946, 3919, 3934, 3866, 3911, 3901, 3948, 3908, 3954, 3898, 3917, 3910, 3942, 3974, 3943, 3994, 3937, 3935, 3897, 3947, 4006, 3965, 3997, 3924, 3943, 3922, 3956, 3903, 3945, 3929, 3986, 3953, 3959, 3934, 3892, 3939, 3917, 3925, 3922, 3931, 3896, 3884, 3894, 3913, 3900, 3881, 3891, 3885, 3894, 3884, 3885, 3896, 3932, 3891, 3890, 3907, 3909, 3929, 3919, 3901, 3878, 3892, 3892, 3900, 3938, 3905, 3908, 3899, 3959, 3924, 3922, 3905, 3904, 3929, 3901, 3918, 3953, 3900, 3920, 3898, 3895, 3890, 3884, 3901, 3883, 3867, 3880, 3904, 3872, 3849, 3875, 3882, 3904, 3908, 3905, 3933, 3912, 3978, 3956, 3911, 3889, 3877, 3890, 3893, 3898, 3879, 3923, 3907, 3946, 3930, 3890, 3913, 3922, 3913, 3888, 3915, 3900],
      "WindowCenter": [835.0, 833.0, 832.0, 832.0, 832.0, 830.0, 831.0, 830.0, 830.0, 830.0, 830.0, 830.0, 829.0, 829.0, 828.0, 829.0, 830.0, 831.0, 832.0, 830.0, 830.0, 829.0, 828.0, 828.0, 828.0, 828.0, 829.0, 830.0, 830.0, 830.0, 830.0, 829.0, 830.0, 830.0, 830.0, 831.0, 831.0, 830.0, 830.0, 830.0, 830.0, 830.0, 829.0, 830.0, 830.0, 831.0, 831.0, 831.0, 832.0, 833.0, 832.0, 833.0, 833.0, 834.0, 832.0, 830.0, 829.0, 829.0, 830.0, 831.0, 830.0, 830.0, 830.0, 830.0, 831.0, 831.0, 831.0, 831.0, 832.0, 831.0, 830.0, 830.0, 831.0, 830.0, 831.0, 830.0, 830.0, 830.0, 829.0, 829.0, 828.0, 828.0, 828.0, 830.0, 830.0, 831.0, 831.0, 831.0, 832.0, 831.0, 831.0, 831.0, 830.0, 831.0, 831.0, 833.0, 835.0, 833.0, 831.0, 830.0, 831.0, 831.0, 832.0, 831.0, 830.0, 829.0, 829.0, 829.0, 830.0, 830.0, 830.0, 830.0, 830.0, 830.0, 829.0, 829.0, 829.0, 828.0, 828.0, 828.0, 830.0, 830.0, 831.0, 831.0, 831.0, 831.0, 831.0, 830.0, 831.0, 833.0, 834.0, 834.0, 832.0, 831.0, 829.0, 830.0, 831.0, 832.0, 831.0, 831.0, 830.0, 830.0, 830.0, 830.0, 830.0, 830.0, 830.0, 828.0, 829.0, 830.0],
      "WindowWidth": [1828.0, 1821.0, 1821.0, 1820.0, 1819.0, 1814.0, 1815.0, 1814.0, 1812.0, 1814.0, 1814.0, 1815.0, 1812.0, 1811.0, 1810.0, 1811.0, 1814.0, 1818.0, 1819.0, 1815.0, 1814.0, 1812.0, 1809.0, 1809.0, 1807.0, 1809.0, 1810.0, 1813.0, 1813.0, 1812.0, 1813.0, 1812.0, 1813.0, 1813.0, 1814.0, 1817.0, 1816.0, 1812.0, 1814.0, 1814.0, 1812.0, 1813.0, 1810.0, 1813.0, 1814.0, 1816.0, 1815.0, 1816.0, 1819.0, 1821.0, 1820.0, 1821.0, 1822.0, 1823.0, 1817.0, 1813.0, 1809.0, 1811.0, 1814.0, 1816.0, 1812.0, 1812.0, 1812.0, 1814.0, 1816.0, 1816.0, 1816.0, 1817.0, 1817.0, 1815.0, 1814.0, 1813.0, 1817.0, 1814.0, 1814.0, 1813.0, 1813.0, 1812.0, 1808.0, 1808.0, 1806.0, 1807.0, 1808.0, 1811.0, 1813.0, 1814.0, 1815.0, 1814.0, 1817.0, 1816.0, 1816.0, 1815.0, 1813.0, 1815.0, 1816.0, 1820.0, 1826.0, 1821.0, 1815.0, 1813.0, 1816.0, 1817.0, 1818.0, 1816.0, 1813.0, 1809.0, 1809.0, 1810.0, 1812.0, 1812.0, 1813.0, 1813.0, 1812.0, 1811.0, 1810.0, 1810.0, 1809.0, 1808.0, 1807.0, 1808.0, 1812.0, 1813.0, 1814.0, 1816.0, 1817.0, 1816.0, 1816.0, 1814.0, 1816.0, 1820.0, 1824.0, 1823.0, 1819.0, 1815.0, 1810.0, 1813.0, 1815.0, 1817.0, 1815.0, 1814.0, 1814.0, 1814.0, 1813.0, 1812.0, 1813.0, 1812.0, 1811.0, 1808.0, 1811.0, 1812.0]
    },
    "slices": {}
  }
}