{
 "AcquisitionMatrixPE": 100,
 "AcquisitionNumber": 1,
 "AcquisitionTime": "15:59:56.960000",
 "BandwidthPerPixelPhaseEncode": 18.519,
 "BaseResolution": 100,
 "BodyPartExamined": "BRAIN",
 "ConsistencyInfo": "N4_VE11C_LATEST_20160120",
 "ConversionSoftware": "dcm2niix",
 "ConversionSoftwareVersion": "v1.0.20180622 GCC4.9.2",
 "DerivedVendorReportedEchoSpacing": 0.000539986,
 "DeviceSerialNumber": "166078",
 "DwellTime": 2.1e-06,
 "EchoTime": 0.034,
 "EchoTrainLength": 100,
 "EffectiveEchoSpacing": 0.000539986,
 "FlipAngle": 90,
 "ImageOrientationPatientDICOM": [
  0.999627,
  0.0233493,
  -0.0141742,
  -0.0244304,
  0.996364,
  -0.0816166
 ],
 "ImageType": [
  "ORIGINAL",
  "PRIMARY",
  "M",
  "ND",
  "MOSAIC"
 ],
 "InPlanePhaseEncodingDirectionDICOM": "COL",
 "InstitutionAddress": "Street_StreetNo_Bei_Jing_District_CN_ZIP",
 "InstitutionName": "BeiJing_Normal_University",
 "InstitutionalDepartmentName": "Department",
 "MRAcquisitionType": "2D",
 "MagneticFieldStrength": 3,
 "Manufacturer": "Siemens",
 "ManufacturersModelName": "Prisma",
 "Modality": "MR",
 "MultibandAccelerationFactor": 3,
 "PartialFourier": 1,
 "PatientPosition": "HFS",
 "PercentPhaseFOV": 100,
 "PhaseEncodingDirection": "j-",
 "PhaseEncodingSteps": 100,
 "PhaseResolution": 1,
 "PixelBandwidth": 2380,
 "ProcedureStepDescription": "BNU_P2018_64CH_Zhen.ZongLei",
 "ProtocolName": "bold_100x100_s3_2x2x2_static_test_241",
 "PulseSequenceDetails": "%SiemensSeq%_ep2d_bold",
 "ReceiveCoilActiveElements": "HC1-7;NC1",
 "ReceiveCoilName": "HeadNeck_64",
 "ReconMatrixPE": 100,
 "RepetitionTime": 2,
 "SAR": 0.0747144,
 "ScanOptions": "FS",
 "ScanningSequence": "EP",
 "SequenceName": "_epfid2d1_100",
 "SequenceVariant": "SK",
 "SeriesDescription": "bold_100x100_s3_2x2x2_static_test_241",
 "SeriesNumber": 11,
 "ShimSetting": [
  -5468,
  -11530,
  -1293,
  550,
  34,
  -223,
  -130,
  6
 ],
 "SliceThickness": 2,
 "SliceTiming": [
  1.485,
  0,
  0.99,
  0.0825,
  1.0725,
  0.165,
  1.155,
  0.2475,
  1.2375,
  0.33,
  1.32,
  0.4125,
  1.4025,
  0.5775,
  1.5675,
  0.66,
  1.65,
  0.7425,
  1.7325,
  0.825,
  1.815,
  0.9075,
  1.8975,
  0.495,
  1.485,
  0,
  0.99,
  0.0825,
  1.0725,
  0.165,
  1.155,
  0.2475,
  1.2375,
  0.33,
  1.32,
  0.4125,
  1.4025,
  0.5775,
  1.5675,
  0.66,
  1.65,
  0.7425,
  1.7325,
  0.825,
  1.815,
  0.9075,
  1.8975,
  0.495,
  1.485,
  0,
  0.99,
  0.0825,
  1.0725,
  0.165,
  1.155,
  0.2475,
  1.2375,
  0.33,
  1.32,
  0.4125,
  1.4025,
  0.5775,
  1.5675,
  0.66,
  1.65,
  0.7425,
  1.7325,
  0.825,
  1.815,
  0.9075,
  1.8975,
  0.495
 ],
 "SoftwareVersions": "syngo_MR_E11",
 "SpacingBetweenSlices": 2,
 "StationName": "AWP166078",
 "TaskName": "coco",
 "TotalReadoutTime": 0.0534586,
 "TxRefAmp": 212.813,
 "dcmmeta_affine": [
  [
   -1.999253749847412,
   -0.048860739916563034,
   -0.02443399652838707,
   104.57366943359375
  ],
  [
   -0.046698588877916336,
   1.9927287101745605,
   -0.16386477649211884,
   -85.66024780273438
  ],
  [
   -0.028348440304398537,
   0.16323313117027283,
   1.9931260347366333,
   -70.2044448852539
  ],
  [
   0.0,
   0.0,
   0.0,
   1.0
  ]
 ],
 "dcmmeta_reorient_transform": [
  [
   0.0,
   -1.0,
   0.0,
   99.0
  ],
  [
   1.0,
   0.0,
   0.0,
   0.0
  ],
  [
   0.0,
   0.0,
   1.0,
   0.0
  ],
  [
   0.0,
   0.0,
   0.0,
   1.0
  ]
 ],
 "dcmmeta_shape": [
  100,
  100,
  72,
  241
 ],
 "dcmmeta_slice_dim": 2,
 "dcmmeta_version": 0.6,
 "global": {
  "const": {
   "AcquisitionMatrix": [
    100,
    0,
    0,
    100
   ],
   "AngioFlag": "N",
   "BitsAllocated": 16,
   "BitsStored": 12,
   "BodyPartExamined": "BRAIN",
   "Columns": 900,
   "EchoNumbers": 1,
   "EchoTime": 34.0,
   "EchoTrainLength": 100,
   "FlipAngle": 90.0,
   "HighBit": 11,
   "ImageOrientationPatient": [
    0.99962688136753,
    0.02334929400859,
    -0.014174220145,
    -0.0244303704077,
    0.9963643378911,
    -0.0816165619257
   ],
   "ImagePositionPatient": [
    -879.89366460666,
    -927.39079394776,
    22.588260260099
   ],
   "ImageType": [
    "ORIGINAL",
    "PRIMARY",
    "M",
    "ND",
    "MOSAIC"
   ],
   "ImagedNucleus": "1H",
   "ImagingFrequency": 123.257771,
   "InPlanePhaseEncodingDirection": "COL",
   "MRAcquisitionType": "2D",
   "MagneticFieldStrength": 3.0,
   "Manufacturer": "SIEMENS",
   "ManufacturerModelName": "Prisma",
   "Modality": "MR",
   "NumberOfAverages": 1.0,
   "NumberOfPhaseEncodingSteps": 100,
   "PercentPhaseFieldOfView": 100.0,
   "PercentSampling": 100.0,
   "PerformedProcedureStepStartTime": "150708.363000",
   "PhotometricInterpretation": "MONOCHROME2",
   "PixelBandwidth": 2380.0,
   "PixelRepresentation": 0,
   "PixelSpacing": [
    2.0,
    2.0
   ],
   "ProtocolName": "bold_100x100_s3_2x2x2_static_test_241",
   "RepetitionTime": 2000.0,
   "Rows": 900,
   "SAR": 0.07471435862482,
   "SamplesPerPixel": 1,
   "ScanOptions": "FS",
   "ScanningSequence": "EP",
   "SequenceName": "*epfid2d1_100",
   "SequenceVariant": "SK",
   "SeriesDescription": "bold_100x100_s3_2x2x2_static_test_241",
   "SeriesNumber": 11,
   "SeriesTime": "155959.035000",
   "SliceLocation": -64.222379756871,
   "SliceThickness": 2.0,
   "SmallestImagePixelValue": 0,
   "SoftwareVersions": "syngo MR E11",
   "SpacingBetweenSlices": 2.0000000081223,
   "SpecificCharacterSet": "ISO_IR 100",
   "StudyID": "1",
   "StudyTime": "150708.281000",
   "TransmitCoilName": "Body",
   "VariableFlipAngleFlag": "N",
   "WindowCenterWidthExplanation": "Algo1",
   "dBdt": 0.0
  },
  "slices": {}
 },
 "time": {
  "samples": {
   "AcquisitionNumber": [
    1,
    2,
    3,
    4,
    5,
    6,
    7,
    8,
    9,
    10,
    11,
    12,
    13,
    14,
    15,
    16,
    17,
    18,
    19,
    20,
    21,
    22,
    23,
    24,
    25,
    26,
    27,
    28,
    29,
    30,
    31,
    32,
    33,
    34,
    35,
    36,
    37,
    38,
    39,
    40,
    41,
    42,
    43,
    44,
    45,
    46,
    47,
    48,
    49,
    50,
    51,
    52,
    53,
    54,
    55,
    56,
    57,
    58,
    59,
    60,
    61,
    62,
    63,
    64,
    65,
    66,
    67,
    68,
    69,
    70,
    71,
    72,
    73,
    74,
    75,
    76,
    77,
    78,
    79,
    80,
    81,
    82,
    83,
    84,
    85,
    86,
    87,
    88,
    89,
    90,
    91,
    92,
    93,
    94,
    95,
    96,
    97,
    98,
    99,
    100,
    101,
    102,
    103,
    104,
    105,
    106,
    107,
    108,
    109,
    110,
    111,
    112,
    113,
    114,
    115,
    116,
    117,
    118,
    119,
    120,
    121,
    122,
    123,
    124,
    125,
    126,
    127,
    128,
    129,
    130,
    131,
    132,
    133,
    134,
    135,
    136,
    137,
    138,
    139,
    140,
    141,
    142,
    143,
    144,
    145,
    146,
    147,
    148,
    149,
    150,
    151,
    152,
    153,
    154,
    155,
    156,
    157,
    158,
    159,
    160,
    161,
    162,
    163,
    164,
    165,
    166,
    167,
    168,
    169,
    170,
    171,
    172,
    173,
    174,
    175,
    176,
    177,
    178,
    179,
    180,
    181,
    182,
    183,
    184,
    185,
    186,
    187,
    188,
    189,
    190,
    191,
    192,
    193,
    194,
    195,
    196,
    197,
    198,
    199,
    200,
    201,
    202,
    203,
    204,
    205,
    206,
    207,
    208,
    209,
    210,
    211,
    212,
    213,
    214,
    215,
    216,
    217,
    218,
    219,
    220,
    221,
    222,
    223,
    224,
    225,
    226,
    227,
    228,
    229,
    230,
    231,
    232,
    233,
    234,
    235,
    236,
    237,
    238,
    239,
    240,
    241
   ],
   "AcquisitionTime": [
    "155956.960000",
    "155958.960000",
    "160000.960000",
    "160002.960000",
    "160004.960000",
    "160006.960000",
    "160008.960000",
    "160010.960000",
    "160012.960000",
    "160014.960000",
    "160016.960000",
    "160018.960000",
    "160020.960000",
    "160022.960000",
    "160024.960000",
    "160026.960000",
    "160028.960000",
    "160030.960000",
    "160032.960000",
    "160034.960000",
    "160036.960000",
    "160038.960000",
    "160040.960000",
    "160042.960000",
    "160044.960000",
    "160046.960000",
    "160048.960000",
    "160050.960000",
    "160052.960000",
    "160054.960000",
    "160056.960000",
    "160058.960000",
    "160100.960000",
    "160102.960000",
    "160104.960000",
    "160106.960000",
    "160108.960000",
    "160110.960000",
    "160112.960000",
    "160114.960000",
    "160116.960000",
    "160118.960000",
    "160120.960000",
    "160122.960000",
    "160124.960000",
    "160126.960000",
    "160128.960000",
    "160130.960000",
    "160132.960000",
    "160134.960000",
    "160136.960000",
    "160138.960000",
    "160140.960000",
    "160142.960000",
    "160144.960000",
    "160146.960000",
    "160148.960000",
    "160150.960000",
    "160152.960000",
    "160154.960000",
    "160156.960000",
    "160158.960000",
    "160200.960000",
    "160202.960000",
    "160204.960000",
    "160206.960000",
    "160208.960000",
    "160210.960000",
    "160212.960000",
    "160214.960000",
    "160216.960000",
    "160218.960000",
    "160220.960000",
    "160222.960000",
    "160224.960000",
    "160226.960000",
    "160228.960000",
    "160230.960000",
    "160232.960000",
    "160234.960000",
    "160236.960000",
    "160238.960000",
    "160240.960000",
    "160242.960000",
    "160244.960000",
    "160246.960000",
    "160248.960000",
    "160250.960000",
    "160252.960000",
    "160254.960000",
    "160256.960000",
    "160258.960000",
    "160300.960000",
    "160302.960000",
    "160304.960000",
    "160306.960000",
    "160308.960000",
    "160310.960000",
    "160312.960000",
    "160314.960000",
    "160316.960000",
    "160318.960000",
    "160320.960000",
    "160322.960000",
    "160324.960000",
    "160326.960000",
    "160328.960000",
    "160330.960000",
    "160332.960000",
    "160334.960000",
    "160336.960000",
    "160338.960000",
    "160340.960000",
    "160342.960000",
    "160344.960000",
    "160346.960000",
    "160348.960000",
    "160350.960000",
    "160352.960000",
    "160354.960000",
    "160356.960000",
    "160358.960000",
    "160400.960000",
    "160402.960000",
    "160404.960000",
    "160406.960000",
    "160408.960000",
    "160410.960000",
    "160412.960000",
    "160414.960000",
    "160416.960000",
    "160418.960000",
    "160420.960000",
    "160422.960000",
    "160424.960000",
    "160426.960000",
    "160428.960000",
    "160430.960000",
    "160432.960000",
    "160434.960000",
    "160436.960000",
    "160438.960000",
    "160440.960000",
    "160442.960000",
    "160444.960000",
    "160446.960000",
    "160448.960000",
    "160450.960000",
    "160452.960000",
    "160454.960000",
    "160456.960000",
    "160458.960000",
    "160500.960000",
    "160502.960000",
    "160504.960000",
    "160506.960000",
    "160508.960000",
    "160510.960000",
    "160512.960000",
    "160514.960000",
    "160516.960000",
    "160518.960000",
    "160520.960000",
    "160522.960000",
    "160524.960000",
    "160526.960000",
    "160528.960000",
    "160530.960000",
    "160532.960000",
    "160534.960000",
    "160536.960000",
    "160538.960000",
    "160540.960000",
    "160542.960000",
    "160544.960000",
    "160546.960000",
    "160548.960000",
    "160550.960000",
    "160552.960000",
    "160554.960000",
    "160556.960000",
    "160558.960000",
    "160600.960000",
    "160602.960000",
    "160604.960000",
    "160606.960000",
    "160608.960000",
    "160610.960000",
    "160612.960000",
    "160614.960000",
    "160616.960000",
    "160618.960000",
    "160620.960000",
    "160622.960000",
    "160624.960000",
    "160626.960000",
    "160628.960000",
    "160630.960000",
    "160632.960000",
    "160634.960000",
    "160636.960000",
    "160638.960000",
    "160640.960000",
    "160642.960000",
    "160644.960000",
    "160646.960000",
    "160648.960000",
    "160650.960000",
    "160652.960000",
    "160654.960000",
    "160656.960000",
    "160658.960000",
    "160700.960000",
    "160702.960000",
    "160704.960000",
    "160706.960000",
    "160708.960000",
    "160710.960000",
    "160712.960000",
    "160714.960000",
    "160716.960000",
    "160718.960000",
    "160720.960000",
    "160722.960000",
    "160724.960000",
    "160726.960000",
    "160728.960000",
    "160730.960000",
    "160732.960000",
    "160734.960000",
    "160736.960000",
    "160738.960000",
    "160740.960000",
    "160742.960000",
    "160744.960000",
    "160746.960000",
    "160748.960000",
    "160750.960000",
    "160752.960000",
    "160754.960000",
    "160756.960000"
   ],
   "ContentTime": [
    "155959.039000",
    "160000.535000",
    "160002.534000",
    "160004.534000",
    "160006.534000",
    "160008.533000",
    "160010.534000",
    "160012.533000",
    "160014.534000",
    "160016.534000",
    "160018.534000",
    "160020.534000",
    "160022.535000",
    "160024.534000",
    "160026.533000",
    "160028.534000",
    "160030.533000",
    "160032.534000",
    "160034.534000",
    "160036.534000",
    "160038.534000",
    "160040.534000",
    "160042.533000",
    "160044.533000",
    "160046.533000",
    "160048.534000",
    "160051.034000",
    "160052.534000",
    "160054.534000",
    "160056.534000",
    "160059.034000",
    "160100.533000",
    "160102.533000",
    "160104.537000",
    "160106.534000",
    "160108.534000",
    "160110.534000",
    "160112.535000",
    "160114.535000",
    "160116.534000",
    "160118.533000",
    "160120.533000",
    "160122.533000",
    "160124.534000",
    "160126.535000",
    "160128.535000",
    "160131.034000",
    "160132.535000",
    "160134.534000",
    "160136.534000",
    "160138.533000",
    "160140.533000",
    "160142.534000",
    "160145.035000",
    "160146.534000",
    "160148.534000",
    "160150.534000",
    "160153.033000",
    "160154.533000",
    "160156.533000",
    "160158.535000",
    "160200.534000",
    "160202.535000",
    "160204.534000",
    "160207.034000",
    "160208.534000",
    "160210.534000",
    "160212.533000",
    "160214.533000",
    "160216.535000",
    "160218.534000",
    "160220.535000",
    "160222.534000",
    "160224.534000",
    "160226.535000",
    "160228.533000",
    "160230.533000",
    "160232.534000",
    "160234.535000",
    "160236.535000",
    "160239.034000",
    "160240.535000",
    "160243.034000",
    "160244.534000",
    "160246.534000",
    "160248.533000",
    "160250.533000",
    "160252.534000",
    "160254.534000",
    "160256.535000",
    "160258.534000",
    "160300.534000",
    "160302.533000",
    "160304.533000",
    "160307.033000",
    "160309.034000",
    "160310.534000",
    "160313.034000",
    "160315.035000",
    "160316.535000",
    "160318.534000",
    "160320.533000",
    "160322.533000",
    "160324.533000",
    "160326.534000",
    "160328.535000",
    "160330.534000",
    "160332.534000",
    "160335.035000",
    "160336.534000",
    "160338.533000",
    "160340.534000",
    "160342.533000",
    "160344.534000",
    "160346.535000",
    "160348.534000",
    "160350.534000",
    "160352.534000",
    "160354.534000",
    "160356.533000",
    "160358.533000",
    "160400.535000",
    "160402.535000",
    "160404.534000",
    "160406.534000",
    "160409.035000",
    "160410.535000",
    "160412.533000",
    "160414.533000",
    "160416.534000",
    "160418.535000",
    "160420.534000",
    "160422.535000",
    "160424.534000",
    "160426.534000",
    "160429.034000",
    "160430.533000",
    "160432.533000",
    "160434.533000",
    "160436.534000",
    "160438.534000",
    "160440.534000",
    "160442.534000",
    "160444.535000",
    "160446.534000",
    "160448.533000",
    "160450.533000",
    "160452.533000",
    "160454.534000",
    "160456.534000",
    "160458.534000",
    "160500.535000",
    "160502.534000",
    "160504.534000",
    "160506.533000",
    "160508.533000",
    "160510.534000",
    "160512.535000",
    "160514.535000",
    "160517.034000",
    "160518.534000",
    "160520.535000",
    "160523.033000",
    "160524.534000",
    "160527.033000",
    "160528.535000",
    "160530.535000",
    "160532.534000",
    "160534.534000",
    "160536.534000",
    "160538.534000",
    "160540.534000",
    "160542.533000",
    "160544.533000",
    "160546.535000",
    "160548.534000",
    "160550.534000",
    "160552.534000",
    "160555.035000",
    "160556.535000",
    "160558.533000",
    "160600.534000",
    "160602.533000",
    "160605.035000",
    "160607.035000",
    "160608.535000",
    "160610.535000",
    "160612.534000",
    "160614.534000",
    "160616.533000",
    "160618.533000",
    "160620.535000",
    "160622.535000",
    "160624.535000",
    "160626.535000",
    "160628.534000",
    "160630.535000",
    "160632.534000",
    "160634.534000",
    "160636.533000",
    "160638.534000",
    "160640.534000",
    "160642.534000",
    "160644.534000",
    "160646.534000",
    "160649.035000",
    "160650.533000",
    "160652.534000",
    "160654.533000",
    "160656.534000",
    "160658.535000",
    "160700.534000",
    "160702.535000",
    "160704.534000",
    "160706.535000",
    "160708.534000",
    "160710.533000",
    "160713.034000",
    "160714.534000",
    "160716.535000",
    "160718.534000",
    "160720.534000",
    "160722.535000",
    "160724.534000",
    "160726.533000",
    "160728.533000",
    "160731.035000",
    "160732.534000",
    "160734.535000",
    "160736.534000",
    "160738.535000",
    "160740.535000",
    "160742.534000",
    "160744.533000",
    "160746.533000",
    "160748.535000",
    "160751.034000",
    "160752.535000",
    "160754.534000",
    "160756.534000",
    "160758.466000"
   ],
   "InstanceCreationTime": [
    "155959.039000",
    "160000.535000",
    "160002.534000",
    "160004.534000",
    "160006.534000",
    "160008.533000",
    "160010.534000",
    "160012.533000",
    "160014.534000",
    "160016.534000",
    "160018.534000",
    "160020.534000",
    "160022.535000",
    "160024.534000",
    "160026.533000",
    "160028.534000",
    "160030.533000",
    "160032.534000",
    "160034.534000",
    "160036.534000",
    "160038.534000",
    "160040.534000",
    "160042.533000",
    "160044.533000",
    "160046.533000",
    "160048.534000",
    "160051.034000",
    "160052.534000",
    "160054.534000",
    "160056.534000",
    "160059.034000",
    "160100.533000",
    "160102.533000",
    "160104.537000",
    "160106.534000",
    "160108.534000",
    "160110.534000",
    "160112.535000",
    "160114.535000",
    "160116.534000",
    "160118.533000",
    "160120.533000",
    "160122.533000",
    "160124.534000",
    "160126.535000",
    "160128.535000",
    "160131.034000",
    "160132.535000",
    "160134.534000",
    "160136.534000",
    "160138.533000",
    "160140.533000",
    "160142.534000",
    "160145.035000",
    "160146.534000",
    "160148.534000",
    "160150.534000",
    "160153.033000",
    "160154.533000",
    "160156.533000",
    "160158.535000",
    "160200.534000",
    "160202.535000",
    "160204.534000",
    "160207.034000",
    "160208.534000",
    "160210.534000",
    "160212.533000",
    "160214.533000",
    "160216.535000",
    "160218.534000",
    "160220.535000",
    "160222.534000",
    "160224.534000",
    "160226.535000",
    "160228.533000",
    "160230.533000",
    "160232.534000",
    "160234.535000",
    "160236.535000",
    "160239.034000",
    "160240.535000",
    "160243.034000",
    "160244.534000",
    "160246.534000",
    "160248.533000",
    "160250.533000",
    "160252.534000",
    "160254.534000",
    "160256.535000",
    "160258.534000",
    "160300.534000",
    "160302.533000",
    "160304.533000",
    "160307.033000",
    "160309.034000",
    "160310.534000",
    "160313.034000",
    "160315.035000",
    "160316.535000",
    "160318.534000",
    "160320.533000",
    "160322.533000",
    "160324.533000",
    "160326.534000",
    "160328.535000",
    "160330.534000",
    "160332.534000",
    "160335.035000",
    "160336.534000",
    "160338.533000",
    "160340.534000",
    "160342.533000",
    "160344.534000",
    "160346.535000",
    "160348.534000",
    "160350.534000",
    "160352.534000",
    "160354.534000",
    "160356.533000",
    "160358.533000",
    "160400.535000",
    "160402.535000",
    "160404.534000",
    "160406.534000",
    "160409.035000",
    "160410.535000",
    "160412.533000",
    "160414.533000",
    "160416.534000",
    "160418.535000",
    "160420.534000",
    "160422.535000",
    "160424.534000",
    "160426.534000",
    "160429.034000",
    "160430.533000",
    "160432.533000",
    "160434.533000",
    "160436.534000",
    "160438.534000",
    "160440.534000",
    "160442.534000",
    "160444.535000",
    "160446.534000",
    "160448.533000",
    "160450.533000",
    "160452.533000",
    "160454.534000",
    "160456.534000",
    "160458.534000",
    "160500.535000",
    "160502.534000",
    "160504.534000",
    "160506.533000",
    "160508.533000",
    "160510.534000",
    "160512.535000",
    "160514.535000",
    "160517.034000",
    "160518.534000",
    "160520.535000",
    "160523.033000",
    "160524.534000",
    "160527.033000",
    "160528.535000",
    "160530.535000",
    "160532.534000",
    "160534.534000",
    "160536.534000",
    "160538.534000",
    "160540.534000",
    "160542.533000",
    "160544.533000",
    "160546.535000",
    "160548.534000",
    "160550.534000",
    "160552.534000",
    "160555.035000",
    "160556.535000",
    "160558.533000",
    "160600.534000",
    "160602.533000",
    "160605.035000",
    "160607.035000",
    "160608.535000",
    "160610.535000",
    "160612.534000",
    "160614.534000",
    "160616.533000",
    "160618.533000",
    "160620.535000",
    "160622.535000",
    "160624.535000",
    "160626.535000",
    "160628.534000",
    "160630.535000",
    "160632.534000",
    "160634.534000",
    "160636.533000",
    "160638.534000",
    "160640.534000",
    "160642.534000",
    "160644.534000",
    "160646.534000",
    "160649.035000",
    "160650.533000",
    "160652.534000",
    "160654.533000",
    "160656.534000",
    "160658.535000",
    "160700.534000",
    "160702.535000",
    "160704.534000",
    "160706.535000",
    "160708.534000",
    "160710.533000",
    "160713.034000",
    "160714.534000",
    "160716.535000",
    "160718.534000",
    "160720.534000",
    "160722.535000",
    "160724.534000",
    "160726.533000",
    "160728.533000",
    "160731.035000",
    "160732.534000",
    "160734.535000",
    "160736.534000",
    "160738.535000",
    "160740.535000",
    "160742.534000",
    "160744.533000",
    "160746.533000",
    "160748.535000",
    "160751.034000",
    "160752.535000",
    "160754.534000",
    "160756.534000",
    "160758.466000"
   ],
   "InstanceNumber": [
    1,
    2,
    3,
    4,
    5,
    6,
    7,
    8,
    9,
    10,
    11,
    12,
    13,
    14,
    15,
    16,
    17,
    18,
    19,
    20,
    21,
    22,
    23,
    24,
    25,
    26,
    27,
    28,
    29,
    30,
    31,
    32,
    33,
    34,
    35,
    36,
    37,
    38,
    39,
    40,
    41,
    42,
    43,
    44,
    45,
    46,
    47,
    48,
    49,
    50,
    51,
    52,
    53,
    54,
    55,
    56,
    57,
    58,
    59,
    60,
    61,
    62,
    63,
    64,
    65,
    66,
    67,
    68,
    69,
    70,
    71,
    72,
    73,
    74,
    75,
    76,
    77,
    78,
    79,
    80,
    81,
    82,
    83,
    84,
    85,
    86,
    87,
    88,
    89,
    90,
    91,
    92,
    93,
    94,
    95,
    96,
    97,
    98,
    99,
    100,
    101,
    102,
    103,
    104,
    105,
    106,
    107,
    108,
    109,
    110,
    111,
    112,
    113,
    114,
    115,
    116,
    117,
    118,
    119,
    120,
    121,
    122,
    123,
    124,
    125,
    126,
    127,
    128,
    129,
    130,
    131,
    132,
    133,
    134,
    135,
    136,
    137,
    138,
    139,
    140,
    141,
    142,
    143,
    144,
    145,
    146,
    147,
    148,
    149,
    150,
    151,
    152,
    153,
    154,
    155,
    156,
    157,
    158,
    159,
    160,
    161,
    162,
    163,
    164,
    165,
    166,
    167,
    168,
    169,
    170,
    171,
    172,
    173,
    174,
    175,
    176,
    177,
    178,
    179,
    180,
    181,
    182,
    183,
    184,
    185,
    186,
    187,
    188,
    189,
    190,
    191,
    192,
    193,
    194,
    195,
    196,
    197,
    198,
    199,
    200,
    201,
    202,
    203,
    204,
    205,
    206,
    207,
    208,
    209,
    210,
    211,
    212,
    213,
    214,
    215,
    216,
    217,
    218,
    219,
    220,
    221,
    222,
    223,
    224,
    225,
    226,
    227,
    228,
    229,
    230,
    231,
    232,
    233,
    234,
    235,
    236,
    237,
    238,
    239,
    240,
    241
   ],
   "LargestImagePixelValue": [
    2856,
    2774,
    2746,
    2773,
    2786,
    2781,
    2807,
    2797,
    2798,
    2806,
    2781,
    2776,
    2751,
    2812,
    2797,
    2852,
    2896,
    2854,
    2835,
    2785,
    2767,
    2806,
    2820,
    2829,
    2831,
    2785,
    2786,
    2790,
    2763,
    2781,
    2817,
    2788,
    2784,
    2786,
    2772,
    2823,
    2807,
    2808,
    2777,
    2805,
    2804,
    2756,
    2785,
    2820,
    2813,
    2824,
    2836,
    2855,
    2836,
    2786,
    2800,
    2771,
    2801,
    2786,
    2775,
    2795,
    2772,
    2788,
    2820,
    2813,
    2802,
    2785,
    2810,
    2813,
    2803,
    2793,
    2801,
    2819,
    2801,
    2843,
    2828,
    2857,
    2798,
    2786,
    2806,
    2816,
    2833,
    2835,
    2843,
    2803,
    2803,
    2780,
    2813,
    2814,
    2827,
    2830,
    2808,
    2810,
    2791,
    2806,
    2819,
    2799,
    2820,
    2801,
    2801,
    2788,
    2796,
    2820,
    2822,
    2795,
    2780,
    2800,
    2784,
    2807,
    2814,
    2840,
    2829,
    2813,
    2806,
    2792,
    2864,
    2825,
    2827,
    2821,
    2829,
    2813,
    2793,
    2787,
    2788,
    2790,
    2805,
    2770,
    2775,
    2787,
    2795,
    2795,
    2748,
    2793,
    2804,
    2812,
    2762,
    2779,
    2772,
    2749,
    2735,
    2763,
    2747,
    2765,
    2753,
    2741,
    2754,
    2748,
    2731,
    2731,
    2775,
    2729,
    2741,
    2736,
    2714,
    2750,
    2762,
    2736,
    2753,
    2723,
    2755,
    2753,
    2743,
    2748,
    2737,
    2767,
    2753,
    2731,
    2727,
    2743,
    2726,
    2724,
    2731,
    2732,
    2739,
    2734,
    2728,
    2715,
    2747,
    2767,
    2749,
    2758,
    2746,
    2730,
    2785,
    2728,
    2790,
    2748,
    2750,
    2763,
    2758,
    2771,
    2761,
    2743,
    2731,
    2745,
    2743,
    2775,
    2737,
    2739,
    2742,
    2758,
    2754,
    2758,
    2749,
    2746,
    2739,
    2757,
    2760,
    2758,
    2756,
    2752,
    2731,
    2729,
    2744,
    2757,
    2718,
    2708,
    2749,
    2711,
    2714,
    2712,
    2709,
    2717,
    2750,
    2741,
    2736,
    2741,
    2756,
    2711,
    2738,
    2731,
    2734,
    2702,
    2768,
    2719,
    2737,
    2731,
    2707,
    2749,
    2731,
    2739,
    2806,
    2706,
    2724,
    2712,
    2692
   ],
   "WindowCenter": [
    736.0,
    734.0,
    733.0,
    734.0,
    734.0,
    734.0,
    734.0,
    733.0,
    733.0,
    733.0,
    734.0,
    734.0,
    734.0,
    734.0,
    733.0,
    734.0,
    734.0,
    733.0,
    734.0,
    734.0,
    734.0,
    734.0,
    734.0,
    733.0,
    734.0,
    734.0,
    734.0,
    734.0,
    733.0,
    733.0,
    733.0,
    733.0,
    733.0,
    734.0,
    734.0,
    733.0,
    733.0,
    733.0,
    734.0,
    734.0,
    734.0,
    733.0,
    733.0,
    734.0,
    734.0,
    733.0,
    733.0,
    733.0,
    733.0,
    731.0,
    731.0,
    732.0,
    732.0,
    732.0,
    732.0,
    732.0,
    733.0,
    733.0,
    733.0,
    734.0,
    733.0,
    733.0,
    734.0,
    733.0,
    733.0,
    733.0,
    733.0,
    733.0,
    733.0,
    733.0,
    734.0,
    733.0,
    733.0,
    733.0,
    733.0,
    733.0,
    734.0,
    734.0,
    733.0,
    732.0,
    732.0,
    732.0,
    732.0,
    732.0,
    733.0,
    734.0,
    732.0,
    732.0,
    732.0,
    732.0,
    733.0,
    733.0,
    734.0,
    735.0,
    735.0,
    734.0,
    734.0,
    734.0,
    734.0,
    734.0,
    733.0,
    734.0,
    733.0,
    733.0,
    734.0,
    734.0,
    734.0,
    733.0,
    733.0,
    733.0,
    733.0,
    734.0,
    733.0,
    732.0,
    733.0,
    734.0,
    734.0,
    733.0,
    732.0,
    732.0,
    734.0,
    733.0,
    733.0,
    733.0,
    733.0,
    733.0,
    732.0,
    732.0,
    733.0,
    733.0,
    733.0,
    734.0,
    733.0,
    732.0,
    732.0,
    734.0,
    734.0,
    735.0,
    735.0,
    734.0,
    734.0,
    734.0,
    735.0,
    736.0,
    735.0,
    734.0,
    735.0,
    735.0,
    734.0,
    735.0,
    733.0,
    734.0,
    734.0,
    733.0,
    733.0,
    733.0,
    733.0,
    734.0,
    734.0,
    733.0,
    733.0,
    733.0,
    733.0,
    733.0,
    733.0,
    733.0,
    732.0,
    732.0,
    733.0,
    733.0,
    733.0,
    733.0,
    733.0,
    734.0,
    733.0,
    733.0,
    733.0,
    732.0,
    733.0,
    734.0,
    735.0,
    734.0,
    733.0,
    731.0,
    731.0,
    733.0,
    734.0,
    735.0,
    735.0,
    734.0,
    733.0,
    733.0,
    733.0,
    733.0,
    734.0,
    734.0,
    734.0,
    734.0,
    733.0,
    733.0,
    734.0,
    735.0,
    735.0,
    734.0,
    734.0,
    734.0,
    735.0,
    735.0,
    735.0,
    734.0,
    733.0,
    734.0,
    736.0,
    735.0,
    733.0,
    732.0,
    732.0,
    733.0,
    734.0,
    733.0,
    734.0,
    735.0,
    736.0,
    735.0,
    734.0,
    734.0,
    733.0,
    734.0,
    735.0,
    735.0,
    735.0,
    734.0,
