{
 "AcquisitionMatrixPE": 100,
 "AcquisitionNumber": 1,
 "AcquisitionTime": "13:08:13.585000",
 "BandwidthPerPixelPhaseEncode": 18.519,
 "BaseResolution": 100,
 "BodyPartExamined": "BRAIN",
 "ConsistencyInfo": "N4_VE11C_LATEST_20160120",
 "ConversionSoftware": "dcm2niix",
 "ConversionSoftwareVersion": "v1.0.20180622 GCC4.9.2",
 "DerivedVendorReportedEchoSpacing": 0.000539986,
 "DeviceSerialNumber": "166078",
 "DwellTime": 2.1e-06,
 "EchoTime": 0.034,
 "EchoTrainLength": 100,
 "EffectiveEchoSpacing": 0.000539986,
 "FlipAngle": 90,
 "ImageOrientationPatientDICOM": [
  0.999535,
  -0.00861161,
  -0.0292462,
  -1.59786e-08,
  0.959278,
  -0.282462
 ],
 "ImageType": [
  "ORIGINAL",
  "PRIMARY",
  "M",
  "ND",
  "MOSAIC"
 ],
 "InPlanePhaseEncodingDirectionDICOM": "COL",
 "InstitutionAddress": "Street_StreetNo_Bei_Jing_District_CN_ZIP",
 "InstitutionName": "BeiJing_Normal_University",
 "InstitutionalDepartmentName": "Department",
 "MRAcquisitionType": "2D",
 "MagneticFieldStrength": 3,
 "Manufacturer": "Siemens",
 "ManufacturersModelName": "Prisma",
 "Modality": "MR",
 "MultibandAccelerationFactor": 3,
 "PartialFourier": 1,
 "PatientPosition": "HFS",
 "PercentPhaseFOV": 100,
 "PhaseEncodingDirection": "j-",
 "PhaseEncodingSteps": 100,
 "PhaseResolution": 1,
 "PixelBandwidth": 2380,
 "ProcedureStepDescription": "BNU_P2018_64CH_Zhen.ZongLei",
 "ProtocolName": "bold_100x100_s3_2x2x2_static_256",
 "PulseSequenceDetails": "%SiemensSeq%_ep2d_bold",
 "ReceiveCoilActiveElements": "HC1-7;NC1",
 "ReceiveCoilName": "HeadNeck_64",
 "ReconMatrixPE": 100,
 "RepetitionTime": 2,
 "SAR": 0.065753,
 "ScanOptions": "FS",
 "ScanningSequence": "EP",
 "SequenceName": "_epfid2d1_100",
 "SequenceVariant": "SK",
 "SeriesDescription": "bold_100x100_s3_2x2x2_static_256",
 "SeriesNumber": 3,
 "ShimSetting": [
  -5454,
  -11448,
  -1307,
  395,
  -11,
  -450,
  -256,
  67
 ],
 "SliceThickness": 2,
 "SliceTiming": [
  1.485,
  0,
  0.99,
  0.0825,
  1.0725,
  0.165,
  1.155,
  0.2475,
  1.2375,
  0.33,
  1.32,
  0.4125,
  1.4025,
  0.5775,
  1.5675,
  0.66,
  1.65,
  0.7425,
  1.7325,
  0.825,
  1.815,
  0.9075,
  1.8975,
  0.495,
  1.485,
  0,
  0.99,
  0.0825,
  1.0725,
  0.165,
  1.155,
  0.2475,
  1.2375,
  0.33,
  1.32,
  0.4125,
  1.4025,
  0.5775,
  1.5675,
  0.66,
  1.65,
  0.7425,
  1.7325,
  0.825,
  1.815,
  0.9075,
  1.8975,
  0.495,
  1.485,
  0,
  0.99,
  0.0825,
  1.0725,
  0.165,
  1.155,
  0.2475,
  1.2375,
  0.33,
  1.32,
  0.4125,
  1.4025,
  0.5775,
  1.5675,
  0.66,
  1.65,
  0.7425,
  1.7325,
  0.825,
  1.815,
  0.9075,
  1.8975,
  0.495
 ],
 "SoftwareVersions": "syngo_MR_E11",
 "SpacingBetweenSlices": 2,
 "StationName": "AWP166078",
 "TaskName": "imagenet",
 "TotalReadoutTime": 0.0534586,
 "TxRefAmp": 212.528,
 "dcmmeta_affine": [
  [
   -1.9990702867507935,
   -3.195725994942222e-08,
   -0.06097547337412834,
   100.78273010253906
  ],
  [
   0.01722322404384613,
   1.9185569286346436,
   -0.56466144323349,
   -73.45836639404297
  ],
  [
   -0.05849246680736542,
   0.5649240612983704,
   1.9176651239395142,
   -109.64268493652344
  ],
  [
   0.0,
   0.0,
   0.0,
   1.0
  ]
 ],
 "dcmmeta_reorient_transform": [
  [
   0.0,
   -1.0,
   0.0,
   99.0
  ],
  [
   1.0,
   0.0,
   0.0,
   0.0
  ],
  [
   0.0,
   0.0,
   1.0,
   0.0
  ],
  [
   0.0,
   0.0,
   0.0,
   1.0
  ]
 ],
 "dcmmeta_shape": [
  100,
  100,
  72,
  256
 ],
 "dcmmeta_slice_dim": 2,
 "dcmmeta_version": 0.6,
 "global": {
  "const": {
   "AcquisitionMatrix": [
    100,
    0,
    0,
    100
   ],
   "AngioFlag": "N",
   "BitsAllocated": 16,
   "BitsStored": 12,
   "BodyPartExamined": "BRAIN",
   "Columns": 900,
   "EchoNumbers": 1,
   "EchoTime": 34.0,
   "EchoTrainLength": 100,
   "FlipAngle": 90.0,
   "HighBit": 11,
   "ImageOrientationPatient": [
    0.99953514094058,
    -0.0086116119732,
    -0.029246233332,
    -1.597863e-08,
    0.95927848362654,
    -0.2824620166521
   ],
   "ImagePositionPatient": [
    -900.41082656182,
    -877.01227288217,
    195.65139288121
   ],
   "ImageType": [
    "ORIGINAL",
    "PRIMARY",
    "M",
    "ND",
    "MOSAIC"
   ],
   "ImagedNucleus": "1H",
   "ImagingFrequency": 123.257787,
   "InPlanePhaseEncodingDirection": "COL",
   "MRAcquisitionType": "2D",
   "MagneticFieldStrength": 3.0,
   "Manufacturer": "SIEMENS",
   "ManufacturerModelName": "Prisma",
   "Modality": "MR",
   "NumberOfAverages": 1.0,
   "NumberOfPhaseEncodingSteps": 100,
   "PercentPhaseFieldOfView": 100.0,
   "PercentSampling": 100.0,
   "PerformedProcedureStepStartTime": "130522.753000",
   "PhotometricInterpretation": "MONOCHROME2",
   "PixelBandwidth": 2380.0,
   "PixelRepresentation": 0,
   "PixelSpacing": [
    2.0,
    2.0
   ],
   "ProtocolName": "bold_100x100_s3_2x2x2_static_256",
   "RepetitionTime": 2000.0,
   "Rows": 900,
   "SAR": 0.06575302915584,
   "SamplesPerPixel": 1,
   "ScanOptions": "FS",
   "ScanningSequence": "EP",
   "SequenceName": "*epfid2d1_100",
   "SequenceVariant": "SK",
   "SeriesDescription": "bold_100x100_s3_2x2x2_static_256",
   "SeriesNumber": 3,
   "SeriesTime": "130816.658000",
   "SliceLocation": -87.462062002114,
   "SliceThickness": 2.0,
   "SmallestImagePixelValue": 0,
   "SoftwareVersions": "syngo MR E11",
   "SpacingBetweenSlices": 2.0000000244009,
   "SpecificCharacterSet": "ISO_IR 100",
   "StudyID": "1",
   "StudyTime": "130522.632000",
   "TransmitCoilName": "Body",
   "VariableFlipAngleFlag": "N",
   "WindowCenterWidthExplanation": "Algo1",
   "dBdt": 0.0
  },
  "slices": {}
 },
 "time": {
  "samples": {
   "AcquisitionNumber": [
    1,
    2,
    3,
    4,
    5,
    6,
    7,
    8,
    9,
    10,
    11,
    12,
    13,
    14,
    15,
    16,
    17,
    18,
    19,
    20,
    21,
    22,
    23,
    24,
    25,
    26,
    27,
    28,
    29,
    30,
    31,
    32,
    33,
    34,
    35,
    36,
    37,
    38,
    39,
    40,
    41,
    42,
    43,
    44,
    45,
    46,
    47,
    48,
    49,
    50,
    51,
    52,
    53,
    54,
    55,
    56,
    57,
    58,
    59,
    60,
    61,
    62,
    63,
    64,
    65,
    66,
    67,
    68,
    69,
    70,
    71,
    72,
    73,
    74,
    75,
    76,
    77,
    78,
    79,
    80,
    81,
    82,
    83,
    84,
    85,
    86,
    87,
    88,
    89,
    90,
    91,
    92,
    93,
    94,
    95,
    96,
    97,
    98,
    99,
    100,
    101,
    102,
    103,
    104,
    105,
    106,
    107,
    108,
    109,
    110,
    111,
    112,
    113,
    114,
    115,
    116,
    117,
    118,
    119,
    120,
    121,
    122,
    123,
    124,
    125,
    126,
    127,
    128,
    129,
    130,
    131,
    132,
    133,
    134,
    135,
    136,
    137,
    138,
    139,
    140,
    141,
    142,
    143,
    144,
    145,
    146,
    147,
    148,
    149,
    150,
    151,
    152,
    153,
    154,
    155,
    156,
    157,
    158,
    159,
    160,
    161,
    162,
    163,
    164,
    165,
    166,
    167,
    168,
    169,
    170,
    171,
    172,
    173,
    174,
    175,
    176,
    177,
    178,
    179,
    180,
    181,
    182,
    183,
    184,
    185,
    186,
    187,
    188,
    189,
    190,
    191,
    192,
    193,
    194,
    195,
    196,
    197,
    198,
    199,
    200,
    201,
    202,
    203,
    204,
    205,
    206,
    207,
    208,
    209,
    210,
    211,
    212,
    213,
    214,
    215,
    216,
    217,
    218,
    219,
    220,
    221,
    222,
    223,
    224,
    225,
    226,
    227,
    228,
    229,
    230,
    231,
    232,
    233,
    234,
    235,
    236,
    237,
    238,
    239,
    240,
    241,
    242,
    243,
    244,
    245,
    246,
    247,
    248,
    249,
    250,
    251,
    252,
    253,
    254,
    255,
    256
   ],
   "AcquisitionTime": [
    "130813.585000",
    "130815.585000",
    "130817.585000",
    "130819.585000",
    "130821.585000",
    "130823.585000",
    "130825.585000",
    "130827.585000",
    "130829.585000",
    "130831.585000",
    "130833.585000",
    "130835.585000",
    "130837.585000",
    "130839.585000",
    "130841.585000",
    "130843.585000",
    "130845.585000",
    "130847.585000",
    "130849.585000",
    "130851.585000",
    "130853.585000",
    "130855.585000",
    "130857.585000",
    "130859.585000",
    "130901.585000",
    "130903.585000",
    "130905.585000",
    "130907.585000",
    "130909.585000",
    "130911.585000",
    "130913.585000",
    "130915.585000",
    "130917.585000",
    "130919.585000",
    "130921.585000",
    "130923.585000",
    "130925.585000",
    "130927.585000",
    "130929.585000",
    "130931.585000",
    "130933.585000",
    "130935.585000",
    "130937.585000",
    "130939.585000",
    "130941.585000",
    "130943.585000",
    "130945.585000",
    "130947.585000",
    "130949.585000",
    "130951.585000",
    "130953.585000",
    "130955.585000",
    "130957.585000",
    "130959.585000",
    "131001.585000",
    "131003.585000",
    "131005.585000",
    "131007.585000",
    "131009.585000",
    "131011.585000",
    "131013.585000",
    "131015.585000",
    "131017.585000",
    "131019.585000",
    "131021.585000",
    "131023.585000",
    "131025.585000",
    "131027.585000",
    "131029.585000",
    "131031.585000",
    "131033.585000",
    "131035.585000",
    "131037.585000",
    "131039.585000",
    "131041.585000",
    "131043.585000",
    "131045.585000",
    "131047.585000",
    "131049.585000",
    "131051.585000",
    "131053.585000",
    "131055.585000",
    "131057.585000",
    "131059.585000",
    "131101.585000",
    "131103.585000",
    "131105.585000",
    "131107.585000",
    "131109.585000",
    "131111.585000",
    "131113.585000",
    "131115.585000",
    "131117.585000",
    "131119.585000",
    "131121.585000",
    "131123.585000",
    "131125.585000",
    "131127.585000",
    "131129.585000",
    "131131.585000",
    "131133.585000",
    "131135.585000",
    "131137.585000",
    "131139.585000",
    "131141.585000",
    "131143.585000",
    "131145.585000",
    "131147.585000",
    "131149.585000",
    "131151.585000",
    "131153.585000",
    "131155.585000",
    "131157.585000",
    "131159.585000",
    "131201.585000",
    "131203.585000",
    "131205.585000",
    "131207.585000",
    "131209.585000",
    "131211.585000",
    "131213.585000",
    "131215.585000",
    "131217.585000",
    "131219.585000",
    "131221.585000",
    "131223.585000",
    "131225.585000",
    "131227.585000",
    "131229.585000",
    "131231.585000",
    "131233.585000",
    "131235.585000",
    "131237.585000",
    "131239.585000",
    "131241.585000",
    "131243.585000",
    "131245.585000",
    "131247.585000",
    "131249.585000",
    "131251.585000",
    "131253.585000",
    "131255.585000",
    "131257.585000",
    "131259.585000",
    "131301.585000",
    "131303.585000",
    "131305.585000",
    "131307.585000",
    "131309.585000",
    "131311.585000",
    "131313.585000",
    "131315.585000",
    "131317.585000",
    "131319.585000",
    "131321.585000",
    "131323.585000",
    "131325.585000",
    "131327.585000",
    "131329.585000",
    "131331.585000",
    "131333.585000",
    "131335.585000",
    "131337.585000",
    "131339.585000",
    "131341.585000",
    "131343.585000",
    "131345.585000",
    "131347.585000",
    "131349.585000",
    "131351.585000",
    "131353.585000",
    "131355.585000",
    "131357.585000",
    "131359.585000",
    "131401.585000",
    "131403.585000",
    "131405.585000",
    "131407.585000",
    "131409.585000",
    "131411.585000",
    "131413.585000",
    "131415.585000",
    "131417.585000",
    "131419.585000",
    "131421.585000",
    "131423.585000",
    "131425.585000",
    "131427.585000",
    "131429.585000",
    "131431.585000",
    "131433.585000",
    "131435.585000",
    "131437.585000",
    "131439.585000",
    "131441.585000",
    "131443.585000",
    "131445.585000",
    "131447.585000",
    "131449.585000",
    "131451.585000",
    "131453.585000",
    "131455.585000",
    "131457.585000",
    "131459.585000",
    "131501.585000",
    "131503.585000",
    "131505.585000",
    "131507.585000",
    "131509.585000",
    "131511.585000",
    "131513.585000",
    "131515.585000",
    "131517.585000",
    "131519.585000",
    "131521.585000",
    "131523.585000",
    "131525.585000",
    "131527.585000",
    "131529.585000",
    "131531.585000",
    "131533.585000",
    "131535.585000",
    "131537.585000",
    "131539.585000",
    "131541.585000",
    "131543.585000",
    "131545.585000",
    "131547.585000",
    "131549.585000",
    "131551.585000",
    "131553.585000",
    "131555.585000",
    "131557.585000",
    "131559.585000",
    "131601.585000",
    "131603.585000",
    "131605.585000",
    "131607.585000",
    "131609.585000",
    "131611.585000",
    "131613.585000",
    "131615.585000",
    "131617.585000",
    "131619.585000",
    "131621.585000",
    "131623.585000",
    "131625.585000",
    "131627.585000",
    "131629.585000",
    "131631.585000",
    "131633.585000",
    "131635.585000",
    "131637.585000",
    "131639.585000",
    "131641.585000",
    "131643.585000"
   ],
   "ContentTime": [
    "130816.662000",
    "130818.158000",
    "130820.159000",
    "130822.158000",
    "130824.158000",
    "130826.159000",
    "130828.158000",
    "130830.159000",
    "130832.159000",
    "130834.157000",
    "130836.159000",
    "130838.158000",
    "130840.159000",
    "130842.159000",
    "130844.159000",
    "130846.158000",
    "130848.158000",
    "130850.158000",
    "130852.158000",
    "130854.158000",
    "130856.159000",
    "130858.158000",
    "130900.158000",
    "130902.159000",
    "130904.158000",
    "130906.159000",
    "130908.158000",
    "130910.158000",
    "130912.159000",
    "130914.158000",
    "130916.158000",
    "130918.158000",
    "130920.159000",
    "130922.159000",
    "130924.159000",
    "130926.158000",
    "130928.159000",
    "130930.159000",
    "130932.158000",
    "130934.159000",
    "130936.158000",
    "130938.158000",
    "130940.159000",
    "130942.159000",
    "130944.158000",
    "130946.159000",
    "130948.158000",
    "130950.159000",
    "130952.158000",
    "130954.158000",
    "130956.158000",
    "130958.158000",
    "131000.158000",
    "131002.159000",
    "131004.159000",
    "131006.158000",
    "131008.159000",
    "131010.159000",
    "131012.158000",
    "131014.159000",
    "131016.159000",
    "131018.158000",
    "131020.159000",
    "131022.158000",
    "131024.159000",
    "131025.658000",
    "131028.158000",
    "131030.158000",
    "131032.159000",
    "131034.158000",
    "131036.157000",
    "131038.158000",
    "131040.158000",
    "131042.159000",
    "131044.158000",
    "131046.158000",
    "131048.159000",
    "131050.159000",
    "131052.159000",
    "131054.157000",
    "131056.158000",
    "131058.158000",
    "131100.158000",
    "131102.158000",
    "131104.158000",
    "131106.158000",
    "131108.158000",
    "131110.158000",
    "131112.158000",
    "131114.158000",
    "131116.158000",
    "131118.159000",
    "131120.158000",
    "131122.159000",
    "131124.159000",
    "131126.159000",
    "131128.158000",
    "131130.158000",
    "131132.158000",
    "131134.158000",
    "131136.158000",
    "131138.159000",
    "131140.159000",
    "131142.159000",
    "131144.159000",
    "131146.158000",
    "131148.159000",
    "131150.158000",
    "131152.158000",
    "131154.158000",
    "131156.158000",
    "131158.158000",
    "131200.158000",
    "131202.158000",
    "131204.157000",
    "131206.158000",
    "131208.158000",
    "131210.158000",
    "131212.158000",
    "131214.158000",
    "131216.158000",
    "131218.158000",
    "131220.158000",
    "131222.159000",
    "131224.159000",
    "131226.158000",
    "131228.159000",
    "131230.159000",
    "131232.158000",
    "131234.159000",
    "131236.158000",
    "131238.158000",
    "131240.175000",
    "131242.159000",
    "131244.159000",
    "131246.159000",
    "131248.159000",
    "131250.159000",
    "131252.159000",
    "131254.158000",
    "131256.157000",
    "131258.159000",
    "131300.159000",
    "131302.159000",
    "131304.158000",
    "131306.158000",
    "131308.159000",
    "131310.159000",
    "131312.159000",
    "131314.157000",
    "131316.159000",
    "131318.159000",
    "131320.159000",
    "131322.159000",
    "131324.158000",
    "131326.159000",
    "131328.158000",
    "131330.158000",
    "131332.158000",
    "131334.158000",
    "131336.159000",
    "131338.159000",
    "131340.158000",
    "131342.159000",
    "131344.159000",
    "131346.159000",
    "131348.158000",
    "131350.159000",
    "131352.159000",
    "131354.159000",
    "131356.159000",
    "131358.159000",
    "131400.159000",
    "131402.159000",
    "131404.159000",
    "131406.158000",
    "131408.159000",
    "131410.159000",
    "131412.159000",
    "131414.159000",
    "131416.159000",
    "131418.158000",
    "131420.159000",
    "131422.159000",
    "131424.158000",
    "131426.159000",
    "131428.158000",
    "131430.158000",
    "131432.159000",
    "131434.158000",
    "131436.159000",
    "131438.158000",
    "131440.158000",
    "131442.159000",
    "131444.159000",
    "131446.159000",
    "131448.159000",
    "131450.159000",
    "131452.159000",
    "131454.158000",
    "131456.159000",
    "131458.157000",
    "131500.158000",
    "131502.159000",
    "131504.159000",
    "131506.158000",
    "131508.159000",
    "131510.158000",
    "131512.159000",
    "131514.159000",
    "131516.158000",
    "131518.159000",
    "131520.159000",
    "131522.159000",
    "131524.159000",
    "131526.158000",
    "131528.158000",
    "131530.158000",
    "131532.159000",
    "131534.157000",
    "131536.159000",
    "131538.159000",
    "131540.159000",
    "131542.159000",
    "131544.158000",
    "131546.159000",
    "131548.159000",
    "131550.158000",
    "131552.158000",
    "131554.158000",
    "131556.159000",
    "131558.159000",
    "131600.158000",
    "131602.159000",
    "131604.159000",
    "131606.159000",
    "131608.158000",
    "131610.158000",
    "131612.159000",
    "131614.159000",
    "131616.159000",
    "131618.159000",
    "131620.158000",
    "131622.158000",
    "131624.159000",
    "131626.157000",
    "131628.159000",
    "131630.159000",
    "131632.158000",
    "131634.158000",
    "131636.159000",
    "131638.158000",
    "131640.158000",
    "131642.159000",
    "131644.158000",
    "131645.730000"
   ],
   "InstanceCreationTime": [
    "130816.662000",
    "130818.158000",
    "130820.159000",
    "130822.158000",
    "130824.158000",
    "130826.159000",
    "130828.158000",
    "130830.159000",
    "130832.159000",
    "130834.157000",
    "130836.159000",
    "130838.158000",
    "130840.159000",
    "130842.159000",
    "130844.159000",
    "130846.158000",
    "130848.158000",
    "130850.158000",
    "130852.158000",
    "130854.158000",
    "130856.159000",
    "130858.158000",
    "130900.158000",
    "130902.159000",
    "130904.158000",
    "130906.159000",
    "130908.158000",
    "130910.158000",
    "130912.159000",
    "130914.158000",
    "130916.158000",
    "130918.158000",
    "130920.159000",
    "130922.159000",
    "130924.159000",
    "130926.158000",
    "130928.159000",
    "130930.159000",
    "130932.158000",
    "130934.159000",
    "130936.158000",
    "130938.158000",
    "130940.159000",
    "130942.159000",
    "130944.158000",
    "130946.159000",
    "130948.158000",
    "130950.159000",
    "130952.158000",
    "130954.158000",
    "130956.158000",
    "130958.158000",
    "131000.158000",
    "131002.159000",
    "131004.159000",
    "131006.158000",
    "131008.159000",
    "131010.159000",
    "131012.158000",
    "131014.159000",
    "131016.159000",
    "131018.158000",
    "131020.159000",
    "131022.158000",
    "131024.159000",
    "131025.658000",
    "131028.158000",
    "131030.158000",
    "131032.159000",
    "131034.158000",
    "131036.157000",
    "131038.158000",
    "131040.158000",
    "131042.159000",
    "131044.158000",
    "131046.158000",
    "131048.159000",
    "131050.159000",
    "131052.159000",
    "131054.157000",
    "131056.158000",
    "131058.158000",
    "131100.158000",
    "131102.158000",
    "131104.158000",
    "131106.158000",
    "131108.158000",
    "131110.158000",
    "131112.158000",
    "131114.158000",
    "131116.158000",
    "131118.159000",
    "131120.158000",
    "131122.159000",
    "131124.159000",
    "131126.159000",
    "131128.158000",
    "131130.158000",
    "131132.158000",
    "131134.158000",
    "131136.158000",
    "131138.159000",
    "131140.159000",
    "131142.159000",
    "131144.159000",
    "131146.158000",
    "131148.159000",
    "131150.158000",
    "131152.158000",
    "131154.158000",
    "131156.158000",
    "131158.158000",
    "131200.158000",
    "131202.158000",
    "131204.157000",
    "131206.158000",
    "131208.158000",
    "131210.158000",
    "131212.158000",
    "131214.158000",
    "131216.158000",
    "131218.158000",
    "131220.158000",
    "131222.159000",
    "131224.159000",
    "131226.158000",
    "131228.159000",
    "131230.159000",
    "131232.158000",
    "131234.159000",
    "131236.158000",
    "131238.158000",
    "131240.175000",
    "131242.159000",
    "131244.159000",
    "131246.159000",
    "131248.159000",
    "131250.159000",
    "131252.159000",
    "131254.158000",
    "131256.157000",
    "131258.159000",
    "131300.159000",
    "131302.159000",
    "131304.158000",
    "131306.158000",
    "131308.159000",
    "131310.159000",
    "131312.159000",
    "131314.157000",
    "131316.159000",
    "131318.159000",
    "131320.159000",
    "131322.159000",
    "131324.158000",
    "131326.159000",
    "131328.158000",
    "131330.158000",
    "131332.158000",
    "131334.158000",
    "131336.159000",
    "131338.159000",
    "131340.158000",
    "131342.159000",
    "131344.159000",
    "131346.159000",
    "131348.158000",
    "131350.159000",
    "131352.159000",
    "131354.159000",
    "131356.159000",
    "131358.159000",
    "131400.159000",
    "131402.159000",
    "131404.159000",
    "131406.158000",
    "131408.159000",
    "131410.159000",
    "131412.159000",
    "131414.159000",
    "131416.159000",
    "131418.158000",
    "131420.159000",
    "131422.159000",
    "131424.158000",
    "131426.159000",
    "131428.158000",
    "131430.158000",
    "131432.159000",
    "131434.158000",
    "131436.159000",
    "131438.158000",
    "131440.158000",
    "131442.159000",
    "131444.159000",
    "131446.159000",
    "131448.159000",
    "131450.159000",
    "131452.159000",
    "131454.158000",
    "131456.159000",
    "131458.157000",
    "131500.158000",
    "131502.159000",
    "131504.159000",
    "131506.158000",
    "131508.159000",
    "131510.158000",
    "131512.159000",
    "131514.159000",
    "131516.158000",
    "131518.159000",
    "131520.159000",
    "131522.159000",
    "131524.159000",
    "131526.158000",
    "131528.158000",
    "131530.158000",
    "131532.159000",
    "131534.157000",
    "131536.159000",
    "131538.159000",
    "131540.159000",
    "131542.159000",
    "131544.158000",
    "131546.159000",
    "131548.159000",
    "131550.158000",
    "131552.158000",
    "131554.158000",
    "131556.159000",
    "131558.159000",
    "131600.158000",
    "131602.159000",
    "131604.159000",
    "131606.159000",
    "131608.158000",
    "131610.158000",
    "131612.159000",
    "131614.159000",
    "131616.159000",
    "131618.159000",
    "131620.158000",
    "131622.158000",
    "131624.159000",
    "131626.157000",
    "131628.159000",
    "131630.159000",
    "131632.158000",
    "131634.158000",
    "131636.159000",
    "131638.158000",
    "131640.158000",
    "131642.159000",
    "131644.158000",
    "131645.730000"
   ],
   "InstanceNumber": [
    1,
    2,
    3,
    4,
    5,
    6,
    7,
    8,
    9,
    10,
    11,
    12,
    13,
    14,
    15,
    16,
    17,
    18,
    19,
    20,
    21,
    22,
    23,
    24,
    25,
    26,
    27,
    28,
    29,
    30,
    31,
    32,
    33,
    34,
    35,
    36,
    37,
    38,
    39,
    40,
    41,
    42,
    43,
    44,
    45,
    46,
    47,
    48,
    49,
    50,
    51,
    52,
    53,
    54,
    55,
    56,
    57,
    58,
    59,
    60,
    61,
    62,
    63,
    64,
    65,
    66,
    67,
    68,
    69,
    70,
    71,
    72,
    73,
    74,
    75,
    76,
    77,
    78,
    79,
    80,
    81,
    82,
    83,
    84,
    85,
    86,
    87,
    88,
    89,
    90,
    91,
    92,
    93,
    94,
    95,
    96,
    97,
    98,
    99,
    100,
    101,
    102,
    103,
    104,
    105,
    106,
    107,
    108,
    109,
    110,
    111,
    112,
    113,
    114,
    115,
    116,
    117,
    118,
    119,
    120,
    121,
    122,
    123,
    124,
    125,
    126,
    127,
    128,
    129,
    130,
    131,
    132,
    133,
    134,
    135,
    136,
    137,
    138,
    139,
    140,
    141,
    142,
    143,
    144,
    145,
    146,
    147,
    148,
    149,
    150,
    151,
    152,
    153,
    154,
    155,
    156,
    157,
    158,
    159,
    160,
    161,
    162,
    163,
    164,
    165,
    166,
    167,
    168,
    169,
    170,
    171,
    172,
    173,
    174,
    175,
    176,
    177,
    178,
    179,
    180,
    181,
    182,
    183,
    184,
    185,
    186,
    187,
    188,
    189,
    190,
    191,
    192,
    193,
    194,
    195,
    196,
    197,
    198,
    199,
    200,
    201,
    202,
    203,
    204,
    205,
    206,
    207,
    208,
    209,
    210,
    211,
    212,
    213,
    214,
    215,
    216,
    217,
    218,
    219,
    220,
    221,
    222,
    223,
    224,
    225,
    226,
    227,
    228,
    229,
    230,
    231,
    232,
    233,
    234,
    235,
    236,
    237,
    238,
    239,
    240,
    241,
    242,
    243,
    244,
    245,
    246,
    247,
    248,
    249,
    250,
    251,
    252,
    253,
    254,
    255,
    256
   ],
   "LargestImagePixelValue": [
    3139,
    3002,
    2985,
    2987,
    2911,
    2903,
    2885,
    2855,
    2917,
    2908,
    2921,
    2954,
    2957,
    3011,
    2986,
    2947,
    2979,
    2930,
    2921,
    2981,
    2962,
    2997,
    2969,
    2944,
    2970,
    2989,
    2976,
    2926,
    2939,
    2978,
    2969,
    2934,
    3053,
    2869,
    2956,
    2942,
    2984,
    3014,
    2955,
    2964,
    3015,
    2975,
    3049,
    2910,
    3058,
    2942,
    3041,
    2947,
    2951,
    3012,
    2937,
    3014,
    3059,
    3031,
    3049,
    3092,
    3074,
    3099,
    3017,
    3054,
    3073,
    3020,
    3023,
    2996,
    3021,
    3033,
    3028,
    2972,
    2994,
    3051,
    3042,
    3036,
    3056,
    2987,
    3058,
    2996,
    3073,
    3076,
    3117,
    3066,
    3018,
    3041,
    3050,
    3048,
    3072,
    3027,
    2986,
    2986,
    3074,
    3020,
    3069,
    3033,
    3102,
    3034,
    3046,
    3067,
    2998,
    3041,
    3062,
    3024,
    3057,
    3003,
    3004,
    2954,
    3057,
    3017,
    3032,
    3049,
    3006,
    3072,
    3031,
    3071,
    3032,
    3033,
    3089,
    3009,
    3050,
    3046,
    3076,
    2971,
    3066,
    3039,
    2991,
    3038,
    3028,
    3059,
    2992,
    3005,
    2960,
    2996,
    3013,
    3024,
    3009,
    3024,
    2983,
    3015,
    2994,
    3061,
    2989,
    3034,
    2933,
    3002,
    3018,
    2978,
    3005,
    2963,
    2964,
    3024,
    3053,
    2995,
    2975,
    3009,
    2999,
    2977,
    2965,
    3015,
    2956,
    2974,
    3003,
    2989,
    3015,
    2979,
    2994,
    2965,
    3008,
    2978,
    2997,
    3054,
    2985,
    3008,
    3038,
    3021,
    3025,
    2976,
    3026,
    3045,
    3026,
    3063,
    3055,
    3040,
    3074,
    3052,
    3059,
    3095,
    3094,
    3071,
    3078,
    3084,
    3060,
    3063,
    3032,
    3102,
    3095,
    3099,
    3066,
    3052,
    3069,
    3106,
    3068,
    3061,
    3086,
    3108,
    3116,
    3121,
    3096,
    3060,
    3106,
    3113,
    3158,
    3138,
    3140,
    3145,
    3124,
    3154,
    3122,
    3170,
    3143,
    3158,
    3159,
    3157,
    3154,
    3161,
    3181,
    3158,
    3162,
    3090,
    3105,
    3126,
    3103,
    3140,
    3109,
    3082,
    3104,
    3087,
    3112,
    3096,
    3134,
    3115,
    3072,
    3059,
    3099,
    3108,
    3082,
    3062,
    3082,
    3042,
    3075,
    3076,
    3074,
    3072,
    3075,
    3053,
    3083,
    3058,
    3140,
    3140
   ],
   "WindowCenter": [
    759.0,
    757.0,
    758.0,
    759.0,
    757.0,
    756.0,
    755.0,
    756.0,
    757.0,
    756.0,
    756.0,
    757.0,
    758.0,
    759.0,
    759.0,
    758.0,
    758.0,
    757.0,
    757.0,
    756.0,
    755.0,
    757.0,
    758.0,
    758.0,
    758.0,
    757.0,
    756.0,
    756.0,
    756.0,
    756.0,
    755.0,
    755.0,
    755.0,
    752.0,
    754.0,
    757.0,
    758.0,
    757.0,
    756.0,
    756.0,
    758.0,
    757.0,
    757.0,
    755.0,
    757.0,
    759.0,
    759.0,
    756.0,
    755.0,
    755.0,
    756.0,
    757.0,
    758.0,
    757.0,
    757.0,
    757.0,
    756.0,
    757.0,
    755.0,
    754.0,
    753.0,
    750.0,
    750.0,
    749.0,
    750.0,
    750.0,
    751.0,
    753.0,
    754.0,
    755.0,
    757.0,
    759.0,
    759.0,
    758.0,
    759.0,
    758.0,
    761.0,
    761.0,
    760.0,
    758.0,
    756.0,
    757.0,
    758.0,
    759.0,
    759.0,
    757.0,
    756.0,
    757.0,
    760.0,
    758.0,
    756.0,
    756.0,
    756.0,
    758.0,
    759.0,
    758.0,
    757.0,
    757.0,
    758.0,
    758.0,
    759.0,
    758.0,
    757.0,
    757.0,
    758.0,
    757.0,
    757.0,
    757.0,
    758.0,
