{
 "AcquisitionMatrixPE": 100,
 "AcquisitionNumber": 1,
 "AcquisitionTime": "13:58:47.782500",
 "BandwidthPerPixelPhaseEncode": 18.519,
 "BaseResolution": 100,
 "BodyPartExamined": "BRAIN",
 "ConsistencyInfo": "N4_VE11C_LATEST_20160120",
 "ConversionSoftware": "dcm2niix",
 "ConversionSoftwareVersion": "v1.0.20180622 GCC4.9.2",
 "DerivedVendorReportedEchoSpacing": 0.000539986,
 "DeviceSerialNumber": "166078",
 "DwellTime": 2.1e-06,
 "EchoTime": 0.034,
 "EchoTrainLength": 100,
 "EffectiveEchoSpacing": 0.000539986,
 "FlipAngle": 90,
 "ImageOrientationPatientDICOM": [
  0.999535,
  -0.00861161,
  -0.0292462,
  -1.59786e-08,
  0.959278,
  -0.282462
 ],
 "ImageType": [
  "ORIGINAL",
  "PRIMARY",
  "M",
  "ND",
  "MOSAIC"
 ],
 "InPlanePhaseEncodingDirectionDICOM": "COL",
 "InstitutionAddress": "Street_StreetNo_Bei_Jing_District_CN_ZIP",
 "InstitutionName": "BeiJing_Normal_University",
 "InstitutionalDepartmentName": "Department",
 "MRAcquisitionType": "2D",
 "MagneticFieldStrength": 3,
 "Manufacturer": "Siemens",
 "ManufacturersModelName": "Prisma",
 "Modality": "MR",
 "MultibandAccelerationFactor": 3,
 "PartialFourier": 1,
 "PatientPosition": "HFS",
 "PercentPhaseFOV": 100,
 "PhaseEncodingDirection": "j-",
 "PhaseEncodingSteps": 100,
 "PhaseResolution": 1,
 "PixelBandwidth": 2380,
 "ProcedureStepDescription": "BNU_P2018_64CH_Zhen.ZongLei",
 "ProtocolName": "bold_100x100_s3_2x2x2_static_256",
 "PulseSequenceDetails": "%SiemensSeq%_ep2d_bold",
 "ReceiveCoilActiveElements": "HC1-7;NC1",
 "ReceiveCoilName": "HeadNeck_64",
 "ReconMatrixPE": 100,
 "RepetitionTime": 2,
 "SAR": 0.065753,
 "ScanOptions": "FS",
 "ScanningSequence": "EP",
 "SequenceName": "_epfid2d1_100",
 "SequenceVariant": "SK",
 "SeriesDescription": "bold_100x100_s3_2x2x2_static_256",
 "SeriesNumber": 10,
 "ShimSetting": [
  -5454,
  -11448,
  -1307,
  395,
  -11,
  -450,
  -256,
  67
 ],
 "SliceThickness": 2,
 "SliceTiming": [
  1.485,
  0,
  0.99,
  0.0825,
  1.0725,
  0.165,
  1.155,
  0.2475,
  1.2375,
  0.33,
  1.32,
  0.4125,
  1.4025,
  0.5775,
  1.5675,
  0.66,
  1.65,
  0.7425,
  1.7325,
  0.825,
  1.815,
  0.9075,
  1.8975,
  0.495,
  1.485,
  0,
  0.99,
  0.0825,
  1.0725,
  0.165,
  1.155,
  0.2475,
  1.2375,
  0.33,
  1.32,
  0.4125,
  1.4025,
  0.5775,
  1.5675,
  0.66,
  1.65,
  0.7425,
  1.7325,
  0.825,
  1.815,
  0.9075,
  1.8975,
  0.495,
  1.485,
  0,
  0.99,
  0.0825,
  1.0725,
  0.165,
  1.155,
  0.2475,
  1.2375,
  0.33,
  1.32,
  0.4125,
  1.4025,
  0.5775,
  1.5675,
  0.66,
  1.65,
  0.7425,
  1.7325,
  0.825,
  1.815,
  0.9075,
  1.8975,
  0.495
 ],
 "SoftwareVersions": "syngo_MR_E11",
 "SpacingBetweenSlices": 2,
 "StationName": "AWP166078",
 "TaskName": "imagenet",
 "TotalReadoutTime": 0.0534586,
 "TxRefAmp": 212.528,
 "dcmmeta_affine": [
  [
   -1.9990702867507935,
   -3.195725994942222e-08,
   -0.06097547337412834,
   100.78273010253906
  ],
  [
   0.01722322404384613,
   1.9185569286346436,
   -0.56466144323349,
   -73.45836639404297
  ],
  [
   -0.05849246680736542,
   0.5649240612983704,
   1.9176651239395142,
   -109.64268493652344
  ],
  [
   0.0,
   0.0,
   0.0,
   1.0
  ]
 ],
 "dcmmeta_reorient_transform": [
  [
   0.0,
   -1.0,
   0.0,
   99.0
  ],
  [
   1.0,
   0.0,
   0.0,
   0.0
  ],
  [
   0.0,
   0.0,
   1.0,
   0.0
  ],
  [
   0.0,
   0.0,
   0.0,
   1.0
  ]
 ],
 "dcmmeta_shape": [
  100,
  100,
  72,
  256
 ],
 "dcmmeta_slice_dim": 2,
 "dcmmeta_version": 0.6,
 "global": {
  "const": {
   "AcquisitionMatrix": [
    100,
    0,
    0,
    100
   ],
   "AngioFlag": "N",
   "BitsAllocated": 16,
   "BitsStored": 12,
   "BodyPartExamined": "BRAIN",
   "Columns": 900,
   "EchoNumbers": 1,
   "EchoTime": 34.0,
   "EchoTrainLength": 100,
   "FlipAngle": 90.0,
   "HighBit": 11,
   "ImageOrientationPatient": [
    0.99953514094058,
    -0.0086116119732,
    -0.029246233332,
    -1.597863e-08,
    0.95927848362654,
    -0.2824620166521
   ],
   "ImagePositionPatient": [
    -900.41082656182,
    -877.01227288217,
    195.65139288121
   ],
   "ImageType": [
    "ORIGINAL",
    "PRIMARY",
    "M",
    "ND",
    "MOSAIC"
   ],
   "ImagedNucleus": "1H",
   "ImagingFrequency": 123.257789,
   "InPlanePhaseEncodingDirection": "COL",
   "MRAcquisitionType": "2D",
   "MagneticFieldStrength": 3.0,
   "Manufacturer": "SIEMENS",
   "ManufacturerModelName": "Prisma",
   "Modality": "MR",
   "NumberOfAverages": 1.0,
   "NumberOfPhaseEncodingSteps": 100,
   "PercentPhaseFieldOfView": 100.0,
   "PercentSampling": 100.0,
   "PerformedProcedureStepStartTime": "130522.753000",
   "PhotometricInterpretation": "MONOCHROME2",
   "PixelBandwidth": 2380.0,
   "PixelRepresentation": 0,
   "PixelSpacing": [
    2.0,
    2.0
   ],
   "ProtocolName": "bold_100x100_s3_2x2x2_static_256",
   "RepetitionTime": 2000.0,
   "Rows": 900,
   "SAR": 0.06575302915584,
   "SamplesPerPixel": 1,
   "ScanOptions": "FS",
   "ScanningSequence": "EP",
   "SequenceName": "*epfid2d1_100",
   "SequenceVariant": "SK",
   "SeriesDescription": "bold_100x100_s3_2x2x2_static_256",
   "SeriesNumber": 10,
   "SeriesTime": "135850.272000",
   "SliceLocation": -87.462062002114,
   "SliceThickness": 2.0,
   "SmallestImagePixelValue": 0,
   "SoftwareVersions": "syngo MR E11",
   "SpacingBetweenSlices": 2.0000000244009,
   "SpecificCharacterSet": "ISO_IR 100",
   "StudyID": "1",
   "StudyTime": "130522.632000",
   "TransmitCoilName": "Body",
   "VariableFlipAngleFlag": "N",
   "WindowCenterWidthExplanation": "Algo1",
   "dBdt": 0.0
  },
  "slices": {}
 },
 "time": {
  "samples": {
   "AcquisitionNumber": [
    1,
    2,
    3,
    4,
    5,
    6,
    7,
    8,
    9,
    10,
    11,
    12,
    13,
    14,
    15,
    16,
    17,
    18,
    19,
    20,
    21,
    22,
    23,
    24,
    25,
    26,
    27,
    28,
    29,
    30,
    31,
    32,
    33,
    34,
    35,
    36,
    37,
    38,
    39,
    40,
    41,
    42,
    43,
    44,
    45,
    46,
    47,
    48,
    49,
    50,
    51,
    52,
    53,
    54,
    55,
    56,
    57,
    58,
    59,
    60,
    61,
    62,
    63,
    64,
    65,
    66,
    67,
    68,
    69,
    70,
    71,
    72,
    73,
    74,
    75,
    76,
    77,
    78,
    79,
    80,
    81,
    82,
    83,
    84,
    85,
    86,
    87,
    88,
    89,
    90,
    91,
    92,
    93,
    94,
    95,
    96,
    97,
    98,
    99,
    100,
    101,
    102,
    103,
    104,
    105,
    106,
    107,
    108,
    109,
    110,
    111,
    112,
    113,
    114,
    115,
    116,
    117,
    118,
    119,
    120,
    121,
    122,
    123,
    124,
    125,
    126,
    127,
    128,
    129,
    130,
    131,
    132,
    133,
    134,
    135,
    136,
    137,
    138,
    139,
    140,
    141,
    142,
    143,
    144,
    145,
    146,
    147,
    148,
    149,
    150,
    151,
    152,
    153,
    154,
    155,
    156,
    157,
    158,
    159,
    160,
    161,
    162,
    163,
    164,
    165,
    166,
    167,
    168,
    169,
    170,
    171,
    172,
    173,
    174,
    175,
    176,
    177,
    178,
    179,
    180,
    181,
    182,
    183,
    184,
    185,
    186,
    187,
    188,
    189,
    190,
    191,
    192,
    193,
    194,
    195,
    196,
    197,
    198,
    199,
    200,
    201,
    202,
    203,
    204,
    205,
    206,
    207,
    208,
    209,
    210,
    211,
    212,
    213,
    214,
    215,
    216,
    217,
    218,
    219,
    220,
    221,
    222,
    223,
    224,
    225,
    226,
    227,
    228,
    229,
    230,
    231,
    232,
    233,
    234,
    235,
    236,
    237,
    238,
    239,
    240,
    241,
    242,
    243,
    244,
    245,
    246,
    247,
    248,
    249,
    250,
    251,
    252,
    253,
    254,
    255,
    256
   ],
   "AcquisitionTime": [
    "135847.782500",
    "135849.782500",
    "135851.782500",
    "135853.782500",
    "135855.782500",
    "135857.782500",
    "135859.782500",
    "135901.782500",
    "135903.782500",
    "135905.782500",
    "135907.782500",
    "135909.782500",
    "135911.782500",
    "135913.782500",
    "135915.782500",
    "135917.782500",
    "135919.782500",
    "135921.782500",
    "135923.782500",
    "135925.782500",
    "135927.782500",
    "135929.782500",
    "135931.782500",
    "135933.782500",
    "135935.782500",
    "135937.782500",
    "135939.782500",
    "135941.782500",
    "135943.782500",
    "135945.782500",
    "135947.782500",
    "135949.782500",
    "135951.782500",
    "135953.782500",
    "135955.782500",
    "135957.782500",
    "135959.782500",
    "140001.782500",
    "140003.782500",
    "140005.782500",
    "140007.782500",
    "140009.782500",
    "140011.782500",
    "140013.782500",
    "140015.782500",
    "140017.782500",
    "140019.782500",
    "140021.782500",
    "140023.782500",
    "140025.782500",
    "140027.782500",
    "140029.782500",
    "140031.782500",
    "140033.782500",
    "140035.782500",
    "140037.782500",
    "140039.782500",
    "140041.782500",
    "140043.782500",
    "140045.782500",
    "140047.782500",
    "140049.782500",
    "140051.782500",
    "140053.782500",
    "140055.782500",
    "140057.782500",
    "140059.782500",
    "140101.782500",
    "140103.782500",
    "140105.782500",
    "140107.782500",
    "140109.782500",
    "140111.782500",
    "140113.782500",
    "140115.782500",
    "140117.782500",
    "140119.782500",
    "140121.782500",
    "140123.782500",
    "140125.782500",
    "140127.782500",
    "140129.782500",
    "140131.782500",
    "140133.782500",
    "140135.782500",
    "140137.782500",
    "140139.782500",
    "140141.782500",
    "140143.782500",
    "140145.782500",
    "140147.782500",
    "140149.782500",
    "140151.782500",
    "140153.782500",
    "140155.782500",
    "140157.782500",
    "140159.782500",
    "140201.782500",
    "140203.782500",
    "140205.782500",
    "140207.782500",
    "140209.782500",
    "140211.782500",
    "140213.782500",
    "140215.782500",
    "140217.782500",
    "140219.782500",
    "140221.782500",
    "140223.782500",
    "140225.782500",
    "140227.782500",
    "140229.782500",
    "140231.782500",
    "140233.782500",
    "140235.782500",
    "140237.782500",
    "140239.782500",
    "140241.782500",
    "140243.782500",
    "140245.782500",
    "140247.782500",
    "140249.782500",
    "140251.782500",
    "140253.782500",
    "140255.782500",
    "140257.782500",
    "140259.782500",
    "140301.782500",
    "140303.782500",
    "140305.782500",
    "140307.782500",
    "140309.782500",
    "140311.782500",
    "140313.782500",
    "140315.782500",
    "140317.782500",
    "140319.782500",
    "140321.782500",
    "140323.782500",
    "140325.782500",
    "140327.782500",
    "140329.782500",
    "140331.782500",
    "140333.782500",
    "140335.782500",
    "140337.782500",
    "140339.782500",
    "140341.782500",
    "140343.782500",
    "140345.782500",
    "140347.782500",
    "140349.782500",
    "140351.782500",
    "140353.782500",
    "140355.782500",
    "140357.782500",
    "140359.782500",
    "140401.782500",
    "140403.782500",
    "140405.782500",
    "140407.782500",
    "140409.782500",
    "140411.782500",
    "140413.782500",
    "140415.782500",
    "140417.782500",
    "140419.782500",
    "140421.782500",
    "140423.782500",
    "140425.782500",
    "140427.782500",
    "140429.782500",
    "140431.782500",
    "140433.782500",
    "140435.782500",
    "140437.782500",
    "140439.782500",
    "140441.782500",
    "140443.782500",
    "140445.782500",
    "140447.782500",
    "140449.782500",
    "140451.782500",
    "140453.782500",
    "140455.782500",
    "140457.782500",
    "140459.782500",
    "140501.782500",
    "140503.782500",
    "140505.782500",
    "140507.782500",
    "140509.782500",
    "140511.782500",
    "140513.782500",
    "140515.782500",
    "140517.782500",
    "140519.782500",
    "140521.782500",
    "140523.782500",
    "140525.782500",
    "140527.782500",
    "140529.782500",
    "140531.782500",
    "140533.782500",
    "140535.782500",
    "140537.782500",
    "140539.782500",
    "140541.782500",
    "140543.782500",
    "140545.782500",
    "140547.782500",
    "140549.782500",
    "140551.782500",
    "140553.782500",
    "140555.782500",
    "140557.782500",
    "140559.782500",
    "140601.782500",
    "140603.782500",
    "140605.782500",
    "140607.782500",
    "140609.782500",
    "140611.782500",
    "140613.782500",
    "140615.782500",
    "140617.782500",
    "140619.782500",
    "140621.782500",
    "140623.782500",
    "140625.782500",
    "140627.782500",
    "140629.782500",
    "140631.782500",
    "140633.782500",
    "140635.782500",
    "140637.782500",
    "140639.782500",
    "140641.782500",
    "140643.782500",
    "140645.782500",
    "140647.782500",
    "140649.782500",
    "140651.782500",
    "140653.782500",
    "140655.782500",
    "140657.782500",
    "140659.782500",
    "140701.782500",
    "140703.782500",
    "140705.782500",
    "140707.782500",
    "140709.782500",
    "140711.782500",
    "140713.782500",
    "140715.782500",
    "140717.782500"
   ],
   "ContentTime": [
    "135850.276000",
    "135851.771000",
    "135853.772000",
    "135855.771000",
    "135857.771000",
    "135859.772000",
    "135901.772000",
    "135903.772000",
    "135905.772000",
    "135907.771000",
    "135909.772000",
    "135911.772000",
    "135913.772000",
    "135915.771000",
    "135917.772000",
    "135919.772000",
    "135921.772000",
    "135923.772000",
    "135925.772000",
    "135927.771000",
    "135929.772000",
    "135931.772000",
    "135933.772000",
    "135935.772000",
    "135937.772000",
    "135939.771000",
    "135941.772000",
    "135943.771000",
    "135945.772000",
    "135947.772000",
    "135949.772000",
    "135951.772000",
    "135953.772000",
    "135955.772000",
    "135957.771000",
    "135959.771000",
    "140001.771000",
    "140003.771000",
    "140005.771000",
    "140007.771000",
    "140009.773000",
    "140011.772000",
    "140013.773000",
    "140015.771000",
    "140017.771000",
    "140019.772000",
    "140021.771000",
    "140023.771000",
    "140025.771000",
    "140027.772000",
    "140029.772000",
    "140031.772000",
    "140033.771000",
    "140035.771000",
    "140037.771000",
    "140039.772000",
    "140041.772000",
    "140043.772000",
    "140045.772000",
    "140047.772000",
    "140049.772000",
    "140051.771000",
    "140053.772000",
    "140055.771000",
    "140057.771000",
    "140059.772000",
    "140101.773000",
    "140103.772000",
    "140105.772000",
    "140107.771000",
    "140109.771000",
    "140111.772000",
    "140113.772000",
    "140115.772000",
    "140117.771000",
    "140119.773000",
    "140121.773000",
    "140123.772000",
    "140125.771000",
    "140127.771000",
    "140129.772000",
    "140131.772000",
    "140133.772000",
    "140135.772000",
    "140137.772000",
    "140139.772000",
    "140141.771000",
    "140143.772000",
    "140145.772000",
    "140147.771000",
    "140149.772000",
    "140151.771000",
    "140153.771000",
    "140155.773000",
    "140157.773000",
    "140159.772000",
    "140201.772000",
    "140203.771000",
    "140205.772000",
    "140207.772000",
    "140209.772000",
    "140211.772000",
    "140213.773000",
    "140215.773000",
    "140217.772000",
    "140219.772000",
    "140221.772000",
    "140223.771000",
    "140225.771000",
    "140227.772000",
    "140229.773000",
    "140231.772000",
    "140233.773000",
    "140235.772000",
    "140237.771000",
    "140239.772000",
    "140241.772000",
    "140243.772000",
    "140245.771000",
    "140247.773000",
    "140249.773000",
    "140251.771000",
    "140253.771000",
    "140255.771000",
    "140257.772000",
    "140259.771000",
    "140301.772000",
    "140303.772000",
    "140305.773000",
    "140307.773000",
    "140309.771000",
    "140311.772000",
    "140313.786000",
    "140315.772000",
    "140317.772000",
    "140319.771000",
    "140321.773000",
    "140323.772000",
    "140325.772000",
    "140327.772000",
    "140329.772000",
    "140331.771000",
    "140333.772000",
    "140335.772000",
    "140337.772000",
    "140339.773000",
    "140341.772000",
    "140343.772000",
    "140345.772000",
    "140347.772000",
    "140349.771000",
    "140351.771000",
    "140353.772000",
    "140355.772000",
    "140357.773000",
    "140359.773000",
    "140401.771000",
    "140403.771000",
    "140405.772000",
    "140407.771000",
    "140409.772000",
    "140411.772000",
    "140413.771000",
    "140415.773000",
    "140417.773000",
    "140419.771000",
    "140421.772000",
    "140423.771000",
    "140425.772000",
    "140427.772000",
    "140429.772000",
    "140431.773000",
    "140433.772000",
    "140435.773000",
    "140437.771000",
    "140439.772000",
    "140441.772000",
    "140443.772000",
    "140445.772000",
    "140447.771000",
    "140449.772000",
    "140451.773000",
    "140453.772000",
    "140455.772000",
    "140457.772000",
    "140459.772000",
    "140501.772000",
    "140503.772000",
    "140505.772000",
    "140507.773000",
    "140509.772000",
    "140511.772000",
    "140513.771000",
    "140515.771000",
    "140517.771000",
    "140519.772000",
    "140521.771000",
    "140523.772000",
    "140525.772000",
    "140527.773000",
    "140529.771000",
    "140531.771000",
    "140533.772000",
    "140535.772000",
    "140537.771000",
    "140539.772000",
    "140541.773000",
    "140543.773000",
    "140545.773000",
    "140547.772000",
    "140549.771000",
    "140551.771000",
    "140553.771000",
    "140555.772000",
    "140557.772000",
    "140559.773000",
    "140601.772000",
    "140603.773000",
    "140605.772000",
    "140607.771000",
    "140609.772000",
    "140611.771000",
    "140613.772000",
    "140615.772000",
    "140617.773000",
    "140619.773000",
    "140621.772000",
    "140623.771000",
    "140625.772000",
    "140627.771000",
    "140629.772000",
    "140631.772000",
    "140633.772000",
    "140635.772000",
    "140637.773000",
    "140639.772000",
    "140641.772000",
    "140643.772000",
    "140645.772000",
    "140647.771000",
    "140649.772000",
    "140651.772000",
    "140653.773000",
    "140655.772000",
    "140657.772000",
    "140659.771000",
    "140701.771000",
    "140703.772000",
    "140705.772000",
    "140707.772000",
    "140709.773000",
    "140711.773000",
    "140713.772000",
    "140715.772000",
    "140717.771000",
    "140719.542000"
   ],
   "InstanceCreationTime": [
    "135850.276000",
    "135851.771000",
    "135853.772000",
    "135855.771000",
    "135857.771000",
    "135859.772000",
    "135901.772000",
    "135903.772000",
    "135905.772000",
    "135907.771000",
    "135909.772000",
    "135911.772000",
    "135913.772000",
    "135915.771000",
    "135917.772000",
    "135919.772000",
    "135921.772000",
    "135923.772000",
    "135925.772000",
    "135927.771000",
    "135929.772000",
    "135931.772000",
    "135933.772000",
    "135935.772000",
    "135937.772000",
    "135939.771000",
    "135941.772000",
    "135943.771000",
    "135945.772000",
    "135947.772000",
    "135949.772000",
    "135951.772000",
    "135953.772000",
    "135955.772000",
    "135957.771000",
    "135959.771000",
    "140001.771000",
    "140003.771000",
    "140005.771000",
    "140007.771000",
    "140009.773000",
    "140011.772000",
    "140013.773000",
    "140015.771000",
    "140017.771000",
    "140019.772000",
    "140021.771000",
    "140023.771000",
    "140025.771000",
    "140027.772000",
    "140029.772000",
    "140031.772000",
    "140033.771000",
    "140035.771000",
    "140037.771000",
    "140039.772000",
    "140041.772000",
    "140043.772000",
    "140045.772000",
    "140047.772000",
    "140049.772000",
    "140051.771000",
    "140053.772000",
    "140055.771000",
    "140057.771000",
    "140059.772000",
    "140101.773000",
    "140103.772000",
    "140105.772000",
    "140107.771000",
    "140109.771000",
    "140111.772000",
    "140113.772000",
    "140115.772000",
    "140117.771000",
    "140119.773000",
    "140121.773000",
    "140123.772000",
    "140125.771000",
    "140127.771000",
    "140129.772000",
    "140131.772000",
    "140133.772000",
    "140135.772000",
    "140137.772000",
    "140139.772000",
    "140141.771000",
    "140143.772000",
    "140145.772000",
    "140147.771000",
    "140149.772000",
    "140151.771000",
    "140153.771000",
    "140155.773000",
    "140157.773000",
    "140159.772000",
    "140201.772000",
    "140203.771000",
    "140205.772000",
    "140207.772000",
    "140209.772000",
    "140211.772000",
    "140213.773000",
    "140215.773000",
    "140217.772000",
    "140219.772000",
    "140221.772000",
    "140223.771000",
    "140225.771000",
    "140227.772000",
    "140229.773000",
    "140231.772000",
    "140233.773000",
    "140235.772000",
    "140237.771000",
    "140239.772000",
    "140241.772000",
    "140243.772000",
    "140245.771000",
    "140247.773000",
    "140249.773000",
    "140251.771000",
    "140253.771000",
    "140255.771000",
    "140257.772000",
    "140259.771000",
    "140301.772000",
    "140303.772000",
    "140305.773000",
    "140307.773000",
    "140309.771000",
    "140311.772000",
    "140313.786000",
    "140315.772000",
    "140317.772000",
    "140319.771000",
    "140321.773000",
    "140323.772000",
    "140325.772000",
    "140327.772000",
    "140329.772000",
    "140331.771000",
    "140333.772000",
    "140335.772000",
    "140337.772000",
    "140339.773000",
    "140341.772000",
    "140343.772000",
    "140345.772000",
    "140347.772000",
    "140349.771000",
    "140351.771000",
    "140353.772000",
    "140355.772000",
    "140357.773000",
    "140359.773000",
    "140401.771000",
    "140403.771000",
    "140405.772000",
    "140407.771000",
    "140409.772000",
    "140411.772000",
    "140413.771000",
    "140415.773000",
    "140417.773000",
    "140419.771000",
    "140421.772000",
    "140423.771000",
    "140425.772000",
    "140427.772000",
    "140429.772000",
    "140431.773000",
    "140433.772000",
    "140435.773000",
    "140437.771000",
    "140439.772000",
    "140441.772000",
    "140443.772000",
    "140445.772000",
    "140447.771000",
    "140449.772000",
    "140451.773000",
    "140453.772000",
    "140455.772000",
    "140457.772000",
    "140459.772000",
    "140501.772000",
    "140503.772000",
    "140505.772000",
    "140507.773000",
    "140509.772000",
    "140511.772000",
    "140513.771000",
    "140515.771000",
    "140517.771000",
    "140519.772000",
    "140521.771000",
    "140523.772000",
    "140525.772000",
    "140527.773000",
    "140529.771000",
    "140531.771000",
    "140533.772000",
    "140535.772000",
    "140537.771000",
    "140539.772000",
    "140541.773000",
    "140543.773000",
    "140545.773000",
    "140547.772000",
    "140549.771000",
    "140551.771000",
    "140553.771000",
    "140555.772000",
    "140557.772000",
    "140559.773000",
    "140601.772000",
    "140603.773000",
    "140605.772000",
    "140607.771000",
    "140609.772000",
    "140611.771000",
    "140613.772000",
    "140615.772000",
    "140617.773000",
    "140619.773000",
    "140621.772000",
    "140623.771000",
    "140625.772000",
    "140627.771000",
    "140629.772000",
    "140631.772000",
    "140633.772000",
    "140635.772000",
    "140637.773000",
    "140639.772000",
    "140641.772000",
    "140643.772000",
    "140645.772000",
    "140647.771000",
    "140649.772000",
    "140651.772000",
    "140653.773000",
    "140655.772000",
    "140657.772000",
    "140659.771000",
    "140701.771000",
    "140703.772000",
    "140705.772000",
    "140707.772000",
    "140709.773000",
    "140711.773000",
    "140713.772000",
    "140715.772000",
    "140717.771000",
    "140719.542000"
   ],
   "InstanceNumber": [
    1,
    2,
    3,
    4,
    5,
    6,
    7,
    8,
    9,
    10,
    11,
    12,
    13,
    14,
    15,
    16,
    17,
    18,
    19,
    20,
    21,
    22,
    23,
    24,
    25,
    26,
    27,
    28,
    29,
    30,
    31,
    32,
    33,
    34,
    35,
    36,
    37,
    38,
    39,
    40,
    41,
    42,
    43,
    44,
    45,
    46,
    47,
    48,
    49,
    50,
    51,
    52,
    53,
    54,
    55,
    56,
    57,
    58,
    59,
    60,
    61,
    62,
    63,
    64,
    65,
    66,
    67,
    68,
    69,
    70,
    71,
    72,
    73,
    74,
    75,
    76,
    77,
    78,
    79,
    80,
    81,
    82,
    83,
    84,
    85,
    86,
    87,
    88,
    89,
    90,
    91,
    92,
    93,
    94,
    95,
    96,
    97,
    98,
    99,
    100,
    101,
    102,
    103,
    104,
    105,
    106,
    107,
    108,
    109,
    110,
    111,
    112,
    113,
    114,
    115,
    116,
    117,
    118,
    119,
    120,
    121,
    122,
    123,
    124,
    125,
    126,
    127,
    128,
    129,
    130,
    131,
    132,
    133,
    134,
    135,
    136,
    137,
    138,
    139,
    140,
    141,
    142,
    143,
    144,
    145,
    146,
    147,
    148,
    149,
    150,
    151,
    152,
    153,
    154,
    155,
    156,
    157,
    158,
    159,
    160,
    161,
    162,
    163,
    164,
    165,
    166,
    167,
    168,
    169,
    170,
    171,
    172,
    173,
    174,
    175,
    176,
    177,
    178,
    179,
    180,
    181,
    182,
    183,
    184,
    185,
    186,
    187,
    188,
    189,
    190,
    191,
    192,
    193,
    194,
    195,
    196,
    197,
    198,
    199,
    200,
    201,
    202,
    203,
    204,
    205,
    206,
    207,
    208,
    209,
    210,
    211,
    212,
    213,
    214,
    215,
    216,
    217,
    218,
    219,
    220,
    221,
    222,
    223,
    224,
    225,
    226,
    227,
    228,
    229,
    230,
    231,
    232,
    233,
    234,
    235,
    236,
    237,
    238,
    239,
    240,
    241,
    242,
    243,
    244,
    245,
    246,
    247,
    248,
    249,
    250,
    251,
    252,
    253,
    254,
    255,
    256
   ],
   "LargestImagePixelValue": [
    3187,
    3095,
    3145,
    3081,
    3109,
    3081,
    3013,
    3124,
    3127,
    3095,
    3100,
    3125,
    3109,
    3067,
    3032,
    3085,
    3083,
    3067,
    3068,
    3083,
    3135,
    3125,
    3110,
    3098,
    3103,
    3099,
    3095,
    3094,
    3140,
    3154,
    3105,
    3022,
    3032,
    3057,
    3071,
    3049,
    3072,
    3050,
    3102,
    3081,
    3016,
    3064,
    3049,
    3072,
    3036,
    3055,
    3031,
    3040,
    3055,
    3050,
    3063,
    3084,
    3045,
    3069,
    3019,
    3091,
    3059,
    3071,
    3103,
    3066,
    3062,
    3080,
    3071,
    3069,
    3072,
    3078,
    3077,
    3080,
    3062,
    3055,
    3057,
    3124,
    3071,
    3109,
    3096,
    3093,
    3072,
    3096,
    3096,
    3110,
    3099,
    3047,
    3074,
    3073,
    3058,
    3064,
    3029,
    3073,
    3069,
    3082,
    3033,
    3062,
    3062,
    3021,
    3046,
    3041,
    3010,
    3059,
    3046,
    3057,
    3057,
    3059,
    3062,
    3051,
    3024,
    3034,
    3095,
    3074,
    3083,
    3044,
    3038,
    3047,
    3028,
    3063,
    3074,
    3050,
    3016,
    3023,
    3078,
    3074,
    3055,
    3057,
    3007,
    3027,
    3022,
    3037,
    3061,
    3062,
    3067,
    3009,
    3035,
    3072,
    3015,
    3045,
    3044,
    3067,
    3054,
    3070,
    3063,
    3045,
    3037,
    3050,
    3058,
    3076,
    3080,
    3095,
    3023,
    3063,
    3048,
    3079,
    3077,
    3085,
    3064,
    3035,
    3093,
    3120,
    3101,
    3078,
    3112,
    3145,
    3141,
    3130,
    3144,
    3157,
    3132,
    3093,
    3131,
    3145,
    3134,
    3121,
    3113,
    3152,
    3144,
    3119,
    3161,
    3146,
    3141,
    3143,
    3057,
    3018,
    2998,
    3056,
    3130,
    3100,
    3114,
    3044,
    3154,
    3109,
    3111,
    3051,
    3083,
    3122,
    3146,
    3119,
    3105,
    3100,
    3151,
    3175,
    3071,
    3117,
    3138,
    3107,
    3122,
    3112,
    3127,
    3128,
    3107,
    3137,
    3127,
    3152,
    3155,
    3159,
    3096,
    3109,
    3117,
    3162,
    3109,
    3076,
    3123,
    3116,
    3100,
    3097,
    3123,
    3109,
    3118,
    3104,
    3131,
    3160,
    3156,
    3135,
    3126,
    3160,
    3155,
    3119,
    3156,
    3128,
    3134,
    3062,
    3096,
    3133,
    3082,
    3105,
    3134,
    3123,
    3101,
    3118,
    3147,
    3135,
    3118,
    3068,
    3089,
    3115,
    3354,
    3112,
    3114,
    3110
   ],
   "WindowCenter": [
    765.0,
    762.0,
    760.0,
    758.0,
    757.0,
    759.0,
    758.0,
    760.0,
    762.0,
    762.0,
    761.0,
    761.0,
    760.0,
    758.0,
    760.0,
    760.0,
    761.0,
    760.0,
    758.0,
    757.0,
    757.0,
    758.0,
    761.0,
    762.0,
    761.0,
    760.0,
    760.0,
    762.0,
    764.0,
    765.0,
    763.0,
    760.0,
    761.0,
    761.0,
    760.0,
    756.0,
    757.0,
    760.0,
    762.0,
    760.0,
    758.0,
    757.0,
    758.0,
    759.0,
    760.0,
    760.0,
    759.0,
    759.0,
    760.0,
    761.0,
    763.0,
    763.0,
    762.0,
    761.0,
    760.0,
    762.0,
    762.0,
    761.0,
    762.0,
    761.0,
    760.0,
    761.0,
    762.0,
    761.0,
    760.0,
    759.0,
    760.0,
    761.0,
    760.0,
    759.0,
    759.0,
    759.0,
    760.0,
    761.0,
    762.0,
    761.0,
    761.0,
    761.0,
    761.0,
    763.0,
    764.0,
    763.0,
    764.0,
    765.0,
    763.0,
    761.0,
    760.0,
    760.0,
    762.0,
    763.0,
    762.0,
    761.0,
    760.0,
    760.0,
    763.0,
    764.0,
    761.0,
    759.0,
    758.0,
    758.0,
    759.0,
    763.0,
    764.0,
    760.0,
    757.0,
    757.0,
    758.0,
    760.0,
    761.0,
