{
 "AcquisitionMatrixPE": 100,
 "AcquisitionNumber": 1,
 "AcquisitionTime": "15:18:53.270000",
 "BandwidthPerPixelPhaseEncode": 18.519,
 "BaseResolution": 100,
 "BodyPartExamined": "BRAIN",
 "ConsistencyInfo": "N4_VE11C_LATEST_20160120",
 "ConversionSoftware": "dcm2niix",
 "ConversionSoftwareVersion": "v1.0.20180622 GCC4.9.2",
 "DerivedVendorReportedEchoSpacing": 0.000539986,
 "DeviceSerialNumber": "166078",
 "DwellTime": 2.1e-06,
 "EchoTime": 0.034,
 "EchoTrainLength": 100,
 "EffectiveEchoSpacing": 0.000539986,
 "FlipAngle": 90,
 "ImageOrientationPatientDICOM": [
  1,
  0,
  0,
  0,
  0.979223,
  -0.202787
 ],
 "ImageType": [
  "ORIGINAL",
  "PRIMARY",
  "M",
  "ND",
  "MOSAIC"
 ],
 "InPlanePhaseEncodingDirectionDICOM": "COL",
 "InstitutionAddress": "Street_StreetNo_Bei_Jing_District_CN_ZIP",
 "InstitutionName": "BeiJing_Normal_University",
 "InstitutionalDepartmentName": "Department",
 "MRAcquisitionType": "2D",
 "MagneticFieldStrength": 3,
 "Manufacturer": "Siemens",
 "ManufacturersModelName": "Prisma",
 "Modality": "MR",
 "MultibandAccelerationFactor": 3,
 "PartialFourier": 1,
 "PatientPosition": "HFS",
 "PercentPhaseFOV": 100,
 "PhaseEncodingDirection": "j-",
 "PhaseEncodingSteps": 100,
 "PhaseResolution": 1,
 "PixelBandwidth": 2380,
 "ProcedureStepDescription": "BNU_P2018_64CH_Zhen.ZongLei",
 "ProtocolName": "bold_100x100_s3_2x2x2_static_256",
 "PulseSequenceDetails": "%SiemensSeq%_ep2d_bold",
 "ReceiveCoilActiveElements": "HC1-7;NC1",
 "ReceiveCoilName": "HeadNeck_64",
 "ReconMatrixPE": 100,
 "RepetitionTime": 2,
 "SAR": 0.072326,
 "ScanOptions": "FS",
 "ScanningSequence": "EP",
 "SequenceName": "_epfid2d1_100",
 "SequenceVariant": "SK",
 "SeriesDescription": "bold_100x100_s3_2x2x2_static_256",
 "SeriesNumber": 4,
 "ShimSetting": [
  -5461,
  -11506,
  -1281,
  266,
  -49,
  -321,
  -80,
  58
 ],
 "SliceThickness": 2,
 "SliceTiming": [
  1.485,
  0,
  0.99,
  0.0825,
  1.0725,
  0.165,
  1.155,
  0.2475,
  1.2375,
  0.33,
  1.32,
  0.4125,
  1.4025,
  0.5775,
  1.5675,
  0.66,
  1.65,
  0.7425,
  1.7325,
  0.825,
  1.815,
  0.9075,
  1.8975,
  0.495,
  1.485,
  0,
  0.99,
  0.0825,
  1.0725,
  0.165,
  1.155,
  0.2475,
  1.2375,
  0.33,
  1.32,
  0.4125,
  1.4025,
  0.5775,
  1.5675,
  0.66,
  1.65,
  0.7425,
  1.7325,
  0.825,
  1.815,
  0.9075,
  1.8975,
  0.495,
  1.485,
  0,
  0.99,
  0.0825,
  1.0725,
  0.165,
  1.155,
  0.2475,
  1.2375,
  0.33,
  1.32,
  0.4125,
  1.4025,
  0.5775,
  1.5675,
  0.66,
  1.65,
  0.7425,
  1.7325,
  0.825,
  1.815,
  0.9075,
  1.8975,
  0.495
 ],
 "SoftwareVersions": "syngo_MR_E11",
 "SpacingBetweenSlices": 2,
 "StationName": "AWP166078",
 "TaskName": "imagenet",
 "TotalReadoutTime": 0.0534586,
 "TxRefAmp": 221.623,
 "dcmmeta_affine": [
  [
   -2.0,
   0.0,
   0.0,
   99.32203674316406
  ],
  [
   0.0,
   1.95844566822052,
   -0.4055745601654053,
   -72.185791015625
  ],
  [
   0.0,
   0.4055745601654053,
   1.9584455490112305,
   -91.99361419677734
  ],
  [
   0.0,
   0.0,
   0.0,
   1.0
  ]
 ],
 "dcmmeta_reorient_transform": [
  [
   0.0,
   -1.0,
   0.0,
   99.0
  ],
  [
   1.0,
   0.0,
   0.0,
   0.0
  ],
  [
   0.0,
   0.0,
   1.0,
   0.0
  ],
  [
   0.0,
   0.0,
   0.0,
   1.0
  ]
 ],
 "dcmmeta_shape": [
  100,
  100,
  72,
  256
 ],
 "dcmmeta_slice_dim": 2,
 "dcmmeta_version": 0.6,
 "global": {
  "const": {
   "AcquisitionMatrix": [
    100,
    0,
    0,
    100
   ],
   "AngioFlag": "N",
   "BitsAllocated": 16,
   "BitsStored": 12,
   "BodyPartExamined": "BRAIN",
   "Columns": 900,
   "EchoNumbers": 1,
   "EchoTime": 34.0,
   "EchoTrainLength": 100,
   "FlipAngle": 90.0,
   "HighBit": 11,
   "ImageOrientationPatient": [
    1.0,
    0.0,
    0.0,
    0.0,
    0.97922281297031,
    -0.2027872840158
   ],
   "ImagePositionPatient": [
    -899.32203388214,
    -905.07857542023,
    110.38809510398
   ],
   "ImageType": [
    "ORIGINAL",
    "PRIMARY",
    "M",
    "ND",
    "MOSAIC"
   ],
   "ImagedNucleus": "1H",
   "ImagingFrequency": 123.257712,
   "InPlanePhaseEncodingDirection": "COL",
   "MRAcquisitionType": "2D",
   "MagneticFieldStrength": 3.0,
   "Manufacturer": "SIEMENS",
   "ManufacturerModelName": "Prisma",
   "Modality": "MR",
   "NumberOfAverages": 1.0,
   "NumberOfPhaseEncodingSteps": 100,
   "PercentPhaseFieldOfView": 100.0,
   "PercentSampling": 100.0,
   "PerformedProcedureStepStartTime": "145918.143000",
   "PhotometricInterpretation": "MONOCHROME2",
   "PixelBandwidth": 2380.0,
   "PixelRepresentation": 0,
   "PixelSpacing": [
    2.0,
    2.0
   ],
   "ProtocolName": "bold_100x100_s3_2x2x2_static_256",
   "RepetitionTime": 2000.0,
   "Rows": 900,
   "SAR": 0.07232598348591,
   "SamplesPerPixel": 1,
   "ScanOptions": "FS",
   "ScanningSequence": "EP",
   "SequenceName": "*epfid2d1_100",
   "SequenceVariant": "SK",
   "SeriesDescription": "bold_100x100_s3_2x2x2_static_256",
   "SeriesNumber": 4,
   "SeriesTime": "151855.452000",
   "SliceLocation": -75.443885124218,
   "SliceThickness": 2.0,
   "SmallestImagePixelValue": 0,
   "SoftwareVersions": "syngo MR E11",
   "SpacingBetweenSlices": 1.9999999700232,
   "SpecificCharacterSet": "ISO_IR 100",
   "StudyID": "1",
   "StudyTime": "145918.084000",
   "TransmitCoilName": "Body",
   "VariableFlipAngleFlag": "N",
   "WindowCenterWidthExplanation": "Algo1",
   "dBdt": 0.0
  },
  "slices": {}
 },
 "time": {
  "samples": {
   "AcquisitionNumber": [
    1,
    2,
    3,
    4,
    5,
    6,
    7,
    8,
    9,
    10,
    11,
    12,
    13,
    14,
    15,
    16,
    17,
    18,
    19,
    20,
    21,
    22,
    23,
    24,
    25,
    26,
    27,
    28,
    29,
    30,
    31,
    32,
    33,
    34,
    35,
    36,
    37,
    38,
    39,
    40,
    41,
    42,
    43,
    44,
    45,
    46,
    47,
    48,
    49,
    50,
    51,
    52,
    53,
    54,
    55,
    56,
    57,
    58,
    59,
    60,
    61,
    62,
    63,
    64,
    65,
    66,
    67,
    68,
    69,
    70,
    71,
    72,
    73,
    74,
    75,
    76,
    77,
    78,
    79,
    80,
    81,
    82,
    83,
    84,
    85,
    86,
    87,
    88,
    89,
    90,
    91,
    92,
    93,
    94,
    95,
    96,
    97,
    98,
    99,
    100,
    101,
    102,
    103,
    104,
    105,
    106,
    107,
    108,
    109,
    110,
    111,
    112,
    113,
    114,
    115,
    116,
    117,
    118,
    119,
    120,
    121,
    122,
    123,
    124,
    125,
    126,
    127,
    128,
    129,
    130,
    131,
    132,
    133,
    134,
    135,
    136,
    137,
    138,
    139,
    140,
    141,
    142,
    143,
    144,
    145,
    146,
    147,
    148,
    149,
    150,
    151,
    152,
    153,
    154,
    155,
    156,
    157,
    158,
    159,
    160,
    161,
    162,
    163,
    164,
    165,
    166,
    167,
    168,
    169,
    170,
    171,
    172,
    173,
    174,
    175,
    176,
    177,
    178,
    179,
    180,
    181,
    182,
    183,
    184,
    185,
    186,
    187,
    188,
    189,
    190,
    191,
    192,
    193,
    194,
    195,
    196,
    197,
    198,
    199,
    200,
    201,
    202,
    203,
    204,
    205,
    206,
    207,
    208,
    209,
    210,
    211,
    212,
    213,
    214,
    215,
    216,
    217,
    218,
    219,
    220,
    221,
    222,
    223,
    224,
    225,
    226,
    227,
    228,
    229,
    230,
    231,
    232,
    233,
    234,
    235,
    236,
    237,
    238,
    239,
    240,
    241,
    242,
    243,
    244,
    245,
    246,
    247,
    248,
    249,
    250,
    251,
    252,
    253,
    254,
    255,
    256
   ],
   "AcquisitionTime": [
    "151853.270000",
    "151855.270000",
    "151857.270000",
    "151859.270000",
    "151901.270000",
    "151903.270000",
    "151905.270000",
    "151907.270000",
    "151909.270000",
    "151911.270000",
    "151913.270000",
    "151915.270000",
    "151917.270000",
    "151919.270000",
    "151921.270000",
    "151923.270000",
    "151925.270000",
    "151927.270000",
    "151929.270000",
    "151931.270000",
    "151933.270000",
    "151935.270000",
    "151937.270000",
    "151939.270000",
    "151941.270000",
    "151943.270000",
    "151945.270000",
    "151947.270000",
    "151949.270000",
    "151951.270000",
    "151953.270000",
    "151955.270000",
    "151957.270000",
    "151959.270000",
    "152001.270000",
    "152003.270000",
    "152005.270000",
    "152007.270000",
    "152009.270000",
    "152011.270000",
    "152013.270000",
    "152015.270000",
    "152017.270000",
    "152019.270000",
    "152021.270000",
    "152023.270000",
    "152025.270000",
    "152027.270000",
    "152029.270000",
    "152031.270000",
    "152033.270000",
    "152035.270000",
    "152037.270000",
    "152039.270000",
    "152041.270000",
    "152043.270000",
    "152045.270000",
    "152047.270000",
    "152049.270000",
    "152051.270000",
    "152053.270000",
    "152055.270000",
    "152057.270000",
    "152059.270000",
    "152101.270000",
    "152103.270000",
    "152105.270000",
    "152107.270000",
    "152109.270000",
    "152111.270000",
    "152113.270000",
    "152115.270000",
    "152117.270000",
    "152119.270000",
    "152121.270000",
    "152123.270000",
    "152125.270000",
    "152127.270000",
    "152129.270000",
    "152131.270000",
    "152133.270000",
    "152135.270000",
    "152137.270000",
    "152139.270000",
    "152141.270000",
    "152143.270000",
    "152145.270000",
    "152147.270000",
    "152149.270000",
    "152151.270000",
    "152153.270000",
    "152155.270000",
    "152157.270000",
    "152159.270000",
    "152201.270000",
    "152203.270000",
    "152205.270000",
    "152207.270000",
    "152209.270000",
    "152211.270000",
    "152213.270000",
    "152215.270000",
    "152217.270000",
    "152219.270000",
    "152221.270000",
    "152223.270000",
    "152225.270000",
    "152227.270000",
    "152229.270000",
    "152231.270000",
    "152233.270000",
    "152235.270000",
    "152237.270000",
    "152239.270000",
    "152241.270000",
    "152243.270000",
    "152245.270000",
    "152247.270000",
    "152249.270000",
    "152251.270000",
    "152253.270000",
    "152255.270000",
    "152257.270000",
    "152259.270000",
    "152301.270000",
    "152303.270000",
    "152305.270000",
    "152307.270000",
    "152309.270000",
    "152311.270000",
    "152313.270000",
    "152315.270000",
    "152317.270000",
    "152319.270000",
    "152321.270000",
    "152323.270000",
    "152325.270000",
    "152327.270000",
    "152329.270000",
    "152331.270000",
    "152333.270000",
    "152335.270000",
    "152337.270000",
    "152339.270000",
    "152341.270000",
    "152343.270000",
    "152345.270000",
    "152347.270000",
    "152349.270000",
    "152351.270000",
    "152353.270000",
    "152355.270000",
    "152357.270000",
    "152359.270000",
    "152401.270000",
    "152403.270000",
    "152405.270000",
    "152407.270000",
    "152409.270000",
    "152411.270000",
    "152413.270000",
    "152415.270000",
    "152417.270000",
    "152419.270000",
    "152421.270000",
    "152423.270000",
    "152425.270000",
    "152427.270000",
    "152429.270000",
    "152431.270000",
    "152433.270000",
    "152435.270000",
    "152437.270000",
    "152439.270000",
    "152441.270000",
    "152443.270000",
    "152445.270000",
    "152447.270000",
    "152449.270000",
    "152451.270000",
    "152453.270000",
    "152455.270000",
    "152457.270000",
    "152459.270000",
    "152501.270000",
    "152503.270000",
    "152505.270000",
    "152507.270000",
    "152509.270000",
    "152511.270000",
    "152513.270000",
    "152515.270000",
    "152517.270000",
    "152519.270000",
    "152521.270000",
    "152523.270000",
    "152525.270000",
    "152527.270000",
    "152529.270000",
    "152531.270000",
    "152533.270000",
    "152535.270000",
    "152537.270000",
    "152539.270000",
    "152541.270000",
    "152543.270000",
    "152545.270000",
    "152547.270000",
    "152549.270000",
    "152551.270000",
    "152553.270000",
    "152555.270000",
    "152557.270000",
    "152559.270000",
    "152601.270000",
    "152603.270000",
    "152605.270000",
    "152607.270000",
    "152609.270000",
    "152611.270000",
    "152613.270000",
    "152615.270000",
    "152617.270000",
    "152619.270000",
    "152621.270000",
    "152623.270000",
    "152625.270000",
    "152627.270000",
    "152629.270000",
    "152631.270000",
    "152633.270000",
    "152635.270000",
    "152637.270000",
    "152639.270000",
    "152641.270000",
    "152643.270000",
    "152645.270000",
    "152647.270000",
    "152649.270000",
    "152651.270000",
    "152653.270000",
    "152655.270000",
    "152657.270000",
    "152659.270000",
    "152701.270000",
    "152703.270000",
    "152705.270000",
    "152707.270000",
    "152709.270000",
    "152711.270000",
    "152713.270000",
    "152715.270000",
    "152717.270000",
    "152719.270000",
    "152721.270000",
    "152723.270000"
   ],
   "ContentTime": [
    "151855.455000",
    "151856.951000",
    "151858.950000",
    "151900.951000",
    "151902.950000",
    "151904.950000",
    "151906.950000",
    "151908.951000",
    "151910.951000",
    "151912.951000",
    "151914.951000",
    "151916.951000",
    "151918.951000",
    "151920.950000",
    "151922.950000",
    "151924.950000",
    "151926.971000",
    "151928.952000",
    "151930.950000",
    "151932.950000",
    "151934.951000",
    "151936.950000",
    "151938.950000",
    "151940.950000",
    "151942.950000",
    "151944.951000",
    "151946.951000",
    "151948.951000",
    "151950.950000",
    "151952.950000",
    "151954.951000",
    "151956.950000",
    "151958.949000",
    "152000.949000",
    "152002.951000",
    "152004.951000",
    "152006.950000",
    "152008.951000",
    "152010.950000",
    "152012.950000",
    "152014.950000",
    "152016.950000",
    "152018.971000",
    "152020.951000",
    "152022.951000",
    "152024.951000",
    "152026.970000",
    "152028.950000",
    "152030.950000",
    "152032.950000",
    "152034.950000",
    "152036.951000",
    "152038.951000",
    "152040.951000",
    "152042.951000",
    "152044.951000",
    "152046.951000",
    "152048.949000",
    "152050.950000",
    "152052.950000",
    "152054.951000",
    "152056.951000",
    "152058.950000",
    "152100.950000",
    "152102.950000",
    "152104.950000",
    "152106.949000",
    "152108.950000",
    "152110.950000",
    "152112.950000",
    "152114.951000",
    "152116.950000",
    "152118.950000",
    "152120.951000",
    "152122.950000",
    "152124.950000",
    "152126.950000",
    "152128.950000",
    "152130.951000",
    "152132.951000",
    "152134.951000",
    "152136.950000",
    "152138.950000",
    "152140.949000",
    "152142.970000",
    "152144.950000",
    "152146.951000",
    "152148.950000",
    "152150.951000",
    "152152.950000",
    "152154.950000",
    "152156.950000",
    "152158.949000",
    "152200.950000",
    "152202.949000",
    "152204.950000",
    "152206.950000",
    "152208.951000",
    "152210.950000",
    "152212.950000",
    "152214.950000",
    "152216.949000",
    "152218.949000",
    "152220.949000",
    "152222.950000",
    "152224.950000",
    "152226.950000",
    "152228.950000",
    "152230.950000",
    "152232.949000",
    "152234.949000",
    "152236.949000",
    "152238.950000",
    "152240.950000",
    "152242.951000",
    "152244.950000",
    "152246.950000",
    "152248.951000",
    "152250.949000",
    "152252.949000",
    "152254.949000",
    "152256.950000",
    "152258.950000",
    "152300.950000",
    "152302.950000",
    "152304.950000",
    "152306.950000",
    "152308.949000",
    "152310.949000",
    "152312.949000",
    "152314.951000",
    "152316.951000",
    "152318.970000",
    "152320.950000",
    "152322.950000",
    "152324.950000",
    "152326.950000",
    "152328.950000",
    "152330.951000",
    "152332.951000",
    "152334.950000",
    "152336.951000",
    "152338.951000",
    "152340.951000",
    "152342.949000",
    "152344.949000",
    "152346.949000",
    "152348.951000",
    "152350.951000",
    "152352.950000",
    "152354.950000",
    "152356.951000",
    "152358.950000",
    "152400.950000",
    "152402.949000",
    "152404.950000",
    "152406.950000",
    "152408.950000",
    "152410.950000",
    "152412.950000",
    "152414.950000",
    "152416.951000",
    "152418.949000",
    "152420.949000",
    "152422.949000",
    "152424.950000",
    "152426.951000",
    "152428.950000",
    "152430.950000",
    "152432.951000",
    "152434.950000",
    "152436.949000",
    "152438.949000",
    "152440.950000",
    "152442.950000",
    "152444.950000",
    "152446.951000",
    "152448.951000",
    "152450.950000",
    "152452.949000",
    "152454.949000",
    "152456.949000",
    "152458.950000",
    "152500.950000",
    "152502.950000",
    "152504.950000",
    "152506.951000",
    "152508.950000",
    "152510.949000",
    "152512.949000",
    "152514.949000",
    "152516.950000",
    "152518.950000",
    "152520.950000",
    "152522.950000",
    "152524.950000",
    "152526.951000",
    "152528.949000",
    "152530.950000",
    "152532.949000",
    "152534.950000",
    "152536.951000",
    "152538.950000",
    "152540.950000",
    "152542.950000",
    "152544.950000",
    "152546.949000",
    "152548.949000",
    "152550.951000",
    "152552.950000",
    "152554.950000",
    "152556.950000",
    "152558.950000",
    "152600.950000",
    "152602.949000",
    "152604.949000",
    "152606.950000",
    "152608.950000",
    "152610.950000",
    "152612.951000",
    "152614.951000",
    "152616.950000",
    "152618.950000",
    "152620.949000",
    "152622.949000",
    "152624.950000",
    "152626.950000",
    "152628.950000",
    "152630.950000",
    "152632.950000",
    "152634.950000",
    "152636.966000",
    "152638.949000",
    "152640.949000",
    "152642.949000",
    "152644.951000",
    "152646.950000",
    "152648.950000",
    "152650.950000",
    "152652.951000",
    "152654.950000",
    "152656.950000",
    "152658.950000",
    "152700.950000",
    "152702.951000",
    "152704.951000",
    "152706.951000",
    "152708.951000",
    "152710.951000",
    "152712.950000",
    "152714.950000",
    "152716.950000",
    "152718.951000",
    "152720.951000",
    "152722.950000",
    "152724.751000"
   ],
   "InstanceCreationTime": [
    "151855.455000",
    "151856.951000",
    "151858.950000",
    "151900.951000",
    "151902.950000",
    "151904.950000",
    "151906.950000",
    "151908.951000",
    "151910.951000",
    "151912.951000",
    "151914.951000",
    "151916.951000",
    "151918.951000",
    "151920.950000",
    "151922.950000",
    "151924.950000",
    "151926.971000",
    "151928.952000",
    "151930.950000",
    "151932.950000",
    "151934.951000",
    "151936.950000",
    "151938.950000",
    "151940.950000",
    "151942.950000",
    "151944.951000",
    "151946.951000",
    "151948.951000",
    "151950.950000",
    "151952.950000",
    "151954.951000",
    "151956.950000",
    "151958.949000",
    "152000.949000",
    "152002.951000",
    "152004.951000",
    "152006.950000",
    "152008.951000",
    "152010.950000",
    "152012.950000",
    "152014.950000",
    "152016.950000",
    "152018.971000",
    "152020.951000",
    "152022.951000",
    "152024.951000",
    "152026.970000",
    "152028.950000",
    "152030.950000",
    "152032.950000",
    "152034.950000",
    "152036.951000",
    "152038.951000",
    "152040.951000",
    "152042.951000",
    "152044.951000",
    "152046.951000",
    "152048.949000",
    "152050.950000",
    "152052.950000",
    "152054.951000",
    "152056.951000",
    "152058.950000",
    "152100.950000",
    "152102.950000",
    "152104.950000",
    "152106.949000",
    "152108.950000",
    "152110.950000",
    "152112.950000",
    "152114.951000",
    "152116.950000",
    "152118.950000",
    "152120.951000",
    "152122.950000",
    "152124.950000",
    "152126.950000",
    "152128.950000",
    "152130.951000",
    "152132.951000",
    "152134.951000",
    "152136.950000",
    "152138.950000",
    "152140.949000",
    "152142.970000",
    "152144.950000",
    "152146.951000",
    "152148.950000",
    "152150.951000",
    "152152.950000",
    "152154.950000",
    "152156.950000",
    "152158.949000",
    "152200.950000",
    "152202.949000",
    "152204.950000",
    "152206.950000",
    "152208.951000",
    "152210.950000",
    "152212.950000",
    "152214.950000",
    "152216.949000",
    "152218.949000",
    "152220.949000",
    "152222.950000",
    "152224.950000",
    "152226.950000",
    "152228.950000",
    "152230.950000",
    "152232.949000",
    "152234.949000",
    "152236.949000",
    "152238.950000",
    "152240.950000",
    "152242.951000",
    "152244.950000",
    "152246.950000",
    "152248.951000",
    "152250.949000",
    "152252.949000",
    "152254.949000",
    "152256.950000",
    "152258.950000",
    "152300.950000",
    "152302.950000",
    "152304.950000",
    "152306.950000",
    "152308.949000",
    "152310.949000",
    "152312.949000",
    "152314.951000",
    "152316.951000",
    "152318.970000",
    "152320.950000",
    "152322.950000",
    "152324.950000",
    "152326.950000",
    "152328.950000",
    "152330.951000",
    "152332.951000",
    "152334.950000",
    "152336.951000",
    "152338.951000",
    "152340.951000",
    "152342.949000",
    "152344.949000",
    "152346.949000",
    "152348.951000",
    "152350.951000",
    "152352.950000",
    "152354.950000",
    "152356.951000",
    "152358.950000",
    "152400.950000",
    "152402.949000",
    "152404.950000",
    "152406.950000",
    "152408.950000",
    "152410.950000",
    "152412.950000",
    "152414.950000",
    "152416.951000",
    "152418.949000",
    "152420.949000",
    "152422.949000",
    "152424.950000",
    "152426.951000",
    "152428.950000",
    "152430.950000",
    "152432.951000",
    "152434.950000",
    "152436.949000",
    "152438.949000",
    "152440.950000",
    "152442.950000",
    "152444.950000",
    "152446.951000",
    "152448.951000",
    "152450.950000",
    "152452.949000",
    "152454.949000",
    "152456.949000",
    "152458.950000",
    "152500.950000",
    "152502.950000",
    "152504.950000",
    "152506.951000",
    "152508.950000",
    "152510.949000",
    "152512.949000",
    "152514.949000",
    "152516.950000",
    "152518.950000",
    "152520.950000",
    "152522.950000",
    "152524.950000",
    "152526.951000",
    "152528.949000",
    "152530.950000",
    "152532.949000",
    "152534.950000",
    "152536.951000",
    "152538.950000",
    "152540.950000",
    "152542.950000",
    "152544.950000",
    "152546.949000",
    "152548.949000",
    "152550.951000",
    "152552.950000",
    "152554.950000",
    "152556.950000",
    "152558.950000",
    "152600.950000",
    "152602.949000",
    "152604.949000",
    "152606.950000",
    "152608.950000",
    "152610.950000",
    "152612.951000",
    "152614.951000",
    "152616.950000",
    "152618.950000",
    "152620.949000",
    "152622.949000",
    "152624.950000",
    "152626.950000",
    "152628.950000",
    "152630.950000",
    "152632.950000",
    "152634.950000",
    "152636.966000",
    "152638.949000",
    "152640.949000",
    "152642.949000",
    "152644.951000",
    "152646.950000",
    "152648.950000",
    "152650.950000",
    "152652.951000",
    "152654.950000",
    "152656.950000",
    "152658.950000",
    "152700.950000",
    "152702.951000",
    "152704.951000",
    "152706.951000",
    "152708.951000",
    "152710.951000",
    "152712.950000",
    "152714.950000",
    "152716.950000",
    "152718.951000",
    "152720.951000",
    "152722.950000",
    "152724.751000"
   ],
   "InstanceNumber": [
    1,
    2,
    3,
    4,
    5,
    6,
    7,
    8,
    9,
    10,
    11,
    12,
    13,
    14,
    15,
    16,
    17,
    18,
    19,
    20,
    21,
    22,
    23,
    24,
    25,
    26,
    27,
    28,
    29,
    30,
    31,
    32,
    33,
    34,
    35,
    36,
    37,
    38,
    39,
    40,
    41,
    42,
    43,
    44,
    45,
    46,
    47,
    48,
    49,
    50,
    51,
    52,
    53,
    54,
    55,
    56,
    57,
    58,
    59,
    60,
    61,
    62,
    63,
    64,
    65,
    66,
    67,
    68,
    69,
    70,
    71,
    72,
    73,
    74,
    75,
    76,
    77,
    78,
    79,
    80,
    81,
    82,
    83,
    84,
    85,
    86,
    87,
    88,
    89,
    90,
    91,
    92,
    93,
    94,
    95,
    96,
    97,
    98,
    99,
    100,
    101,
    102,
    103,
    104,
    105,
    106,
    107,
    108,
    109,
    110,
    111,
    112,
    113,
    114,
    115,
    116,
    117,
    118,
    119,
    120,
    121,
    122,
    123,
    124,
    125,
    126,
    127,
    128,
    129,
    130,
    131,
    132,
    133,
    134,
    135,
    136,
    137,
    138,
    139,
    140,
    141,
    142,
    143,
    144,
    145,
    146,
    147,
    148,
    149,
    150,
    151,
    152,
    153,
    154,
    155,
    156,
    157,
    158,
    159,
    160,
    161,
    162,
    163,
    164,
    165,
    166,
    167,
    168,
    169,
    170,
    171,
    172,
    173,
    174,
    175,
    176,
    177,
    178,
    179,
    180,
    181,
    182,
    183,
    184,
    185,
    186,
    187,
    188,
    189,
    190,
    191,
    192,
    193,
    194,
    195,
    196,
    197,
    198,
    199,
    200,
    201,
    202,
    203,
    204,
    205,
    206,
    207,
    208,
    209,
    210,
    211,
    212,
    213,
    214,
    215,
    216,
    217,
    218,
    219,
    220,
    221,
    222,
    223,
    224,
    225,
    226,
    227,
    228,
    229,
    230,
    231,
    232,
    233,
    234,
    235,
    236,
    237,
    238,
    239,
    240,
    241,
    242,
    243,
    244,
    245,
    246,
    247,
    248,
    249,
    250,
    251,
    252,
    253,
    254,
    255,
    256
   ],
   "LargestImagePixelValue": [
    2676,
    2765,
    2588,
    2575,
    2553,
    2560,
    2571,
    2558,
    2627,
    2548,
    2586,
    2585,
    2532,
    2565,
    2579,
    2589,
    2567,
    2585,
    2590,
    2571,
    2572,
    2663,
    2607,
    2542,
    2582,
    2577,
    2603,
    2591,
    2590,
    2626,
    2598,
    2600,
    2592,
    2562,
    2587,
    2568,
    2589,
    2600,
    2616,
    2573,
    2621,
    2583,
    2591,
    2596,
    2562,
    2557,
    2605,
    2587,
    2578,
    2556,
    2580,
    2594,
    2618,
    2561,
    2546,
    2581,
    2606,
    2578,
    2620,
    2597,
    2570,
    2566,
    2589,
    2581,
    2567,
    2617,
    2756,
    2590,
    2623,
    2610,
    2588,
    2568,
    2672,
    2608,
    2611,
    2584,
    2652,
    2577,
    2620,
    2579,
    2617,
    2601,
    2587,
    2598,
    2612,
    2619,
    2645,
    2602,
    2621,
    2610,
    2720,
    2595,
    2612,
    2598,
    2723,
    2675,
    2661,
    2608,
    2621,
    2610,
    2610,
    2573,
    2591,
    2761,
    2601,
    2633,
    2585,
    2606,
    2626,
    2595,
    2578,
    2651,
    2767,
    2610,
    2639,
    2739,
    2638,
    2586,
    2615,
    2564,
    2754,
    2735,
    2587,
    2600,
    2639,
    2608,
    2680,
    2637,
    2615,
    2621,
    2690,
    2677,
    2588,
    2558,
    2699,
    2612,
    2579,
    2600,
    2620,
    2722,
    2614,
    2566,
    2608,
    2599,
    2696,
    2597,
    2674,
    2657,
    2596,
    2619,
    2671,
    2645,
    2602,
    2640,
    2764,
    2677,
    2613,
    2749,
    2581,
    2608,
    2715,
    2690,
    2601,
    2715,
    2666,
    2598,
    2609,
    2631,
    2795,
    2593,
    2598,
    2715,
    2630,
    2606,
    2751,
    2575,
    2611,
    2561,
    2590,
    2614,
    2790,
    2712,
    2605,
    2577,
    2808,
    2814,
    2587,
    2717,
    2580,
    2648,
    2572,
    2687,
    2655,
    2628,
    2617,
    2583,
    2809,
    2611,
    2735,
    2711,
    2628,
    2701,
    2573,
    2695,
    2611,
    2726,
    2628,
    2603,
    2667,
    2624,
    2729,
    2647,
    2633,
    2628,
    2594,
    2649,
    2638,
    2827,
    2710,
    2611,
    2615,
    2808,
    2608,
    2703,
    2709,
    2663,
    2614,
    2661,
    2866,
    2598,
    2612,
    2604,
    2746,
    2655,
    2620,
    2730,
    2663,
    2610,
    2656,
    2672,
    2666,
    2621,
    2579,
    2612,
    2664,
    2603,
    2645,
    2694,
    2686,
    2579,
    2587,
    2724,
    2706,
    2575,
    2646,
    2627
   ],
   "WindowCenter": [
    751.0,
    751.0,
    749.0,
    748.0,
    748.0,
    747.0,
    746.0,
    746.0,
    746.0,
    747.0,
    751.0,
    750.0,
    748.0,
    747.0,
    747.0,
    748.0,
    749.0,
    748.0,
    748.0,
    747.0,
    747.0,
    749.0,
    749.0,
    749.0,
    750.0,
    749.0,
    750.0,
    749.0,
    749.0,
    749.0,
    749.0,
    748.0,
    747.0,
    748.0,
    751.0,
    749.0,
    748.0,
    748.0,
    750.0,
    749.0,
    749.0,
    748.0,
    748.0,
    749.0,
    748.0,
    748.0,
    749.0,
    749.0,
    750.0,
    749.0,
    748.0,
    749.0,
    749.0,
    748.0,
    749.0,
    748.0,
    747.0,
    748.0,
    751.0,
    750.0,
    748.0,
    747.0,
    748.0,
    747.0,
    748.0,
    748.0,
    749.0,
    746.0,
    747.0,
    749.0,
    749.0,
    748.0,
    749.0,
    747.0,
    748.0,
    747.0,
    748.0,
    747.0,
    749.0,
    748.0,
    749.0,
    749.0,
    752.0,
    751.0,
    749.0,
    748.0,
    749.0,
    748.0,
    749.0,
    749.0,
    750.0,
    748.0,
    747.0,
    748.0,
    750.0,
    748.0,
    748.0,
    747.0,
    747.0,
    747.0,
    748.0,
    748.0,
    749.0,
    749.0,
    747.0,
    749.0,
    750.0,
    749.0,
    748.0,
    748.0,
    749.0,
    749.0,
    750.0,
    748.0,
    748.0,
    748.0,
    747.0,
    747.0,
    749.0,
    748.0,
    751.0,
    750.0,
    748.0,
    748.0,
    750.0,
