{
 "AcquisitionMatrixPE": 100,
 "AcquisitionNumber": 1,
 "AcquisitionTime": "16:01:4.927500",
 "BandwidthPerPixelPhaseEncode": 18.519,
 "BaseResolution": 100,
 "BodyPartExamined": "BRAIN",
 "ConsistencyInfo": "N4_VE11C_LATEST_20160120",
 "ConversionSoftware": "dcm2niix",
 "ConversionSoftwareVersion": "v1.0.20180622 GCC4.9.2",
 "DerivedVendorReportedEchoSpacing": 0.000539986,
 "DeviceSerialNumber": "166078",
 "DwellTime": 2.1e-06,
 "EchoTime": 0.034,
 "EchoTrainLength": 100,
 "EffectiveEchoSpacing": 0.000539986,
 "FlipAngle": 90,
 "ImageOrientationPatientDICOM": [
  1,
  0,
  0,
  0,
  0.979223,
  -0.202787
 ],
 "ImageType": [
  "ORIGINAL",
  "PRIMARY",
  "M",
  "ND",
  "MOSAIC"
 ],
 "InPlanePhaseEncodingDirectionDICOM": "COL",
 "InstitutionAddress": "Street_StreetNo_Bei_Jing_District_CN_ZIP",
 "InstitutionName": "BeiJing_Normal_University",
 "InstitutionalDepartmentName": "Department",
 "MRAcquisitionType": "2D",
 "MagneticFieldStrength": 3,
 "Manufacturer": "Siemens",
 "ManufacturersModelName": "Prisma",
 "Modality": "MR",
 "MultibandAccelerationFactor": 3,
 "PartialFourier": 1,
 "PatientPosition": "HFS",
 "PercentPhaseFOV": 100,
 "PhaseEncodingDirection": "j-",
 "PhaseEncodingSteps": 100,
 "PhaseResolution": 1,
 "PixelBandwidth": 2380,
 "ProcedureStepDescription": "BNU_P2018_64CH_Zhen.ZongLei",
 "ProtocolName": "bold_100x100_s3_2x2x2_static_256",
 "PulseSequenceDetails": "%SiemensSeq%_ep2d_bold",
 "ReceiveCoilActiveElements": "HC1-7;NC1",
 "ReceiveCoilName": "HeadNeck_64",
 "ReconMatrixPE": 100,
 "RepetitionTime": 2,
 "SAR": 0.072326,
 "ScanOptions": "FS",
 "ScanningSequence": "EP",
 "SequenceName": "_epfid2d1_100",
 "SequenceVariant": "SK",
 "SeriesDescription": "bold_100x100_s3_2x2x2_static_256",
 "SeriesNumber": 10,
 "ShimSetting": [
  -5461,
  -11506,
  -1281,
  266,
  -49,
  -321,
  -80,
  58
 ],
 "SliceThickness": 2,
 "SliceTiming": [
  1.485,
  0,
  0.99,
  0.0825,
  1.0725,
  0.165,
  1.155,
  0.2475,
  1.2375,
  0.33,
  1.32,
  0.4125,
  1.4025,
  0.5775,
  1.5675,
  0.66,
  1.65,
  0.7425,
  1.7325,
  0.825,
  1.815,
  0.9075,
  1.8975,
  0.495,
  1.485,
  0,
  0.99,
  0.0825,
  1.0725,
  0.165,
  1.155,
  0.2475,
  1.2375,
  0.33,
  1.32,
  0.4125,
  1.4025,
  0.5775,
  1.5675,
  0.66,
  1.65,
  0.7425,
  1.7325,
  0.825,
  1.815,
  0.9075,
  1.8975,
  0.495,
  1.485,
  0,
  0.99,
  0.0825,
  1.0725,
  0.165,
  1.155,
  0.2475,
  1.2375,
  0.33,
  1.32,
  0.4125,
  1.4025,
  0.5775,
  1.5675,
  0.66,
  1.65,
  0.7425,
  1.7325,
  0.825,
  1.815,
  0.9075,
  1.8975,
  0.495
 ],
 "SoftwareVersions": "syngo_MR_E11",
 "SpacingBetweenSlices": 2,
 "StationName": "AWP166078",
 "TaskName": "imagenet",
 "TotalReadoutTime": 0.0534586,
 "TxRefAmp": 221.623,
 "dcmmeta_affine": [
  [
   -2.0,
   0.0,
   0.0,
   99.32203674316406
  ],
  [
   0.0,
   1.95844566822052,
   -0.4055745601654053,
   -72.185791015625
  ],
  [
   0.0,
   0.4055745601654053,
   1.9584455490112305,
   -91.99361419677734
  ],
  [
   0.0,
   0.0,
   0.0,
   1.0
  ]
 ],
 "dcmmeta_reorient_transform": [
  [
   0.0,
   -1.0,
   0.0,
   99.0
  ],
  [
   1.0,
   0.0,
   0.0,
   0.0
  ],
  [
   0.0,
   0.0,
   1.0,
   0.0
  ],
  [
   0.0,
   0.0,
   0.0,
   1.0
  ]
 ],
 "dcmmeta_shape": [
  100,
  100,
  72,
  256
 ],
 "dcmmeta_slice_dim": 2,
 "dcmmeta_version": 0.6,
 "global": {
  "const": {
   "AcquisitionMatrix": [
    100,
    0,
    0,
    100
   ],
   "AngioFlag": "N",
   "BitsAllocated": 16,
   "BitsStored": 12,
   "BodyPartExamined": "BRAIN",
   "Columns": 900,
   "EchoNumbers": 1,
   "EchoTime": 34.0,
   "EchoTrainLength": 100,
   "FlipAngle": 90.0,
   "HighBit": 11,
   "ImageOrientationPatient": [
    1.0,
    0.0,
    0.0,
    0.0,
    0.97922281297031,
    -0.2027872840158
   ],
   "ImagePositionPatient": [
    -899.32203388214,
    -905.07857542023,
    110.38809510398
   ],
   "ImageType": [
    "ORIGINAL",
    "PRIMARY",
    "M",
    "ND",
    "MOSAIC"
   ],
   "ImagedNucleus": "1H",
   "ImagingFrequency": 123.25772,
   "InPlanePhaseEncodingDirection": "COL",
   "MRAcquisitionType": "2D",
   "MagneticFieldStrength": 3.0,
   "Manufacturer": "SIEMENS",
   "ManufacturerModelName": "Prisma",
   "Modality": "MR",
   "NumberOfAverages": 1.0,
   "NumberOfPhaseEncodingSteps": 100,
   "PercentPhaseFieldOfView": 100.0,
   "PercentSampling": 100.0,
   "PerformedProcedureStepStartTime": "145918.143000",
   "PhotometricInterpretation": "MONOCHROME2",
   "PixelBandwidth": 2380.0,
   "PixelRepresentation": 0,
   "PixelSpacing": [
    2.0,
    2.0
   ],
   "ProtocolName": "bold_100x100_s3_2x2x2_static_256",
   "RepetitionTime": 2000.0,
   "Rows": 900,
   "SAR": 0.07232598348591,
   "SamplesPerPixel": 1,
   "ScanOptions": "FS",
   "ScanningSequence": "EP",
   "SequenceName": "*epfid2d1_100",
   "SequenceVariant": "SK",
   "SeriesDescription": "bold_100x100_s3_2x2x2_static_256",
   "SeriesNumber": 10,
   "SeriesTime": "160106.963000",
   "SliceLocation": -75.443885124218,
   "SliceThickness": 2.0,
   "SmallestImagePixelValue": 0,
   "SoftwareVersions": "syngo MR E11",
   "SpacingBetweenSlices": 1.9999999700232,
   "SpecificCharacterSet": "ISO_IR 100",
   "StudyID": "1",
   "StudyTime": "145918.084000",
   "TransmitCoilName": "Body",
   "VariableFlipAngleFlag": "N",
   "WindowCenterWidthExplanation": "Algo1",
   "dBdt": 0.0
  },
  "slices": {}
 },
 "time": {
  "samples": {
   "AcquisitionNumber": [
    1,
    2,
    3,
    4,
    5,
    6,
    7,
    8,
    9,
    10,
    11,
    12,
    13,
    14,
    15,
    16,
    17,
    18,
    19,
    20,
    21,
    22,
    23,
    24,
    25,
    26,
    27,
    28,
    29,
    30,
    31,
    32,
    33,
    34,
    35,
    36,
    37,
    38,
    39,
    40,
    41,
    42,
    43,
    44,
    45,
    46,
    47,
    48,
    49,
    50,
    51,
    52,
    53,
    54,
    55,
    56,
    57,
    58,
    59,
    60,
    61,
    62,
    63,
    64,
    65,
    66,
    67,
    68,
    69,
    70,
    71,
    72,
    73,
    74,
    75,
    76,
    77,
    78,
    79,
    80,
    81,
    82,
    83,
    84,
    85,
    86,
    87,
    88,
    89,
    90,
    91,
    92,
    93,
    94,
    95,
    96,
    97,
    98,
    99,
    100,
    101,
    102,
    103,
    104,
    105,
    106,
    107,
    108,
    109,
    110,
    111,
    112,
    113,
    114,
    115,
    116,
    117,
    118,
    119,
    120,
    121,
    122,
    123,
    124,
    125,
    126,
    127,
    128,
    129,
    130,
    131,
    132,
    133,
    134,
    135,
    136,
    137,
    138,
    139,
    140,
    141,
    142,
    143,
    144,
    145,
    146,
    147,
    148,
    149,
    150,
    151,
    152,
    153,
    154,
    155,
    156,
    157,
    158,
    159,
    160,
    161,
    162,
    163,
    164,
    165,
    166,
    167,
    168,
    169,
    170,
    171,
    172,
    173,
    174,
    175,
    176,
    177,
    178,
    179,
    180,
    181,
    182,
    183,
    184,
    185,
    186,
    187,
    188,
    189,
    190,
    191,
    192,
    193,
    194,
    195,
    196,
    197,
    198,
    199,
    200,
    201,
    202,
    203,
    204,
    205,
    206,
    207,
    208,
    209,
    210,
    211,
    212,
    213,
    214,
    215,
    216,
    217,
    218,
    219,
    220,
    221,
    222,
    223,
    224,
    225,
    226,
    227,
    228,
    229,
    230,
    231,
    232,
    233,
    234,
    235,
    236,
    237,
    238,
    239,
    240,
    241,
    242,
    243,
    244,
    245,
    246,
    247,
    248,
    249,
    250,
    251,
    252,
    253,
    254,
    255,
    256
   ],
   "AcquisitionTime": [
    "160104.927500",
    "160106.927500",
    "160108.927500",
    "160110.927500",
    "160112.927500",
    "160114.927500",
    "160116.927500",
    "160118.927500",
    "160120.927500",
    "160122.927500",
    "160124.927500",
    "160126.927500",
    "160128.927500",
    "160130.927500",
    "160132.927500",
    "160134.927500",
    "160136.927500",
    "160138.927500",
    "160140.927500",
    "160142.927500",
    "160144.927500",
    "160146.927500",
    "160148.927500",
    "160150.927500",
    "160152.927500",
    "160154.927500",
    "160156.927500",
    "160158.927500",
    "160200.927500",
    "160202.927500",
    "160204.927500",
    "160206.927500",
    "160208.927500",
    "160210.927500",
    "160212.927500",
    "160214.927500",
    "160216.927500",
    "160218.927500",
    "160220.927500",
    "160222.927500",
    "160224.927500",
    "160226.927500",
    "160228.927500",
    "160230.927500",
    "160232.927500",
    "160234.927500",
    "160236.927500",
    "160238.927500",
    "160240.927500",
    "160242.927500",
    "160244.927500",
    "160246.927500",
    "160248.927500",
    "160250.927500",
    "160252.927500",
    "160254.927500",
    "160256.927500",
    "160258.927500",
    "160300.927500",
    "160302.927500",
    "160304.927500",
    "160306.927500",
    "160308.927500",
    "160310.927500",
    "160312.927500",
    "160314.927500",
    "160316.927500",
    "160318.927500",
    "160320.927500",
    "160322.927500",
    "160324.927500",
    "160326.927500",
    "160328.927500",
    "160330.927500",
    "160332.927500",
    "160334.927500",
    "160336.927500",
    "160338.927500",
    "160340.927500",
    "160342.927500",
    "160344.927500",
    "160346.927500",
    "160348.927500",
    "160350.927500",
    "160352.927500",
    "160354.927500",
    "160356.927500",
    "160358.927500",
    "160400.927500",
    "160402.927500",
    "160404.927500",
    "160406.927500",
    "160408.927500",
    "160410.927500",
    "160412.927500",
    "160414.927500",
    "160416.927500",
    "160418.927500",
    "160420.927500",
    "160422.927500",
    "160424.927500",
    "160426.927500",
    "160428.927500",
    "160430.927500",
    "160432.927500",
    "160434.927500",
    "160436.927500",
    "160438.927500",
    "160440.927500",
    "160442.927500",
    "160444.927500",
    "160446.927500",
    "160448.927500",
    "160450.927500",
    "160452.927500",
    "160454.927500",
    "160456.927500",
    "160458.927500",
    "160500.927500",
    "160502.927500",
    "160504.927500",
    "160506.927500",
    "160508.927500",
    "160510.927500",
    "160512.927500",
    "160514.927500",
    "160516.927500",
    "160518.927500",
    "160520.927500",
    "160522.927500",
    "160524.927500",
    "160526.927500",
    "160528.927500",
    "160530.927500",
    "160532.927500",
    "160534.927500",
    "160536.927500",
    "160538.927500",
    "160540.927500",
    "160542.927500",
    "160544.927500",
    "160546.927500",
    "160548.927500",
    "160550.927500",
    "160552.927500",
    "160554.927500",
    "160556.927500",
    "160558.927500",
    "160600.927500",
    "160602.927500",
    "160604.927500",
    "160606.927500",
    "160608.927500",
    "160610.927500",
    "160612.927500",
    "160614.927500",
    "160616.927500",
    "160618.927500",
    "160620.927500",
    "160622.927500",
    "160624.927500",
    "160626.927500",
    "160628.927500",
    "160630.927500",
    "160632.927500",
    "160634.927500",
    "160636.927500",
    "160638.927500",
    "160640.927500",
    "160642.927500",
    "160644.927500",
    "160646.927500",
    "160648.927500",
    "160650.927500",
    "160652.927500",
    "160654.927500",
    "160656.927500",
    "160658.927500",
    "160700.927500",
    "160702.927500",
    "160704.927500",
    "160706.927500",
    "160708.927500",
    "160710.927500",
    "160712.927500",
    "160714.927500",
    "160716.927500",
    "160718.927500",
    "160720.927500",
    "160722.927500",
    "160724.927500",
    "160726.927500",
    "160728.927500",
    "160730.927500",
    "160732.927500",
    "160734.927500",
    "160736.927500",
    "160738.927500",
    "160740.927500",
    "160742.927500",
    "160744.927500",
    "160746.927500",
    "160748.927500",
    "160750.927500",
    "160752.927500",
    "160754.927500",
    "160756.927500",
    "160758.927500",
    "160800.927500",
    "160802.927500",
    "160804.927500",
    "160806.927500",
    "160808.927500",
    "160810.927500",
    "160812.927500",
    "160814.927500",
    "160816.927500",
    "160818.927500",
    "160820.927500",
    "160822.927500",
    "160824.927500",
    "160826.927500",
    "160828.927500",
    "160830.927500",
    "160832.927500",
    "160834.927500",
    "160836.927500",
    "160838.927500",
    "160840.927500",
    "160842.927500",
    "160844.927500",
    "160846.927500",
    "160848.927500",
    "160850.927500",
    "160852.927500",
    "160854.927500",
    "160856.927500",
    "160858.927500",
    "160900.927500",
    "160902.927500",
    "160904.927500",
    "160906.927500",
    "160908.927500",
    "160910.927500",
    "160912.927500",
    "160914.927500",
    "160916.927500",
    "160918.927500",
    "160920.927500",
    "160922.927500",
    "160924.927500",
    "160926.927500",
    "160928.927500",
    "160930.927500",
    "160932.927500",
    "160934.927500"
   ],
   "ContentTime": [
    "160106.966000",
    "160108.461000",
    "160110.460000",
    "160112.460000",
    "160114.460000",
    "160116.460000",
    "160118.460000",
    "160120.460000",
    "160122.461000",
    "160124.461000",
    "160126.460000",
    "160128.460000",
    "160130.460000",
    "160132.460000",
    "160134.460000",
    "160136.460000",
    "160138.460000",
    "160140.460000",
    "160142.461000",
    "160144.961000",
    "160146.460000",
    "160148.460000",
    "160150.460000",
    "160152.460000",
    "160154.460000",
    "160156.460000",
    "160158.460000",
    "160200.461000",
    "160202.460000",
    "160204.461000",
    "160206.460000",
    "160208.460000",
    "160210.460000",
    "160212.461000",
    "160214.461000",
    "160216.462000",
    "160218.462000",
    "160220.460000",
    "160222.460000",
    "160224.460000",
    "160226.461000",
    "160228.460000",
    "160230.460000",
    "160232.460000",
    "160234.461000",
    "160236.460000",
    "160238.460000",
    "160240.460000",
    "160242.461000",
    "160244.460000",
    "160246.461000",
    "160248.461000",
    "160250.461000",
    "160252.461000",
    "160254.461000",
    "160256.460000",
    "160258.460000",
    "160300.461000",
    "160302.461000",
    "160304.460000",
    "160306.461000",
    "160308.461000",
    "160310.461000",
    "160312.460000",
    "160314.461000",
    "160316.460000",
    "160318.460000",
    "160320.461000",
    "160322.460000",
    "160324.460000",
    "160326.462000",
    "160328.462000",
    "160330.460000",
    "160332.461000",
    "160334.461000",
    "160336.460000",
    "160338.461000",
    "160340.460000",
    "160342.460000",
    "160344.461000",
    "160346.460000",
    "160348.461000",
    "160350.460000",
    "160352.460000",
    "160354.460000",
    "160356.460000",
    "160358.461000",
    "160400.460000",
    "160402.462000",
    "160404.460000",
    "160406.461000",
    "160408.460000",
    "160410.460000",
    "160412.460000",
    "160414.461000",
    "160416.460000",
    "160418.461000",
    "160420.461000",
    "160422.460000",
    "160424.461000",
    "160426.461000",
    "160428.460000",
    "160430.461000",
    "160432.461000",
    "160434.461000",
    "160436.462000",
    "160438.462000",
    "160440.460000",
    "160442.460000",
    "160444.460000",
    "160446.460000",
    "160448.461000",
    "160450.460000",
    "160452.461000",
    "160454.462000",
    "160456.461000",
    "160458.461000",
    "160500.460000",
    "160502.461000",
    "160504.460000",
    "160506.960000",
    "160508.460000",
    "160510.460000",
    "160512.461000",
    "160514.460000",
    "160516.461000",
    "160518.460000",
    "160520.460000",
    "160522.460000",
    "160524.460000",
    "160526.460000",
    "160528.461000",
    "160530.462000",
    "160532.460000",
    "160534.460000",
    "160536.461000",
    "160538.460000",
    "160540.460000",
    "160542.460000",
    "160544.460000",
    "160546.461000",
    "160548.461000",
    "160550.460000",
    "160552.461000",
    "160554.461000",
    "160556.461000",
    "160558.461000",
    "160600.461000",
    "160602.461000",
    "160604.461000",
    "160606.461000",
    "160608.460000",
    "160610.460000",
    "160612.460000",
    "160614.460000",
    "160616.460000",
    "160618.461000",
    "160620.960000",
    "160622.462000",
    "160624.460000",
    "160626.461000",
    "160628.461000",
    "160630.461000",
    "160632.460000",
    "160634.960000",
    "160636.460000",
    "160638.461000",
    "160640.461000",
    "160642.461000",
    "160644.461000",
    "160646.461000",
    "160648.461000",
    "160650.960000",
    "160652.460000",
    "160654.460000",
    "160656.461000",
    "160658.462000",
    "160700.460000",
    "160702.460000",
    "160704.461000",
    "160706.461000",
    "160708.460000",
    "160710.461000",
    "160712.461000",
    "160714.462000",
    "160716.461000",
    "160718.461000",
    "160720.473000",
    "160722.460000",
    "160724.460000",
    "160726.461000",
    "160728.460000",
    "160730.460000",
    "160732.962000",
    "160734.460000",
    "160736.461000",
    "160738.461000",
    "160740.461000",
    "160742.461000",
    "160744.460000",
    "160746.460000",
    "160748.961000",
    "160750.462000",
    "160752.461000",
    "160754.461000",
    "160756.461000",
    "160758.461000",
    "160800.461000",
    "160802.460000",
    "160804.461000",
    "160806.462000",
    "160808.462000",
    "160810.461000",
    "160812.461000",
    "160814.461000",
    "160816.461000",
    "160818.461000",
    "160820.460000",
    "160822.461000",
    "160824.461000",
    "160826.461000",
    "160828.460000",
    "160830.461000",
    "160832.461000",
    "160834.461000",
    "160836.460000",
    "160838.461000",
    "160840.460000",
    "160842.461000",
    "160844.461000",
    "160846.460000",
    "160848.460000",
    "160850.460000",
    "160852.461000",
    "160854.460000",
    "160856.460000",
    "160858.461000",
    "160900.462000",
    "160902.460000",
    "160904.461000",
    "160906.461000",
    "160908.460000",
    "160910.460000",
    "160912.460000",
    "160914.460000",
    "160916.462000",
    "160918.461000",
    "160920.460000",
    "160922.461000",
    "160924.460000",
    "160926.461000",
    "160928.460000",
    "160930.460000",
    "160932.480000",
    "160934.461000",
    "160936.514000"
   ],
   "InstanceCreationTime": [
    "160106.966000",
    "160108.461000",
    "160110.460000",
    "160112.460000",
    "160114.460000",
    "160116.460000",
    "160118.460000",
    "160120.460000",
    "160122.461000",
    "160124.461000",
    "160126.460000",
    "160128.460000",
    "160130.460000",
    "160132.460000",
    "160134.460000",
    "160136.460000",
    "160138.460000",
    "160140.460000",
    "160142.461000",
    "160144.961000",
    "160146.460000",
    "160148.460000",
    "160150.460000",
    "160152.460000",
    "160154.460000",
    "160156.460000",
    "160158.460000",
    "160200.461000",
    "160202.460000",
    "160204.461000",
    "160206.460000",
    "160208.460000",
    "160210.460000",
    "160212.461000",
    "160214.461000",
    "160216.462000",
    "160218.462000",
    "160220.460000",
    "160222.460000",
    "160224.460000",
    "160226.461000",
    "160228.460000",
    "160230.460000",
    "160232.460000",
    "160234.461000",
    "160236.460000",
    "160238.460000",
    "160240.460000",
    "160242.461000",
    "160244.460000",
    "160246.461000",
    "160248.461000",
    "160250.461000",
    "160252.461000",
    "160254.461000",
    "160256.460000",
    "160258.460000",
    "160300.461000",
    "160302.461000",
    "160304.460000",
    "160306.461000",
    "160308.461000",
    "160310.461000",
    "160312.460000",
    "160314.461000",
    "160316.460000",
    "160318.460000",
    "160320.461000",
    "160322.460000",
    "160324.460000",
    "160326.462000",
    "160328.462000",
    "160330.460000",
    "160332.461000",
    "160334.461000",
    "160336.460000",
    "160338.461000",
    "160340.460000",
    "160342.460000",
    "160344.461000",
    "160346.460000",
    "160348.461000",
    "160350.460000",
    "160352.460000",
    "160354.460000",
    "160356.460000",
    "160358.461000",
    "160400.460000",
    "160402.462000",
    "160404.460000",
    "160406.461000",
    "160408.460000",
    "160410.460000",
    "160412.460000",
    "160414.461000",
    "160416.460000",
    "160418.461000",
    "160420.461000",
    "160422.460000",
    "160424.461000",
    "160426.461000",
    "160428.460000",
    "160430.461000",
    "160432.461000",
    "160434.461000",
    "160436.462000",
    "160438.462000",
    "160440.460000",
    "160442.460000",
    "160444.460000",
    "160446.460000",
    "160448.461000",
    "160450.460000",
    "160452.461000",
    "160454.462000",
    "160456.461000",
    "160458.461000",
    "160500.460000",
    "160502.461000",
    "160504.460000",
    "160506.960000",
    "160508.460000",
    "160510.460000",
    "160512.461000",
    "160514.460000",
    "160516.461000",
    "160518.460000",
    "160520.460000",
    "160522.460000",
    "160524.460000",
    "160526.460000",
    "160528.461000",
    "160530.462000",
    "160532.460000",
    "160534.460000",
    "160536.461000",
    "160538.460000",
    "160540.460000",
    "160542.460000",
    "160544.460000",
    "160546.461000",
    "160548.461000",
    "160550.460000",
    "160552.461000",
    "160554.461000",
    "160556.461000",
    "160558.461000",
    "160600.461000",
    "160602.461000",
    "160604.461000",
    "160606.461000",
    "160608.460000",
    "160610.460000",
    "160612.460000",
    "160614.460000",
    "160616.460000",
    "160618.461000",
    "160620.960000",
    "160622.462000",
    "160624.460000",
    "160626.461000",
    "160628.461000",
    "160630.461000",
    "160632.460000",
    "160634.960000",
    "160636.460000",
    "160638.461000",
    "160640.461000",
    "160642.461000",
    "160644.461000",
    "160646.461000",
    "160648.461000",
    "160650.960000",
    "160652.460000",
    "160654.460000",
    "160656.461000",
    "160658.462000",
    "160700.460000",
    "160702.460000",
    "160704.461000",
    "160706.461000",
    "160708.460000",
    "160710.461000",
    "160712.461000",
    "160714.462000",
    "160716.461000",
    "160718.461000",
    "160720.473000",
    "160722.460000",
    "160724.460000",
    "160726.461000",
    "160728.460000",
    "160730.460000",
    "160732.962000",
    "160734.460000",
    "160736.461000",
    "160738.461000",
    "160740.461000",
    "160742.461000",
    "160744.460000",
    "160746.460000",
    "160748.961000",
    "160750.462000",
    "160752.461000",
    "160754.461000",
    "160756.461000",
    "160758.461000",
    "160800.461000",
    "160802.460000",
    "160804.461000",
    "160806.462000",
    "160808.462000",
    "160810.461000",
    "160812.461000",
    "160814.461000",
    "160816.461000",
    "160818.461000",
    "160820.460000",
    "160822.461000",
    "160824.461000",
    "160826.461000",
    "160828.460000",
    "160830.461000",
    "160832.461000",
    "160834.461000",
    "160836.460000",
    "160838.461000",
    "160840.460000",
    "160842.461000",
    "160844.461000",
    "160846.460000",
    "160848.460000",
    "160850.460000",
    "160852.461000",
    "160854.460000",
    "160856.460000",
    "160858.461000",
    "160900.462000",
    "160902.460000",
    "160904.461000",
    "160906.461000",
    "160908.460000",
    "160910.460000",
    "160912.460000",
    "160914.460000",
    "160916.462000",
    "160918.461000",
    "160920.460000",
    "160922.461000",
    "160924.460000",
    "160926.461000",
    "160928.460000",
    "160930.460000",
    "160932.480000",
    "160934.461000",
    "160936.514000"
   ],
   "InstanceNumber": [
    1,
    2,
    3,
    4,
    5,
    6,
    7,
    8,
    9,
    10,
    11,
    12,
    13,
    14,
    15,
    16,
    17,
    18,
    19,
    20,
    21,
    22,
    23,
    24,
    25,
    26,
    27,
    28,
    29,
    30,
    31,
    32,
    33,
    34,
    35,
    36,
    37,
    38,
    39,
    40,
    41,
    42,
    43,
    44,
    45,
    46,
    47,
    48,
    49,
    50,
    51,
    52,
    53,
    54,
    55,
    56,
    57,
    58,
    59,
    60,
    61,
    62,
    63,
    64,
    65,
    66,
    67,
    68,
    69,
    70,
    71,
    72,
    73,
    74,
    75,
    76,
    77,
    78,
    79,
    80,
    81,
    82,
    83,
    84,
    85,
    86,
    87,
    88,
    89,
    90,
    91,
    92,
    93,
    94,
    95,
    96,
    97,
    98,
    99,
    100,
    101,
    102,
    103,
    104,
    105,
    106,
    107,
    108,
    109,
    110,
    111,
    112,
    113,
    114,
    115,
    116,
    117,
    118,
    119,
    120,
    121,
    122,
    123,
    124,
    125,
    126,
    127,
    128,
    129,
    130,
    131,
    132,
    133,
    134,
    135,
    136,
    137,
    138,
    139,
    140,
    141,
    142,
    143,
    144,
    145,
    146,
    147,
    148,
    149,
    150,
    151,
    152,
    153,
    154,
    155,
    156,
    157,
    158,
    159,
    160,
    161,
    162,
    163,
    164,
    165,
    166,
    167,
    168,
    169,
    170,
    171,
    172,
    173,
    174,
    175,
    176,
    177,
    178,
    179,
    180,
    181,
    182,
    183,
    184,
    185,
    186,
    187,
    188,
    189,
    190,
    191,
    192,
    193,
    194,
    195,
    196,
    197,
    198,
    199,
    200,
    201,
    202,
    203,
    204,
    205,
    206,
    207,
    208,
    209,
    210,
    211,
    212,
    213,
    214,
    215,
    216,
    217,
    218,
    219,
    220,
    221,
    222,
    223,
    224,
    225,
    226,
    227,
    228,
    229,
    230,
    231,
    232,
    233,
    234,
    235,
    236,
    237,
    238,
    239,
    240,
    241,
    242,
    243,
    244,
    245,
    246,
    247,
    248,
    249,
    250,
    251,
    252,
    253,
    254,
    255,
    256
   ],
   "LargestImagePixelValue": [
    2890,
    2816,
    2891,
    2905,
    3041,
    2761,
    3006,
    2955,
    3022,
    2798,
    2913,
    2930,
    2863,
    2864,
    2928,
    2710,
    2734,
    3046,
    2860,
    3024,
    2972,
    2979,
    2847,
    2782,
    2841,
    2895,
    2691,
    2617,
    2753,
    2775,
    2812,
    2660,
    2713,
    2722,
    2726,
    2854,
    2747,
    2629,
    2627,
    2670,
    2733,
    2749,
    2820,
    2679,
    2669,
    2621,
    2669,
    2948,
    2763,
    2794,
    2908,
    2846,
    2801,
    2761,
    3056,
    2704,
    2676,
    2539,
    2901,
    2817,
    2825,
    2907,
    2851,
    2992,
    2982,
    2746,
    3023,
    2876,
    2838,
    2761,
    2830,
    3166,
    2797,
    2743,
    2800,
    2806,
    2819,
    2722,
    2774,
    2610,
    2757,
    2685,
    2681,
    2765,
    2764,
    2719,
    2969,
    2829,
    2962,
    2784,
    2744,
    2652,
    2641,
    2916,
    2797,
    2737,
    2667,
    2692,
    2745,
    2775,
    2659,
    2565,
    2862,
    2789,
    2963,
    2794,
    2773,
    2757,
    2846,
    2697,
    2820,
    2654,
    2716,
    2748,
    2670,
    2767,
    2677,
    2802,
    2794,
    2686,
    2899,
    2715,
    2669,
    2763,
    2698,
    2670,
    2872,
    2932,
    2905,
    2964,
    2809,
    2912,
    2621,
    2742,
    2983,
    2891,
    2875,
    2915,
    2737,
    2948,
    2967,
    2627,
    2941,
    3139,
    2824,
    2810,
    2823,
    2948,
    2993,
    2625,
    2989,
    2913,
    2722,
    2703,
    2948,
    2923,
    2863,
    2814,
    3055,
    2923,
    2978,
    2881,
    3012,
    3032,
    2800,
    2736,
    2843,
    2738,
    2783,
    3003,
    2890,
    2737,
    2763,
    2783,
    2608,
    2869,
    2882,
    2812,
    2927,
    2899,
    2952,
    2926,
    3009,
    2993,
    3037,
    2863,
    3039,
    2649,
    3015,
    3076,
    2897,
    2786,
    2693,
    3019,
    2959,
    2906,
    2961,
    2891,
    2850,
    2939,
    3020,
    2852,
    2918,
    2906,
    3103,
    2898,
    2897,
    2689,
    2885,
    2957,
    3125,
    3233,
    3000,
    2791,
    2915,
    2984,
    2922,
    2849,
    2950,
    2922,
    2988,
    3012,
    3047,
    2956,
    3182,
    3098,
    3037,
    2822,
    2940,
    3008,
    2905,
    2850,
    2849,
    3038,
    2950,
    2999,
    3163,
    2837,
    3003,
    2985,
    2910,
    3037,
    3028,
    2835,
    2869,
    2863,
    3025,
    3126,
    3007,
    3008,
    2984,
    3105,
    2996,
    3002,
    3130,
    3113
   ],
   "WindowCenter": [
    757.0,
    753.0,
    753.0,
    753.0,
    755.0,
    753.0,
    756.0,
    754.0,
    755.0,
    755.0,
    757.0,
    755.0,
    753.0,
    752.0,
    754.0,
    752.0,
    752.0,
    755.0,
    755.0,
    755.0,
    754.0,
    754.0,
    755.0,
    752.0,
    753.0,
    752.0,
    751.0,
    751.0,
    753.0,
    752.0,
    751.0,
    749.0,
    751.0,
    751.0,
    752.0,
    753.0,
    750.0,
    748.0,
    751.0,
    750.0,
    749.0,
    749.0,
    751.0,
    750.0,
    750.0,
    750.0,
    752.0,
    755.0,
    754.0,
    753.0,
    753.0,
    752.0,
    752.0,
    752.0,
    755.0,
    750.0,
    749.0,
    749.0,
    755.0,
    754.0,
    752.0,
    752.0,
    752.0,
    754.0,
    755.0,
    752.0,
    754.0,
    752.0,
    751.0,
    752.0,
    755.0,
    756.0,
    752.0,
    750.0,
    751.0,
    751.0,
    752.0,
    752.0,
    752.0,
    752.0,
    753.0,
    753.0,
    752.0,
    751.0,
    752.0,
    751.0,
    754.0,
    753.0,
    756.0,
    754.0,
    751.0,
    748.0,
    749.0,
    755.0,
    753.0,
    751.0,
    750.0,
    751.0,
    752.0,
    751.0,
    751.0,
    751.0,
    755.0,
    753.0,
    753.0,
    751.0,
    752.0,
    752.0,
    754.0,
    751.0,
    752.0,
    749.0,
    750.0,
    751.0,
    751.0,
    751.0,
    750.0,
    753.0,
    754.0,
    753.0,
    754.0,
    751.0,
    750.0,
    750.0,
    750.0,
