{
  "AcquisitionMatrixPE": 100,
  "AcquisitionNumber": 1,
  "AcquisitionTime": "13:14:38.927500",
  "BandwidthPerPixelPhaseEncode": 18.519,
  "BaseResolution": 100,
  "BodyPartExamined": "BRAIN",
  "ConsistencyInfo": "N4_VE11C_LATEST_20160120",
  "ConversionSoftware": "dcm2niix",
  "ConversionSoftwareVersion": "v1.0.20180622 GCC4.9.2",
  "DerivedVendorReportedEchoSpacing": 0.000539986,
  "DeviceSerialNumber": "166078",
  "DwellTime": 2.1e-06,
  "EchoTime": 0.034,
  "EchoTrainLength": 100,
  "EffectiveEchoSpacing": 0.000539986,
  "FlipAngle": 90,
  "ImageOrientationPatientDICOM": [0.999997, -0.00016969, -0.00242854, -2.63927e-08, 0.997567, -0.0697142],
  "ImageType": [
    "ORIGINAL",
    "PRIMARY",
    "M",
    "ND",
    "MOSAIC"
],
  "InPlanePhaseEncodingDirectionDICOM": "COL",
  "InstitutionAddress": "Street_StreetNo_Bei_Jing_District_CN_ZIP",
  "InstitutionName": "BeiJing_Normal_University",
  "InstitutionalDepartmentName": "Department",
  "MRAcquisitionType": "2D",
  "MagneticFieldStrength": 3,
  "Manufacturer": "Siemens",
  "ManufacturersModelName": "Prisma",
  "Modality": "MR",
  "MultibandAccelerationFactor": 3,
  "PartialFourier": 1,
  "PatientPosition": "HFS",
  "PercentPhaseFOV": 100,
  "PhaseEncodingDirection": "j-",
  "PhaseEncodingSteps": 100,
  "PhaseResolution": 1,
  "PixelBandwidth": 2380,
  "ProcedureStepDescription": "BNU_P2018_64CH_Zhen.ZongLei",
  "ProtocolName": "bold_100x100_s3_2x2x2_static_256",
  "PulseSequenceDetails": "%SiemensSeq%_ep2d_bold",
  "ReceiveCoilActiveElements": "HC1-7;NC1",
  "ReceiveCoilName": "HeadNeck_64",
  "ReconMatrixPE": 100,
  "RepetitionTime": 2,
  "SAR": 0.0732489,
  "ScanOptions": "FS",
  "ScanningSequence": "EP",
  "SequenceName": "_epfid2d1_100",
  "SequenceVariant": "SK",
  "SeriesDescription": "bold_100x100_s3_2x2x2_static_256",
  "SeriesNumber": 4,
  "ShimSetting": [-5444, -11503, -1290, 509, 13, -153, -12, 62],
  "SliceThickness": 2,
  "SliceTiming": [1.485, 0, 0.99, 0.0825, 1.0725, 0.165, 1.155, 0.2475, 1.2375, 0.33, 1.32, 0.4125, 1.4025, 0.5775, 1.5675, 0.66, 1.65, 0.7425, 1.7325, 0.825, 1.815, 0.9075, 1.8975, 0.495, 1.485, 0, 0.99, 0.0825, 1.0725, 0.165, 1.155, 0.2475, 1.2375, 0.33, 1.32, 0.4125, 1.4025, 0.5775, 1.5675, 0.66, 1.65, 0.7425, 1.7325, 0.825, 1.815, 0.9075, 1.8975, 0.495, 1.485, 0, 0.99, 0.0825, 1.0725, 0.165, 1.155, 0.2475, 1.2375, 0.33, 1.32, 0.4125, 1.4025, 0.5775, 1.5675, 0.66, 1.65, 0.7425, 1.7325, 0.825, 1.815, 0.9075, 1.8975, 0.495],
  "SoftwareVersions": "syngo_MR_E11",
  "SpacingBetweenSlices": 2,
  "StationName": "AWP166078",
  "TaskName": "naturalvision",
  "TotalReadoutTime": 0.0534586,
  "TxRefAmp": 209.577,
  "dcmmeta_affine": [
    [-1.9999940395355225, -5.2785381399189646e-08, -0.004868932068347931, 101.43583679199219],
    [0.00033938096021302044, 1.9951339960098267, -0.13942795991897583, -92.0417251586914],
    [-0.0048570893704891205, 0.13942837715148926, 1.9951281547546387, -72.13668060302734],
    [0.0, 0.0, 0.0, 1.0]
],
  "dcmmeta_reorient_transform": [
    [0.0, -1.0, 0.0, 99.0],
    [1.0, 0.0, 0.0, 0.0],
    [0.0, 0.0, 1.0, 0.0],
    [0.0, 0.0, 0.0, 1.0]
],
  "dcmmeta_shape": [100, 100, 72, 256],
  "dcmmeta_slice_dim": 2,
  "dcmmeta_version": 0.6,
  "global": {
    "const": {
      "AcquisitionMatrix": [100, 0, 0, 100],
      "AngioFlag": "N",
      "BitsAllocated": 16,
      "BitsStored": 12,
      "BodyPartExamined": "BRAIN",
      "Columns": 900,
      "EchoNumbers": 1,
      "EchoTime": 34.0,
      "EchoTrainLength": 100,
      "FlipAngle": 90.0,
      "HighBit": 11,
      "ImageOrientationPatient": [0.99999703668354, -0.0001696904791, -0.0024285446837, -2.639269e-08, 0.99756700640291, -0.0697141860481],
      "ImagePositionPatient": [-901.43344312331, -903.39439596927, -0.6190887281293],
      "ImageType": [
        "ORIGINAL",
        "PRIMARY",
        "M",
        "ND",
        "MOSAIC"
],
      "ImagedNucleus": "1H",
      "ImagingFrequency": 123.257767,
      "InPlanePhaseEncodingDirection": "COL",
      "MRAcquisitionType": "2D",
      "MagneticFieldStrength": 3.0,
      "Manufacturer": "SIEMENS",
      "ManufacturerModelName": "Prisma",
      "Modality": "MR",
      "NumberOfAverages": 1.0,
      "NumberOfPhaseEncodingSteps": 100,
      "PercentPhaseFieldOfView": 100.0,
      "PercentSampling": 100.0,
      "PerformedProcedureStepStartTime": "130856.311000",
      "PhotometricInterpretation": "MONOCHROME2",
      "PixelBandwidth": 2380.0,
      "PixelRepresentation": 0,
      "PixelSpacing": [2.0, 2.0],
      "ProtocolName": "bold_100x100_s3_2x2x2_static_256",
      "RepetitionTime": 2000.0,
      "Rows": 900,
      "SAR": 0.07324894248608,
      "SamplesPerPixel": 1,
      "ScanOptions": "FS",
      "ScanningSequence": "EP",
      "SequenceName": "*epfid2d1_100",
      "SequenceVariant": "SK",
      "SeriesDescription": "bold_100x100_s3_2x2x2_static_256",
      "SeriesNumber": 4,
      "SeriesTime": "131441.055000",
      "SliceLocation": -65.791308048181,
      "SliceThickness": 2.0,
      "SmallestImagePixelValue": 0,
      "SoftwareVersions": "syngo MR E11",
      "SpacingBetweenSlices": 2.0000000472335,
      "SpecificCharacterSet": "ISO_IR 100",
      "StudyID": "1",
      "StudyTime": "130856.194000",
      "TransmitCoilName": "Body",
      "VariableFlipAngleFlag": "N",
      "WindowCenterWidthExplanation": "Algo1",
      "dBdt": 0.0},
    "slices": {}
  },
  "time": {
    "samples": {
      "AcquisitionNumber": [1, 2, 3, 4, 5, 6, 7, 8, 9, 10, 11, 12, 13, 14, 15, 16, 17, 18, 19, 20, 21, 22, 23, 24, 25, 26, 27, 28, 29, 30, 31, 32, 33, 34, 35, 36, 37, 38, 39, 40, 41, 42, 43, 44, 45, 46, 47, 48, 49, 50, 51, 52, 53, 54, 55, 56, 57, 58, 59, 60, 61, 62, 63, 64, 65, 66, 67, 68, 69, 70, 71, 72, 73, 74, 75, 76, 77, 78, 79, 80, 81, 82, 83, 84, 85, 86, 87, 88, 89, 90, 91, 92, 93, 94, 95, 96, 97, 98, 99, 100, 101, 102, 103, 104, 105, 106, 107, 108, 109, 110, 111, 112, 113, 114, 115, 116, 117, 118, 119, 120, 121, 122, 123, 124, 125, 126, 127, 128, 129, 130, 131, 132, 133, 134, 135, 136, 137, 138, 139, 140, 141, 142, 143, 144, 145, 146, 147, 148, 149, 150, 151, 152, 153, 154, 155, 156, 157, 158, 159, 160, 161, 162, 163, 164, 165, 166, 167, 168, 169, 170, 171, 172, 173, 174, 175, 176, 177, 178, 179, 180, 181, 182, 183, 184, 185, 186, 187, 188, 189, 190, 191, 192, 193, 194, 195, 196, 197, 198, 199, 200, 201, 202, 203, 204, 205, 206, 207, 208, 209, 210, 211, 212, 213, 214, 215, 216, 217, 218, 219, 220, 221, 222, 223, 224, 225, 226, 227, 228, 229, 230, 231, 232, 233, 234, 235, 236, 237, 238, 239, 240, 241, 242, 243, 244, 245, 246, 247, 248, 249, 250, 251, 252, 253, 254, 255, 256],
      "AcquisitionTime": ["131438.927500", "131440.927500", "131442.927500", "131444.927500", "131446.927500", "131448.927500", "131450.927500", "131452.927500", "131454.927500", "131456.927500", "131458.927500", "131500.927500", "131502.927500", "131504.927500", "131506.927500", "131508.927500", "131510.927500", "131512.927500", "131514.927500", "131516.927500", "131518.927500", "131520.927500", "131522.927500", "131524.927500", "131526.927500", "131528.927500", "131530.927500", "131532.927500", "131534.927500", "131536.927500", "131538.927500", "131540.927500", "131542.927500", "131544.927500", "131546.927500", "131548.927500", "131550.927500", "131552.927500", "131554.927500", "131556.927500", "131558.927500", "131600.927500", "131602.927500", "131604.927500", "131606.927500", "131608.927500", "131610.927500", "131612.927500", "131614.927500", "131616.927500", "131618.927500", "131620.927500", "131622.927500", "131624.927500", "131626.927500", "131628.927500", "131630.927500", "131632.927500", "131634.927500", "131636.927500", "131638.927500", "131640.927500", "131642.927500", "131644.927500", "131646.927500", "131648.927500", "131650.927500", "131652.927500", "131654.927500", "131656.927500", "131658.927500", "131700.927500", "131702.927500", "131704.927500", "131706.927500", "131708.927500", "131710.927500", "131712.927500", "131714.927500", "131716.927500", "131718.927500", "131720.927500", "131722.927500", "131724.927500", "131726.927500", "131728.927500", "131730.927500", "131732.927500", "131734.927500", "131736.927500", "131738.927500", "131740.927500", "131742.927500", "131744.927500", "131746.927500", "131748.927500", "131750.927500", "131752.927500", "131754.927500", "131756.927500", "131758.927500", "131800.927500", "131802.927500", "131804.927500", "131806.927500", "131808.927500", "131810.927500", "131812.927500", "131814.927500", "131816.927500", "131818.927500", "131820.927500", "131822.927500", "131824.927500", "131826.927500", "131828.927500", "131830.927500", "131832.927500", "131834.927500", "131836.927500", "131838.927500", "131840.927500", "131842.927500", "131844.927500", "131846.927500", "131848.927500", "131850.927500", "131852.927500", "131854.927500", "131856.927500", "131858.927500", "131900.927500", "131902.927500", "131904.927500", "131906.927500", "131908.927500", "131910.927500", "131912.927500", "131914.927500", "131916.927500", "131918.927500", "131920.927500", "131922.927500", "131924.927500", "131926.927500", "131928.927500", "131930.927500", "131932.927500", "131934.927500", "131936.927500", "131938.927500", "131940.927500", "131942.927500", "131944.927500", "131946.927500", "131948.927500", "131950.927500", "131952.927500", "131954.927500", "131956.927500", "131958.927500", "132000.927500", "132002.927500", "132004.927500", "132006.927500", "132008.927500", "132010.927500", "132012.927500", "132014.927500", "132016.927500", "132018.927500", "132020.927500", "132022.927500", "132024.927500", "132026.927500", "132028.927500", "132030.927500", "132032.927500", "132034.927500", "132036.927500", "132038.927500", "132040.927500", "132042.927500", "132044.927500", "132046.927500", "132048.927500", "132050.927500", "132052.927500", "132054.927500", "132056.927500", "132058.927500", "132100.927500", "132102.927500", "132104.927500", "132106.927500", "132108.927500", "132110.927500", "132112.927500", "132114.927500", "132116.927500", "132118.927500", "132120.927500", "132122.927500", "132124.927500", "132126.927500", "132128.927500", "132130.927500", "132132.927500", "132134.927500", "132136.927500", "132138.927500", "132140.927500", "132142.927500", "132144.927500", "132146.927500", "132148.927500", "132150.927500", "132152.927500", "132154.927500", "132156.927500", "132158.927500", "132200.927500", "132202.927500", "132204.927500", "132206.927500", "132208.927500", "132210.927500", "132212.927500", "132214.927500", "132216.927500", "132218.927500", "132220.927500", "132222.927500", "132224.927500", "132226.927500", "132228.927500", "132230.927500", "132232.927500", "132234.927500", "132236.927500", "132238.927500", "132240.927500", "132242.927500", "132244.927500", "132246.927500", "132248.927500", "132250.927500", "132252.927500", "132254.927500", "132256.927500", "132258.927500", "132300.927500", "132302.927500", "132304.927500", "132306.927500", "132308.927500"],
      "ContentTime": ["131441.059000", "131442.554000", "131444.554000", "131446.554000", "131448.554000", "131450.555000", "131452.554000", "131454.554000", "131456.554000", "131458.554000", "131501.054000", "131502.554000", "131504.554000", "131506.554000", "131508.554000", "131511.055000", "131512.554000", "131514.554000", "131516.555000", "131518.555000", "131520.555000", "131522.554000", "131524.554000", "131526.554000", "131528.554000", "131530.555000", "131532.555000", "131534.554000", "131536.554000", "131538.554000", "131540.554000", "131542.554000", "131544.554000", "131546.554000", "131549.055000", "131550.554000", "131552.554000", "131554.554000", "131556.554000", "131558.556000", "131600.555000", "131602.554000", "131604.554000", "131606.555000", "131608.555000", "131610.554000", "131612.554000", "131614.554000", "131616.555000", "131618.554000", "131620.555000", "131622.554000", "131624.554000", "131626.555000", "131628.555000", "131630.554000", "131632.555000", "131634.555000", "131636.555000", "131638.554000", "131640.554000", "131642.554000", "131644.554000", "131646.554000", "131648.555000", "131650.554000", "131652.554000", "131654.554000", "131656.554000", "131658.555000", "131700.554000", "131702.555000", "131704.554000", "131706.554000", "131708.555000", "131710.554000", "131712.555000", "131714.554000", "131716.554000", "131718.554000", "131720.554000", "131722.554000", "131724.574000", "131726.574000", "131729.054000", "131730.554000", "131732.554000", "131734.554000", "131736.554000", "131738.554000", "131740.554000", "131742.554000", "131744.554000", "131746.555000", "131748.555000", "131750.555000", "131752.555000", "131754.554000", "131756.554000", "131758.555000", "131800.554000", "131802.555000", "131804.555000", "131806.554000", "131808.554000", "131810.554000", "131812.555000", "131814.574000", "131816.554000", "131818.555000", "131820.555000", "131822.555000", "131824.554000", "131827.055000", "131828.555000", "131830.554000", "131832.555000", "131834.554000", "131836.554000", "131838.555000", "131840.555000", "131842.554000", "131844.555000", "131846.554000", "131848.555000", "131851.054000", "131852.554000", "131854.555000", "131856.555000", "131858.555000", "131900.554000", "131902.555000", "131904.555000", "131906.555000", "131908.554000", "131910.555000", "131912.554000", "131914.554000", "131916.555000", "131918.554000", "131920.554000", "131922.554000", "131924.555000", "131926.554000", "131928.555000", "131931.055000", "131932.554000", "131934.555000", "131937.055000", "131938.555000", "131940.555000", "131942.554000", "131944.555000", "131946.554000", "131948.555000", "131950.554000", "131952.554000", "131954.555000", "131956.555000", "131958.554000", "132000.555000", "132002.555000", "132004.555000", "132006.555000", "132008.555000", "132010.554000", "132012.555000", "132014.554000", "132016.554000", "132018.555000", "132020.554000", "132022.554000", "132024.555000", "132026.554000", "132028.554000", "132030.554000", "132032.555000", "132034.554000", "132036.555000", "132038.555000", "132040.555000", "132042.554000", "132044.554000", "132046.555000", "132048.555000", "132050.554000", "132052.554000", "132054.555000", "132056.554000", "132058.555000", "132100.554000", "132102.554000", "132104.554000", "132106.555000", "132108.555000", "132110.555000", "132112.554000", "132114.554000", "132116.555000", "132118.554000", "132120.555000", "132122.554000", "132124.574000", "132126.555000", "132128.554000", "132130.554000", "132132.554000", "132134.554000", "132136.554000", "132138.555000", "132140.555000", "132142.555000", "132144.554000", "132146.574000", "132148.555000", "132150.555000", "132152.554000", "132154.554000", "132156.554000", "132158.555000", "132200.571000", "132202.554000", "132204.555000", "132206.554000", "132208.554000", "132210.555000", "132212.555000", "132214.555000", "132216.554000", "132218.555000", "132220.555000", "132222.555000", "132224.555000", "132226.555000", "132228.555000", "132230.554000", "132232.554000", "132234.555000", "132236.554000", "132238.555000", "132240.554000", "132242.554000", "132244.554000", "132246.555000", "132248.554000", "132250.554000", "132252.554000", "132254.554000", "132256.554000", "132258.555000", "132300.555000", "132302.555000", "132304.554000", "132306.554000", "132308.555000", "132310.451000"],
      "InstanceCreationTime": ["131441.059000", "131442.554000", "131444.554000", "131446.554000", "131448.554000", "131450.555000", "131452.554000", "131454.554000", "131456.554000", "131458.554000", "131501.054000", "131502.554000", "131504.554000", "131506.554000", "131508.554000", "131511.055000", "131512.554000", "131514.554000", "131516.555000", "131518.555000", "131520.555000", "131522.554000", "131524.554000", "131526.554000", "131528.554000", "131530.555000", "131532.555000", "131534.554000", "131536.554000", "131538.554000", "131540.554000", "131542.554000", "131544.554000", "131546.554000", "131549.055000", "131550.554000", "131552.554000", "131554.554000", "131556.554000", "131558.556000", "131600.555000", "131602.554000", "131604.554000", "131606.555000", "131608.555000", "131610.554000", "131612.554000", "131614.554000", "131616.555000", "131618.554000", "131620.555000", "131622.554000", "131624.554000", "131626.555000", "131628.555000", "131630.554000", "131632.555000", "131634.555000", "131636.555000", "131638.554000", "131640.554000", "131642.554000", "131644.554000", "131646.554000", "131648.555000", "131650.554000", "131652.554000", "131654.554000", "131656.554000", "131658.555000", "131700.554000", "131702.555000", "131704.554000", "131706.554000", "131708.555000", "131710.554000", "131712.555000", "131714.554000", "131716.554000", "131718.554000", "131720.554000", "131722.554000", "131724.574000", "131726.574000", "131729.054000", "131730.554000", "131732.554000", "131734.554000", "131736.554000", "131738.554000", "131740.554000", "131742.554000", "131744.554000", "131746.555000", "131748.555000", "131750.555000", "131752.555000", "131754.554000", "131756.554000", "131758.555000", "131800.554000", "131802.555000", "131804.555000", "131806.554000", "131808.554000", "131810.554000", "131812.555000", "131814.574000", "131816.554000", "131818.555000", "131820.555000", "131822.555000", "131824.554000", "131827.055000", "131828.555000", "131830.554000", "131832.555000", "131834.554000", "131836.554000", "131838.555000", "131840.555000", "131842.554000", "131844.555000", "131846.554000", "131848.555000", "131851.054000", "131852.554000", "131854.555000", "131856.555000", "131858.555000", "131900.554000", "131902.555000", "131904.555000", "131906.555000", "131908.554000", "131910.555000", "131912.554000", "131914.554000", "131916.555000", "131918.554000", "131920.554000", "131922.554000", "131924.555000", "131926.554000", "131928.555000", "131931.055000", "131932.554000", "131934.555000", "131937.055000", "131938.555000", "131940.555000", "131942.554000", "131944.555000", "131946.554000", "131948.555000", "131950.554000", "131952.554000", "131954.555000", "131956.555000", "131958.554000", "132000.555000", "132002.555000", "132004.555000", "132006.555000", "132008.555000", "132010.554000", "132012.555000", "132014.554000", "132016.554000", "132018.555000", "132020.554000", "132022.554000", "132024.555000", "132026.554000", "132028.554000", "132030.554000", "132032.555000", "132034.554000", "132036.555000", "132038.555000", "132040.555000", "132042.554000", "132044.554000", "132046.555000", "132048.555000", "132050.554000", "132052.554000", "132054.555000", "132056.554000", "132058.555000", "132100.554000", "132102.554000", "132104.554000", "132106.555000", "132108.555000", "132110.555000", "132112.554000", "132114.554000", "132116.555000", "132118.554000", "132120.555000", "132122.554000", "132124.574000", "132126.555000", "132128.554000", "132130.554000", "132132.554000", "132134.554000", "132136.554000", "132138.555000", "132140.555000", "132142.555000", "132144.554000", "132146.574000", "132148.555000", "132150.555000", "132152.554000", "132154.554000", "132156.554000", "132158.555000", "132200.571000", "132202.554000", "132204.555000", "132206.554000", "132208.554000", "132210.555000", "132212.555000", "132214.555000", "132216.554000", "132218.555000", "132220.555000", "132222.555000", "132224.555000", "132226.555000", "132228.555000", "132230.554000", "132232.554000", "132234.555000", "132236.554000", "132238.555000", "132240.554000", "132242.554000", "132244.554000", "132246.555000", "132248.554000", "132250.554000", "132252.554000", "132254.554000", "132256.554000", "132258.555000", "132300.555000", "132302.555000", "132304.554000", "132306.554000", "132308.555000", "132310.451000"],
      "InstanceNumber": [1, 2, 3, 4, 5, 6, 7, 8, 9, 10, 11, 12, 13, 14, 15, 16, 17, 18, 19, 20, 21, 22, 23, 24, 25, 26, 27, 28, 29, 30, 31, 32, 33, 34, 35, 36, 37, 38, 39, 40, 41, 42, 43, 44, 45, 46, 47, 48, 49, 50, 51, 52, 53, 54, 55, 56, 57, 58, 59, 60, 61, 62, 63, 64, 65, 66, 67, 68, 69, 70, 71, 72, 73, 74, 75, 76, 77, 78, 79, 80, 81, 82, 83, 84, 85, 86, 87, 88, 89, 90, 91, 92, 93, 94, 95, 96, 97, 98, 99, 100, 101, 102, 103, 104, 105, 106, 107, 108, 109, 110, 111, 112, 113, 114, 115, 116, 117, 118, 119, 120, 121, 122, 123, 124, 125, 126, 127, 128, 129, 130, 131, 132, 133, 134, 135, 136, 137, 138, 139, 140, 141, 142, 143, 144, 145, 146, 147, 148, 149, 150, 151, 152, 153, 154, 155, 156, 157, 158, 159, 160, 161, 162, 163, 164, 165, 166, 167, 168, 169, 170, 171, 172, 173, 174, 175, 176, 177, 178, 179, 180, 181, 182, 183, 184, 185, 186, 187, 188, 189, 190, 191, 192, 193, 194, 195, 196, 197, 198, 199, 200, 201, 202, 203, 204, 205, 206, 207, 208, 209, 210, 211, 212, 213, 214, 215, 216, 217, 218, 219, 220, 221, 222, 223, 224, 225, 226, 227, 228, 229, 230, 231, 232, 233, 234, 235, 236, 237, 238, 239, 240, 241, 242, 243, 244, 245, 246, 247, 248, 249, 250, 251, 252, 253, 254, 255, 256],
      "LargestImagePixelValue": [3055, 2986, 2956, 2950, 2923, 2996, 2936, 2958, 2951, 2991, 2924, 2933, 2969, 2931, 2960, 2956, 2957, 2955, 2966, 2930, 2928, 2956, 2993, 2975, 2931, 2973, 2937, 2961, 2953, 2963, 2959, 3010, 2993, 2976, 2987, 3011, 3021, 2953, 2984, 2976, 3000, 2990, 3025, 3013, 2966, 2989, 3031, 2999, 3029, 3027, 3036, 2991, 3024, 3037, 3041, 3041, 2982, 3013, 3062, 3004, 3039, 3036, 3005, 3033, 3007, 3050, 3033, 3041, 3008, 3033, 3031, 3076, 3083, 3067, 3046, 3007, 3055, 3064, 3052, 3062, 3043, 3040, 3066, 3085, 3104, 3090, 3057, 3072, 3042, 3052, 3108, 3080, 3077, 3046, 3117, 3121, 3109, 3089, 3094, 3117, 3094, 3116, 3060, 3063, 3073, 3115, 3106, 3096, 3144, 3090, 3089, 3104, 3098, 3097, 3105, 3071, 3116, 3121, 3095, 3124, 3090, 3097, 3100, 3116, 3101, 3049, 3074, 3056, 3120, 3088, 3081, 3069, 3095, 3107, 3102, 3106, 3080, 3092, 3093, 3104, 3109, 3108, 3127, 3105, 3080, 3133, 3162, 3145, 3071, 3102, 3109, 3138, 3135, 3089, 3107, 3143, 3132, 3097, 3097, 3090, 3143, 3134, 3120, 3106, 3128, 3148, 3099, 3141, 3131, 3153, 3116, 3125, 3092, 3100, 3125, 3140, 3125, 3107, 3100, 3152, 3171, 3146, 3143, 3149, 3115, 3158, 3154, 3110, 3093, 3138, 3135, 3151, 3106, 3120, 3118, 3153, 3162, 3120, 3135, 3169, 3132, 3130, 3149, 3166, 3135, 3137, 3104, 3149, 3152, 3156, 3141, 3157, 3117, 3120, 3152, 3158, 3082, 3088, 3166, 3131, 3172, 3154, 3151, 3173, 3162, 3146, 3147, 3177, 3123, 3150, 3153, 3128, 3123, 3130, 3142, 3153, 3134, 3145, 3108, 3163, 3139, 3100, 3126, 3173, 3169, 3165, 3149, 3118, 3097, 3151, 3145, 3127, 3166, 3148, 3164, 3164],
      "WindowCenter": [764.0, 763.0, 762.0, 762.0, 761.0, 761.0, 760.0, 760.0, 762.0, 762.0, 762.0, 762.0, 762.0, 761.0, 762.0, 761.0, 761.0, 761.0, 761.0, 760.0, 760.0, 760.0, 761.0, 760.0, 760.0, 761.0, 760.0, 760.0, 759.0, 759.0, 760.0, 760.0, 759.0, 758.0, 759.0, 759.0, 760.0, 759.0, 758.0, 758.0, 759.0, 760.0, 760.0, 760.0, 759.0, 759.0, 759.0, 758.0, 759.0, 759.0, 760.0, 758.0, 758.0, 758.0, 759.0, 759.0, 759.0, 759.0, 759.0, 758.0, 759.0, 760.0, 760.0, 760.0, 760.0, 761.0, 761.0, 761.0, 761.0, 760.0, 760.0, 760.0, 760.0, 760.0, 760.0, 759.0, 760.0, 760.0, 760.0, 759.0, 758.0, 758.0, 759.0, 761.0, 761.0, 760.0, 759.0, 759.0, 759.0, 759.0, 760.0, 760.0, 760.0, 760.0, 761.0, 761.0, 761.0, 761.0, 762.0, 762.0, 761.0, 761.0, 760.0, 760.0, 761.0, 761.0, 761.0, 760.0, 761.0, 761.0, 761.0, 761.0, 761.0, 761.0, 762.0, 761.0, 761.0, 762.0, 762.0, 762.0, 761.0, 761.0, 761.0, 762.0, 761.0, 760.0, 761.0, 760.0, 761.0, 760.0, 761.0, 762.0, 762.0, 761.0, 761.0, 761.0, 761.0, 761.0, 761.0, 761.0, 761.0, 761.0, 762.0, 762.0, 761.0, 761.0, 761.0, 762.0, 761.0, 760.0, 760.0, 762.0, 762.0, 760.0, 761.0, 761.0, 761.0, 761.0, 761.0, 761.0, 761.0, 760.0, 760.0, 760.0, 761.0, 762.0, 761.0, 762.0, 762.0, 762.0, 761.0, 761.0, 761.0, 761.0, 761.0, 762.0, 761.0, 760.0, 760.0, 762.0, 762.0, 762.0, 762.0, 761.0, 761.0, 762.0, 762.0, 761.0, 761.0, 762.0, 762.0, 761.0, 760.0, 761.0, 761.0, 761.0, 761.0, 761.0, 761.0, 762.0, 761.0, 761.0, 762.0, 762.0, 761.0, 761.0, 760.0, 760.0, 761.0, 762.0, 762.0, 763.0, 763.0, 762.0, 762.0, 763.0, 763.0, 762.0, 761.0, 761.0, 762.0, 761.0, 762.0, 763.0, 763.0, 762.0, 762.0, 763.0, 763.0, 763.0, 762.0, 762.0, 762.0, 761.0, 761.0, 761.0, 762.0, 761.0, 761.0, 761.0, 762.0, 761.0, 762.0, 762.0, 762.0, 763.0, 763.0, 762.0, 761.0, 762.0, 762.0, 762.0, 761.0, 761.0, 763.0, 763.0],
      "WindowWidth": [1656.0, 1653.0, 1651.0, 1649.0, 1647.0, 1647.0, 1644.0, 1645.0, 1650.0, 1651.0, 1649.0, 1649.0, 1649.0, 1648.0, 1648.0, 1647.0, 1647.0, 1645.0, 1646.0, 1645.0, 1643.0, 1644.0, 1646.0, 1644.0, 1644.0, 1646.0, 1645.0, 1643.0, 1642.0, 1642.0, 1643.0, 1643.0, 1640.0, 1638.0, 1640.0, 1641.0, 1642.0, 1640.0, 1639.0, 1639.0, 1642.0, 1644.0, 1645.0, 1643.0, 1641.0, 1641.0, 1641.0, 1637.0, 1640.0, 1642.0, 1642.0, 1639.0, 1638.0, 1640.0, 1641.0, 1642.0, 1642.0, 1641.0, 1640.0, 1637.0, 1642.0, 1645.0, 1644.0, 1643.0, 1644.0, 1647.0, 1647.0, 1647.0, 1645.0, 1643.0, 1643.0, 1644.0, 1644.0, 1644.0, 1643.0, 1642.0, 1643.0, 1643.0, 1643.0, 1641.0, 1638.0, 1639.0, 1641.0, 1647.0, 1647.0, 1643.0, 1640.0, 1639.0, 1639.0, 1641.0, 1643.0, 1642.0, 1643.0, 1643.0, 1646.0, 1646.0, 1647.0, 1648.0, 1649.0, 1648.0, 1647.0, 1646.0, 1645.0, 1644.0, 1645.0, 1645.0, 1646.0, 1643.0, 1645.0, 1647.0, 1646.0, 1645.0, 1646.0, 1647.0, 1648.0, 1646.0, 1647.0, 1647.0, 1648.0, 1648.0, 1647.0, 1647.0, 1648.0, 1648.0, 1646.0, 1643.0, 1645.0, 1644.0, 1645.0, 1643.0, 1646.0, 1649.0, 1650.0, 1648.0, 1645.0, 1645.0, 1645.0, 1645.0, 1646.0, 1646.0, 1645.0, 1646.0, 1649.0, 1648.0, 1647.0, 1646.0, 1647.0, 1647.0, 1645.0, 1644.0, 1644.0, 1647.0, 1648.0, 1644.0, 1645.0, 1646.0, 1647.0, 1645.0, 1646.0, 1647.0, 1646.0, 1644.0, 1643.0, 1643.0, 1646.0, 1648.0, 1647.0, 1648.0, 1650.0, 1650.0, 1647.0, 1645.0, 1647.0, 1646.0, 1647.0, 1648.0, 1646.0, 1643.0, 1643.0, 1647.0, 1649.0, 1648.0, 1647.0, 1646.0, 1646.0, 1648.0, 1647.0, 1646.0, 1647.0, 1648.0, 1648.0, 1646.0, 1644.0, 1645.0, 1646.0, 1646.0, 1646.0, 1644.0, 1646.0, 1648.0, 1646.0, 1645.0, 1647.0, 1648.0, 1647.0, 1644.0, 1642.0, 1644.0, 1646.0, 1649.0, 1650.0, 1651.0, 1650.0, 1649.0, 1650.0, 1650.0, 1650.0, 1647.0, 1647.0, 1646.0, 1647.0, 1646.0, 1648.0, 1651.0, 1651.0, 1650.0, 1649.0, 1651.0, 1650.0, 1651.0, 1650.0, 1648.0, 1648.0, 1646.0, 1646.0, 1647.0, 1647.0, 1647.0, 1646.0, 1647.0, 1647.0, 1647.0, 1647.0, 1649.0, 1650.0, 1651.0, 1651.0, 1649.0, 1647.0, 1648.0, 1649.0, 1648.0, 1647.0, 1647.0, 1650.0, 1652.0]
    },
    "slices": {}
  }
}