{
 "AcquisitionMatrixPE": 100,
 "AcquisitionNumber": 1,
 "AcquisitionTime": "13:23:53.077500",
 "BandwidthPerPixelPhaseEncode": 18.519,
 "BaseResolution": 100,
 "BodyPartExamined": "BRAIN",
 "ConsistencyInfo": "N4_VE11C_LATEST_20160120",
 "ConversionSoftware": "dcm2niix",
 "ConversionSoftwareVersion": "v1.0.20180622 GCC4.9.2",
 "DerivedVendorReportedEchoSpacing": 0.000539986,
 "DeviceSerialNumber": "166078",
 "DwellTime": 2.1e-06,
 "EchoTime": 0.034,
 "EchoTrainLength": 100,
 "EffectiveEchoSpacing": 0.000539986,
 "FlipAngle": 90,
 "ImageOrientationPatientDICOM": [
  0.999997,
  -0.00016969,
  -0.00242854,
  -2.63927e-08,
  0.997567,
  -0.0697142
 ],
 "ImageType": [
  "ORIGINAL",
  "PRIMARY",
  "M",
  "ND",
  "MOSAIC"
 ],
 "InPlanePhaseEncodingDirectionDICOM": "COL",
 "InstitutionAddress": "Street_StreetNo_Bei_Jing_District_CN_ZIP",
 "InstitutionName": "BeiJing_Normal_University",
 "InstitutionalDepartmentName": "Department",
 "MRAcquisitionType": "2D",
 "MagneticFieldStrength": 3,
 "Manufacturer": "Siemens",
 "ManufacturersModelName": "Prisma",
 "Modality": "MR",
 "MultibandAccelerationFactor": 3,
 "PartialFourier": 1,
 "PatientPosition": "HFS",
 "PercentPhaseFOV": 100,
 "PhaseEncodingDirection": "j-",
 "PhaseEncodingSteps": 100,
 "PhaseResolution": 1,
 "PixelBandwidth": 2380,
 "ProcedureStepDescription": "BNU_P2018_64CH_Zhen.ZongLei",
 "ProtocolName": "bold_100x100_s3_2x2x2_static_256",
 "PulseSequenceDetails": "%SiemensSeq%_ep2d_bold",
 "ReceiveCoilActiveElements": "HC1-7;NC1",
 "ReceiveCoilName": "HeadNeck_64",
 "ReconMatrixPE": 100,
 "RepetitionTime": 2,
 "SAR": 0.0732489,
 "ScanOptions": "FS",
 "ScanningSequence": "EP",
 "SequenceName": "_epfid2d1_100",
 "SequenceVariant": "SK",
 "SeriesDescription": "bold_100x100_s3_2x2x2_static_256",
 "SeriesNumber": 5,
 "ShimSetting": [
  -5444,
  -11503,
  -1290,
  509,
  13,
  -153,
  -12,
  62
 ],
 "SliceThickness": 2,
 "SliceTiming": [
  1.485,
  0,
  0.99,
  0.0825,
  1.0725,
  0.165,
  1.155,
  0.2475,
  1.2375,
  0.33,
  1.32,
  0.4125,
  1.4025,
  0.5775,
  1.5675,
  0.66,
  1.65,
  0.7425,
  1.7325,
  0.825,
  1.815,
  0.9075,
  1.8975,
  0.495,
  1.485,
  0,
  0.99,
  0.0825,
  1.0725,
  0.165,
  1.155,
  0.2475,
  1.2375,
  0.33,
  1.32,
  0.4125,
  1.4025,
  0.5775,
  1.5675,
  0.66,
  1.65,
  0.7425,
  1.7325,
  0.825,
  1.815,
  0.9075,
  1.8975,
  0.495,
  1.485,
  0,
  0.99,
  0.0825,
  1.0725,
  0.165,
  1.155,
  0.2475,
  1.2375,
  0.33,
  1.32,
  0.4125,
  1.4025,
  0.5775,
  1.5675,
  0.66,
  1.65,
  0.7425,
  1.7325,
  0.825,
  1.815,
  0.9075,
  1.8975,
  0.495
 ],
 "SoftwareVersions": "syngo_MR_E11",
 "SpacingBetweenSlices": 2,
 "StationName": "AWP166078",
 "TaskName": "imagenet",
 "TotalReadoutTime": 0.0534586,
 "TxRefAmp": 209.577,
 "dcmmeta_affine": [
  [
   -1.9999940395355225,
   -5.2785381399189646e-08,
   -0.004868932068347931,
   101.43583679199219
  ],
  [
   0.00033938096021302044,
   1.9951339960098267,
   -0.13942795991897583,
   -92.0417251586914
  ],
  [
   -0.0048570893704891205,
   0.13942837715148926,
   1.9951281547546387,
   -72.13668060302734
  ],
  [
   0.0,
   0.0,
   0.0,
   1.0
  ]
 ],
 "dcmmeta_reorient_transform": [
  [
   0.0,
   -1.0,
   0.0,
   99.0
  ],
  [
   1.0,
   0.0,
   0.0,
   0.0
  ],
  [
   0.0,
   0.0,
   1.0,
   0.0
  ],
  [
   0.0,
   0.0,
   0.0,
   1.0
  ]
 ],
 "dcmmeta_shape": [
  100,
  100,
  72,
  256
 ],
 "dcmmeta_slice_dim": 2,
 "dcmmeta_version": 0.6,
 "global": {
  "const": {
   "AcquisitionMatrix": [
    100,
    0,
    0,
    100
   ],
   "AngioFlag": "N",
   "BitsAllocated": 16,
   "BitsStored": 12,
   "BodyPartExamined": "BRAIN",
   "Columns": 900,
   "EchoNumbers": 1,
   "EchoTime": 34.0,
   "EchoTrainLength": 100,
   "FlipAngle": 90.0,
   "HighBit": 11,
   "ImageOrientationPatient": [
    0.99999703668354,
    -0.0001696904791,
    -0.0024285446837,
    -2.639269e-08,
    0.99756700640291,
    -0.0697141860481
   ],
   "ImagePositionPatient": [
    -901.43344312331,
    -903.39439596927,
    -0.6190887281293
   ],
   "ImageType": [
    "ORIGINAL",
    "PRIMARY",
    "M",
    "ND",
    "MOSAIC"
   ],
   "ImagedNucleus": "1H",
   "ImagingFrequency": 123.257772,
   "InPlanePhaseEncodingDirection": "COL",
   "MRAcquisitionType": "2D",
   "MagneticFieldStrength": 3.0,
   "Manufacturer": "SIEMENS",
   "ManufacturerModelName": "Prisma",
   "Modality": "MR",
   "NumberOfAverages": 1.0,
   "NumberOfPhaseEncodingSteps": 100,
   "PercentPhaseFieldOfView": 100.0,
   "PercentSampling": 100.0,
   "PerformedProcedureStepStartTime": "130856.311000",
   "PhotometricInterpretation": "MONOCHROME2",
   "PixelBandwidth": 2380.0,
   "PixelRepresentation": 0,
   "PixelSpacing": [
    2.0,
    2.0
   ],
   "ProtocolName": "bold_100x100_s3_2x2x2_static_256",
   "RepetitionTime": 2000.0,
   "Rows": 900,
   "SAR": 0.07324894248608,
   "SamplesPerPixel": 1,
   "ScanOptions": "FS",
   "ScanningSequence": "EP",
   "SequenceName": "*epfid2d1_100",
   "SequenceVariant": "SK",
   "SeriesDescription": "bold_100x100_s3_2x2x2_static_256",
   "SeriesNumber": 5,
   "SeriesTime": "132355.804000",
   "SliceLocation": -65.791308048181,
   "SliceThickness": 2.0,
   "SmallestImagePixelValue": 0,
   "SoftwareVersions": "syngo MR E11",
   "SpacingBetweenSlices": 2.0000000472335,
   "SpecificCharacterSet": "ISO_IR 100",
   "StudyID": "1",
   "StudyTime": "130856.194000",
   "TransmitCoilName": "Body",
   "VariableFlipAngleFlag": "N",
   "WindowCenterWidthExplanation": "Algo1",
   "dBdt": 0.0
  },
  "slices": {}
 },
 "time": {
  "samples": {
   "AcquisitionNumber": [
    1,
    2,
    3,
    4,
    5,
    6,
    7,
    8,
    9,
    10,
    11,
    12,
    13,
    14,
    15,
    16,
    17,
    18,
    19,
    20,
    21,
    22,
    23,
    24,
    25,
    26,
    27,
    28,
    29,
    30,
    31,
    32,
    33,
    34,
    35,
    36,
    37,
    38,
    39,
    40,
    41,
    42,
    43,
    44,
    45,
    46,
    47,
    48,
    49,
    50,
    51,
    52,
    53,
    54,
    55,
    56,
    57,
    58,
    59,
    60,
    61,
    62,
    63,
    64,
    65,
    66,
    67,
    68,
    69,
    70,
    71,
    72,
    73,
    74,
    75,
    76,
    77,
    78,
    79,
    80,
    81,
    82,
    83,
    84,
    85,
    86,
    87,
    88,
    89,
    90,
    91,
    92,
    93,
    94,
    95,
    96,
    97,
    98,
    99,
    100,
    101,
    102,
    103,
    104,
    105,
    106,
    107,
    108,
    109,
    110,
    111,
    112,
    113,
    114,
    115,
    116,
    117,
    118,
    119,
    120,
    121,
    122,
    123,
    124,
    125,
    126,
    127,
    128,
    129,
    130,
    131,
    132,
    133,
    134,
    135,
    136,
    137,
    138,
    139,
    140,
    141,
    142,
    143,
    144,
    145,
    146,
    147,
    148,
    149,
    150,
    151,
    152,
    153,
    154,
    155,
    156,
    157,
    158,
    159,
    160,
    161,
    162,
    163,
    164,
    165,
    166,
    167,
    168,
    169,
    170,
    171,
    172,
    173,
    174,
    175,
    176,
    177,
    178,
    179,
    180,
    181,
    182,
    183,
    184,
    185,
    186,
    187,
    188,
    189,
    190,
    191,
    192,
    193,
    194,
    195,
    196,
    197,
    198,
    199,
    200,
    201,
    202,
    203,
    204,
    205,
    206,
    207,
    208,
    209,
    210,
    211,
    212,
    213,
    214,
    215,
    216,
    217,
    218,
    219,
    220,
    221,
    222,
    223,
    224,
    225,
    226,
    227,
    228,
    229,
    230,
    231,
    232,
    233,
    234,
    235,
    236,
    237,
    238,
    239,
    240,
    241,
    242,
    243,
    244,
    245,
    246,
    247,
    248,
    249,
    250,
    251,
    252,
    253,
    254,
    255,
    256
   ],
   "AcquisitionTime": [
    "132353.077500",
    "132355.077500",
    "132357.077500",
    "132359.077500",
    "132401.077500",
    "132403.077500",
    "132405.077500",
    "132407.077500",
    "132409.077500",
    "132411.077500",
    "132413.077500",
    "132415.077500",
    "132417.077500",
    "132419.077500",
    "132421.077500",
    "132423.077500",
    "132425.077500",
    "132427.077500",
    "132429.077500",
    "132431.077500",
    "132433.077500",
    "132435.077500",
    "132437.077500",
    "132439.077500",
    "132441.077500",
    "132443.077500",
    "132445.077500",
    "132447.077500",
    "132449.077500",
    "132451.077500",
    "132453.077500",
    "132455.077500",
    "132457.077500",
    "132459.077500",
    "132501.077500",
    "132503.077500",
    "132505.077500",
    "132507.077500",
    "132509.077500",
    "132511.077500",
    "132513.077500",
    "132515.077500",
    "132517.077500",
    "132519.077500",
    "132521.077500",
    "132523.077500",
    "132525.077500",
    "132527.077500",
    "132529.077500",
    "132531.077500",
    "132533.077500",
    "132535.077500",
    "132537.077500",
    "132539.077500",
    "132541.077500",
    "132543.077500",
    "132545.077500",
    "132547.077500",
    "132549.077500",
    "132551.077500",
    "132553.077500",
    "132555.077500",
    "132557.077500",
    "132559.077500",
    "132601.077500",
    "132603.077500",
    "132605.077500",
    "132607.077500",
    "132609.077500",
    "132611.077500",
    "132613.077500",
    "132615.077500",
    "132617.077500",
    "132619.077500",
    "132621.077500",
    "132623.077500",
    "132625.077500",
    "132627.077500",
    "132629.077500",
    "132631.077500",
    "132633.077500",
    "132635.077500",
    "132637.077500",
    "132639.077500",
    "132641.077500",
    "132643.077500",
    "132645.077500",
    "132647.077500",
    "132649.077500",
    "132651.077500",
    "132653.077500",
    "132655.077500",
    "132657.077500",
    "132659.077500",
    "132701.077500",
    "132703.077500",
    "132705.077500",
    "132707.077500",
    "132709.077500",
    "132711.077500",
    "132713.077500",
    "132715.077500",
    "132717.077500",
    "132719.077500",
    "132721.077500",
    "132723.077500",
    "132725.077500",
    "132727.077500",
    "132729.077500",
    "132731.077500",
    "132733.077500",
    "132735.077500",
    "132737.077500",
    "132739.077500",
    "132741.077500",
    "132743.077500",
    "132745.077500",
    "132747.077500",
    "132749.077500",
    "132751.077500",
    "132753.077500",
    "132755.077500",
    "132757.077500",
    "132759.077500",
    "132801.077500",
    "132803.077500",
    "132805.077500",
    "132807.077500",
    "132809.077500",
    "132811.077500",
    "132813.077500",
    "132815.077500",
    "132817.077500",
    "132819.077500",
    "132821.077500",
    "132823.077500",
    "132825.077500",
    "132827.077500",
    "132829.077500",
    "132831.077500",
    "132833.077500",
    "132835.077500",
    "132837.077500",
    "132839.077500",
    "132841.077500",
    "132843.077500",
    "132845.077500",
    "132847.077500",
    "132849.077500",
    "132851.077500",
    "132853.077500",
    "132855.077500",
    "132857.077500",
    "132859.077500",
    "132901.077500",
    "132903.077500",
    "132905.077500",
    "132907.077500",
    "132909.077500",
    "132911.077500",
    "132913.077500",
    "132915.077500",
    "132917.077500",
    "132919.077500",
    "132921.077500",
    "132923.077500",
    "132925.077500",
    "132927.077500",
    "132929.077500",
    "132931.077500",
    "132933.077500",
    "132935.077500",
    "132937.077500",
    "132939.077500",
    "132941.077500",
    "132943.077500",
    "132945.077500",
    "132947.077500",
    "132949.077500",
    "132951.077500",
    "132953.077500",
    "132955.077500",
    "132957.077500",
    "132959.077500",
    "133001.077500",
    "133003.077500",
    "133005.077500",
    "133007.077500",
    "133009.077500",
    "133011.077500",
    "133013.077500",
    "133015.077500",
    "133017.077500",
    "133019.077500",
    "133021.077500",
    "133023.077500",
    "133025.077500",
    "133027.077500",
    "133029.077500",
    "133031.077500",
    "133033.077500",
    "133035.077500",
    "133037.077500",
    "133039.077500",
    "133041.077500",
    "133043.077500",
    "133045.077500",
    "133047.077500",
    "133049.077500",
    "133051.077500",
    "133053.077500",
    "133055.077500",
    "133057.077500",
    "133059.077500",
    "133101.077500",
    "133103.077500",
    "133105.077500",
    "133107.077500",
    "133109.077500",
    "133111.077500",
    "133113.077500",
    "133115.077500",
    "133117.077500",
    "133119.077500",
    "133121.077500",
    "133123.077500",
    "133125.077500",
    "133127.077500",
    "133129.077500",
    "133131.077500",
    "133133.077500",
    "133135.077500",
    "133137.077500",
    "133139.077500",
    "133141.077500",
    "133143.077500",
    "133145.077500",
    "133147.077500",
    "133149.077500",
    "133151.077500",
    "133153.077500",
    "133155.077500",
    "133157.077500",
    "133159.077500",
    "133201.077500",
    "133203.077500",
    "133205.077500",
    "133207.077500",
    "133209.077500",
    "133211.077500",
    "133213.077500",
    "133215.077500",
    "133217.077500",
    "133219.077500",
    "133221.077500",
    "133223.077500"
   ],
   "ContentTime": [
    "132355.808000",
    "132357.304000",
    "132359.303000",
    "132401.303000",
    "132403.304000",
    "132405.303000",
    "132406.802000",
    "132409.304000",
    "132411.304000",
    "132413.303000",
    "132415.303000",
    "132417.304000",
    "132419.303000",
    "132421.303000",
    "132423.302000",
    "132425.302000",
    "132427.304000",
    "132428.803000",
    "132431.303000",
    "132433.304000",
    "132435.304000",
    "132437.304000",
    "132439.302000",
    "132441.302000",
    "132443.303000",
    "132445.304000",
    "132447.303000",
    "132449.304000",
    "132451.304000",
    "132453.304000",
    "132455.304000",
    "132457.302000",
    "132459.302000",
    "132501.303000",
    "132503.304000",
    "132505.304000",
    "132506.803000",
    "132508.803000",
    "132511.303000",
    "132513.304000",
    "132515.302000",
    "132517.302000",
    "132518.803000",
    "132521.303000",
    "132523.304000",
    "132524.803000",
    "132526.803000",
    "132528.803000",
    "132531.304000",
    "132533.302000",
    "132534.802000",
    "132537.304000",
    "132539.304000",
    "132541.303000",
    "132543.304000",
    "132545.304000",
    "132547.304000",
    "132549.302000",
    "132551.302000",
    "132553.303000",
    "132555.303000",
    "132557.304000",
    "132559.303000",
    "132601.304000",
    "132602.804000",
    "132605.304000",
    "132607.303000",
    "132609.303000",
    "132611.303000",
    "132613.304000",
    "132615.304000",
    "132617.304000",
    "132619.304000",
    "132621.304000",
    "132623.304000",
    "132625.303000",
    "132627.303000",
    "132629.304000",
    "132631.304000",
    "132633.304000",
    "132634.804000",
    "132637.303000",
    "132639.303000",
    "132641.304000",
    "132643.303000",
    "132645.302000",
    "132647.304000",
    "132649.304000",
    "132651.303000",
    "132652.803000",
    "132655.304000",
    "132657.303000",
    "132659.302000",
    "132701.302000",
    "132702.803000",
    "132705.303000",
    "132707.304000",
    "132708.803000",
    "132711.303000",
    "132713.304000",
    "132715.304000",
    "132717.303000",
    "132719.302000",
    "132721.303000",
    "132723.303000",
    "132725.303000",
    "132727.303000",
    "132729.303000",
    "132731.304000",
    "132733.303000",
    "132735.303000",
    "132737.303000",
    "132739.303000",
    "132741.304000",
    "132743.304000",
    "132745.303000",
    "132747.304000",
    "132748.803000",
    "132751.303000",
    "132753.302000",
    "132755.303000",
    "132757.304000",
    "132759.303000",
    "132801.303000",
    "132803.303000",
    "132805.304000",
    "132807.303000",
    "132809.303000",
    "132810.803000",
    "132813.303000",
    "132815.304000",
    "132817.304000",
    "132819.304000",
    "132821.304000",
    "132823.303000",
    "132825.303000",
    "132827.302000",
    "132829.303000",
    "132830.803000",
    "132833.303000",
    "132835.304000",
    "132837.304000",
    "132839.303000",
    "132841.303000",
    "132843.304000",
    "132845.302000",
    "132847.302000",
    "132849.303000",
    "132851.303000",
    "132853.304000",
    "132855.303000",
    "132857.304000",
    "132859.303000",
    "132901.303000",
    "132903.302000",
    "132905.304000",
    "132907.304000",
    "132909.304000",
    "132911.304000",
    "132913.303000",
    "132915.304000",
    "132917.304000",
    "132919.303000",
    "132921.303000",
    "132923.303000",
    "132925.304000",
    "132927.303000",
    "132929.303000",
    "132930.803000",
    "132933.304000",
    "132935.304000",
    "132937.302000",
    "132939.303000",
    "132940.804000",
    "132943.304000",
    "132945.303000",
    "132947.303000",
    "132949.304000",
    "132951.304000",
    "132953.304000",
    "132955.303000",
    "132957.303000",
    "132959.303000",
    "133001.303000",
    "133003.303000",
    "133005.304000",
    "133007.304000",
    "133009.304000",
    "133011.303000",
    "133013.302000",
    "133015.304000",
    "133017.304000",
    "133019.303000",
    "133021.303000",
    "133023.303000",
    "133025.304000",
    "133027.304000",
    "133029.303000",
    "133031.303000",
    "133033.304000",
    "133035.304000",
    "133037.303000",
    "133039.304000",
    "133041.304000",
    "133043.304000",
    "133045.304000",
    "133046.803000",
    "133049.303000",
    "133051.304000",
    "133053.304000",
    "133055.304000",
    "133057.304000",
    "133059.304000",
    "133101.304000",
    "133103.304000",
    "133105.303000",
    "133107.303000",
    "133109.304000",
    "133110.803000",
    "133113.303000",
    "133115.304000",
    "133117.304000",
    "133119.303000",
    "133121.304000",
    "133123.302000",
    "133125.303000",
    "133127.304000",
    "133129.303000",
    "133131.304000",
    "133132.804000",
    "133135.304000",
    "133137.303000",
    "133139.303000",
    "133141.303000",
    "133143.304000",
    "133145.304000",
    "133147.304000",
    "133149.304000",
    "133151.304000",
    "133153.304000",
    "133155.304000",
    "133157.302000",
    "133159.303000",
    "133201.303000",
    "133203.304000",
    "133205.304000",
    "133207.304000",
    "133209.304000",
    "133211.303000",
    "133213.304000",
    "133215.302000",
    "133217.303000",
    "133218.804000",
    "133221.316000",
    "133223.304000",
    "133224.812000"
   ],
   "InstanceCreationTime": [
    "132355.808000",
    "132357.304000",
    "132359.303000",
    "132401.303000",
    "132403.304000",
    "132405.303000",
    "132406.802000",
    "132409.304000",
    "132411.304000",
    "132413.303000",
    "132415.303000",
    "132417.304000",
    "132419.303000",
    "132421.303000",
    "132423.302000",
    "132425.302000",
    "132427.304000",
    "132428.803000",
    "132431.303000",
    "132433.304000",
    "132435.304000",
    "132437.304000",
    "132439.302000",
    "132441.302000",
    "132443.303000",
    "132445.304000",
    "132447.303000",
    "132449.304000",
    "132451.304000",
    "132453.304000",
    "132455.304000",
    "132457.302000",
    "132459.302000",
    "132501.303000",
    "132503.304000",
    "132505.304000",
    "132506.803000",
    "132508.803000",
    "132511.303000",
    "132513.304000",
    "132515.302000",
    "132517.302000",
    "132518.803000",
    "132521.303000",
    "132523.304000",
    "132524.803000",
    "132526.803000",
    "132528.803000",
    "132531.304000",
    "132533.302000",
    "132534.802000",
    "132537.304000",
    "132539.304000",
    "132541.303000",
    "132543.304000",
    "132545.304000",
    "132547.304000",
    "132549.302000",
    "132551.302000",
    "132553.303000",
    "132555.303000",
    "132557.304000",
    "132559.303000",
    "132601.304000",
    "132602.804000",
    "132605.304000",
    "132607.303000",
    "132609.303000",
    "132611.303000",
    "132613.304000",
    "132615.304000",
    "132617.304000",
    "132619.304000",
    "132621.304000",
    "132623.304000",
    "132625.303000",
    "132627.303000",
    "132629.304000",
    "132631.304000",
    "132633.304000",
    "132634.804000",
    "132637.303000",
    "132639.303000",
    "132641.304000",
    "132643.303000",
    "132645.302000",
    "132647.304000",
    "132649.304000",
    "132651.303000",
    "132652.803000",
    "132655.304000",
    "132657.303000",
    "132659.302000",
    "132701.302000",
    "132702.803000",
    "132705.303000",
    "132707.304000",
    "132708.803000",
    "132711.303000",
    "132713.304000",
    "132715.304000",
    "132717.303000",
    "132719.302000",
    "132721.303000",
    "132723.303000",
    "132725.303000",
    "132727.303000",
    "132729.303000",
    "132731.304000",
    "132733.303000",
    "132735.303000",
    "132737.303000",
    "132739.303000",
    "132741.304000",
    "132743.304000",
    "132745.303000",
    "132747.304000",
    "132748.803000",
    "132751.303000",
    "132753.302000",
    "132755.303000",
    "132757.304000",
    "132759.303000",
    "132801.303000",
    "132803.303000",
    "132805.304000",
    "132807.303000",
    "132809.303000",
    "132810.803000",
    "132813.303000",
    "132815.304000",
    "132817.304000",
    "132819.304000",
    "132821.304000",
    "132823.303000",
    "132825.303000",
    "132827.302000",
    "132829.303000",
    "132830.803000",
    "132833.303000",
    "132835.304000",
    "132837.304000",
    "132839.303000",
    "132841.303000",
    "132843.304000",
    "132845.302000",
    "132847.302000",
    "132849.303000",
    "132851.303000",
    "132853.304000",
    "132855.303000",
    "132857.304000",
    "132859.303000",
    "132901.303000",
    "132903.302000",
    "132905.304000",
    "132907.304000",
    "132909.304000",
    "132911.304000",
    "132913.303000",
    "132915.304000",
    "132917.304000",
    "132919.303000",
    "132921.303000",
    "132923.303000",
    "132925.304000",
    "132927.303000",
    "132929.303000",
    "132930.803000",
    "132933.304000",
    "132935.304000",
    "132937.302000",
    "132939.303000",
    "132940.804000",
    "132943.304000",
    "132945.303000",
    "132947.303000",
    "132949.304000",
    "132951.304000",
    "132953.304000",
    "132955.303000",
    "132957.303000",
    "132959.303000",
    "133001.303000",
    "133003.303000",
    "133005.304000",
    "133007.304000",
    "133009.304000",
    "133011.303000",
    "133013.302000",
    "133015.304000",
    "133017.304000",
    "133019.303000",
    "133021.303000",
    "133023.303000",
    "133025.304000",
    "133027.304000",
    "133029.303000",
    "133031.303000",
    "133033.304000",
    "133035.304000",
    "133037.303000",
    "133039.304000",
    "133041.304000",
    "133043.304000",
    "133045.304000",
    "133046.803000",
    "133049.303000",
    "133051.304000",
    "133053.304000",
    "133055.304000",
    "133057.304000",
    "133059.304000",
    "133101.304000",
    "133103.304000",
    "133105.303000",
    "133107.303000",
    "133109.304000",
    "133110.803000",
    "133113.303000",
    "133115.304000",
    "133117.304000",
    "133119.303000",
    "133121.304000",
    "133123.302000",
    "133125.303000",
    "133127.304000",
    "133129.303000",
    "133131.304000",
    "133132.804000",
    "133135.304000",
    "133137.303000",
    "133139.303000",
    "133141.303000",
    "133143.304000",
    "133145.304000",
    "133147.304000",
    "133149.304000",
    "133151.304000",
    "133153.304000",
    "133155.304000",
    "133157.302000",
    "133159.303000",
    "133201.303000",
    "133203.304000",
    "133205.304000",
    "133207.304000",
    "133209.304000",
    "133211.303000",
    "133213.304000",
    "133215.302000",
    "133217.303000",
    "133218.804000",
    "133221.316000",
    "133223.304000",
    "133224.812000"
   ],
   "InstanceNumber": [
    1,
    2,
    3,
    4,
    5,
    6,
    7,
    8,
    9,
    10,
    11,
    12,
    13,
    14,
    15,
    16,
    17,
    18,
    19,
    20,
    21,
    22,
    23,
    24,
    25,
    26,
    27,
    28,
    29,
    30,
    31,
    32,
    33,
    34,
    35,
    36,
    37,
    38,
    39,
    40,
    41,
    42,
    43,
    44,
    45,
    46,
    47,
    48,
    49,
    50,
    51,
    52,
    53,
    54,
    55,
    56,
    57,
    58,
    59,
    60,
    61,
    62,
    63,
    64,
    65,
    66,
    67,
    68,
    69,
    70,
    71,
    72,
    73,
    74,
    75,
    76,
    77,
    78,
    79,
    80,
    81,
    82,
    83,
    84,
    85,
    86,
    87,
    88,
    89,
    90,
    91,
    92,
    93,
    94,
    95,
    96,
    97,
    98,
    99,
    100,
    101,
    102,
    103,
    104,
    105,
    106,
    107,
    108,
    109,
    110,
    111,
    112,
    113,
    114,
    115,
    116,
    117,
    118,
    119,
    120,
    121,
    122,
    123,
    124,
    125,
    126,
    127,
    128,
    129,
    130,
    131,
    132,
    133,
    134,
    135,
    136,
    137,
    138,
    139,
    140,
    141,
    142,
    143,
    144,
    145,
    146,
    147,
    148,
    149,
    150,
    151,
    152,
    153,
    154,
    155,
    156,
    157,
    158,
    159,
    160,
    161,
    162,
    163,
    164,
    165,
    166,
    167,
    168,
    169,
    170,
    171,
    172,
    173,
    174,
    175,
    176,
    177,
    178,
    179,
    180,
    181,
    182,
    183,
    184,
    185,
    186,
    187,
    188,
    189,
    190,
    191,
    192,
    193,
    194,
    195,
    196,
    197,
    198,
    199,
    200,
    201,
    202,
    203,
    204,
    205,
    206,
    207,
    208,
    209,
    210,
    211,
    212,
    213,
    214,
    215,
    216,
    217,
    218,
    219,
    220,
    221,
    222,
    223,
    224,
    225,
    226,
    227,
    228,
    229,
    230,
    231,
    232,
    233,
    234,
    235,
    236,
    237,
    238,
    239,
    240,
    241,
    242,
    243,
    244,
    245,
    246,
    247,
    248,
    249,
    250,
    251,
    252,
    253,
    254,
    255,
    256
   ],
   "LargestImagePixelValue": [
    3087,
    3078,
    3010,
    3016,
    3060,
    3048,
    3044,
    3059,
    2991,
    3031,
    3014,
    3017,
    3046,
    3040,
    3022,
    3105,
    3043,
    3098,
    3095,
    3083,
    3022,
    3080,
    3085,
    3052,
    3103,
    3100,
    3079,
    3076,
    3095,
    3104,
    3060,
    3100,
    3114,
    3037,
    3029,
    3080,
    3033,
    3018,
    3076,
    3069,
    3047,
    3030,
    3096,
    3058,
    3124,
    3070,
    3039,
    3045,
    3050,
    3065,
    3063,
    3080,
    3057,
    3044,
    3027,
    3010,
    3055,
    3053,
    3036,
    3005,
    3054,
    3052,
    3087,
    3075,
    3037,
    3080,
    3103,
    3083,
    3018,
    3098,
    3070,
    3026,
    3048,
    3031,
    3113,
    3076,
    3025,
    3071,
    3038,
    3056,
    2991,
    3039,
    3052,
    3042,
    3071,
    3038,
    3021,
    3055,
    3055,
    3071,
    3068,
    3022,
    3036,
    3063,
    3039,
    2997,
    3019,
    3009,
    3057,
    3042,
    3021,
    3002,
    3025,
    3056,
    3030,
    3025,
    3082,
    3068,
    3065,
    3087,
    3033,
    3069,
    3041,
    3055,
    3053,
    3026,
    3035,
    3069,
    3035,
    3019,
    3033,
    3026,
    3071,
    3009,
    2995,
    3034,
    3065,
    3030,
    2993,
    3038,
    3040,
    3060,
    3043,
    2999,
    2996,
    3042,
    2981,
    3037,
    2987,
    3010,
    3007,
    2989,
    3029,
    3007,
    3014,
    3013,
    2986,
    3019,
    3030,
    3018,
    3000,
    3000,
    3006,
    3030,
    2995,
    2987,
    2983,
    2977,
    2997,
    3014,
    2999,
    2990,
    2972,
    3006,
    3004,
    3027,
    3006,
    2983,
    3007,
    3014,
    3004,
    3020,
    3002,
    2988,
    2973,
    2998,
    2988,
    2965,
    2987,
    2984,
    3015,
    3052,
    3003,
    3003,
    2983,
    3007,
    2994,
    3019,
    2984,
    3024,
    2981,
    3007,
    3025,
    2985,
    3002,
    2998,
    2997,
    3011,
    2991,
    3059,
    3070,
    3051,
    3021,
    3022,
    3077,
    3053,
    3062,
    3019,
    3021,
    3040,
    3061,
    3039,
    3031,
    3009,
    3021,
    3025,
    3083,
    3013,
    3024,
    3021,
    3071,
    3038,
    3062,
    3092,
    3084,
    3117,
    3042,
    3098,
    3116,
    3087,
    3066,
    3066,
    3102,
    3113,
    3072,
    3085,
    3100,
    3121,
    3112,
    3134,
    3069,
    3104,
    3122,
    3151,
    3122,
    3051,
    3078,
    3128,
    3116,
    3076,
    3130,
    3120,
    3109,
    3147,
    3138,
    3146
   ],
   "WindowCenter": [
    767.0,
    766.0,
    766.0,
    765.0,
    765.0,
    765.0,
    764.0,
    764.0,
    764.0,
    765.0,
    765.0,
    765.0,
    765.0,
    764.0,
    765.0,
    766.0,
    766.0,
    765.0,
    765.0,
    765.0,
    764.0,
    765.0,
    765.0,
    765.0,
    765.0,
    765.0,
    764.0,
    764.0,
    764.0,
    765.0,
    765.0,
    765.0,
    765.0,
    763.0,
    763.0,
    764.0,
    764.0,
    764.0,
    765.0,
    765.0,
    766.0,
    764.0,
    763.0,
    762.0,
    763.0,
    764.0,
    765.0,
    764.0,
    764.0,
    764.0,
    764.0,
    764.0,
    764.0,
    764.0,
    764.0,
    764.0,
    764.0,
    764.0,
    764.0,
    764.0,
    764.0,
    764.0,
    764.0,
    764.0,
    763.0,
    763.0,
    764.0,
    763.0,
    762.0,
    762.0,
    762.0,
    762.0,
    763.0,
    763.0,
    764.0,
    764.0,
    764.0,
    764.0,
    763.0,
    763.0,
    763.0,
    763.0,
    764.0,
    764.0,
    764.0,
    764.0,
    763.0,
    763.0,
    763.0,
    763.0,
    763.0,
    763.0,
    763.0,
    763.0,
    762.0,
    761.0,
    762.0,
    761.0,
    762.0,
    763.0,
    763.0,
    762.0,
    763.0,
    763.0,
    762.0,
    762.0,
    763.0,
    762.0,
