{
  "AcquisitionMatrixPE": 100,
  "AcquisitionNumber": 1,
  "AcquisitionTime": "11:38:15.345000",
  "BandwidthPerPixelPhaseEncode": 18.519,
  "BaseResolution": 100,
  "BodyPartExamined": "BRAIN",
  "ConsistencyInfo": "N4_VE11C_LATEST_20160120",
  "ConversionSoftware": "dcm2niix",
  "ConversionSoftwareVersion": "v1.0.20180622 GCC4.9.2",
  "DerivedVendorReportedEchoSpacing": 0.000539986,
  "DeviceSerialNumber": "166078",
  "DwellTime": 2.1e-06,
  "EchoTime": 0.034,
  "EchoTrainLength": 100,
  "EffectiveEchoSpacing": 0.000539986,
  "FlipAngle": 90,
  "ImageOrientationPatientDICOM": [1, -0.00011844, -0.000577282, -2.63752e-08, 0.979586, -0.201026],
  "ImageType": [
    "ORIGINAL",
    "PRIMARY",
    "M",
    "ND",
    "MOSAIC"
],
  "InPlanePhaseEncodingDirectionDICOM": "COL",
  "InstitutionAddress": "Street_StreetNo_Bei_Jing_District_CN_ZIP",
  "InstitutionName": "BeiJing_Normal_University",
  "InstitutionalDepartmentName": "Department",
  "MRAcquisitionType": "2D",
  "MagneticFieldStrength": 3,
  "Manufacturer": "Siemens",
  "ManufacturersModelName": "Prisma",
  "Modality": "MR",
  "MultibandAccelerationFactor": 3,
  "PartialFourier": 1,
  "PatientPosition": "HFS",
  "PercentPhaseFOV": 100,
  "PhaseEncodingDirection": "j-",
  "PhaseEncodingSteps": 100,
  "PhaseResolution": 1,
  "PixelBandwidth": 2380,
  "ProcedureStepDescription": "BNU_P2018_64CH_Zhen.ZongLei",
  "ProtocolName": "bold_100x100_s3_2x2x2_static_256",
  "PulseSequenceDetails": "%SiemensSeq%_ep2d_bold",
  "ReceiveCoilActiveElements": "HC1-7;NC1",
  "ReceiveCoilName": "HeadNeck_64",
  "ReconMatrixPE": 100,
  "RepetitionTime": 2,
  "SAR": 0.0877247,
  "ScanOptions": "FS",
  "ScanningSequence": "EP",
  "SequenceName": "_epfid2d1_100",
  "SequenceVariant": "SK",
  "SeriesDescription": "bold_100x100_s3_2x2x2_static_256",
  "SeriesNumber": 6,
  "ShimSetting": [-5467, -11499, -1303, 498, -24, -181, -115, 87],
  "SliceThickness": 2,
  "SliceTiming": [1.485, 0, 0.99, 0.0825, 1.0725, 0.165, 1.155, 0.2475, 1.2375, 0.33, 1.32, 0.4125, 1.4025, 0.5775, 1.5675, 0.66, 1.65, 0.7425, 1.7325, 0.825, 1.815, 0.9075, 1.8975, 0.495, 1.485, 0, 0.99, 0.0825, 1.0725, 0.165, 1.155, 0.2475, 1.2375, 0.33, 1.32, 0.4125, 1.4025, 0.5775, 1.5675, 0.66, 1.65, 0.7425, 1.7325, 0.825, 1.815, 0.9075, 1.8975, 0.495, 1.485, 0, 0.99, 0.0825, 1.0725, 0.165, 1.155, 0.2475, 1.2375, 0.33, 1.32, 0.4125, 1.4025, 0.5775, 1.5675, 0.66, 1.65, 0.7425, 1.7325, 0.825, 1.815, 0.9075, 1.8975, 0.495],
  "SoftwareVersions": "syngo_MR_E11",
  "SpacingBetweenSlices": 2,
  "StationName": "AWP166078",
  "TaskName": "naturalvision",
  "TotalReadoutTime": 0.0534586,
  "TxRefAmp": 237.429,
  "dcmmeta_affine": [
    [-1.9999996423721313, -5.2750447565586e-08, -0.001178613631054759, 100.61858367919922],
    [0.00023688015062361956, 1.9591718912124634, -0.4020516574382782, -79.76741790771484],
    [-0.0011545639717951417, 0.402051717042923, 1.9591715335845947, -100.2239761352539],
    [0.0, 0.0, 0.0, 1.0]
],
  "dcmmeta_reorient_transform": [
    [0.0, -1.0, 0.0, 99.0],
    [1.0, 0.0, 0.0, 0.0],
    [0.0, 0.0, 1.0, 0.0],
    [0.0, 0.0, 0.0, 1.0]
],
  "dcmmeta_shape": [100, 100, 72, 256],
  "dcmmeta_slice_dim": 2,
  "dcmmeta_version": 0.6,
  "global": {
    "const": {
      "AcquisitionMatrix": [100, 0, 0, 100],
      "AngioFlag": "N",
      "BitsAllocated": 16,
      "BitsStored": 12,
      "BodyPartExamined": "BRAIN",
      "Columns": 900,
      "EchoNumbers": 1,
      "EchoTime": 34.0,
      "EchoTrainLength": 100,
      "FlipAngle": 90.0,
      "HighBit": 11,
      "ImageOrientationPatient": [0.99999982635871, -0.0001184400774, -0.0005772819846, -2.6375223e-08, 0.97958593418476, -0.2010258628818],
      "ImagePositionPatient": [-900.61841659855, -897.76459158994, 100.86166125134],
      "ImageType": [
        "ORIGINAL",
        "PRIMARY",
        "M",
        "ND",
        "MOSAIC"
],
      "ImagedNucleus": "1H",
      "ImagingFrequency": 123.257789,
      "InPlanePhaseEncodingDirection": "COL",
      "MRAcquisitionType": "2D",
      "MagneticFieldStrength": 3.0,
      "Manufacturer": "SIEMENS",
      "ManufacturerModelName": "Prisma",
      "Modality": "MR",
      "NumberOfAverages": 1.0,
      "NumberOfPhaseEncodingSteps": 100,
      "PercentPhaseFieldOfView": 100.0,
      "PercentSampling": 100.0,
      "PerformedProcedureStepStartTime": "110629.002000",
      "PhotometricInterpretation": "MONOCHROME2",
      "PixelBandwidth": 2380.0,
      "PixelRepresentation": 0,
      "PixelSpacing": [2.0, 2.0],
      "ProtocolName": "bold_100x100_s3_2x2x2_static_256",
      "RepetitionTime": 2000.0,
      "Rows": 900,
      "SAR": 0.08772471539337,
      "SamplesPerPixel": 1,
      "ScanOptions": "FS",
      "ScanningSequence": "EP",
      "SequenceName": "*epfid2d1_100",
      "SequenceVariant": "SK",
      "SeriesDescription": "bold_100x100_s3_2x2x2_static_256",
      "SeriesNumber": 6,
      "SeriesTime": "113817.912000",
      "SliceLocation": -82.201963446221,
      "SliceThickness": 2.0,
      "SmallestImagePixelValue": 0,
      "SoftwareVersions": "syngo MR E11",
      "SpacingBetweenSlices": 1.9999999851875,
      "SpecificCharacterSet": "ISO_IR 100",
      "StudyID": "1",
      "StudyTime": "110628.913000",
      "TransmitCoilName": "Body",
      "VariableFlipAngleFlag": "N",
      "WindowCenterWidthExplanation": "Algo1",
      "dBdt": 0.0},
    "slices": {}
  },
  "time": {
    "samples": {
      "AcquisitionNumber": [1, 2, 3, 4, 5, 6, 7, 8, 9, 10, 11, 12, 13, 14, 15, 16, 17, 18, 19, 20, 21, 22, 23, 24, 25, 26, 27, 28, 29, 30, 31, 32, 33, 34, 35, 36, 37, 38, 39, 40, 41, 42, 43, 44, 45, 46, 47, 48, 49, 50, 51, 52, 53, 54, 55, 56, 57, 58, 59, 60, 61, 62, 63, 64, 65, 66, 67, 68, 69, 70, 71, 72, 73, 74, 75, 76, 77, 78, 79, 80, 81, 82, 83, 84, 85, 86, 87, 88, 89, 90, 91, 92, 93, 94, 95, 96, 97, 98, 99, 100, 101, 102, 103, 104, 105, 106, 107, 108, 109, 110, 111, 112, 113, 114, 115, 116, 117, 118, 119, 120, 121, 122, 123, 124, 125, 126, 127, 128, 129, 130, 131, 132, 133, 134, 135, 136, 137, 138, 139, 140, 141, 142, 143, 144, 145, 146, 147, 148, 149, 150, 151, 152, 153, 154, 155, 156, 157, 158, 159, 160, 161, 162, 163, 164, 165, 166, 167, 168, 169, 170, 171, 172, 173, 174, 175, 176, 177, 178, 179, 180, 181, 182, 183, 184, 185, 186, 187, 188, 189, 190, 191, 192, 193, 194, 195, 196, 197, 198, 199, 200, 201, 202, 203, 204, 205, 206, 207, 208, 209, 210, 211, 212, 213, 214, 215, 216, 217, 218, 219, 220, 221, 222, 223, 224, 225, 226, 227, 228, 229, 230, 231, 232, 233, 234, 235, 236, 237, 238, 239, 240, 241, 242, 243, 244, 245, 246, 247, 248, 249, 250, 251, 252, 253, 254, 255, 256],
      "AcquisitionTime": ["113815.345000", "113817.345000", "113819.345000", "113821.345000", "113823.345000", "113825.345000", "113827.345000", "113829.345000", "113831.345000", "113833.345000", "113835.345000", "113837.345000", "113839.345000", "113841.345000", "113843.345000", "113845.345000", "113847.345000", "113849.345000", "113851.345000", "113853.345000", "113855.345000", "113857.345000", "113859.345000", "113901.345000", "113903.345000", "113905.345000", "113907.345000", "113909.345000", "113911.345000", "113913.345000", "113915.345000", "113917.345000", "113919.345000", "113921.345000", "113923.345000", "113925.345000", "113927.345000", "113929.345000", "113931.345000", "113933.345000", "113935.345000", "113937.345000", "113939.345000", "113941.345000", "113943.345000", "113945.345000", "113947.345000", "113949.345000", "113951.345000", "113953.345000", "113955.345000", "113957.345000", "113959.345000", "114001.345000", "114003.345000", "114005.345000", "114007.345000", "114009.345000", "114011.345000", "114013.345000", "114015.345000", "114017.345000", "114019.345000", "114021.345000", "114023.345000", "114025.345000", "114027.345000", "114029.345000", "114031.345000", "114033.345000", "114035.345000", "114037.345000", "114039.345000", "114041.345000", "114043.345000", "114045.345000", "114047.345000", "114049.345000", "114051.345000", "114053.345000", "114055.345000", "114057.345000", "114059.345000", "114101.345000", "114103.345000", "114105.345000", "114107.345000", "114109.345000", "114111.345000", "114113.345000", "114115.345000", "114117.345000", "114119.345000", "114121.345000", "114123.345000", "114125.345000", "114127.345000", "114129.345000", "114131.345000", "114133.345000", "114135.345000", "114137.345000", "114139.345000", "114141.345000", "114143.345000", "114145.345000", "114147.345000", "114149.345000", "114151.345000", "114153.345000", "114155.345000", "114157.345000", "114159.345000", "114201.345000", "114203.345000", "114205.345000", "114207.345000", "114209.345000", "114211.345000", "114213.345000", "114215.345000", "114217.345000", "114219.345000", "114221.345000", "114223.345000", "114225.345000", "114227.345000", "114229.345000", "114231.345000", "114233.345000", "114235.345000", "114237.345000", "114239.345000", "114241.345000", "114243.345000", "114245.345000", "114247.345000", "114249.345000", "114251.345000", "114253.345000", "114255.345000", "114257.345000", "114259.345000", "114301.345000", "114303.345000", "114305.345000", "114307.345000", "114309.345000", "114311.345000", "114313.345000", "114315.345000", "114317.345000", "114319.345000", "114321.345000", "114323.345000", "114325.345000", "114327.345000", "114329.345000", "114331.345000", "114333.345000", "114335.345000", "114337.345000", "114339.345000", "114341.345000", "114343.345000", "114345.345000", "114347.345000", "114349.345000", "114351.345000", "114353.345000", "114355.345000", "114357.345000", "114359.345000", "114401.345000", "114403.345000", "114405.345000", "114407.345000", "114409.345000", "114411.345000", "114413.345000", "114415.345000", "114417.345000", "114419.345000", "114421.345000", "114423.345000", "114425.345000", "114427.345000", "114429.345000", "114431.345000", "114433.345000", "114435.345000", "114437.345000", "114439.345000", "114441.345000", "114443.345000", "114445.345000", "114447.345000", "114449.345000", "114451.345000", "114453.345000", "114455.345000", "114457.345000", "114459.345000", "114501.345000", "114503.345000", "114505.345000", "114507.345000", "114509.345000", "114511.345000", "114513.345000", "114515.345000", "114517.345000", "114519.345000", "114521.345000", "114523.345000", "114525.345000", "114527.345000", "114529.345000", "114531.345000", "114533.345000", "114535.345000", "114537.345000", "114539.345000", "114541.345000", "114543.345000", "114545.345000", "114547.345000", "114549.345000", "114551.345000", "114553.345000", "114555.345000", "114557.345000", "114559.345000", "114601.345000", "114603.345000", "114605.345000", "114607.345000", "114609.345000", "114611.345000", "114613.345000", "114615.345000", "114617.345000", "114619.345000", "114621.345000", "114623.345000", "114625.345000", "114627.345000", "114629.345000", "114631.345000", "114633.345000", "114635.345000", "114637.345000", "114639.345000", "114641.345000", "114643.345000", "114645.345000"],
      "ContentTime": ["113817.916000", "113819.411000", "113821.412000", "113823.411000", "113825.411000", "113827.411000", "113829.411000", "113831.411000", "113833.411000", "113835.411000", "113837.412000", "113839.411000", "113841.412000", "113843.412000", "113845.411000", "113847.411000", "113849.411000", "113851.413000", "113853.413000", "113855.411000", "113857.411000", "113859.412000", "113901.411000", "113903.412000", "113905.410000", "113907.411000", "113909.412000", "113911.412000", "113913.411000", "113915.412000", "113917.412000", "113919.411000", "113921.412000", "113923.411000", "113925.410000", "113927.412000", "113929.412000", "113931.411000", "113933.412000", "113935.412000", "113937.412000", "113939.410000", "113941.410000", "113943.432000", "113945.412000", "113947.411000", "113949.411000", "113951.412000", "113953.412000", "113955.411000", "113957.410000", "113959.410000", "114001.411000", "114003.411000", "114005.411000", "114007.412000", "114009.411000", "114011.412000", "114013.412000", "114015.410000", "114017.411000", "114019.412000", "114021.411000", "114023.411000", "114025.412000", "114027.411000", "114029.412000", "114031.411000", "114033.410000", "114035.412000", "114037.412000", "114039.412000", "114041.412000", "114043.412000", "114045.412000", "114047.411000", "114049.411000", "114051.411000", "114053.412000", "114055.412000", "114057.412000", "114059.412000", "114101.411000", "114103.411000", "114105.412000", "114107.410000", "114109.410000", "114111.412000", "114113.412000", "114115.412000", "114117.411000", "114119.411000", "114121.411000", "114123.412000", "114125.410000", "114127.411000", "114129.412000", "114131.412000", "114133.411000", "114135.411000", "114137.412000", "114139.412000", "114141.412000", "114143.410000", "114145.412000", "114147.412000", "114149.412000", "114151.412000", "114153.412000", "114155.412000", "114157.411000", "114159.410000", "114201.411000", "114203.411000", "114205.431000", "114207.411000", "114209.412000", "114211.411000", "114213.412000", "114215.412000", "114217.411000", "114219.424000", "114221.411000", "114223.411000", "114225.411000", "114227.412000", "114229.412000", "114231.411000", "114233.411000", "114235.410000", "114237.410000", "114239.412000", "114241.412000", "114243.412000", "114245.411000", "114247.411000", "114249.412000", "114251.412000", "114253.411000", "114255.412000", "114257.411000", "114259.412000", "114301.412000", "114303.412000", "114305.412000", "114307.412000", "114309.410000", "114311.410000", "114313.412000", "114315.411000", "114317.412000", "114319.411000", "114321.412000", "114323.412000", "114325.412000", "114327.411000", "114329.411000", "114331.412000", "114333.412000", "114335.411000", "114337.411000", "114339.411000", "114341.412000", "114343.412000", "114345.411000", "114347.410000", "114349.412000", "114351.412000", "114353.412000", "114355.411000", "114357.412000", "114359.411000", "114401.412000", "114403.411000", "114405.412000", "114407.411000", "114409.412000", "114411.411000", "114413.411000", "114415.412000", "114417.411000", "114419.410000", "114421.410000", "114423.411000", "114425.411000", "114427.411000", "114429.412000", "114431.411000", "114433.431000", "114435.412000", "114437.410000", "114439.410000", "114441.412000", "114443.411000", "114445.411000", "114447.411000", "114449.411000", "114451.411000", "114453.412000", "114455.410000", "114457.411000", "114459.432000", "114501.412000", "114503.411000", "114505.411000", "114507.412000", "114509.411000", "114511.412000", "114513.411000", "114515.411000", "114517.411000", "114519.412000", "114521.412000", "114523.412000", "114525.412000", "114527.412000", "114529.410000", "114531.410000", "114533.412000", "114535.411000", "114537.412000", "114539.412000", "114541.412000", "114543.412000", "114545.412000", "114547.410000", "114549.411000", "114551.412000", "114553.412000", "114555.411000", "114557.412000", "114559.412000", "114601.412000", "114603.412000", "114605.411000", "114607.411000", "114609.411000", "114611.411000", "114613.411000", "114615.412000", "114617.412000", "114619.412000", "114621.410000", "114623.411000", "114625.412000", "114627.412000", "114629.412000", "114631.411000", "114633.412000", "114635.412000", "114637.411000", "114639.411000", "114641.411000", "114643.412000", "114645.412000", "114647.232000"],
      "InstanceCreationTime": ["113817.916000", "113819.411000", "113821.412000", "113823.411000", "113825.411000", "113827.411000", "113829.411000", "113831.411000", "113833.411000", "113835.411000", "113837.412000", "113839.411000", "113841.412000", "113843.412000", "113845.411000", "113847.411000", "113849.411000", "113851.413000", "113853.413000", "113855.411000", "113857.411000", "113859.412000", "113901.411000", "113903.412000", "113905.410000", "113907.411000", "113909.412000", "113911.412000", "113913.411000", "113915.412000", "113917.412000", "113919.411000", "113921.412000", "113923.411000", "113925.410000", "113927.412000", "113929.412000", "113931.411000", "113933.412000", "113935.412000", "113937.412000", "113939.410000", "113941.410000", "113943.432000", "113945.412000", "113947.411000", "113949.411000", "113951.412000", "113953.412000", "113955.411000", "113957.410000", "113959.410000", "114001.411000", "114003.411000", "114005.411000", "114007.412000", "114009.411000", "114011.412000", "114013.412000", "114015.410000", "114017.411000", "114019.412000", "114021.411000", "114023.411000", "114025.412000", "114027.411000", "114029.412000", "114031.411000", "114033.410000", "114035.412000", "114037.412000", "114039.412000", "114041.412000", "114043.412000", "114045.412000", "114047.411000", "114049.411000", "114051.411000", "114053.412000", "114055.412000", "114057.412000", "114059.412000", "114101.411000", "114103.411000", "114105.412000", "114107.410000", "114109.410000", "114111.412000", "114113.412000", "114115.412000", "114117.411000", "114119.411000", "114121.411000", "114123.412000", "114125.410000", "114127.411000", "114129.412000", "114131.412000", "114133.411000", "114135.411000", "114137.412000", "114139.412000", "114141.412000", "114143.410000", "114145.412000", "114147.412000", "114149.412000", "114151.412000", "114153.412000", "114155.412000", "114157.411000", "114159.410000", "114201.411000", "114203.411000", "114205.431000", "114207.411000", "114209.412000", "114211.411000", "114213.412000", "114215.412000", "114217.411000", "114219.424000", "114221.411000", "114223.411000", "114225.411000", "114227.412000", "114229.412000", "114231.411000", "114233.411000", "114235.410000", "114237.410000", "114239.412000", "114241.412000", "114243.412000", "114245.411000", "114247.411000", "114249.412000", "114251.412000", "114253.411000", "114255.412000", "114257.411000", "114259.412000", "114301.412000", "114303.412000", "114305.412000", "114307.412000", "114309.410000", "114311.410000", "114313.412000", "114315.411000", "114317.412000", "114319.411000", "114321.412000", "114323.412000", "114325.412000", "114327.411000", "114329.411000", "114331.412000", "114333.412000", "114335.411000", "114337.411000", "114339.411000", "114341.412000", "114343.412000", "114345.411000", "114347.410000", "114349.412000", "114351.412000", "114353.412000", "114355.411000", "114357.412000", "114359.411000", "114401.412000", "114403.411000", "114405.412000", "114407.411000", "114409.412000", "114411.411000", "114413.411000", "114415.412000", "114417.411000", "114419.410000", "114421.410000", "114423.411000", "114425.411000", "114427.411000", "114429.412000", "114431.411000", "114433.431000", "114435.412000", "114437.410000", "114439.410000", "114441.412000", "114443.411000", "114445.411000", "114447.411000", "114449.411000", "114451.411000", "114453.412000", "114455.410000", "114457.411000", "114459.432000", "114501.412000", "114503.411000", "114505.411000", "114507.412000", "114509.411000", "114511.412000", "114513.411000", "114515.411000", "114517.411000", "114519.412000", "114521.412000", "114523.412000", "114525.412000", "114527.412000", "114529.410000", "114531.410000", "114533.412000", "114535.411000", "114537.412000", "114539.412000", "114541.412000", "114543.412000", "114545.412000", "114547.410000", "114549.411000", "114551.412000", "114553.412000", "114555.411000", "114557.412000", "114559.412000", "114601.412000", "114603.412000", "114605.411000", "114607.411000", "114609.411000", "114611.411000", "114613.411000", "114615.412000", "114617.412000", "114619.412000", "114621.410000", "114623.411000", "114625.412000", "114627.412000", "114629.412000", "114631.411000", "114633.412000", "114635.412000", "114637.411000", "114639.411000", "114641.411000", "114643.412000", "114645.412000", "114647.232000"],
      "InstanceNumber": [1, 2, 3, 4, 5, 6, 7, 8, 9, 10, 11, 12, 13, 14, 15, 16, 17, 18, 19, 20, 21, 22, 23, 24, 25, 26, 27, 28, 29, 30, 31, 32, 33, 34, 35, 36, 37, 38, 39, 40, 41, 42, 43, 44, 45, 46, 47, 48, 49, 50, 51, 52, 53, 54, 55, 56, 57, 58, 59, 60, 61, 62, 63, 64, 65, 66, 67, 68, 69, 70, 71, 72, 73, 74, 75, 76, 77, 78, 79, 80, 81, 82, 83, 84, 85, 86, 87, 88, 89, 90, 91, 92, 93, 94, 95, 96, 97, 98, 99, 100, 101, 102, 103, 104, 105, 106, 107, 108, 109, 110, 111, 112, 113, 114, 115, 116, 117, 118, 119, 120, 121, 122, 123, 124, 125, 126, 127, 128, 129, 130, 131, 132, 133, 134, 135, 136, 137, 138, 139, 140, 141, 142, 143, 144, 145, 146, 147, 148, 149, 150, 151, 152, 153, 154, 155, 156, 157, 158, 159, 160, 161, 162, 163, 164, 165, 166, 167, 168, 169, 170, 171, 172, 173, 174, 175, 176, 177, 178, 179, 180, 181, 182, 183, 184, 185, 186, 187, 188, 189, 190, 191, 192, 193, 194, 195, 196, 197, 198, 199, 200, 201, 202, 203, 204, 205, 206, 207, 208, 209, 210, 211, 212, 213, 214, 215, 216, 217, 218, 219, 220, 221, 222, 223, 224, 225, 226, 227, 228, 229, 230, 231, 232, 233, 234, 235, 236, 237, 238, 239, 240, 241, 242, 243, 244, 245, 246, 247, 248, 249, 250, 251, 252, 253, 254, 255, 256],
      "LargestImagePixelValue": [2974, 2917, 2930, 2885, 2875, 2846, 2814, 2864, 2857, 2895, 2861, 2820, 2822, 2807, 2806, 2835, 2808, 2817, 2807, 2862, 2860, 2895, 2925, 2866, 2887, 2846, 2882, 2865, 2859, 2896, 2858, 2809, 2865, 2845, 2865, 2817, 2863, 2810, 2810, 2821, 2848, 2805, 2828, 2788, 2879, 2873, 2864, 2837, 2816, 2834, 2846, 2793, 2823, 2817, 2806, 2808, 2820, 2857, 2838, 2849, 2848, 2796, 2840, 2786, 2786, 2802, 2810, 2865, 2809, 2851, 2807, 2803, 2821, 2827, 2824, 2873, 2875, 2869, 2850, 2815, 2805, 2803, 2843, 2812, 2798, 2814, 2855, 2884, 2831, 2816, 2813, 2797, 2814, 2819, 2857, 2847, 2825, 2869, 2957, 2843, 2849, 2838, 2886, 2834, 2821, 2845, 2808, 2823, 2837, 2798, 2786, 2774, 2783, 2821, 2775, 2839, 2803, 2808, 2848, 2825, 2839, 2845, 2857, 2839, 2823, 2799, 2825, 2800, 2785, 2822, 2782, 2824, 2801, 2775, 2832, 2850, 2790, 2838, 2792, 2814, 2802, 2839, 2817, 2828, 2879, 2829, 2767, 2770, 2792, 2756, 2800, 2770, 2835, 2793, 2791, 2803, 2784, 2795, 2819, 2788, 2804, 2789, 2790, 2770, 2788, 2808, 2796, 2796, 2814, 2783, 2793, 2810, 2790, 2822, 2855, 2854, 2811, 2817, 2834, 2787, 2814, 2808, 2833, 2794, 2804, 2821, 2760, 2770, 2810, 2831, 2822, 2863, 2821, 2882, 2836, 2767, 2811, 2787, 2776, 2812, 2793, 2795, 2826, 2760, 2812, 2775, 2802, 2869, 2847, 2833, 2807, 2808, 2827, 2794, 2792, 2787, 2793, 2792, 2815, 2812, 2787, 2795, 2782, 2758, 2838, 2812, 2824, 2853, 2794, 2824, 2818, 2778, 2844, 2800, 2809, 2777, 2819, 2848, 2802, 2858, 2860, 2865, 2834, 2894, 2860, 2855, 2886, 2845, 2837, 2847, 2814, 2838, 2887, 2843, 2845, 2875],
      "WindowCenter": [777.0, 775.0, 775.0, 774.0, 774.0, 774.0, 774.0, 774.0, 774.0, 775.0, 775.0, 774.0, 774.0, 773.0, 773.0, 773.0, 772.0, 771.0, 771.0, 773.0, 773.0, 773.0, 773.0, 773.0, 773.0, 773.0, 772.0, 771.0, 772.0, 772.0, 771.0, 771.0, 770.0, 770.0, 770.0, 770.0, 772.0, 771.0, 771.0, 770.0, 771.0, 771.0, 771.0, 772.0, 773.0, 772.0, 771.0, 770.0, 770.0, 771.0, 772.0, 772.0, 773.0, 772.0, 771.0, 771.0, 771.0, 772.0, 773.0, 773.0, 772.0, 771.0, 772.0, 772.0, 771.0, 770.0, 770.0, 771.0, 770.0, 771.0, 771.0, 772.0, 773.0, 772.0, 772.0, 772.0, 771.0, 771.0, 772.0, 772.0, 770.0, 769.0, 771.0, 771.0, 772.0, 773.0, 773.0, 772.0, 772.0, 771.0, 772.0, 771.0, 771.0, 771.0, 772.0, 772.0, 772.0, 771.0, 773.0, 772.0, 772.0, 772.0, 772.0, 771.0, 771.0, 772.0, 772.0, 772.0, 771.0, 770.0, 770.0, 771.0, 771.0, 771.0, 770.0, 770.0, 770.0, 771.0, 773.0, 773.0, 772.0, 772.0, 772.0, 772.0, 772.0, 771.0, 772.0, 771.0, 770.0, 770.0, 770.0, 771.0, 771.0, 772.0, 772.0, 773.0, 771.0, 771.0, 771.0, 771.0, 771.0, 771.0, 771.0, 772.0, 772.0, 772.0, 771.0, 771.0, 771.0, 771.0, 772.0, 771.0, 771.0, 771.0, 773.0, 773.0, 771.0, 771.0, 772.0, 772.0, 773.0, 771.0, 771.0, 770.0, 771.0, 771.0, 772.0, 771.0, 771.0, 770.0, 770.0, 770.0, 770.0, 772.0, 773.0, 773.0, 772.0, 772.0, 773.0, 772.0, 773.0, 773.0, 773.0, 772.0, 772.0, 772.0, 772.0, 772.0, 772.0, 772.0, 773.0, 774.0, 773.0, 773.0, 772.0, 771.0, 772.0, 772.0, 771.0, 771.0, 771.0, 771.0, 771.0, 771.0, 772.0, 772.0, 771.0, 771.0, 771.0, 771.0, 772.0, 771.0, 770.0, 770.0, 772.0, 772.0, 771.0, 771.0, 771.0, 772.0, 771.0, 771.0, 771.0, 771.0, 771.0, 770.0, 770.0, 771.0, 771.0, 772.0, 774.0, 772.0, 771.0, 770.0, 770.0, 771.0, 772.0, 773.0, 774.0, 775.0, 773.0, 773.0, 773.0, 774.0, 774.0, 775.0, 775.0, 773.0, 773.0, 774.0, 774.0, 774.0, 775.0, 773.0, 773.0, 773.0],
      "WindowWidth": [1665.0, 1660.0, 1659.0, 1658.0, 1656.0, 1657.0, 1656.0, 1657.0, 1657.0, 1659.0, 1659.0, 1658.0, 1656.0, 1654.0, 1655.0, 1654.0, 1652.0, 1651.0, 1651.0, 1654.0, 1654.0, 1655.0, 1655.0, 1655.0, 1655.0, 1654.0, 1653.0, 1651.0, 1652.0, 1652.0, 1651.0, 1650.0, 1648.0, 1647.0, 1648.0, 1649.0, 1651.0, 1651.0, 1649.0, 1648.0, 1650.0, 1649.0, 1651.0, 1651.0, 1654.0, 1653.0, 1650.0, 1648.0, 1647.0, 1650.0, 1653.0, 1654.0, 1654.0, 1652.0, 1651.0, 1650.0, 1650.0, 1652.0, 1654.0, 1654.0, 1653.0, 1650.0, 1652.0, 1652.0, 1651.0, 1649.0, 1648.0, 1649.0, 1648.0, 1650.0, 1650.0, 1653.0, 1654.0, 1653.0, 1651.0, 1651.0, 1650.0, 1650.0, 1652.0, 1652.0, 1648.0, 1646.0, 1649.0, 1649.0, 1652.0, 1654.0, 1654.0, 1652.0, 1651.0, 1649.0, 1652.0, 1650.0, 1649.0, 1650.0, 1652.0, 1652.0, 1651.0, 1651.0, 1654.0, 1653.0, 1653.0, 1653.0, 1653.0, 1650.0, 1649.0, 1652.0, 1652.0, 1652.0, 1650.0, 1648.0, 1647.0, 1650.0, 1650.0, 1650.0, 1646.0, 1647.0, 1648.0, 1651.0, 1654.0, 1654.0, 1653.0, 1653.0, 1653.0, 1653.0, 1651.0, 1650.0, 1652.0, 1650.0, 1648.0, 1648.0, 1647.0, 1649.0, 1651.0, 1651.0, 1652.0, 1653.0, 1650.0, 1650.0, 1650.0, 1650.0, 1649.0, 1650.0, 1651.0, 1651.0, 1653.0, 1651.0, 1648.0, 1649.0, 1650.0, 1651.0, 1651.0, 1649.0, 1649.0, 1651.0, 1654.0, 1653.0, 1649.0, 1650.0, 1652.0, 1653.0, 1653.0, 1650.0, 1649.0, 1648.0, 1649.0, 1649.0, 1651.0, 1649.0, 1649.0, 1647.0, 1646.0, 1646.0, 1647.0, 1651.0, 1654.0, 1653.0, 1653.0, 1653.0, 1654.0, 1652.0, 1653.0, 1653.0, 1653.0, 1651.0, 1652.0, 1652.0, 1652.0, 1651.0, 1651.0, 1652.0, 1653.0, 1656.0, 1655.0, 1655.0, 1652.0, 1650.0, 1653.0, 1651.0, 1650.0, 1649.0, 1648.0, 1649.0, 1650.0, 1648.0, 1651.0, 1651.0, 1650.0, 1649.0, 1648.0, 1650.0, 1651.0, 1649.0, 1647.0, 1648.0, 1651.0, 1651.0, 1649.0, 1649.0, 1649.0, 1651.0, 1650.0, 1648.0, 1648.0, 1648.0, 1649.0, 1646.0, 1646.0, 1649.0, 1648.0, 1652.0, 1656.0, 1652.0, 1650.0, 1646.0, 1647.0, 1649.0, 1651.0, 1654.0, 1656.0, 1658.0, 1655.0, 1654.0, 1654.0, 1658.0, 1657.0, 1658.0, 1659.0, 1655.0, 1655.0, 1656.0, 1656.0, 1657.0, 1659.0, 1656.0, 1654.0, 1655.0]
    },
    "slices": {}
  }
}