{
  "AcquisitionMatrixPE": 100,
  "AcquisitionNumber": 1,
  "AcquisitionTime": "11:28:27.727500",
  "BandwidthPerPixelPhaseEncode": 18.519,
  "BaseResolution": 100,
  "BodyPartExamined": "BRAIN",
  "ConsistencyInfo": "N4_VE11C_LATEST_20160120",
  "ConversionSoftware": "dcm2niix",
  "ConversionSoftwareVersion": "v1.0.20180622 GCC4.9.2",
  "DerivedVendorReportedEchoSpacing": 0.000539986,
  "DeviceSerialNumber": "166078",
  "DwellTime": 2.1e-06,
  "EchoTime": 0.034,
  "EchoTrainLength": 100,
  "EffectiveEchoSpacing": 0.000539986,
  "FlipAngle": 90,
  "ImageOrientationPatientDICOM": [1, -0.00011844, -0.000577282, -2.63752e-08, 0.979586, -0.201026],
  "ImageType": [
    "ORIGINAL",
    "PRIMARY",
    "M",
    "ND",
    "MOSAIC"
],
  "InPlanePhaseEncodingDirectionDICOM": "COL",
  "InstitutionAddress": "Street_StreetNo_Bei_Jing_District_CN_ZIP",
  "InstitutionName": "BeiJing_Normal_University",
  "InstitutionalDepartmentName": "Department",
  "MRAcquisitionType": "2D",
  "MagneticFieldStrength": 3,
  "Manufacturer": "Siemens",
  "ManufacturersModelName": "Prisma",
  "Modality": "MR",
  "MultibandAccelerationFactor": 3,
  "PartialFourier": 1,
  "PatientPosition": "HFS",
  "PercentPhaseFOV": 100,
  "PhaseEncodingDirection": "j-",
  "PhaseEncodingSteps": 100,
  "PhaseResolution": 1,
  "PixelBandwidth": 2380,
  "ProcedureStepDescription": "BNU_P2018_64CH_Zhen.ZongLei",
  "ProtocolName": "bold_100x100_s3_2x2x2_static_256",
  "PulseSequenceDetails": "%SiemensSeq%_ep2d_bold",
  "ReceiveCoilActiveElements": "HC1-7;NC1",
  "ReceiveCoilName": "HeadNeck_64",
  "ReconMatrixPE": 100,
  "RepetitionTime": 2,
  "SAR": 0.0877247,
  "ScanOptions": "FS",
  "ScanningSequence": "EP",
  "SequenceName": "_epfid2d1_100",
  "SequenceVariant": "SK",
  "SeriesDescription": "bold_100x100_s3_2x2x2_static_256",
  "SeriesNumber": 5,
  "ShimSetting": [-5467, -11499, -1303, 498, -24, -181, -115, 87],
  "SliceThickness": 2,
  "SliceTiming": [1.485, 0, 0.99, 0.0825, 1.0725, 0.165, 1.155, 0.2475, 1.2375, 0.33, 1.32, 0.4125, 1.4025, 0.5775, 1.5675, 0.66, 1.65, 0.7425, 1.7325, 0.825, 1.815, 0.9075, 1.8975, 0.495, 1.485, 0, 0.99, 0.0825, 1.0725, 0.165, 1.155, 0.2475, 1.2375, 0.33, 1.32, 0.4125, 1.4025, 0.5775, 1.5675, 0.66, 1.65, 0.7425, 1.7325, 0.825, 1.815, 0.9075, 1.8975, 0.495, 1.485, 0, 0.99, 0.0825, 1.0725, 0.165, 1.155, 0.2475, 1.2375, 0.33, 1.32, 0.4125, 1.4025, 0.5775, 1.5675, 0.66, 1.65, 0.7425, 1.7325, 0.825, 1.815, 0.9075, 1.8975, 0.495],
  "SoftwareVersions": "syngo_MR_E11",
  "SpacingBetweenSlices": 2,
  "StationName": "AWP166078",
  "TaskName": "naturalvision",
  "TotalReadoutTime": 0.0534586,
  "TxRefAmp": 237.429,
  "dcmmeta_affine": [
    [-1.9999996423721313, -5.2750447565586e-08, -0.001178613631054759, 100.61858367919922],
    [0.00023688015062361956, 1.9591718912124634, -0.4020516574382782, -79.76741790771484],
    [-0.0011545639717951417, 0.402051717042923, 1.9591715335845947, -100.2239761352539],
    [0.0, 0.0, 0.0, 1.0]
],
  "dcmmeta_reorient_transform": [
    [0.0, -1.0, 0.0, 99.0],
    [1.0, 0.0, 0.0, 0.0],
    [0.0, 0.0, 1.0, 0.0],
    [0.0, 0.0, 0.0, 1.0]
],
  "dcmmeta_shape": [100, 100, 72, 256],
  "dcmmeta_slice_dim": 2,
  "dcmmeta_version": 0.6,
  "global": {
    "const": {
      "AcquisitionMatrix": [100, 0, 0, 100],
      "AngioFlag": "N",
      "BitsAllocated": 16,
      "BitsStored": 12,
      "BodyPartExamined": "BRAIN",
      "Columns": 900,
      "EchoNumbers": 1,
      "EchoTime": 34.0,
      "EchoTrainLength": 100,
      "FlipAngle": 90.0,
      "HighBit": 11,
      "ImageOrientationPatient": [0.99999982635871, -0.0001184400774, -0.0005772819846, -2.6375223e-08, 0.97958593418476, -0.2010258628818],
      "ImagePositionPatient": [-900.61841659855, -897.76459158994, 100.86166125134],
      "ImageType": [
        "ORIGINAL",
        "PRIMARY",
        "M",
        "ND",
        "MOSAIC"
],
      "ImagedNucleus": "1H",
      "ImagingFrequency": 123.257788,
      "InPlanePhaseEncodingDirection": "COL",
      "MRAcquisitionType": "2D",
      "MagneticFieldStrength": 3.0,
      "Manufacturer": "SIEMENS",
      "ManufacturerModelName": "Prisma",
      "Modality": "MR",
      "NumberOfAverages": 1.0,
      "NumberOfPhaseEncodingSteps": 100,
      "PercentPhaseFieldOfView": 100.0,
      "PercentSampling": 100.0,
      "PerformedProcedureStepStartTime": "110629.002000",
      "PhotometricInterpretation": "MONOCHROME2",
      "PixelBandwidth": 2380.0,
      "PixelRepresentation": 0,
      "PixelSpacing": [2.0, 2.0],
      "ProtocolName": "bold_100x100_s3_2x2x2_static_256",
      "RepetitionTime": 2000.0,
      "Rows": 900,
      "SAR": 0.08772471539337,
      "SamplesPerPixel": 1,
      "ScanOptions": "FS",
      "ScanningSequence": "EP",
      "SequenceName": "*epfid2d1_100",
      "SequenceVariant": "SK",
      "SeriesDescription": "bold_100x100_s3_2x2x2_static_256",
      "SeriesNumber": 5,
      "SeriesTime": "112830.430000",
      "SliceLocation": -82.201963446221,
      "SliceThickness": 2.0,
      "SmallestImagePixelValue": 0,
      "SoftwareVersions": "syngo MR E11",
      "SpacingBetweenSlices": 1.9999999851875,
      "SpecificCharacterSet": "ISO_IR 100",
      "StudyID": "1",
      "StudyTime": "110628.913000",
      "TransmitCoilName": "Body",
      "VariableFlipAngleFlag": "N",
      "WindowCenterWidthExplanation": "Algo1",
      "dBdt": 0.0},
    "slices": {}
  },
  "time": {
    "samples": {
      "AcquisitionNumber": [1, 2, 3, 4, 5, 6, 7, 8, 9, 10, 11, 12, 13, 14, 15, 16, 17, 18, 19, 20, 21, 22, 23, 24, 25, 26, 27, 28, 29, 30, 31, 32, 33, 34, 35, 36, 37, 38, 39, 40, 41, 42, 43, 44, 45, 46, 47, 48, 49, 50, 51, 52, 53, 54, 55, 56, 57, 58, 59, 60, 61, 62, 63, 64, 65, 66, 67, 68, 69, 70, 71, 72, 73, 74, 75, 76, 77, 78, 79, 80, 81, 82, 83, 84, 85, 86, 87, 88, 89, 90, 91, 92, 93, 94, 95, 96, 97, 98, 99, 100, 101, 102, 103, 104, 105, 106, 107, 108, 109, 110, 111, 112, 113, 114, 115, 116, 117, 118, 119, 120, 121, 122, 123, 124, 125, 126, 127, 128, 129, 130, 131, 132, 133, 134, 135, 136, 137, 138, 139, 140, 141, 142, 143, 144, 145, 146, 147, 148, 149, 150, 151, 152, 153, 154, 155, 156, 157, 158, 159, 160, 161, 162, 163, 164, 165, 166, 167, 168, 169, 170, 171, 172, 173, 174, 175, 176, 177, 178, 179, 180, 181, 182, 183, 184, 185, 186, 187, 188, 189, 190, 191, 192, 193, 194, 195, 196, 197, 198, 199, 200, 201, 202, 203, 204, 205, 206, 207, 208, 209, 210, 211, 212, 213, 214, 215, 216, 217, 218, 219, 220, 221, 222, 223, 224, 225, 226, 227, 228, 229, 230, 231, 232, 233, 234, 235, 236, 237, 238, 239, 240, 241, 242, 243, 244, 245, 246, 247, 248, 249, 250, 251, 252, 253, 254, 255, 256],
      "AcquisitionTime": ["112827.727500", "112829.727500", "112831.727500", "112833.727500", "112835.727500", "112837.727500", "112839.727500", "112841.727500", "112843.727500", "112845.727500", "112847.727500", "112849.727500", "112851.727500", "112853.727500", "112855.727500", "112857.727500", "112859.727500", "112901.727500", "112903.727500", "112905.727500", "112907.727500", "112909.727500", "112911.727500", "112913.727500", "112915.727500", "112917.727500", "112919.727500", "112921.727500", "112923.727500", "112925.727500", "112927.727500", "112929.727500", "112931.727500", "112933.727500", "112935.727500", "112937.727500", "112939.727500", "112941.727500", "112943.727500", "112945.727500", "112947.727500", "112949.727500", "112951.727500", "112953.727500", "112955.727500", "112957.727500", "112959.727500", "113001.727500", "113003.727500", "113005.727500", "113007.727500", "113009.727500", "113011.727500", "113013.727500", "113015.727500", "113017.727500", "113019.727500", "113021.727500", "113023.727500", "113025.727500", "113027.727500", "113029.727500", "113031.727500", "113033.727500", "113035.727500", "113037.727500", "113039.727500", "113041.727500", "113043.727500", "113045.727500", "113047.727500", "113049.727500", "113051.727500", "113053.727500", "113055.727500", "113057.727500", "113059.727500", "113101.727500", "113103.727500", "113105.727500", "113107.727500", "113109.727500", "113111.727500", "113113.727500", "113115.727500", "113117.727500", "113119.727500", "113121.727500", "113123.727500", "113125.727500", "113127.727500", "113129.727500", "113131.727500", "113133.727500", "113135.727500", "113137.727500", "113139.727500", "113141.727500", "113143.727500", "113145.727500", "113147.727500", "113149.727500", "113151.727500", "113153.727500", "113155.727500", "113157.727500", "113159.727500", "113201.727500", "113203.727500", "113205.727500", "113207.727500", "113209.727500", "113211.727500", "113213.727500", "113215.727500", "113217.727500", "113219.727500", "113221.727500", "113223.727500", "113225.727500", "113227.727500", "113229.727500", "113231.727500", "113233.727500", "113235.727500", "113237.727500", "113239.727500", "113241.727500", "113243.727500", "113245.727500", "113247.727500", "113249.727500", "113251.727500", "113253.727500", "113255.727500", "113257.727500", "113259.727500", "113301.727500", "113303.727500", "113305.727500", "113307.727500", "113309.727500", "113311.727500", "113313.727500", "113315.727500", "113317.727500", "113319.727500", "113321.727500", "113323.727500", "113325.727500", "113327.727500", "113329.727500", "113331.727500", "113333.727500", "113335.727500", "113337.727500", "113339.727500", "113341.727500", "113343.727500", "113345.727500", "113347.727500", "113349.727500", "113351.727500", "113353.727500", "113355.727500", "113357.727500", "113359.727500", "113401.727500", "113403.727500", "113405.727500", "113407.727500", "113409.727500", "113411.727500", "113413.727500", "113415.727500", "113417.727500", "113419.727500", "113421.727500", "113423.727500", "113425.727500", "113427.727500", "113429.727500", "113431.727500", "113433.727500", "113435.727500", "113437.727500", "113439.727500", "113441.727500", "113443.727500", "113445.727500", "113447.727500", "113449.727500", "113451.727500", "113453.727500", "113455.727500", "113457.727500", "113459.727500", "113501.727500", "113503.727500", "113505.727500", "113507.727500", "113509.727500", "113511.727500", "113513.727500", "113515.727500", "113517.727500", "113519.727500", "113521.727500", "113523.727500", "113525.727500", "113527.727500", "113529.727500", "113531.727500", "113533.727500", "113535.727500", "113537.727500", "113539.727500", "113541.727500", "113543.727500", "113545.727500", "113547.727500", "113549.727500", "113551.727500", "113553.727500", "113555.727500", "113557.727500", "113559.727500", "113601.727500", "113603.727500", "113605.727500", "113607.727500", "113609.727500", "113611.727500", "113613.727500", "113615.727500", "113617.727500", "113619.727500", "113621.727500", "113623.727500", "113625.727500", "113627.727500", "113629.727500", "113631.727500", "113633.727500", "113635.727500", "113637.727500", "113639.727500", "113641.727500", "113643.727500", "113645.727500", "113647.727500", "113649.727500", "113651.727500", "113653.727500", "113655.727500", "113657.727500"],
      "ContentTime": ["112830.434000", "112831.929000", "112833.930000", "112835.929000", "112837.929000", "112839.930000", "112841.929000", "112843.929000", "112845.930000", "112847.930000", "112849.929000", "112851.930000", "112853.929000", "112855.929000", "112857.929000", "112859.930000", "112901.930000", "112903.929000", "112905.930000", "112907.930000", "112909.929000", "112911.930000", "112913.930000", "112915.929000", "112917.930000", "112919.930000", "112921.930000", "112923.930000", "112925.929000", "112927.930000", "112929.929000", "112931.931000", "112933.930000", "112935.929000", "112937.930000", "112939.929000", "112941.929000", "112943.929000", "112945.930000", "112947.930000", "112949.929000", "112951.930000", "112953.930000", "112955.929000", "112957.930000", "112959.929000", "113001.929000", "113003.929000", "113005.929000", "113007.929000", "113009.929000", "113011.930000", "113013.929000", "113015.930000", "113017.929000", "113019.929000", "113021.929000", "113023.931000", "113025.930000", "113027.929000", "113029.930000", "113031.929000", "113033.930000", "113035.930000", "113037.929000", "113039.929000", "113041.930000", "113043.929000", "113045.930000", "113047.930000", "113049.930000", "113051.929000", "113053.930000", "113055.930000", "113057.929000", "113059.929000", "113101.930000", "113103.930000", "113105.929000", "113107.930000", "113109.930000", "113111.930000", "113113.930000", "113115.931000", "113117.930000", "113119.930000", "113121.929000", "113123.929000", "113125.929000", "113127.929000", "113129.930000", "113131.929000", "113133.930000", "113135.930000", "113137.929000", "113139.929000", "113141.930000", "113143.929000", "113145.930000", "113147.930000", "113149.930000", "113151.930000", "113153.930000", "113155.930000", "113157.929000", "113159.929000", "113201.929000", "113203.929000", "113205.930000", "113207.930000", "113209.930000", "113211.929000", "113213.929000", "113215.929000", "113217.929000", "113219.930000", "113221.929000", "113223.929000", "113225.930000", "113227.930000", "113229.930000", "113231.942000", "113233.929000", "113235.929000", "113237.929000", "113239.929000", "113241.930000", "113243.931000", "113245.930000", "113247.930000", "113249.930000", "113251.930000", "113253.930000", "113255.930000", "113257.930000", "113259.930000", "113301.931000", "113303.930000", "113305.930000", "113307.930000", "113309.930000", "113311.929000", "113313.930000", "113315.929000", "113317.930000", "113319.929000", "113321.930000", "113323.929000", "113325.929000", "113327.930000", "113329.929000", "113331.929000", "113333.930000", "113335.931000", "113337.930000", "113339.930000", "113341.929000", "113343.930000", "113345.930000", "113347.930000", "113349.930000", "113351.929000", "113353.931000", "113355.930000", "113357.929000", "113359.929000", "113401.930000", "113403.930000", "113405.929000", "113407.930000", "113409.929000", "113411.931000", "113413.929000", "113415.930000", "113417.930000", "113419.929000", "113421.929000", "113423.930000", "113425.930000", "113427.929000", "113429.929000", "113431.930000", "113433.930000", "113435.929000", "113437.930000", "113439.930000", "113441.929000", "113443.930000", "113445.930000", "113447.929000", "113449.929000", "113451.930000", "113453.930000", "113455.929000", "113457.929000", "113459.929000", "113501.929000", "113503.931000", "113505.929000", "113507.929000", "113509.930000", "113511.929000", "113513.930000", "113515.930000", "113517.929000", "113519.930000", "113521.930000", "113523.929000", "113525.930000", "113527.929000", "113529.929000", "113531.930000", "113533.929000", "113535.930000", "113537.929000", "113539.929000", "113541.929000", "113543.930000", "113545.929000", "113547.929000", "113549.930000", "113551.929000", "113553.929000", "113555.930000", "113557.930000", "113559.930000", "113601.929000", "113603.929000", "113605.929000", "113607.930000", "113609.930000", "113611.930000", "113613.931000", "113615.930000", "113617.929000", "113619.929000", "113621.929000", "113623.930000", "113625.929000", "113627.930000", "113629.930000", "113631.929000", "113633.930000", "113635.930000", "113637.930000", "113639.930000", "113641.930000", "113643.930000", "113645.930000", "113647.929000", "113649.930000", "113651.930000", "113653.930000", "113655.930000", "113657.930000", "113659.643000"],
      "InstanceCreationTime": ["112830.434000", "112831.929000", "112833.930000", "112835.929000", "112837.929000", "112839.930000", "112841.929000", "112843.929000", "112845.930000", "112847.930000", "112849.929000", "112851.930000", "112853.929000", "112855.929000", "112857.929000", "112859.930000", "112901.930000", "112903.929000", "112905.930000", "112907.930000", "112909.929000", "112911.930000", "112913.930000", "112915.929000", "112917.930000", "112919.930000", "112921.930000", "112923.930000", "112925.929000", "112927.930000", "112929.929000", "112931.931000", "112933.930000", "112935.929000", "112937.930000", "112939.929000", "112941.929000", "112943.929000", "112945.930000", "112947.930000", "112949.929000", "112951.930000", "112953.930000", "112955.929000", "112957.930000", "112959.929000", "113001.929000", "113003.929000", "113005.929000", "113007.929000", "113009.929000", "113011.930000", "113013.929000", "113015.930000", "113017.929000", "113019.929000", "113021.929000", "113023.931000", "113025.930000", "113027.929000", "113029.930000", "113031.929000", "113033.930000", "113035.930000", "113037.929000", "113039.929000", "113041.930000", "113043.929000", "113045.930000", "113047.930000", "113049.930000", "113051.929000", "113053.930000", "113055.930000", "113057.929000", "113059.929000", "113101.930000", "113103.930000", "113105.929000", "113107.930000", "113109.930000", "113111.930000", "113113.930000", "113115.931000", "113117.930000", "113119.930000", "113121.929000", "113123.929000", "113125.929000", "113127.929000", "113129.930000", "113131.929000", "113133.930000", "113135.930000", "113137.929000", "113139.929000", "113141.930000", "113143.929000", "113145.930000", "113147.930000", "113149.930000", "113151.930000", "113153.930000", "113155.930000", "113157.929000", "113159.929000", "113201.929000", "113203.929000", "113205.930000", "113207.930000", "113209.930000", "113211.929000", "113213.929000", "113215.929000", "113217.929000", "113219.930000", "113221.929000", "113223.929000", "113225.930000", "113227.930000", "113229.930000", "113231.942000", "113233.929000", "113235.929000", "113237.929000", "113239.929000", "113241.930000", "113243.931000", "113245.930000", "113247.930000", "113249.930000", "113251.930000", "113253.930000", "113255.930000", "113257.930000", "113259.930000", "113301.931000", "113303.930000", "113305.930000", "113307.930000", "113309.930000", "113311.929000", "113313.930000", "113315.929000", "113317.930000", "113319.929000", "113321.930000", "113323.929000", "113325.929000", "113327.930000", "113329.929000", "113331.929000", "113333.930000", "113335.931000", "113337.930000", "113339.930000", "113341.929000", "113343.930000", "113345.930000", "113347.930000", "113349.930000", "113351.929000", "113353.931000", "113355.930000", "113357.929000", "113359.929000", "113401.930000", "113403.930000", "113405.929000", "113407.930000", "113409.929000", "113411.931000", "113413.929000", "113415.930000", "113417.930000", "113419.929000", "113421.929000", "113423.930000", "113425.930000", "113427.929000", "113429.929000", "113431.930000", "113433.930000", "113435.929000", "113437.930000", "113439.930000", "113441.929000", "113443.930000", "113445.930000", "113447.929000", "113449.929000", "113451.930000", "113453.930000", "113455.929000", "113457.929000", "113459.929000", "113501.929000", "113503.931000", "113505.929000", "113507.929000", "113509.930000", "113511.929000", "113513.930000", "113515.930000", "113517.929000", "113519.930000", "113521.930000", "113523.929000", "113525.930000", "113527.929000", "113529.929000", "113531.930000", "113533.929000", "113535.930000", "113537.929000", "113539.929000", "113541.929000", "113543.930000", "113545.929000", "113547.929000", "113549.930000", "113551.929000", "113553.929000", "113555.930000", "113557.930000", "113559.930000", "113601.929000", "113603.929000", "113605.929000", "113607.930000", "113609.930000", "113611.930000", "113613.931000", "113615.930000", "113617.929000", "113619.929000", "113621.929000", "113623.930000", "113625.929000", "113627.930000", "113629.930000", "113631.929000", "113633.930000", "113635.930000", "113637.930000", "113639.930000", "113641.930000", "113643.930000", "113645.930000", "113647.929000", "113649.930000", "113651.930000", "113653.930000", "113655.930000", "113657.930000", "113659.643000"],
      "InstanceNumber": [1, 2, 3, 4, 5, 6, 7, 8, 9, 10, 11, 12, 13, 14, 15, 16, 17, 18, 19, 20, 21, 22, 23, 24, 25, 26, 27, 28, 29, 30, 31, 32, 33, 34, 35, 36, 37, 38, 39, 40, 41, 42, 43, 44, 45, 46, 47, 48, 49, 50, 51, 52, 53, 54, 55, 56, 57, 58, 59, 60, 61, 62, 63, 64, 65, 66, 67, 68, 69, 70, 71, 72, 73, 74, 75, 76, 77, 78, 79, 80, 81, 82, 83, 84, 85, 86, 87, 88, 89, 90, 91, 92, 93, 94, 95, 96, 97, 98, 99, 100, 101, 102, 103, 104, 105, 106, 107, 108, 109, 110, 111, 112, 113, 114, 115, 116, 117, 118, 119, 120, 121, 122, 123, 124, 125, 126, 127, 128, 129, 130, 131, 132, 133, 134, 135, 136, 137, 138, 139, 140, 141, 142, 143, 144, 145, 146, 147, 148, 149, 150, 151, 152, 153, 154, 155, 156, 157, 158, 159, 160, 161, 162, 163, 164, 165, 166, 167, 168, 169, 170, 171, 172, 173, 174, 175, 176, 177, 178, 179, 180, 181, 182, 183, 184, 185, 186, 187, 188, 189, 190, 191, 192, 193, 194, 195, 196, 197, 198, 199, 200, 201, 202, 203, 204, 205, 206, 207, 208, 209, 210, 211, 212, 213, 214, 215, 216, 217, 218, 219, 220, 221, 222, 223, 224, 225, 226, 227, 228, 229, 230, 231, 232, 233, 234, 235, 236, 237, 238, 239, 240, 241, 242, 243, 244, 245, 246, 247, 248, 249, 250, 251, 252, 253, 254, 255, 256],
      "LargestImagePixelValue": [2942, 2896, 2914, 2907, 2886, 2885, 2898, 2913, 2902, 2885, 2928, 2902, 2904, 2906, 2908, 2911, 2926, 2915, 2903, 2901, 2890, 2893, 2917, 2893, 2875, 2881, 2902, 2879, 2880, 2866, 2869, 2898, 2901, 2893, 2898, 2890, 2877, 2915, 2865, 2910, 2925, 2899, 2927, 2912, 2897, 2913, 2880, 2861, 2898, 2917, 2909, 2885, 2878, 2870, 2898, 2903, 2900, 2865, 2906, 2898, 2880, 2894, 2902, 2911, 2923, 2919, 2920, 2902, 2896, 2905, 2878, 2886, 2878, 2889, 2912, 2885, 2897, 2872, 2892, 2879, 2879, 2880, 2897, 2884, 2903, 2894, 2904, 2901, 2919, 2911, 2935, 2900, 2914, 2921, 2894, 2890, 2904, 2899, 2889, 2895, 2899, 2901, 2921, 2910, 2910, 2927, 2892, 2921, 2909, 2922, 2910, 2915, 2922, 2906, 2910, 2904, 2897, 2876, 2857, 2899, 2904, 2904, 2904, 2927, 2912, 2915, 2908, 2911, 2916, 2925, 2893, 2889, 2923, 2896, 2916, 2892, 2871, 2860, 2860, 2878, 2898, 2910, 2870, 2892, 2866, 2884, 2837, 2891, 2875, 2869, 2914, 2900, 2901, 2912, 2875, 2873, 2875, 2877, 2869, 2901, 2894, 2904, 2892, 2900, 2896, 2882, 2911, 2896, 2885, 2898, 2887, 2902, 2886, 2887, 2868, 2870, 2897, 2909, 2911, 2902, 2908, 2914, 2890, 2860, 2882, 2882, 2870, 2872, 2871, 2862, 2883, 2866, 2918, 2907, 2889, 2885, 2872, 2887, 2895, 2872, 2893, 2904, 2886, 2882, 2907, 2900, 2877, 2886, 2892, 2894, 2887, 2883, 2866, 2882, 2861, 2879, 2853, 2869, 2870, 2906, 2891, 2862, 2887, 2856, 2882, 2893, 2849, 2875, 2895, 2895, 2916, 2870, 2894, 2900, 2889, 2894, 2875, 2881, 2893, 2874, 2872, 2883, 2886, 2885, 2879, 2883, 2896, 2904, 2904, 2925, 2897, 2900, 2891, 2867, 2877, 2883],
      "WindowCenter": [775.0, 773.0, 774.0, 773.0, 773.0, 772.0, 772.0, 773.0, 773.0, 772.0, 774.0, 774.0, 774.0, 774.0, 774.0, 774.0, 773.0, 773.0, 772.0, 772.0, 773.0, 773.0, 774.0, 773.0, 773.0, 772.0, 773.0, 773.0, 772.0, 772.0, 772.0, 772.0, 772.0, 772.0, 773.0, 772.0, 772.0, 773.0, 773.0, 775.0, 775.0, 775.0, 774.0, 774.0, 773.0, 774.0, 773.0, 771.0, 771.0, 771.0, 771.0, 771.0, 770.0, 770.0, 771.0, 770.0, 770.0, 771.0, 772.0, 772.0, 772.0, 772.0, 772.0, 773.0, 774.0, 774.0, 774.0, 773.0, 772.0, 772.0, 771.0, 771.0, 771.0, 771.0, 772.0, 771.0, 772.0, 771.0, 772.0, 771.0, 771.0, 771.0, 771.0, 772.0, 773.0, 774.0, 774.0, 774.0, 774.0, 774.0, 775.0, 774.0, 775.0, 774.0, 773.0, 773.0, 772.0, 773.0, 772.0, 773.0, 774.0, 773.0, 773.0, 772.0, 772.0, 772.0, 773.0, 774.0, 773.0, 774.0, 773.0, 773.0, 774.0, 773.0, 773.0, 772.0, 771.0, 771.0, 772.0, 772.0, 773.0, 774.0, 774.0, 775.0, 774.0, 773.0, 772.0, 772.0, 772.0, 772.0, 772.0, 773.0, 774.0, 774.0, 773.0, 773.0, 772.0, 772.0, 771.0, 772.0, 772.0, 772.0, 773.0, 773.0, 772.0, 771.0, 771.0, 772.0, 772.0, 772.0, 773.0, 772.0, 772.0, 773.0, 773.0, 773.0, 772.0, 772.0, 772.0, 772.0, 773.0, 773.0, 772.0, 772.0, 772.0, 772.0, 773.0, 772.0, 772.0, 774.0, 774.0, 773.0, 772.0, 772.0, 772.0, 773.0, 774.0, 775.0, 775.0, 774.0, 774.0, 773.0, 773.0, 772.0, 772.0, 773.0, 774.0, 773.0, 772.0, 773.0, 773.0, 774.0, 775.0, 774.0, 774.0, 774.0, 774.0, 774.0, 774.0, 773.0, 773.0, 774.0, 774.0, 774.0, 775.0, 774.0, 774.0, 774.0, 774.0, 773.0, 774.0, 773.0, 773.0, 773.0, 772.0, 772.0, 772.0, 772.0, 772.0, 772.0, 772.0, 773.0, 773.0, 772.0, 771.0, 770.0, 771.0, 773.0, 774.0, 773.0, 772.0, 771.0, 772.0, 772.0, 773.0, 773.0, 772.0, 772.0, 773.0, 773.0, 774.0, 773.0, 773.0, 773.0, 773.0, 773.0, 773.0, 773.0, 772.0, 774.0, 775.0, 774.0, 773.0, 773.0, 773.0, 773.0],
      "WindowWidth": [1661.0, 1655.0, 1656.0, 1655.0, 1655.0, 1653.0, 1653.0, 1654.0, 1654.0, 1653.0, 1657.0, 1657.0, 1658.0, 1658.0, 1657.0, 1657.0, 1656.0, 1656.0, 1653.0, 1653.0, 1654.0, 1656.0, 1657.0, 1655.0, 1654.0, 1653.0, 1655.0, 1654.0, 1653.0, 1652.0, 1652.0, 1652.0, 1652.0, 1654.0, 1654.0, 1653.0, 1653.0, 1655.0, 1656.0, 1659.0, 1661.0, 1660.0, 1659.0, 1657.0, 1656.0, 1658.0, 1655.0, 1650.0, 1650.0, 1650.0, 1651.0, 1650.0, 1648.0, 1647.0, 1649.0, 1647.0, 1648.0, 1649.0, 1653.0, 1653.0, 1652.0, 1653.0, 1653.0, 1655.0, 1658.0, 1658.0, 1657.0, 1655.0, 1653.0, 1652.0, 1651.0, 1650.0, 1649.0, 1650.0, 1652.0, 1649.0, 1651.0, 1650.0, 1653.0, 1650.0, 1649.0, 1649.0, 1651.0, 1652.0, 1656.0, 1657.0, 1657.0, 1658.0, 1658.0, 1658.0, 1659.0, 1659.0, 1660.0, 1658.0, 1655.0, 1654.0, 1653.0, 1654.0, 1653.0, 1654.0, 1656.0, 1655.0, 1655.0, 1652.0, 1652.0, 1652.0, 1654.0, 1656.0, 1656.0, 1656.0, 1656.0, 1655.0, 1657.0, 1656.0, 1654.0, 1651.0, 1649.0, 1650.0, 1653.0, 1653.0, 1655.0, 1657.0, 1658.0, 1659.0, 1658.0, 1655.0, 1653.0, 1653.0, 1652.0, 1652.0, 1653.0, 1655.0, 1658.0, 1656.0, 1655.0, 1654.0, 1653.0, 1652.0, 1651.0, 1652.0, 1652.0, 1652.0, 1654.0, 1655.0, 1653.0, 1650.0, 1649.0, 1651.0, 1652.0, 1653.0, 1655.0, 1652.0, 1651.0, 1654.0, 1655.0, 1654.0, 1653.0, 1652.0, 1651.0, 1653.0, 1654.0, 1655.0, 1654.0, 1653.0, 1653.0, 1653.0, 1655.0, 1652.0, 1653.0, 1657.0, 1656.0, 1654.0, 1652.0, 1652.0, 1653.0, 1655.0, 1658.0, 1660.0, 1660.0, 1657.0, 1657.0, 1655.0, 1654.0, 1652.0, 1654.0, 1655.0, 1657.0, 1655.0, 1653.0, 1654.0, 1656.0, 1657.0, 1660.0, 1658.0, 1658.0, 1658.0, 1658.0, 1657.0, 1656.0, 1655.0, 1656.0, 1656.0, 1657.0, 1658.0, 1659.0, 1658.0, 1657.0, 1657.0, 1657.0, 1656.0, 1657.0, 1656.0, 1654.0, 1654.0, 1653.0, 1652.0, 1653.0, 1652.0, 1653.0, 1652.0, 1653.0, 1653.0, 1654.0, 1651.0, 1649.0, 1648.0, 1650.0, 1655.0, 1657.0, 1655.0, 1652.0, 1650.0, 1651.0, 1653.0, 1654.0, 1653.0, 1652.0, 1653.0, 1655.0, 1656.0, 1657.0, 1655.0, 1655.0, 1656.0, 1655.0, 1654.0, 1654.0, 1654.0, 1653.0, 1656.0, 1659.0, 1657.0, 1655.0, 1653.0, 1654.0, 1654.0]
    },
    "slices": {}
  }
}