{
  "AcquisitionMatrixPE": 100,
  "AcquisitionNumber": 1,
  "AcquisitionTime": "11:18:56.900000",
  "BandwidthPerPixelPhaseEncode": 18.519,
  "BaseResolution": 100,
  "BodyPartExamined": "BRAIN",
  "ConsistencyInfo": "N4_VE11C_LATEST_20160120",
  "ConversionSoftware": "dcm2niix",
  "ConversionSoftwareVersion": "v1.0.20180622 GCC4.9.2",
  "DerivedVendorReportedEchoSpacing": 0.000539986,
  "DeviceSerialNumber": "166078",
  "DwellTime": 2.1e-06,
  "EchoTime": 0.034,
  "EchoTrainLength": 100,
  "EffectiveEchoSpacing": 0.000539986,
  "FlipAngle": 90,
  "ImageOrientationPatientDICOM": [1, -0.00011844, -0.000577282, -2.63752e-08, 0.979586, -0.201026],
  "ImageType": [
    "ORIGINAL",
    "PRIMARY",
    "M",
    "ND",
    "MOSAIC"
],
  "InPlanePhaseEncodingDirectionDICOM": "COL",
  "InstitutionAddress": "Street_StreetNo_Bei_Jing_District_CN_ZIP",
  "InstitutionName": "BeiJing_Normal_University",
  "InstitutionalDepartmentName": "Department",
  "MRAcquisitionType": "2D",
  "MagneticFieldStrength": 3,
  "Manufacturer": "Siemens",
  "ManufacturersModelName": "Prisma",
  "Modality": "MR",
  "MultibandAccelerationFactor": 3,
  "PartialFourier": 1,
  "PatientPosition": "HFS",
  "PercentPhaseFOV": 100,
  "PhaseEncodingDirection": "j-",
  "PhaseEncodingSteps": 100,
  "PhaseResolution": 1,
  "PixelBandwidth": 2380,
  "ProcedureStepDescription": "BNU_P2018_64CH_Zhen.ZongLei",
  "ProtocolName": "bold_100x100_s3_2x2x2_static_256",
  "PulseSequenceDetails": "%SiemensSeq%_ep2d_bold",
  "ReceiveCoilActiveElements": "HC1-7;NC1",
  "ReceiveCoilName": "HeadNeck_64",
  "ReconMatrixPE": 100,
  "RepetitionTime": 2,
  "SAR": 0.0877247,
  "ScanOptions": "FS",
  "ScanningSequence": "EP",
  "SequenceName": "_epfid2d1_100",
  "SequenceVariant": "SK",
  "SeriesDescription": "bold_100x100_s3_2x2x2_static_256",
  "SeriesNumber": 4,
  "ShimSetting": [-5467, -11499, -1303, 498, -24, -181, -115, 87],
  "SliceThickness": 2,
  "SliceTiming": [1.485, 0, 0.99, 0.0825, 1.0725, 0.165, 1.155, 0.2475, 1.2375, 0.33, 1.32, 0.4125, 1.4025, 0.5775, 1.5675, 0.66, 1.65, 0.7425, 1.7325, 0.825, 1.815, 0.9075, 1.8975, 0.495, 1.485, 0, 0.99, 0.0825, 1.0725, 0.165, 1.155, 0.2475, 1.2375, 0.33, 1.32, 0.4125, 1.4025, 0.5775, 1.5675, 0.66, 1.65, 0.7425, 1.7325, 0.825, 1.815, 0.9075, 1.8975, 0.495, 1.485, 0, 0.99, 0.0825, 1.0725, 0.165, 1.155, 0.2475, 1.2375, 0.33, 1.32, 0.4125, 1.4025, 0.5775, 1.5675, 0.66, 1.65, 0.7425, 1.7325, 0.825, 1.815, 0.9075, 1.8975, 0.495],
  "SoftwareVersions": "syngo_MR_E11",
  "SpacingBetweenSlices": 2,
  "StationName": "AWP166078",
  "TaskName": "naturalvision",
  "TotalReadoutTime": 0.0534586,
  "TxRefAmp": 237.429,
  "dcmmeta_affine": [
    [-1.9999996423721313, -5.2750447565586e-08, -0.001178613631054759, 100.61858367919922],
    [0.00023688015062361956, 1.9591718912124634, -0.4020516574382782, -79.76741790771484],
    [-0.0011545639717951417, 0.402051717042923, 1.9591715335845947, -100.2239761352539],
    [0.0, 0.0, 0.0, 1.0]
],
  "dcmmeta_reorient_transform": [
    [0.0, -1.0, 0.0, 99.0],
    [1.0, 0.0, 0.0, 0.0],
    [0.0, 0.0, 1.0, 0.0],
    [0.0, 0.0, 0.0, 1.0]
],
  "dcmmeta_shape": [100, 100, 72, 256],
  "dcmmeta_slice_dim": 2,
  "dcmmeta_version": 0.6,
  "global": {
    "const": {
      "AcquisitionMatrix": [100, 0, 0, 100],
      "AngioFlag": "N",
      "BitsAllocated": 16,
      "BitsStored": 12,
      "BodyPartExamined": "BRAIN",
      "Columns": 900,
      "EchoNumbers": 1,
      "EchoTime": 34.0,
      "EchoTrainLength": 100,
      "FlipAngle": 90.0,
      "HighBit": 11,
      "ImageOrientationPatient": [0.99999982635871, -0.0001184400774, -0.0005772819846, -2.6375223e-08, 0.97958593418476, -0.2010258628818],
      "ImagePositionPatient": [-900.61841659855, -897.76459158994, 100.86166125134],
      "ImageType": [
        "ORIGINAL",
        "PRIMARY",
        "M",
        "ND",
        "MOSAIC"
],
      "ImagedNucleus": "1H",
      "ImagingFrequency": 123.257786,
      "InPlanePhaseEncodingDirection": "COL",
      "MRAcquisitionType": "2D",
      "MagneticFieldStrength": 3.0,
      "Manufacturer": "SIEMENS",
      "ManufacturerModelName": "Prisma",
      "Modality": "MR",
      "NumberOfAverages": 1.0,
      "NumberOfPhaseEncodingSteps": 100,
      "PercentPhaseFieldOfView": 100.0,
      "PercentSampling": 100.0,
      "PerformedProcedureStepStartTime": "110629.002000",
      "PhotometricInterpretation": "MONOCHROME2",
      "PixelBandwidth": 2380.0,
      "PixelRepresentation": 0,
      "PixelSpacing": [2.0, 2.0],
      "ProtocolName": "bold_100x100_s3_2x2x2_static_256",
      "RepetitionTime": 2000.0,
      "Rows": 900,
      "SAR": 0.08772471539337,
      "SamplesPerPixel": 1,
      "ScanOptions": "FS",
      "ScanningSequence": "EP",
      "SequenceName": "*epfid2d1_100",
      "SequenceVariant": "SK",
      "SeriesDescription": "bold_100x100_s3_2x2x2_static_256",
      "SeriesNumber": 4,
      "SeriesTime": "111859.269000",
      "SliceLocation": -82.201963446221,
      "SliceThickness": 2.0,
      "SmallestImagePixelValue": 0,
      "SoftwareVersions": "syngo MR E11",
      "SpacingBetweenSlices": 1.9999999851875,
      "SpecificCharacterSet": "ISO_IR 100",
      "StudyID": "1",
      "StudyTime": "110628.913000",
      "TransmitCoilName": "Body",
      "VariableFlipAngleFlag": "N",
      "WindowCenterWidthExplanation": "Algo1",
      "dBdt": 0.0},
    "slices": {}
  },
  "time": {
    "samples": {
      "AcquisitionNumber": [1, 2, 3, 4, 5, 6, 7, 8, 9, 10, 11, 12, 13, 14, 15, 16, 17, 18, 19, 20, 21, 22, 23, 24, 25, 26, 27, 28, 29, 30, 31, 32, 33, 34, 35, 36, 37, 38, 39, 40, 41, 42, 43, 44, 45, 46, 47, 48, 49, 50, 51, 52, 53, 54, 55, 56, 57, 58, 59, 60, 61, 62, 63, 64, 65, 66, 67, 68, 69, 70, 71, 72, 73, 74, 75, 76, 77, 78, 79, 80, 81, 82, 83, 84, 85, 86, 87, 88, 89, 90, 91, 92, 93, 94, 95, 96, 97, 98, 99, 100, 101, 102, 103, 104, 105, 106, 107, 108, 109, 110, 111, 112, 113, 114, 115, 116, 117, 118, 119, 120, 121, 122, 123, 124, 125, 126, 127, 128, 129, 130, 131, 132, 133, 134, 135, 136, 137, 138, 139, 140, 141, 142, 143, 144, 145, 146, 147, 148, 149, 150, 151, 152, 153, 154, 155, 156, 157, 158, 159, 160, 161, 162, 163, 164, 165, 166, 167, 168, 169, 170, 171, 172, 173, 174, 175, 176, 177, 178, 179, 180, 181, 182, 183, 184, 185, 186, 187, 188, 189, 190, 191, 192, 193, 194, 195, 196, 197, 198, 199, 200, 201, 202, 203, 204, 205, 206, 207, 208, 209, 210, 211, 212, 213, 214, 215, 216, 217, 218, 219, 220, 221, 222, 223, 224, 225, 226, 227, 228, 229, 230, 231, 232, 233, 234, 235, 236, 237, 238, 239, 240, 241, 242, 243, 244, 245, 246, 247, 248, 249, 250, 251, 252, 253, 254, 255, 256],
      "AcquisitionTime": ["111856.900000", "111858.900000", "111900.900000", "111902.900000", "111904.900000", "111906.900000", "111908.900000", "111910.900000", "111912.900000", "111914.900000", "111916.900000", "111918.900000", "111920.900000", "111922.900000", "111924.900000", "111926.900000", "111928.900000", "111930.900000", "111932.900000", "111934.900000", "111936.900000", "111938.900000", "111940.900000", "111942.900000", "111944.900000", "111946.900000", "111948.900000", "111950.900000", "111952.900000", "111954.900000", "111956.900000", "111958.900000", "112000.900000", "112002.900000", "112004.900000", "112006.900000", "112008.900000", "112010.900000", "112012.900000", "112014.900000", "112016.900000", "112018.900000", "112020.900000", "112022.900000", "112024.900000", "112026.900000", "112028.900000", "112030.900000", "112032.900000", "112034.900000", "112036.900000", "112038.900000", "112040.900000", "112042.900000", "112044.900000", "112046.900000", "112048.900000", "112050.900000", "112052.900000", "112054.900000", "112056.900000", "112058.900000", "112100.900000", "112102.900000", "112104.900000", "112106.900000", "112108.900000", "112110.900000", "112112.900000", "112114.900000", "112116.900000", "112118.900000", "112120.900000", "112122.900000", "112124.900000", "112126.900000", "112128.900000", "112130.900000", "112132.900000", "112134.900000", "112136.900000", "112138.900000", "112140.900000", "112142.900000", "112144.900000", "112146.900000", "112148.900000", "112150.900000", "112152.900000", "112154.900000", "112156.900000", "112158.900000", "112200.900000", "112202.900000", "112204.900000", "112206.900000", "112208.900000", "112210.900000", "112212.900000", "112214.900000", "112216.900000", "112218.900000", "112220.900000", "112222.900000", "112224.900000", "112226.900000", "112228.900000", "112230.900000", "112232.900000", "112234.900000", "112236.900000", "112238.900000", "112240.900000", "112242.900000", "112244.900000", "112246.900000", "112248.900000", "112250.900000", "112252.900000", "112254.900000", "112256.900000", "112258.900000", "112300.900000", "112302.900000", "112304.900000", "112306.900000", "112308.900000", "112310.900000", "112312.900000", "112314.900000", "112316.900000", "112318.900000", "112320.900000", "112322.900000", "112324.900000", "112326.900000", "112328.900000", "112330.900000", "112332.900000", "112334.900000", "112336.900000", "112338.900000", "112340.900000", "112342.900000", "112344.900000", "112346.900000", "112348.900000", "112350.900000", "112352.900000", "112354.900000", "112356.900000", "112358.900000", "112400.900000", "112402.900000", "112404.900000", "112406.900000", "112408.900000", "112410.900000", "112412.900000", "112414.900000", "112416.900000", "112418.900000", "112420.900000", "112422.900000", "112424.900000", "112426.900000", "112428.900000", "112430.900000", "112432.900000", "112434.900000", "112436.900000", "112438.900000", "112440.900000", "112442.900000", "112444.900000", "112446.900000", "112448.900000", "112450.900000", "112452.900000", "112454.900000", "112456.900000", "112458.900000", "112500.900000", "112502.900000", "112504.900000", "112506.900000", "112508.900000", "112510.900000", "112512.900000", "112514.900000", "112516.900000", "112518.900000", "112520.900000", "112522.900000", "112524.900000", "112526.900000", "112528.900000", "112530.900000", "112532.900000", "112534.900000", "112536.900000", "112538.900000", "112540.900000", "112542.900000", "112544.900000", "112546.900000", "112548.900000", "112550.900000", "112552.900000", "112554.900000", "112556.900000", "112558.900000", "112600.900000", "112602.900000", "112604.900000", "112606.900000", "112608.900000", "112610.900000", "112612.900000", "112614.900000", "112616.900000", "112618.900000", "112620.900000", "112622.900000", "112624.900000", "112626.900000", "112628.900000", "112630.900000", "112632.900000", "112634.900000", "112636.900000", "112638.900000", "112640.900000", "112642.900000", "112644.900000", "112646.900000", "112648.900000", "112650.900000", "112652.900000", "112654.900000", "112656.900000", "112658.900000", "112700.900000", "112702.900000", "112704.900000", "112706.900000", "112708.900000", "112710.900000", "112712.900000", "112714.900000", "112716.900000", "112718.900000", "112720.900000", "112722.900000", "112724.900000", "112726.900000"],
      "ContentTime": ["111859.273000", "111900.769000", "111902.770000", "111904.770000", "111906.769000", "111908.769000", "111910.769000", "111912.769000", "111914.770000", "111916.769000", "111918.768000", "111920.770000", "111922.770000", "111924.769000", "111926.770000", "111928.770000", "111930.769000", "111932.769000", "111934.769000", "111936.769000", "111938.769000", "111940.769000", "111942.770000", "111944.769000", "111946.770000", "111948.770000", "111950.769000", "111952.769000", "111954.769000", "111956.769000", "111958.769000", "112000.770000", "112002.769000", "112004.770000", "112006.769000", "112008.769000", "112010.768000", "112012.770000", "112014.769000", "112016.770000", "112018.769000", "112020.770000", "112022.770000", "112024.769000", "112026.769000", "112028.768000", "112030.769000", "112032.770000", "112034.769000", "112036.769000", "112038.769000", "112040.770000", "112042.769000", "112044.769000", "112046.770000", "112048.769000", "112050.770000", "112052.770000", "112054.769000", "112056.769000", "112058.770000", "112100.770000", "112102.769000", "112104.769000", "112106.769000", "112108.770000", "112110.769000", "112112.769000", "112114.770000", "112116.769000", "112118.770000", "112120.768000", "112122.769000", "112124.769000", "112126.770000", "112128.769000", "112130.770000", "112132.769000", "112134.770000", "112136.768000", "112138.769000", "112140.769000", "112142.770000", "112144.770000", "112146.769000", "112148.770000", "112150.770000", "112152.769000", "112154.768000", "112156.770000", "112158.770000", "112200.770000", "112202.769000", "112204.770000", "112206.769000", "112208.770000", "112210.770000", "112212.769000", "112214.770000", "112216.769000", "112218.769000", "112220.769000", "112222.769000", "112224.770000", "112226.769000", "112228.769000", "112230.769000", "112232.770000", "112234.769000", "112236.769000", "112238.770000", "112240.769000", "112242.770000", "112244.769000", "112246.768000", "112248.768000", "112250.770000", "112252.769000", "112254.769000", "112256.770000", "112258.770000", "112300.770000", "112302.770000", "112304.768000", "112306.769000", "112308.769000", "112310.769000", "112312.769000", "112314.769000", "112316.769000", "112318.769000", "112320.770000", "112322.769000", "112324.770000", "112326.769000", "112328.770000", "112330.769000", "112332.770000", "112334.769000", "112336.769000", "112338.769000", "112340.769000", "112342.769000", "112344.770000", "112346.769000", "112348.770000", "112350.769000", "112352.770000", "112354.770000", "112356.768000", "112358.768000", "112400.770000", "112402.770000", "112404.769000", "112406.769000", "112408.769000", "112410.770000", "112412.770000", "112414.768000", "112416.769000", "112418.769000", "112420.769000", "112422.770000", "112424.769000", "112426.769000", "112428.769000", "112430.770000", "112432.768000", "112434.770000", "112436.770000", "112438.769000", "112440.769000", "112442.770000", "112444.770000", "112446.769000", "112448.769000", "112450.768000", "112452.769000", "112454.769000", "112456.770000", "112458.769000", "112500.769000", "112502.769000", "112504.769000", "112506.769000", "112508.770000", "112510.770000", "112512.769000", "112514.769000", "112516.769000", "112518.769000", "112520.769000", "112522.769000", "112524.768000", "112526.770000", "112528.770000", "112530.770000", "112532.770000", "112534.769000", "112536.770000", "112538.769000", "112540.770000", "112542.768000", "112544.770000", "112546.769000", "112548.769000", "112550.769000", "112552.770000", "112554.769000", "112556.769000", "112558.769000", "112600.768000", "112602.770000", "112604.769000", "112606.770000", "112608.769000", "112610.769000", "112612.770000", "112614.770000", "112616.769000", "112618.769000", "112620.769000", "112622.769000", "112624.769000", "112626.770000", "112628.769000", "112630.770000", "112632.770000", "112634.769000", "112636.770000", "112638.770000", "112640.770000", "112642.769000", "112644.769000", "112646.769000", "112648.770000", "112650.770000", "112652.769000", "112654.770000", "112656.769000", "112658.770000", "112700.770000", "112702.770000", "112704.769000", "112706.770000", "112708.768000", "112710.769000", "112712.770000", "112714.769000", "112716.770000", "112718.769000", "112720.769000", "112722.769000", "112724.769000", "112726.769000", "112728.687000"],
      "InstanceCreationTime": ["111859.273000", "111900.769000", "111902.770000", "111904.770000", "111906.769000", "111908.769000", "111910.769000", "111912.769000", "111914.770000", "111916.769000", "111918.768000", "111920.770000", "111922.770000", "111924.769000", "111926.770000", "111928.770000", "111930.769000", "111932.769000", "111934.769000", "111936.769000", "111938.769000", "111940.769000", "111942.770000", "111944.769000", "111946.770000", "111948.770000", "111950.769000", "111952.769000", "111954.769000", "111956.769000", "111958.769000", "112000.770000", "112002.769000", "112004.770000", "112006.769000", "112008.769000", "112010.768000", "112012.770000", "112014.769000", "112016.770000", "112018.769000", "112020.770000", "112022.770000", "112024.769000", "112026.769000", "112028.768000", "112030.769000", "112032.770000", "112034.769000", "112036.769000", "112038.769000", "112040.770000", "112042.769000", "112044.769000", "112046.770000", "112048.769000", "112050.770000", "112052.770000", "112054.769000", "112056.769000", "112058.770000", "112100.770000", "112102.769000", "112104.769000", "112106.769000", "112108.770000", "112110.769000", "112112.769000", "112114.770000", "112116.769000", "112118.770000", "112120.768000", "112122.769000", "112124.769000", "112126.770000", "112128.769000", "112130.770000", "112132.769000", "112134.770000", "112136.768000", "112138.769000", "112140.769000", "112142.770000", "112144.770000", "112146.769000", "112148.770000", "112150.770000", "112152.769000", "112154.768000", "112156.770000", "112158.770000", "112200.770000", "112202.769000", "112204.770000", "112206.769000", "112208.770000", "112210.770000", "112212.769000", "112214.770000", "112216.769000", "112218.769000", "112220.769000", "112222.769000", "112224.770000", "112226.769000", "112228.769000", "112230.769000", "112232.770000", "112234.769000", "112236.769000", "112238.770000", "112240.769000", "112242.770000", "112244.769000", "112246.768000", "112248.768000", "112250.770000", "112252.769000", "112254.769000", "112256.770000", "112258.770000", "112300.770000", "112302.770000", "112304.768000", "112306.769000", "112308.769000", "112310.769000", "112312.769000", "112314.769000", "112316.769000", "112318.769000", "112320.770000", "112322.769000", "112324.770000", "112326.769000", "112328.770000", "112330.769000", "112332.770000", "112334.769000", "112336.769000", "112338.769000", "112340.769000", "112342.769000", "112344.770000", "112346.769000", "112348.770000", "112350.769000", "112352.770000", "112354.770000", "112356.768000", "112358.768000", "112400.770000", "112402.770000", "112404.769000", "112406.769000", "112408.769000", "112410.770000", "112412.770000", "112414.768000", "112416.769000", "112418.769000", "112420.769000", "112422.770000", "112424.769000", "112426.769000", "112428.769000", "112430.770000", "112432.768000", "112434.770000", "112436.770000", "112438.769000", "112440.769000", "112442.770000", "112444.770000", "112446.769000", "112448.769000", "112450.768000", "112452.769000", "112454.769000", "112456.770000", "112458.769000", "112500.769000", "112502.769000", "112504.769000", "112506.769000", "112508.770000", "112510.770000", "112512.769000", "112514.769000", "112516.769000", "112518.769000", "112520.769000", "112522.769000", "112524.768000", "112526.770000", "112528.770000", "112530.770000", "112532.770000", "112534.769000", "112536.770000", "112538.769000", "112540.770000", "112542.768000", "112544.770000", "112546.769000", "112548.769000", "112550.769000", "112552.770000", "112554.769000", "112556.769000", "112558.769000", "112600.768000", "112602.770000", "112604.769000", "112606.770000", "112608.769000", "112610.769000", "112612.770000", "112614.770000", "112616.769000", "112618.769000", "112620.769000", "112622.769000", "112624.769000", "112626.770000", "112628.769000", "112630.770000", "112632.770000", "112634.769000", "112636.770000", "112638.770000", "112640.770000", "112642.769000", "112644.769000", "112646.769000", "112648.770000", "112650.770000", "112652.769000", "112654.770000", "112656.769000", "112658.770000", "112700.770000", "112702.770000", "112704.769000", "112706.770000", "112708.768000", "112710.769000", "112712.770000", "112714.769000", "112716.770000", "112718.769000", "112720.769000", "112722.769000", "112724.769000", "112726.769000", "112728.687000"],
      "InstanceNumber": [1, 2, 3, 4, 5, 6, 7, 8, 9, 10, 11, 12, 13, 14, 15, 16, 17, 18, 19, 20, 21, 22, 23, 24, 25, 26, 27, 28, 29, 30, 31, 32, 33, 34, 35, 36, 37, 38, 39, 40, 41, 42, 43, 44, 45, 46, 47, 48, 49, 50, 51, 52, 53, 54, 55, 56, 57, 58, 59, 60, 61, 62, 63, 64, 65, 66, 67, 68, 69, 70, 71, 72, 73, 74, 75, 76, 77, 78, 79, 80, 81, 82, 83, 84, 85, 86, 87, 88, 89, 90, 91, 92, 93, 94, 95, 96, 97, 98, 99, 100, 101, 102, 103, 104, 105, 106, 107, 108, 109, 110, 111, 112, 113, 114, 115, 116, 117, 118, 119, 120, 121, 122, 123, 124, 125, 126, 127, 128, 129, 130, 131, 132, 133, 134, 135, 136, 137, 138, 139, 140, 141, 142, 143, 144, 145, 146, 147, 148, 149, 150, 151, 152, 153, 154, 155, 156, 157, 158, 159, 160, 161, 162, 163, 164, 165, 166, 167, 168, 169, 170, 171, 172, 173, 174, 175, 176, 177, 178, 179, 180, 181, 182, 183, 184, 185, 186, 187, 188, 189, 190, 191, 192, 193, 194, 195, 196, 197, 198, 199, 200, 201, 202, 203, 204, 205, 206, 207, 208, 209, 210, 211, 212, 213, 214, 215, 216, 217, 218, 219, 220, 221, 222, 223, 224, 225, 226, 227, 228, 229, 230, 231, 232, 233, 234, 235, 236, 237, 238, 239, 240, 241, 242, 243, 244, 245, 246, 247, 248, 249, 250, 251, 252, 253, 254, 255, 256],
      "LargestImagePixelValue": [2859, 2823, 2812, 2792, 2794, 2755, 2776, 2764, 2791, 2820, 2817, 2792, 2810, 2788, 2797, 2811, 2803, 2813, 2821, 2807, 2818, 2798, 2780, 2806, 2784, 2771, 2787, 2789, 2762, 2747, 2763, 2764, 2792, 2790, 2777, 2777, 2780, 2810, 2822, 2792, 2819, 2792, 2762, 2789, 2790, 2787, 2773, 2766, 2789, 2831, 2789, 2819, 2791, 2832, 2812, 2813, 2810, 2796, 2789, 2777, 2797, 2800, 2755, 2770, 2820, 2785, 2785, 2788, 2803, 2809, 2781, 2773, 2803, 2810, 2770, 2811, 2771, 2793, 2787, 2787, 2777, 2770, 2807, 2805, 2764, 2812, 2785, 2800, 2792, 2793, 2794, 2772, 2771, 2807, 2773, 2811, 2803, 2801, 2825, 2815, 2789, 2798, 2806, 2748, 2777, 2775, 2767, 2783, 2844, 2783, 2784, 2803, 2781, 2802, 2794, 2786, 2787, 2790, 2771, 2826, 2797, 2796, 2818, 2803, 2798, 2773, 2770, 2784, 2778, 2785, 2788, 2788, 2793, 2822, 2800, 2790, 2789, 2763, 2814, 2812, 2776, 2800, 2809, 2782, 2808, 2815, 2785, 2801, 2784, 2800, 2781, 2822, 2801, 2794, 2812, 2793, 2777, 2793, 2803, 2808, 2793, 2796, 2783, 2792, 2824, 2816, 2803, 2814, 2818, 2843, 2837, 2794, 2845, 2800, 2800, 2833, 2809, 2830, 2822, 2793, 2827, 2803, 2808, 2781, 2802, 2785, 2835, 2801, 2838, 2810, 2792, 2795, 2792, 2792, 2836, 2794, 2811, 2825, 2805, 2817, 2816, 2808, 2771, 2821, 2817, 2812, 2823, 2820, 2827, 2833, 2829, 2850, 2834, 2810, 2822, 2820, 2835, 2833, 2853, 2861, 2839, 2853, 2871, 2849, 2811, 2861, 2826, 2851, 2872, 2843, 2864, 2861, 2866, 2876, 2872, 2858, 2858, 2872, 2845, 2885, 2881, 2870, 2865, 2875, 2880, 2844, 2888, 2871, 2875, 2893, 2899, 2909, 2880, 2865, 2912, 2893],
      "WindowCenter": [772.0, 770.0, 769.0, 770.0, 770.0, 769.0, 770.0, 771.0, 772.0, 772.0, 772.0, 772.0, 772.0, 772.0, 771.0, 770.0, 770.0, 771.0, 772.0, 771.0, 771.0, 771.0, 771.0, 771.0, 770.0, 770.0, 770.0, 769.0, 769.0, 769.0, 769.0, 769.0, 770.0, 770.0, 770.0, 769.0, 769.0, 770.0, 770.0, 770.0, 771.0, 770.0, 769.0, 769.0, 770.0, 770.0, 771.0, 771.0, 771.0, 773.0, 773.0, 773.0, 772.0, 772.0, 772.0, 771.0, 770.0, 770.0, 769.0, 769.0, 769.0, 769.0, 768.0, 768.0, 768.0, 767.0, 768.0, 770.0, 770.0, 770.0, 769.0, 769.0, 770.0, 769.0, 768.0, 769.0, 769.0, 769.0, 770.0, 770.0, 769.0, 769.0, 769.0, 768.0, 768.0, 770.0, 770.0, 771.0, 771.0, 770.0, 770.0, 770.0, 770.0, 770.0, 770.0, 769.0, 769.0, 769.0, 770.0, 771.0, 771.0, 771.0, 770.0, 769.0, 769.0, 768.0, 768.0, 768.0, 769.0, 769.0, 769.0, 769.0, 769.0, 770.0, 770.0, 770.0, 769.0, 769.0, 770.0, 771.0, 770.0, 769.0, 770.0, 770.0, 770.0, 770.0, 770.0, 770.0, 769.0, 769.0, 770.0, 770.0, 771.0, 773.0, 772.0, 772.0, 771.0, 771.0, 772.0, 772.0, 771.0, 771.0, 771.0, 770.0, 770.0, 770.0, 769.0, 770.0, 771.0, 770.0, 769.0, 770.0, 770.0, 770.0, 770.0, 769.0, 769.0, 769.0, 770.0, 769.0, 769.0, 769.0, 769.0, 769.0, 769.0, 769.0, 769.0, 770.0, 771.0, 772.0, 773.0, 772.0, 772.0, 771.0, 771.0, 772.0, 771.0, 770.0, 771.0, 771.0, 771.0, 770.0, 769.0, 769.0, 769.0, 770.0, 772.0, 771.0, 770.0, 769.0, 768.0, 768.0, 769.0, 769.0, 769.0, 769.0, 770.0, 771.0, 771.0, 772.0, 772.0, 770.0, 769.0, 769.0, 770.0, 771.0, 771.0, 771.0, 771.0, 771.0, 770.0, 771.0, 771.0, 771.0, 771.0, 771.0, 771.0, 770.0, 771.0, 771.0, 771.0, 771.0, 771.0, 770.0, 770.0, 770.0, 770.0, 769.0, 769.0, 769.0, 769.0, 770.0, 770.0, 770.0, 769.0, 770.0, 770.0, 770.0, 770.0, 770.0, 771.0, 771.0, 771.0, 770.0, 769.0, 769.0, 770.0, 770.0, 770.0, 770.0, 771.0, 770.0, 771.0, 771.0, 772.0, 772.0],
      "WindowWidth": [1653.0, 1647.0, 1647.0, 1648.0, 1648.0, 1646.0, 1648.0, 1650.0, 1652.0, 1654.0, 1654.0, 1652.0, 1654.0, 1652.0, 1650.0, 1649.0, 1648.0, 1651.0, 1652.0, 1651.0, 1650.0, 1650.0, 1650.0, 1650.0, 1648.0, 1648.0, 1648.0, 1647.0, 1647.0, 1645.0, 1646.0, 1646.0, 1647.0, 1647.0, 1647.0, 1646.0, 1646.0, 1647.0, 1648.0, 1649.0, 1651.0, 1648.0, 1646.0, 1646.0, 1648.0, 1649.0, 1650.0, 1650.0, 1651.0, 1655.0, 1655.0, 1656.0, 1654.0, 1654.0, 1653.0, 1652.0, 1649.0, 1648.0, 1647.0, 1646.0, 1647.0, 1647.0, 1644.0, 1642.0, 1643.0, 1641.0, 1644.0, 1647.0, 1648.0, 1648.0, 1647.0, 1647.0, 1647.0, 1647.0, 1644.0, 1645.0, 1645.0, 1647.0, 1648.0, 1647.0, 1646.0, 1647.0, 1646.0, 1644.0, 1643.0, 1648.0, 1649.0, 1651.0, 1650.0, 1648.0, 1647.0, 1648.0, 1647.0, 1648.0, 1647.0, 1647.0, 1646.0, 1646.0, 1648.0, 1649.0, 1651.0, 1650.0, 1647.0, 1645.0, 1644.0, 1643.0, 1644.0, 1643.0, 1646.0, 1645.0, 1646.0, 1646.0, 1647.0, 1648.0, 1649.0, 1647.0, 1646.0, 1647.0, 1649.0, 1649.0, 1647.0, 1647.0, 1649.0, 1649.0, 1648.0, 1647.0, 1648.0, 1647.0, 1645.0, 1645.0, 1648.0, 1649.0, 1652.0, 1654.0, 1653.0, 1652.0, 1650.0, 1650.0, 1652.0, 1653.0, 1650.0, 1650.0, 1649.0, 1648.0, 1648.0, 1648.0, 1646.0, 1648.0, 1650.0, 1648.0, 1646.0, 1647.0, 1648.0, 1648.0, 1649.0, 1646.0, 1645.0, 1645.0, 1648.0, 1645.0, 1645.0, 1646.0, 1646.0, 1645.0, 1645.0, 1646.0, 1646.0, 1647.0, 1649.0, 1652.0, 1655.0, 1653.0, 1652.0, 1651.0, 1652.0, 1653.0, 1649.0, 1649.0, 1650.0, 1651.0, 1651.0, 1648.0, 1646.0, 1645.0, 1646.0, 1647.0, 1652.0, 1649.0, 1648.0, 1645.0, 1643.0, 1644.0, 1645.0, 1645.0, 1646.0, 1646.0, 1649.0, 1650.0, 1650.0, 1653.0, 1652.0, 1648.0, 1645.0, 1645.0, 1647.0, 1650.0, 1651.0, 1650.0, 1649.0, 1649.0, 1648.0, 1649.0, 1650.0, 1650.0, 1650.0, 1649.0, 1650.0, 1649.0, 1650.0, 1651.0, 1651.0, 1650.0, 1649.0, 1647.0, 1647.0, 1648.0, 1647.0, 1646.0, 1646.0, 1646.0, 1646.0, 1648.0, 1648.0, 1647.0, 1646.0, 1647.0, 1649.0, 1647.0, 1647.0, 1648.0, 1650.0, 1651.0, 1650.0, 1648.0, 1646.0, 1645.0, 1648.0, 1647.0, 1646.0, 1647.0, 1649.0, 1648.0, 1650.0, 1651.0, 1653.0, 1653.0]
    },
    "slices": {}
  }
}