{
 "AcquisitionMatrixPE": 100,
 "AcquisitionNumber": 1,
 "AcquisitionTime": "11:09:32.967500",
 "BandwidthPerPixelPhaseEncode": 18.519,
 "BaseResolution": 100,
 "BodyPartExamined": "BRAIN",
 "ConsistencyInfo": "N4_VE11C_LATEST_20160120",
 "ConversionSoftware": "dcm2niix",
 "ConversionSoftwareVersion": "v1.0.20180622 GCC4.9.2",
 "DerivedVendorReportedEchoSpacing": 0.000539986,
 "DeviceSerialNumber": "166078",
 "DwellTime": 2.1e-06,
 "EchoTime": 0.034,
 "EchoTrainLength": 100,
 "EffectiveEchoSpacing": 0.000539986,
 "FlipAngle": 90,
 "ImageOrientationPatientDICOM": [
  1,
  -0.00011844,
  -0.000577282,
  -2.63752e-08,
  0.979586,
  -0.201026
 ],
 "ImageType": [
  "ORIGINAL",
  "PRIMARY",
  "M",
  "ND",
  "MOSAIC"
 ],
 "InPlanePhaseEncodingDirectionDICOM": "COL",
 "InstitutionAddress": "Street_StreetNo_Bei_Jing_District_CN_ZIP",
 "InstitutionName": "BeiJing_Normal_University",
 "InstitutionalDepartmentName": "Department",
 "MRAcquisitionType": "2D",
 "MagneticFieldStrength": 3,
 "Manufacturer": "Siemens",
 "ManufacturersModelName": "Prisma",
 "Modality": "MR",
 "MultibandAccelerationFactor": 3,
 "PartialFourier": 1,
 "PatientPosition": "HFS",
 "PercentPhaseFOV": 100,
 "PhaseEncodingDirection": "j-",
 "PhaseEncodingSteps": 100,
 "PhaseResolution": 1,
 "PixelBandwidth": 2380,
 "ProcedureStepDescription": "BNU_P2018_64CH_Zhen.ZongLei",
 "ProtocolName": "bold_100x100_s3_2x2x2_static_256",
 "PulseSequenceDetails": "%SiemensSeq%_ep2d_bold",
 "ReceiveCoilActiveElements": "HC1-7;NC1",
 "ReceiveCoilName": "HeadNeck_64",
 "ReconMatrixPE": 100,
 "RepetitionTime": 2,
 "SAR": 0.0877247,
 "ScanOptions": "FS",
 "ScanningSequence": "EP",
 "SequenceName": "_epfid2d1_100",
 "SequenceVariant": "SK",
 "SeriesDescription": "bold_100x100_s3_2x2x2_static_256",
 "SeriesNumber": 3,
 "ShimSetting": [
  -5467,
  -11499,
  -1303,
  498,
  -24,
  -181,
  -115,
  87
 ],
 "SliceThickness": 2,
 "SliceTiming": [
  1.485,
  0,
  0.99,
  0.0825,
  1.0725,
  0.165,
  1.155,
  0.2475,
  1.2375,
  0.33,
  1.32,
  0.4125,
  1.4025,
  0.5775,
  1.5675,
  0.66,
  1.65,
  0.7425,
  1.7325,
  0.825,
  1.815,
  0.9075,
  1.8975,
  0.495,
  1.485,
  0,
  0.99,
  0.0825,
  1.0725,
  0.165,
  1.155,
  0.2475,
  1.2375,
  0.33,
  1.32,
  0.4125,
  1.4025,
  0.5775,
  1.5675,
  0.66,
  1.65,
  0.7425,
  1.7325,
  0.825,
  1.815,
  0.9075,
  1.8975,
  0.495,
  1.485,
  0,
  0.99,
  0.0825,
  1.0725,
  0.165,
  1.155,
  0.2475,
  1.2375,
  0.33,
  1.32,
  0.4125,
  1.4025,
  0.5775,
  1.5675,
  0.66,
  1.65,
  0.7425,
  1.7325,
  0.825,
  1.815,
  0.9075,
  1.8975,
  0.495
 ],
 "SoftwareVersions": "syngo_MR_E11",
 "SpacingBetweenSlices": 2,
 "StationName": "AWP166078",
 "TaskName": "imagenet",
 "TotalReadoutTime": 0.0534586,
 "TxRefAmp": 237.429,
 "dcmmeta_affine": [
  [
   -1.9999996423721313,
   -5.2750447565586e-08,
   -0.001178613631054759,
   100.61858367919922
  ],
  [
   0.00023688015062361956,
   1.9591718912124634,
   -0.4020516574382782,
   -79.76741790771484
  ],
  [
   -0.0011545639717951417,
   0.402051717042923,
   1.9591715335845947,
   -100.2239761352539
  ],
  [
   0.0,
   0.0,
   0.0,
   1.0
  ]
 ],
 "dcmmeta_reorient_transform": [
  [
   0.0,
   -1.0,
   0.0,
   99.0
  ],
  [
   1.0,
   0.0,
   0.0,
   0.0
  ],
  [
   0.0,
   0.0,
   1.0,
   0.0
  ],
  [
   0.0,
   0.0,
   0.0,
   1.0
  ]
 ],
 "dcmmeta_shape": [
  100,
  100,
  72,
  256
 ],
 "dcmmeta_slice_dim": 2,
 "dcmmeta_version": 0.6,
 "global": {
  "const": {
   "AcquisitionMatrix": [
    100,
    0,
    0,
    100
   ],
   "AngioFlag": "N",
   "BitsAllocated": 16,
   "BitsStored": 12,
   "BodyPartExamined": "BRAIN",
   "Columns": 900,
   "EchoNumbers": 1,
   "EchoTime": 34.0,
   "EchoTrainLength": 100,
   "FlipAngle": 90.0,
   "HighBit": 11,
   "ImageOrientationPatient": [
    0.99999982635871,
    -0.0001184400774,
    -0.0005772819846,
    -2.6375223e-08,
    0.97958593418476,
    -0.2010258628818
   ],
   "ImagePositionPatient": [
    -900.61841659855,
    -897.76459158994,
    100.86166125134
   ],
   "ImageType": [
    "ORIGINAL",
    "PRIMARY",
    "M",
    "ND",
    "MOSAIC"
   ],
   "ImagedNucleus": "1H",
   "ImagingFrequency": 123.257781,
   "InPlanePhaseEncodingDirection": "COL",
   "MRAcquisitionType": "2D",
   "MagneticFieldStrength": 3.0,
   "Manufacturer": "SIEMENS",
   "ManufacturerModelName": "Prisma",
   "Modality": "MR",
   "NumberOfAverages": 1.0,
   "NumberOfPhaseEncodingSteps": 100,
   "PercentPhaseFieldOfView": 100.0,
   "PercentSampling": 100.0,
   "PerformedProcedureStepStartTime": "110629.002000",
   "PhotometricInterpretation": "MONOCHROME2",
   "PixelBandwidth": 2380.0,
   "PixelRepresentation": 0,
   "PixelSpacing": [
    2.0,
    2.0
   ],
   "ProtocolName": "bold_100x100_s3_2x2x2_static_256",
   "RepetitionTime": 2000.0,
   "Rows": 900,
   "SAR": 0.08772471539337,
   "SamplesPerPixel": 1,
   "ScanOptions": "FS",
   "ScanningSequence": "EP",
   "SequenceName": "*epfid2d1_100",
   "SequenceVariant": "SK",
   "SeriesDescription": "bold_100x100_s3_2x2x2_static_256",
   "SeriesNumber": 3,
   "SeriesTime": "110935.200000",
   "SliceLocation": -82.201963446221,
   "SliceThickness": 2.0,
   "SmallestImagePixelValue": 0,
   "SoftwareVersions": "syngo MR E11",
   "SpacingBetweenSlices": 1.9999999851875,
   "SpecificCharacterSet": "ISO_IR 100",
   "StudyID": "1",
   "StudyTime": "110628.913000",
   "TransmitCoilName": "Body",
   "VariableFlipAngleFlag": "N",
   "WindowCenterWidthExplanation": "Algo1",
   "dBdt": 0.0
  },
  "slices": {}
 },
 "time": {
  "samples": {
   "AcquisitionNumber": [
    1,
    2,
    3,
    4,
    5,
    6,
    7,
    8,
    9,
    10,
    11,
    12,
    13,
    14,
    15,
    16,
    17,
    18,
    19,
    20,
    21,
    22,
    23,
    24,
    25,
    26,
    27,
    28,
    29,
    30,
    31,
    32,
    33,
    34,
    35,
    36,
    37,
    38,
    39,
    40,
    41,
    42,
    43,
    44,
    45,
    46,
    47,
    48,
    49,
    50,
    51,
    52,
    53,
    54,
    55,
    56,
    57,
    58,
    59,
    60,
    61,
    62,
    63,
    64,
    65,
    66,
    67,
    68,
    69,
    70,
    71,
    72,
    73,
    74,
    75,
    76,
    77,
    78,
    79,
    80,
    81,
    82,
    83,
    84,
    85,
    86,
    87,
    88,
    89,
    90,
    91,
    92,
    93,
    94,
    95,
    96,
    97,
    98,
    99,
    100,
    101,
    102,
    103,
    104,
    105,
    106,
    107,
    108,
    109,
    110,
    111,
    112,
    113,
    114,
    115,
    116,
    117,
    118,
    119,
    120,
    121,
    122,
    123,
    124,
    125,
    126,
    127,
    128,
    129,
    130,
    131,
    132,
    133,
    134,
    135,
    136,
    137,
    138,
    139,
    140,
    141,
    142,
    143,
    144,
    145,
    146,
    147,
    148,
    149,
    150,
    151,
    152,
    153,
    154,
    155,
    156,
    157,
    158,
    159,
    160,
    161,
    162,
    163,
    164,
    165,
    166,
    167,
    168,
    169,
    170,
    171,
    172,
    173,
    174,
    175,
    176,
    177,
    178,
    179,
    180,
    181,
    182,
    183,
    184,
    185,
    186,
    187,
    188,
    189,
    190,
    191,
    192,
    193,
    194,
    195,
    196,
    197,
    198,
    199,
    200,
    201,
    202,
    203,
    204,
    205,
    206,
    207,
    208,
    209,
    210,
    211,
    212,
    213,
    214,
    215,
    216,
    217,
    218,
    219,
    220,
    221,
    222,
    223,
    224,
    225,
    226,
    227,
    228,
    229,
    230,
    231,
    232,
    233,
    234,
    235,
    236,
    237,
    238,
    239,
    240,
    241,
    242,
    243,
    244,
    245,
    246,
    247,
    248,
    249,
    250,
    251,
    252,
    253,
    254,
    255,
    256
   ],
   "AcquisitionTime": [
    "110932.967500",
    "110934.967500",
    "110936.967500",
    "110938.967500",
    "110940.967500",
    "110942.967500",
    "110944.967500",
    "110946.967500",
    "110948.967500",
    "110950.967500",
    "110952.967500",
    "110954.967500",
    "110956.967500",
    "110958.967500",
    "111000.967500",
    "111002.967500",
    "111004.967500",
    "111006.967500",
    "111008.967500",
    "111010.967500",
    "111012.967500",
    "111014.967500",
    "111016.967500",
    "111018.967500",
    "111020.967500",
    "111022.967500",
    "111024.967500",
    "111026.967500",
    "111028.967500",
    "111030.967500",
    "111032.967500",
    "111034.967500",
    "111036.967500",
    "111038.967500",
    "111040.967500",
    "111042.967500",
    "111044.967500",
    "111046.967500",
    "111048.967500",
    "111050.967500",
    "111052.967500",
    "111054.967500",
    "111056.967500",
    "111058.967500",
    "111100.967500",
    "111102.967500",
    "111104.967500",
    "111106.967500",
    "111108.967500",
    "111110.967500",
    "111112.967500",
    "111114.967500",
    "111116.967500",
    "111118.967500",
    "111120.967500",
    "111122.967500",
    "111124.967500",
    "111126.967500",
    "111128.967500",
    "111130.967500",
    "111132.967500",
    "111134.967500",
    "111136.967500",
    "111138.967500",
    "111140.967500",
    "111142.967500",
    "111144.967500",
    "111146.967500",
    "111148.967500",
    "111150.967500",
    "111152.967500",
    "111154.967500",
    "111156.967500",
    "111158.967500",
    "111200.967500",
    "111202.967500",
    "111204.967500",
    "111206.967500",
    "111208.967500",
    "111210.967500",
    "111212.967500",
    "111214.967500",
    "111216.967500",
    "111218.967500",
    "111220.967500",
    "111222.967500",
    "111224.967500",
    "111226.967500",
    "111228.967500",
    "111230.967500",
    "111232.967500",
    "111234.967500",
    "111236.967500",
    "111238.967500",
    "111240.967500",
    "111242.967500",
    "111244.967500",
    "111246.967500",
    "111248.967500",
    "111250.967500",
    "111252.967500",
    "111254.967500",
    "111256.967500",
    "111258.967500",
    "111300.967500",
    "111302.967500",
    "111304.967500",
    "111306.967500",
    "111308.967500",
    "111310.967500",
    "111312.967500",
    "111314.967500",
    "111316.967500",
    "111318.967500",
    "111320.967500",
    "111322.967500",
    "111324.967500",
    "111326.967500",
    "111328.967500",
    "111330.967500",
    "111332.967500",
    "111334.967500",
    "111336.967500",
    "111338.967500",
    "111340.967500",
    "111342.967500",
    "111344.967500",
    "111346.967500",
    "111348.967500",
    "111350.967500",
    "111352.967500",
    "111354.967500",
    "111356.967500",
    "111358.967500",
    "111400.967500",
    "111402.967500",
    "111404.967500",
    "111406.967500",
    "111408.967500",
    "111410.967500",
    "111412.967500",
    "111414.967500",
    "111416.967500",
    "111418.967500",
    "111420.967500",
    "111422.967500",
    "111424.967500",
    "111426.967500",
    "111428.967500",
    "111430.967500",
    "111432.967500",
    "111434.967500",
    "111436.967500",
    "111438.967500",
    "111440.967500",
    "111442.967500",
    "111444.967500",
    "111446.967500",
    "111448.967500",
    "111450.967500",
    "111452.967500",
    "111454.967500",
    "111456.967500",
    "111458.967500",
    "111500.967500",
    "111502.967500",
    "111504.967500",
    "111506.967500",
    "111508.967500",
    "111510.967500",
    "111512.967500",
    "111514.967500",
    "111516.967500",
    "111518.967500",
    "111520.967500",
    "111522.967500",
    "111524.967500",
    "111526.967500",
    "111528.967500",
    "111530.967500",
    "111532.967500",
    "111534.967500",
    "111536.967500",
    "111538.967500",
    "111540.967500",
    "111542.967500",
    "111544.967500",
    "111546.967500",
    "111548.967500",
    "111550.967500",
    "111552.967500",
    "111554.967500",
    "111556.967500",
    "111558.967500",
    "111600.967500",
    "111602.967500",
    "111604.967500",
    "111606.967500",
    "111608.967500",
    "111610.967500",
    "111612.967500",
    "111614.967500",
    "111616.967500",
    "111618.967500",
    "111620.967500",
    "111622.967500",
    "111624.967500",
    "111626.967500",
    "111628.967500",
    "111630.967500",
    "111632.967500",
    "111634.967500",
    "111636.967500",
    "111638.967500",
    "111640.967500",
    "111642.967500",
    "111644.967500",
    "111646.967500",
    "111648.967500",
    "111650.967500",
    "111652.967500",
    "111654.967500",
    "111656.967500",
    "111658.967500",
    "111700.967500",
    "111702.967500",
    "111704.967500",
    "111706.967500",
    "111708.967500",
    "111710.967500",
    "111712.967500",
    "111714.967500",
    "111716.967500",
    "111718.967500",
    "111720.967500",
    "111722.967500",
    "111724.967500",
    "111726.967500",
    "111728.967500",
    "111730.967500",
    "111732.967500",
    "111734.967500",
    "111736.967500",
    "111738.967500",
    "111740.967500",
    "111742.967500",
    "111744.967500",
    "111746.967500",
    "111748.967500",
    "111750.967500",
    "111752.967500",
    "111754.967500",
    "111756.967500",
    "111758.967500",
    "111800.967500",
    "111802.967500"
   ],
   "ContentTime": [
    "110935.204000",
    "110936.699000",
    "110938.699000",
    "110940.699000",
    "110942.700000",
    "110944.699000",
    "110946.700000",
    "110948.699000",
    "110951.199000",
    "110952.700000",
    "110954.698000",
    "110956.699000",
    "110958.699000",
    "111000.700000",
    "111002.699000",
    "111004.699000",
    "111006.699000",
    "111008.699000",
    "111010.700000",
    "111012.698000",
    "111014.698000",
    "111016.698000",
    "111018.720000",
    "111020.700000",
    "111022.700000",
    "111024.699000",
    "111026.699000",
    "111028.700000",
    "111030.698000",
    "111032.718000",
    "111034.699000",
    "111036.700000",
    "111038.699000",
    "111040.699000",
    "111042.700000",
    "111044.699000",
    "111046.699000",
    "111049.198000",
    "111050.698000",
    "111052.699000",
    "111054.699000",
    "111056.699000",
    "111058.699000",
    "111100.700000",
    "111102.700000",
    "111104.699000",
    "111106.698000",
    "111108.699000",
    "111110.700000",
    "111112.700000",
    "111115.199000",
    "111116.699000",
    "111118.699000",
    "111120.700000",
    "111122.698000",
    "111124.698000",
    "111126.698000",
    "111128.699000",
    "111130.700000",
    "111132.700000",
    "111134.700000",
    "111136.700000",
    "111138.700000",
    "111140.698000",
    "111142.698000",
    "111145.200000",
    "111146.699000",
    "111148.699000",
    "111150.700000",
    "111152.700000",
    "111154.700000",
    "111156.700000",
    "111158.699000",
    "111200.698000",
    "111202.699000",
    "111204.719000",
    "111206.700000",
    "111208.699000",
    "111210.699000",
    "111212.700000",
    "111215.199000",
    "111216.698000",
    "111218.698000",
    "111220.700000",
    "111222.700000",
    "111224.699000",
    "111226.700000",
    "111228.699000",
    "111230.700000",
    "111232.698000",
    "111234.698000",
    "111236.698000",
    "111238.700000",
    "111240.699000",
    "111242.700000",
    "111244.700000",
    "111246.699000",
    "111248.699000",
    "111250.698000",
    "111252.698000",
    "111254.699000",
    "111256.700000",
    "111258.700000",
    "111300.699000",
    "111302.700000",
    "111304.699000",
    "111306.699000",
    "111308.699000",
    "111310.698000",
    "111312.700000",
    "111314.699000",
    "111317.199000",
    "111318.699000",
    "111320.720000",
    "111322.700000",
    "111324.698000",
    "111326.698000",
    "111328.698000",
    "111330.699000",
    "111332.699000",
    "111334.699000",
    "111337.199000",
    "111338.699000",
    "111340.700000",
    "111342.699000",
    "111344.699000",
    "111347.200000",
    "111349.199000",
    "111350.700000",
    "111352.699000",
    "111354.699000",
    "111356.700000",
    "111358.700000",
    "111400.698000",
    "111402.698000",
    "111404.700000",
    "111406.699000",
    "111408.700000",
    "111410.700000",
    "111412.700000",
    "111414.699000",
    "111416.700000",
    "111418.698000",
    "111420.698000",
    "111422.700000",
    "111424.699000",
    "111426.699000",
    "111428.699000",
    "111430.699000",
    "111432.699000",
    "111434.699000",
    "111436.699000",
    "111438.699000",
    "111441.200000",
    "111442.699000",
    "111444.700000",
    "111446.700000",
    "111448.699000",
    "111450.700000",
    "111452.699000",
    "111454.699000",
    "111456.699000",
    "111458.699000",
    "111500.700000",
    "111502.699000",
    "111504.699000",
    "111506.700000",
    "111508.699000",
    "111511.198000",
    "111512.698000",
    "111514.699000",
    "111516.700000",
    "111518.699000",
    "111520.700000",
    "111523.199000",
    "111524.699000",
    "111526.699000",
    "111529.199000",
    "111530.699000",
    "111532.700000",
    "111535.200000",
    "111536.699000",
    "111538.699000",
    "111540.699000",
    "111543.200000",
    "111544.699000",
    "111546.699000",
    "111548.699000",
    "111550.699000",
    "111552.699000",
    "111554.700000",
    "111556.700000",
    "111558.700000",
    "111600.700000",
    "111602.699000",
    "111604.699000",
    "111606.699000",
    "111608.700000",
    "111610.700000",
    "111612.700000",
    "111614.700000",
    "111616.719000",
    "111618.699000",
    "111620.699000",
    "111622.699000",
    "111624.700000",
    "111626.720000",
    "111628.700000",
    "111630.700000",
    "111632.699000",
    "111634.700000",
    "111636.700000",
    "111638.699000",
    "111640.699000",
    "111642.699000",
    "111644.700000",
    "111646.700000",
    "111648.700000",
    "111651.199000",
    "111652.700000",
    "111654.698000",
    "111656.699000",
    "111658.698000",
    "111700.699000",
    "111702.700000",
    "111704.699000",
    "111706.699000",
    "111708.699000",
    "111711.200000",
    "111712.698000",
    "111714.698000",
    "111716.714000",
    "111719.200000",
    "111720.699000",
    "111722.699000",
    "111724.699000",
    "111726.699000",
    "111728.700000",
    "111730.699000",
    "111732.699000",
    "111734.700000",
    "111736.700000",
    "111738.699000",
    "111740.700000",
    "111742.699000",
    "111744.699000",
    "111746.700000",
    "111748.699000",
    "111750.698000",
    "111752.700000",
    "111754.700000",
    "111756.700000",
    "111758.700000",
    "111800.699000",
    "111802.699000",
    "111804.602000"
   ],
   "InstanceCreationTime": [
    "110935.204000",
    "110936.699000",
    "110938.699000",
    "110940.699000",
    "110942.700000",
    "110944.699000",
    "110946.700000",
    "110948.699000",
    "110951.199000",
    "110952.700000",
    "110954.698000",
    "110956.699000",
    "110958.699000",
    "111000.700000",
    "111002.699000",
    "111004.699000",
    "111006.699000",
    "111008.699000",
    "111010.700000",
    "111012.698000",
    "111014.698000",
    "111016.698000",
    "111018.720000",
    "111020.700000",
    "111022.700000",
    "111024.699000",
    "111026.699000",
    "111028.700000",
    "111030.698000",
    "111032.718000",
    "111034.699000",
    "111036.700000",
    "111038.699000",
    "111040.699000",
    "111042.700000",
    "111044.699000",
    "111046.699000",
    "111049.198000",
    "111050.698000",
    "111052.699000",
    "111054.699000",
    "111056.699000",
    "111058.699000",
    "111100.700000",
    "111102.700000",
    "111104.699000",
    "111106.698000",
    "111108.699000",
    "111110.700000",
    "111112.700000",
    "111115.199000",
    "111116.699000",
    "111118.699000",
    "111120.700000",
    "111122.698000",
    "111124.698000",
    "111126.698000",
    "111128.699000",
    "111130.700000",
    "111132.700000",
    "111134.700000",
    "111136.700000",
    "111138.700000",
    "111140.698000",
    "111142.698000",
    "111145.200000",
    "111146.699000",
    "111148.699000",
    "111150.700000",
    "111152.700000",
    "111154.700000",
    "111156.700000",
    "111158.699000",
    "111200.698000",
    "111202.699000",
    "111204.719000",
    "111206.700000",
    "111208.699000",
    "111210.699000",
    "111212.700000",
    "111215.199000",
    "111216.698000",
    "111218.698000",
    "111220.700000",
    "111222.700000",
    "111224.699000",
    "111226.700000",
    "111228.699000",
    "111230.700000",
    "111232.698000",
    "111234.698000",
    "111236.698000",
    "111238.700000",
    "111240.699000",
    "111242.700000",
    "111244.700000",
    "111246.699000",
    "111248.699000",
    "111250.698000",
    "111252.698000",
    "111254.699000",
    "111256.700000",
    "111258.700000",
    "111300.699000",
    "111302.700000",
    "111304.699000",
    "111306.699000",
    "111308.699000",
    "111310.698000",
    "111312.700000",
    "111314.699000",
    "111317.199000",
    "111318.699000",
    "111320.720000",
    "111322.700000",
    "111324.698000",
    "111326.698000",
    "111328.698000",
    "111330.699000",
    "111332.699000",
    "111334.699000",
    "111337.199000",
    "111338.699000",
    "111340.700000",
    "111342.699000",
    "111344.699000",
    "111347.200000",
    "111349.199000",
    "111350.700000",
    "111352.699000",
    "111354.699000",
    "111356.700000",
    "111358.700000",
    "111400.698000",
    "111402.698000",
    "111404.700000",
    "111406.699000",
    "111408.700000",
    "111410.700000",
    "111412.700000",
    "111414.699000",
    "111416.700000",
    "111418.698000",
    "111420.698000",
    "111422.700000",
    "111424.699000",
    "111426.699000",
    "111428.699000",
    "111430.699000",
    "111432.699000",
    "111434.699000",
    "111436.699000",
    "111438.699000",
    "111441.200000",
    "111442.699000",
    "111444.700000",
    "111446.700000",
    "111448.699000",
    "111450.700000",
    "111452.699000",
    "111454.699000",
    "111456.699000",
    "111458.699000",
    "111500.700000",
    "111502.699000",
    "111504.699000",
    "111506.700000",
    "111508.699000",
    "111511.198000",
    "111512.698000",
    "111514.699000",
    "111516.700000",
    "111518.699000",
    "111520.700000",
    "111523.199000",
    "111524.699000",
    "111526.699000",
    "111529.199000",
    "111530.699000",
    "111532.700000",
    "111535.200000",
    "111536.699000",
    "111538.699000",
    "111540.699000",
    "111543.200000",
    "111544.699000",
    "111546.699000",
    "111548.699000",
    "111550.699000",
    "111552.699000",
    "111554.700000",
    "111556.700000",
    "111558.700000",
    "111600.700000",
    "111602.699000",
    "111604.699000",
    "111606.699000",
    "111608.700000",
    "111610.700000",
    "111612.700000",
    "111614.700000",
    "111616.719000",
    "111618.699000",
    "111620.699000",
    "111622.699000",
    "111624.700000",
    "111626.720000",
    "111628.700000",
    "111630.700000",
    "111632.699000",
    "111634.700000",
    "111636.700000",
    "111638.699000",
    "111640.699000",
    "111642.699000",
    "111644.700000",
    "111646.700000",
    "111648.700000",
    "111651.199000",
    "111652.700000",
    "111654.698000",
    "111656.699000",
    "111658.698000",
    "111700.699000",
    "111702.700000",
    "111704.699000",
    "111706.699000",
    "111708.699000",
    "111711.200000",
    "111712.698000",
    "111714.698000",
    "111716.714000",
    "111719.200000",
    "111720.699000",
    "111722.699000",
    "111724.699000",
    "111726.699000",
    "111728.700000",
    "111730.699000",
    "111732.699000",
    "111734.700000",
    "111736.700000",
    "111738.699000",
    "111740.700000",
    "111742.699000",
    "111744.699000",
    "111746.700000",
    "111748.699000",
    "111750.698000",
    "111752.700000",
    "111754.700000",
    "111756.700000",
    "111758.700000",
    "111800.699000",
    "111802.699000",
    "111804.602000"
   ],
   "InstanceNumber": [
    1,
    2,
    3,
    4,
    5,
    6,
    7,
    8,
    9,
    10,
    11,
    12,
    13,
    14,
    15,
    16,
    17,
    18,
    19,
    20,
    21,
    22,
    23,
    24,
    25,
    26,
    27,
    28,
    29,
    30,
    31,
    32,
    33,
    34,
    35,
    36,
    37,
    38,
    39,
    40,
    41,
    42,
    43,
    44,
    45,
    46,
    47,
    48,
    49,
    50,
    51,
    52,
    53,
    54,
    55,
    56,
    57,
    58,
    59,
    60,
    61,
    62,
    63,
    64,
    65,
    66,
    67,
    68,
    69,
    70,
    71,
    72,
    73,
    74,
    75,
    76,
    77,
    78,
    79,
    80,
    81,
    82,
    83,
    84,
    85,
    86,
    87,
    88,
    89,
    90,
    91,
    92,
    93,
    94,
    95,
    96,
    97,
    98,
    99,
    100,
    101,
    102,
    103,
    104,
    105,
    106,
    107,
    108,
    109,
    110,
    111,
    112,
    113,
    114,
    115,
    116,
    117,
    118,
    119,
    120,
    121,
    122,
    123,
    124,
    125,
    126,
    127,
    128,
    129,
    130,
    131,
    132,
    133,
    134,
    135,
    136,
    137,
    138,
    139,
    140,
    141,
    142,
    143,
    144,
    145,
    146,
    147,
    148,
    149,
    150,
    151,
    152,
    153,
    154,
    155,
    156,
    157,
    158,
    159,
    160,
    161,
    162,
    163,
    164,
    165,
    166,
    167,
    168,
    169,
    170,
    171,
    172,
    173,
    174,
    175,
    176,
    177,
    178,
    179,
    180,
    181,
    182,
    183,
    184,
    185,
    186,
    187,
    188,
    189,
    190,
    191,
    192,
    193,
    194,
    195,
    196,
    197,
    198,
    199,
    200,
    201,
    202,
    203,
    204,
    205,
    206,
    207,
    208,
    209,
    210,
    211,
    212,
    213,
    214,
    215,
    216,
    217,
    218,
    219,
    220,
    221,
    222,
    223,
    224,
    225,
    226,
    227,
    228,
    229,
    230,
    231,
    232,
    233,
    234,
    235,
    236,
    237,
    238,
    239,
    240,
    241,
    242,
    243,
    244,
    245,
    246,
    247,
    248,
    249,
    250,
    251,
    252,
    253,
    254,
    255,
    256
   ],
   "LargestImagePixelValue": [
    2867,
    2819,
    2855,
    2855,
    2845,
    2841,
    2784,
    2835,
    2805,
    2829,
    2834,
    2794,
    2826,
    2796,
    2811,
    2791,
    2806,
    2797,
    2806,
    2844,
    2801,
    2792,
    2804,
    2810,
    2810,
    2789,
    2816,
    2834,
    2826,
    2798,
    2834,
    2840,
    2856,
    2837,
    2850,
    2795,
    2839,
    2874,
    2844,
    2845,
    2830,
    2830,
    2866,
    2808,
    2796,
    2825,
    2821,
    2832,
    2818,
    2816,
    2810,
    2772,
    2818,
    2847,
    2843,
    2847,
    2846,
    2851,
    2805,
    2833,
    2867,
    2844,
    2858,
    2870,
    2860,
    2862,
    2838,
    2834,
    2839,
    2842,
    2823,
    2820,
    2827,
    2820,
    2800,
    2828,
    2807,
    2842,
    2839,
    2794,
    2789,
    2824,
    2829,
    2793,
    2816,
    2821,
    2867,
    2825,
    2821,
    2823,
    2837,
    2864,
    2819,
    2871,
    2836,
    2817,
    2827,
    2842,
    2876,
    2812,
    2851,
    2799,
    2844,
    2825,
    2825,
    2849,
    2813,
    2812,
    2855,
    2797,
    2795,
    2812,
    2833,
    2799,
    2778,
    2763,
    2803,
    2811,
    2827,
    2821,
    2816,
    2798,
    2791,
    2819,
    2818,
    2815,
    2834,
    2831,
    2801,
    2812,
    2825,
    2797,
    2825,
    2783,
    2788,
    2804,
    2814,
    2802,
    2791,
    2780,
    2785,
    2821,
    2795,
    2808,
    2805,
    2839,
    2815,
    2808,
    2793,
    2818,
    2826,
    2809,
    2794,
    2778,
    2806,
    2805,
    2807,
    2826,
    2803,
    2788,
    2787,
    2810,
    2803,
    2786,
    2819,
    2807,
    2773,
    2782,
    2805,
    2807,
    2802,
    2778,
    2782,
    2778,
    2788,
    2815,
    2788,
    2802,
    2801,
    2813,
    2819,
    2822,
    2803,
    2812,
    2826,
    2792,
    2833,
    2784,
    2801,
    2805,
    2809,
    2789,
    2840,
    2808,
    2801,
    2830,
    2791,
    2809,
    2814,
    2797,
    2790,
    2809,
    2795,
    2804,
    2833,
    2823,
    2801,
    2822,
    2810,
    2796,
    2805,
    2803,
    2778,
    2820,
    2802,
    2818,
    2809,
    2794,
    2814,
    2814,
    2823,
    2807,
    2814,
    2825,
    2829,
    2848,
    2810,
    2800,
    2834,
    2827,
    2819,
    2791,
    2794,
    2820,
    2811,
    2818,
    2825,
    2810,
    2805,
    2820,
    2823,
    2826,
    2820,
    2791,
    2819,
    2797,
    2805,
    2812,
    2813,
    2811,
    2822,
    2834,
    2827,
    2818,
    2800,
    2804
   ],
   "WindowCenter": [
    768.0,
    767.0,
    769.0,
    769.0,
    768.0,
    766.0,
    765.0,
    766.0,
    765.0,
    766.0,
    768.0,
    767.0,
    766.0,
    766.0,
    766.0,
    766.0,
    766.0,
    766.0,
    766.0,
    766.0,
    764.0,
    764.0,
    766.0,
    767.0,
    767.0,
    766.0,
    767.0,
    768.0,
    767.0,
    767.0,
    769.0,
    771.0,
    770.0,
    770.0,
    770.0,
    769.0,
    769.0,
    770.0,
    770.0,
    769.0,
    769.0,
    769.0,
    769.0,
    766.0,
    765.0,
    766.0,
    766.0,
    765.0,
    764.0,
    764.0,
    764.0,
    764.0,
    766.0,
    766.0,
    766.0,
    765.0,
    765.0,
    765.0,
    765.0,
    767.0,
    767.0,
    766.0,
    766.0,
    767.0,
    766.0,
    765.0,
    765.0,
    766.0,
    767.0,
    768.0,
    767.0,
    766.0,
    766.0,
    767.0,
    767.0,
    767.0,
    766.0,
    766.0,
    766.0,
    765.0,
    765.0,
    765.0,
    765.0,
    764.0,
    765.0,
    766.0,
    767.0,
    766.0,
    767.0,
    767.0,
    766.0,
    766.0,
    765.0,
    766.0,
    766.0,
    766.0,
    767.0,
    767.0,
    769.0,
    769.0,
    770.0,
    769.0,
    768.0,
    768.0,
    768.0,
    769.0,
    768.0,
    767.0,
    767.0,
