{
  "AcquisitionMatrixPE": 100,
  "AcquisitionNumber": 1,
  "AcquisitionTime": "12:40:39.692500",
  "BandwidthPerPixelPhaseEncode": 18.519,
  "BaseResolution": 100,
  "BodyPartExamined": "BRAIN",
  "ConsistencyInfo": "N4_VE11C_LATEST_20160120",
  "ConversionSoftware": "dcm2niix",
  "ConversionSoftwareVersion": "v1.0.20180622 GCC4.9.2",
  "DerivedVendorReportedEchoSpacing": 0.000539986,
  "DeviceSerialNumber": "166078",
  "DwellTime": 2.1e-06,
  "EchoTime": 0.034,
  "EchoTrainLength": 100,
  "EffectiveEchoSpacing": 0.000539986,
  "FlipAngle": 90,
  "ImageOrientationPatientDICOM": [1, -0.00011844, -0.000577282, -2.63752e-08, 0.979586, -0.201026],
  "ImageType": [
    "ORIGINAL",
    "PRIMARY",
    "M",
    "ND",
    "MOSAIC"
],
  "InPlanePhaseEncodingDirectionDICOM": "COL",
  "InstitutionAddress": "Street_StreetNo_Bei_Jing_District_CN_ZIP",
  "InstitutionName": "BeiJing_Normal_University",
  "InstitutionalDepartmentName": "Department",
  "MRAcquisitionType": "2D",
  "MagneticFieldStrength": 3,
  "Manufacturer": "Siemens",
  "ManufacturersModelName": "Prisma",
  "Modality": "MR",
  "MultibandAccelerationFactor": 3,
  "PartialFourier": 1,
  "PatientPosition": "HFS",
  "PercentPhaseFOV": 100,
  "PhaseEncodingDirection": "j-",
  "PhaseEncodingSteps": 100,
  "PhaseResolution": 1,
  "PixelBandwidth": 2380,
  "ProcedureStepDescription": "BNU_P2018_64CH_Zhen.ZongLei",
  "ProtocolName": "bold_100x100_s3_2x2x2_static_256",
  "PulseSequenceDetails": "%SiemensSeq%_ep2d_bold",
  "ReceiveCoilActiveElements": "HC1-7;NC1",
  "ReceiveCoilName": "HeadNeck_64",
  "ReconMatrixPE": 100,
  "RepetitionTime": 2,
  "SAR": 0.0877247,
  "ScanOptions": "FS",
  "ScanningSequence": "EP",
  "SequenceName": "_epfid2d1_100",
  "SequenceVariant": "SK",
  "SeriesDescription": "bold_100x100_s3_2x2x2_static_256",
  "SeriesNumber": 14,
  "ShimSetting": [-5467, -11499, -1303, 498, -24, -181, -115, 87],
  "SliceThickness": 2,
  "SliceTiming": [1.485, 0, 0.99, 0.0825, 1.0725, 0.165, 1.155, 0.2475, 1.2375, 0.33, 1.32, 0.4125, 1.4025, 0.5775, 1.5675, 0.66, 1.65, 0.7425, 1.7325, 0.825, 1.815, 0.9075, 1.8975, 0.495, 1.485, 0, 0.99, 0.0825, 1.0725, 0.165, 1.155, 0.2475, 1.2375, 0.33, 1.32, 0.4125, 1.4025, 0.5775, 1.5675, 0.66, 1.65, 0.7425, 1.7325, 0.825, 1.815, 0.9075, 1.8975, 0.495, 1.485, 0, 0.99, 0.0825, 1.0725, 0.165, 1.155, 0.2475, 1.2375, 0.33, 1.32, 0.4125, 1.4025, 0.5775, 1.5675, 0.66, 1.65, 0.7425, 1.7325, 0.825, 1.815, 0.9075, 1.8975, 0.495],
  "SoftwareVersions": "syngo_MR_E11",
  "SpacingBetweenSlices": 2,
  "StationName": "AWP166078",
  "TaskName": "naturalvision",
  "TotalReadoutTime": 0.0534586,
  "TxRefAmp": 237.429,
  "dcmmeta_affine": [
    [-1.9999996423721313, -5.2750447565586e-08, -0.001178613631054759, 100.61858367919922],
    [0.00023688015062361956, 1.9591718912124634, -0.4020516574382782, -79.76741790771484],
    [-0.0011545639717951417, 0.402051717042923, 1.9591715335845947, -100.2239761352539],
    [0.0, 0.0, 0.0, 1.0]
],
  "dcmmeta_reorient_transform": [
    [0.0, -1.0, 0.0, 99.0],
    [1.0, 0.0, 0.0, 0.0],
    [0.0, 0.0, 1.0, 0.0],
    [0.0, 0.0, 0.0, 1.0]
],
  "dcmmeta_shape": [100, 100, 72, 256],
  "dcmmeta_slice_dim": 2,
  "dcmmeta_version": 0.6,
  "global": {
    "const": {
      "AcquisitionMatrix": [100, 0, 0, 100],
      "AngioFlag": "N",
      "BitsAllocated": 16,
      "BitsStored": 12,
      "BodyPartExamined": "BRAIN",
      "Columns": 900,
      "EchoNumbers": 1,
      "EchoTime": 34.0,
      "EchoTrainLength": 100,
      "FlipAngle": 90.0,
      "HighBit": 11,
      "ImageOrientationPatient": [0.99999982635871, -0.0001184400774, -0.0005772819846, -2.6375223e-08, 0.97958593418476, -0.2010258628818],
      "ImagePositionPatient": [-900.61841659855, -897.76459158994, 100.86166125134],
      "ImageType": [
        "ORIGINAL",
        "PRIMARY",
        "M",
        "ND",
        "MOSAIC"
],
      "ImagedNucleus": "1H",
      "ImagingFrequency": 123.257792,
      "InPlanePhaseEncodingDirection": "COL",
      "MRAcquisitionType": "2D",
      "MagneticFieldStrength": 3.0,
      "Manufacturer": "SIEMENS",
      "ManufacturerModelName": "Prisma",
      "Modality": "MR",
      "NumberOfAverages": 1.0,
      "NumberOfPhaseEncodingSteps": 100,
      "PercentPhaseFieldOfView": 100.0,
      "PercentSampling": 100.0,
      "PerformedProcedureStepStartTime": "110629.002000",
      "PhotometricInterpretation": "MONOCHROME2",
      "PixelBandwidth": 2380.0,
      "PixelRepresentation": 0,
      "PixelSpacing": [2.0, 2.0],
      "ProtocolName": "bold_100x100_s3_2x2x2_static_256",
      "RepetitionTime": 2000.0,
      "Rows": 900,
      "SAR": 0.08772471539337,
      "SamplesPerPixel": 1,
      "ScanOptions": "FS",
      "ScanningSequence": "EP",
      "SequenceName": "*epfid2d1_100",
      "SequenceVariant": "SK",
      "SeriesDescription": "bold_100x100_s3_2x2x2_static_256",
      "SeriesNumber": 14,
      "SeriesTime": "124042.622000",
      "SliceLocation": -82.201963446221,
      "SliceThickness": 2.0,
      "SmallestImagePixelValue": 0,
      "SoftwareVersions": "syngo MR E11",
      "SpacingBetweenSlices": 1.9999999851875,
      "SpecificCharacterSet": "ISO_IR 100",
      "StudyID": "1",
      "StudyTime": "110628.913000",
      "TransmitCoilName": "Body",
      "VariableFlipAngleFlag": "N",
      "WindowCenterWidthExplanation": "Algo1",
      "dBdt": 0.0},
    "slices": {}
  },
  "time": {
    "samples": {
      "AcquisitionNumber": [1, 2, 3, 4, 5, 6, 7, 8, 9, 10, 11, 12, 13, 14, 15, 16, 17, 18, 19, 20, 21, 22, 23, 24, 25, 26, 27, 28, 29, 30, 31, 32, 33, 34, 35, 36, 37, 38, 39, 40, 41, 42, 43, 44, 45, 46, 47, 48, 49, 50, 51, 52, 53, 54, 55, 56, 57, 58, 59, 60, 61, 62, 63, 64, 65, 66, 67, 68, 69, 70, 71, 72, 73, 74, 75, 76, 77, 78, 79, 80, 81, 82, 83, 84, 85, 86, 87, 88, 89, 90, 91, 92, 93, 94, 95, 96, 97, 98, 99, 100, 101, 102, 103, 104, 105, 106, 107, 108, 109, 110, 111, 112, 113, 114, 115, 116, 117, 118, 119, 120, 121, 122, 123, 124, 125, 126, 127, 128, 129, 130, 131, 132, 133, 134, 135, 136, 137, 138, 139, 140, 141, 142, 143, 144, 145, 146, 147, 148, 149, 150, 151, 152, 153, 154, 155, 156, 157, 158, 159, 160, 161, 162, 163, 164, 165, 166, 167, 168, 169, 170, 171, 172, 173, 174, 175, 176, 177, 178, 179, 180, 181, 182, 183, 184, 185, 186, 187, 188, 189, 190, 191, 192, 193, 194, 195, 196, 197, 198, 199, 200, 201, 202, 203, 204, 205, 206, 207, 208, 209, 210, 211, 212, 213, 214, 215, 216, 217, 218, 219, 220, 221, 222, 223, 224, 225, 226, 227, 228, 229, 230, 231, 232, 233, 234, 235, 236, 237, 238, 239, 240, 241, 242, 243, 244, 245, 246, 247, 248, 249, 250, 251, 252, 253, 254, 255, 256],
      "AcquisitionTime": ["124039.692500", "124041.692500", "124043.692500", "124045.692500", "124047.692500", "124049.692500", "124051.692500", "124053.692500", "124055.692500", "124057.692500", "124059.692500", "124101.692500", "124103.692500", "124105.692500", "124107.692500", "124109.692500", "124111.692500", "124113.692500", "124115.692500", "124117.692500", "124119.692500", "124121.692500", "124123.692500", "124125.692500", "124127.692500", "124129.692500", "124131.692500", "124133.692500", "124135.692500", "124137.692500", "124139.692500", "124141.692500", "124143.692500", "124145.692500", "124147.692500", "124149.692500", "124151.692500", "124153.692500", "124155.692500", "124157.692500", "124159.692500", "124201.692500", "124203.692500", "124205.692500", "124207.692500", "124209.692500", "124211.692500", "124213.692500", "124215.692500", "124217.692500", "124219.692500", "124221.692500", "124223.692500", "124225.692500", "124227.692500", "124229.692500", "124231.692500", "124233.692500", "124235.692500", "124237.692500", "124239.692500", "124241.692500", "124243.692500", "124245.692500", "124247.692500", "124249.692500", "124251.692500", "124253.692500", "124255.692500", "124257.692500", "124259.692500", "124301.692500", "124303.692500", "124305.692500", "124307.692500", "124309.692500", "124311.692500", "124313.692500", "124315.692500", "124317.692500", "124319.692500", "124321.692500", "124323.692500", "124325.692500", "124327.692500", "124329.692500", "124331.692500", "124333.692500", "124335.692500", "124337.692500", "124339.692500", "124341.692500", "124343.692500", "124345.692500", "124347.692500", "124349.692500", "124351.692500", "124353.692500", "124355.692500", "124357.692500", "124359.692500", "124401.692500", "124403.692500", "124405.692500", "124407.692500", "124409.692500", "124411.692500", "124413.692500", "124415.692500", "124417.692500", "124419.692500", "124421.692500", "124423.692500", "124425.692500", "124427.692500", "124429.692500", "124431.692500", "124433.692500", "124435.692500", "124437.692500", "124439.692500", "124441.692500", "124443.692500", "124445.692500", "124447.692500", "124449.692500", "124451.692500", "124453.692500", "124455.692500", "124457.692500", "124459.692500", "124501.692500", "124503.692500", "124505.692500", "124507.692500", "124509.692500", "124511.692500", "124513.692500", "124515.692500", "124517.692500", "124519.692500", "124521.692500", "124523.692500", "124525.692500", "124527.692500", "124529.692500", "124531.692500", "124533.692500", "124535.692500", "124537.692500", "124539.692500", "124541.692500", "124543.692500", "124545.692500", "124547.692500", "124549.692500", "124551.692500", "124553.692500", "124555.692500", "124557.692500", "124559.692500", "124601.692500", "124603.692500", "124605.692500", "124607.692500", "124609.692500", "124611.692500", "124613.692500", "124615.692500", "124617.692500", "124619.692500", "124621.692500", "124623.692500", "124625.692500", "124627.692500", "124629.692500", "124631.692500", "124633.692500", "124635.692500", "124637.692500", "124639.692500", "124641.692500", "124643.692500", "124645.692500", "124647.692500", "124649.692500", "124651.692500", "124653.692500", "124655.692500", "124657.692500", "124659.692500", "124701.692500", "124703.692500", "124705.692500", "124707.692500", "124709.692500", "124711.692500", "124713.692500", "124715.692500", "124717.692500", "124719.692500", "124721.692500", "124723.692500", "124725.692500", "124727.692500", "124729.692500", "124731.692500", "124733.692500", "124735.692500", "124737.692500", "124739.692500", "124741.692500", "124743.692500", "124745.692500", "124747.692500", "124749.692500", "124751.692500", "124753.692500", "124755.692500", "124757.692500", "124759.692500", "124801.692500", "124803.692500", "124805.692500", "124807.692500", "124809.692500", "124811.692500", "124813.692500", "124815.692500", "124817.692500", "124819.692500", "124821.692500", "124823.692500", "124825.692500", "124827.692500", "124829.692500", "124831.692500", "124833.692500", "124835.692500", "124837.692500", "124839.692500", "124841.692500", "124843.692500", "124845.692500", "124847.692500", "124849.692500", "124851.692500", "124853.692500", "124855.692500", "124857.692500", "124859.692500", "124901.692500", "124903.692500", "124905.692500", "124907.692500", "124909.692500"],
      "ContentTime": ["124042.626000", "124044.121000", "124046.121000", "124048.120000", "124050.120000", "124052.121000", "124054.120000", "124056.121000", "124058.122000", "124100.122000", "124102.121000", "124104.120000", "124106.120000", "124108.121000", "124110.120000", "124112.122000", "124114.122000", "124116.121000", "124118.122000", "124120.121000", "124122.121000", "124124.120000", "124126.121000", "124128.120000", "124130.122000", "124132.121000", "124134.122000", "124136.121000", "124138.120000", "124140.121000", "124142.121000", "124144.120000", "124146.121000", "124148.121000", "124150.122000", "124152.122000", "124154.122000", "124156.121000", "124158.120000", "124200.120000", "124202.120000", "124204.121000", "124206.121000", "124208.122000", "124210.121000", "124212.122000", "124214.121000", "124216.120000", "124218.121000", "124220.121000", "124222.121000", "124224.122000", "124226.121000", "124228.121000", "124230.121000", "124232.120000", "124234.120000", "124236.121000", "124238.121000", "124240.121000", "124242.122000", "124244.121000", "124246.121000", "124248.121000", "124250.121000", "124252.120000", "124254.120000", "124256.120000", "124258.122000", "124300.121000", "124302.122000", "124304.121000", "124306.121000", "124308.121000", "124310.121000", "124312.121000", "124314.121000", "124316.122000", "124318.121000", "124320.122000", "124322.121000", "124324.121000", "124326.120000", "124328.120000", "124330.121000", "124332.121000", "124334.121000", "124336.122000", "124338.121000", "124340.120000", "124342.121000", "124344.121000", "124346.121000", "124348.120000", "124350.122000", "124352.121000", "124354.121000", "124356.122000", "124358.121000", "124400.121000", "124402.120000", "124404.121000", "124406.121000", "124408.122000", "124410.122000", "124412.121000", "124414.121000", "124416.120000", "124418.120000", "124420.120000", "124422.120000", "124424.120000", "124426.122000", "124428.121000", "124430.121000", "124432.121000", "124434.120000", "124436.121000", "124438.121000", "124440.121000", "124442.121000", "124444.122000", "124446.122000", "124448.121000", "124450.120000", "124452.121000", "124454.121000", "124456.120000", "124458.120000", "124500.122000", "124502.122000", "124504.121000", "124506.127000", "124508.121000", "124510.121000", "124512.121000", "124514.120000", "124516.121000", "124518.122000", "124520.121000", "124522.122000", "124524.121000", "124526.121000", "124528.121000", "124530.120000", "124532.121000", "124534.121000", "124536.122000", "124538.121000", "124540.121000", "124542.122000", "124544.120000", "124546.120000", "124548.121000", "124550.121000", "124552.122000", "124554.122000", "124556.122000", "124558.121000", "124600.121000", "124602.121000", "124604.121000", "124606.120000", "124608.121000", "124610.121000", "124612.121000", "124614.121000", "124616.121000", "124618.120000", "124620.121000", "124622.121000", "124624.121000", "124626.121000", "124628.121000", "124630.122000", "124632.122000", "124634.121000", "124636.121000", "124638.121000", "124640.120000", "124642.120000", "124644.121000", "124646.122000", "124648.121000", "124650.122000", "124652.122000", "124654.120000", "124656.120000", "124658.121000", "124700.121000", "124702.122000", "124704.122000", "124706.121000", "124708.121000", "124710.121000", "124712.121000", "124714.120000", "124716.121000", "124718.121000", "124720.121000", "124722.122000", "124724.122000", "124726.121000", "124728.121000", "124730.121000", "124732.120000", "124734.121000", "124736.120000", "124738.122000", "124740.122000", "124742.122000", "124744.121000", "124746.120000", "124748.120000", "124750.120000", "124752.121000", "124754.122000", "124756.122000", "124758.122000", "124800.122000", "124802.121000", "124804.121000", "124806.120000", "124808.120000", "124810.120000", "124812.122000", "124814.122000", "124816.122000", "124818.121000", "124820.121000", "124822.120000", "124824.121000", "124826.121000", "124828.120000", "124830.122000", "124832.122000", "124834.122000", "124836.122000", "124838.120000", "124840.121000", "124842.121000", "124844.120000", "124846.121000", "124848.122000", "124850.121000", "124852.121000", "124854.122000", "124856.120000", "124858.121000", "124900.121000", "124902.121000", "124904.121000", "124906.121000", "124908.122000", "124910.121000", "124911.756000"],
      "InstanceCreationTime": ["124042.626000", "124044.121000", "124046.121000", "124048.120000", "124050.120000", "124052.121000", "124054.120000", "124056.121000", "124058.122000", "124100.122000", "124102.121000", "124104.120000", "124106.120000", "124108.121000", "124110.120000", "124112.122000", "124114.122000", "124116.121000", "124118.122000", "124120.121000", "124122.121000", "124124.120000", "124126.121000", "124128.120000", "124130.122000", "124132.121000", "124134.122000", "124136.121000", "124138.120000", "124140.121000", "124142.121000", "124144.120000", "124146.121000", "124148.121000", "124150.122000", "124152.122000", "124154.122000", "124156.121000", "124158.120000", "124200.120000", "124202.120000", "124204.121000", "124206.121000", "124208.122000", "124210.121000", "124212.122000", "124214.121000", "124216.120000", "124218.121000", "124220.121000", "124222.121000", "124224.122000", "124226.121000", "124228.121000", "124230.121000", "124232.120000", "124234.120000", "124236.121000", "124238.121000", "124240.121000", "124242.122000", "124244.121000", "124246.121000", "124248.121000", "124250.121000", "124252.120000", "124254.120000", "124256.120000", "124258.122000", "124300.121000", "124302.122000", "124304.121000", "124306.121000", "124308.121000", "124310.121000", "124312.121000", "124314.121000", "124316.122000", "124318.121000", "124320.122000", "124322.121000", "124324.121000", "124326.120000", "124328.120000", "124330.121000", "124332.121000", "124334.121000", "124336.122000", "124338.121000", "124340.120000", "124342.121000", "124344.121000", "124346.121000", "124348.120000", "124350.122000", "124352.121000", "124354.121000", "124356.122000", "124358.121000", "124400.121000", "124402.120000", "124404.121000", "124406.121000", "124408.122000", "124410.122000", "124412.121000", "124414.121000", "124416.120000", "124418.120000", "124420.120000", "124422.120000", "124424.120000", "124426.122000", "124428.121000", "124430.121000", "124432.121000", "124434.120000", "124436.121000", "124438.121000", "124440.121000", "124442.121000", "124444.122000", "124446.122000", "124448.121000", "124450.120000", "124452.121000", "124454.121000", "124456.120000", "124458.120000", "124500.122000", "124502.122000", "124504.121000", "124506.127000", "124508.121000", "124510.121000", "124512.121000", "124514.120000", "124516.121000", "124518.122000", "124520.121000", "124522.122000", "124524.121000", "124526.121000", "124528.121000", "124530.120000", "124532.121000", "124534.121000", "124536.122000", "124538.121000", "124540.121000", "124542.122000", "124544.120000", "124546.120000", "124548.121000", "124550.121000", "124552.122000", "124554.122000", "124556.122000", "124558.121000", "124600.121000", "124602.121000", "124604.121000", "124606.120000", "124608.121000", "124610.121000", "124612.121000", "124614.121000", "124616.121000", "124618.120000", "124620.121000", "124622.121000", "124624.121000", "124626.121000", "124628.121000", "124630.122000", "124632.122000", "124634.121000", "124636.121000", "124638.121000", "124640.120000", "124642.120000", "124644.121000", "124646.122000", "124648.121000", "124650.122000", "124652.122000", "124654.120000", "124656.120000", "124658.121000", "124700.121000", "124702.122000", "124704.122000", "124706.121000", "124708.121000", "124710.121000", "124712.121000", "124714.120000", "124716.121000", "124718.121000", "124720.121000", "124722.122000", "124724.122000", "124726.121000", "124728.121000", "124730.121000", "124732.120000", "124734.121000", "124736.120000", "124738.122000", "124740.122000", "124742.122000", "124744.121000", "124746.120000", "124748.120000", "124750.120000", "124752.121000", "124754.122000", "124756.122000", "124758.122000", "124800.122000", "124802.121000", "124804.121000", "124806.120000", "124808.120000", "124810.120000", "124812.122000", "124814.122000", "124816.122000", "124818.121000", "124820.121000", "124822.120000", "124824.121000", "124826.121000", "124828.120000", "124830.122000", "124832.122000", "124834.122000", "124836.122000", "124838.120000", "124840.121000", "124842.121000", "124844.120000", "124846.121000", "124848.122000", "124850.121000", "124852.121000", "124854.122000", "124856.120000", "124858.121000", "124900.121000", "124902.121000", "124904.121000", "124906.121000", "124908.122000", "124910.121000", "124911.756000"],
      "InstanceNumber": [1, 2, 3, 4, 5, 6, 7, 8, 9, 10, 11, 12, 13, 14, 15, 16, 17, 18, 19, 20, 21, 22, 23, 24, 25, 26, 27, 28, 29, 30, 31, 32, 33, 34, 35, 36, 37, 38, 39, 40, 41, 42, 43, 44, 45, 46, 47, 48, 49, 50, 51, 52, 53, 54, 55, 56, 57, 58, 59, 60, 61, 62, 63, 64, 65, 66, 67, 68, 69, 70, 71, 72, 73, 74, 75, 76, 77, 78, 79, 80, 81, 82, 83, 84, 85, 86, 87, 88, 89, 90, 91, 92, 93, 94, 95, 96, 97, 98, 99, 100, 101, 102, 103, 104, 105, 106, 107, 108, 109, 110, 111, 112, 113, 114, 115, 116, 117, 118, 119, 120, 121, 122, 123, 124, 125, 126, 127, 128, 129, 130, 131, 132, 133, 134, 135, 136, 137, 138, 139, 140, 141, 142, 143, 144, 145, 146, 147, 148, 149, 150, 151, 152, 153, 154, 155, 156, 157, 158, 159, 160, 161, 162, 163, 164, 165, 166, 167, 168, 169, 170, 171, 172, 173, 174, 175, 176, 177, 178, 179, 180, 181, 182, 183, 184, 185, 186, 187, 188, 189, 190, 191, 192, 193, 194, 195, 196, 197, 198, 199, 200, 201, 202, 203, 204, 205, 206, 207, 208, 209, 210, 211, 212, 213, 214, 215, 216, 217, 218, 219, 220, 221, 222, 223, 224, 225, 226, 227, 228, 229, 230, 231, 232, 233, 234, 235, 236, 237, 238, 239, 240, 241, 242, 243, 244, 245, 246, 247, 248, 249, 250, 251, 252, 253, 254, 255, 256],
      "LargestImagePixelValue": [2996, 2953, 2927, 2930, 2911, 2921, 2924, 2919, 2922, 2895, 2919, 2902, 2892, 2921, 2899, 2897, 2892, 2898, 2925, 2894, 2887, 2891, 2908, 2908, 2905, 2898, 2910, 2906, 2897, 2885, 2890, 2902, 2915, 2931, 2935, 2893, 2902, 2906, 2921, 2924, 2886, 2929, 2887, 2924, 2920, 2913, 2915, 2911, 2878, 2914, 2886, 2864, 2860, 2920, 2902, 2913, 2913, 2886, 2898, 2913, 2914, 2943, 2910, 2893, 2917, 2898, 2878, 2904, 2899, 2903, 2864, 2902, 2898, 2869, 2912, 2861, 2889, 2902, 2889, 2855, 2876, 2882, 2888, 2883, 2894, 2889, 2884, 2870, 2898, 2886, 2871, 2917, 2934, 2927, 2902, 2903, 2907, 2883, 2907, 2908, 2892, 2908, 2879, 2866, 2923, 2924, 2873, 2932, 2865, 2869, 2868, 2876, 2902, 2923, 2884, 2908, 2920, 2886, 2894, 2903, 2888, 2903, 2893, 2916, 2862, 2897, 2875, 2898, 2896, 2954, 2868, 2869, 2895, 2890, 2909, 2889, 2892, 2887, 2872, 2901, 2899, 2931, 2878, 2900, 2901, 2897, 2887, 2886, 2893, 2918, 2900, 2876, 2895, 2877, 2864, 2888, 2889, 2849, 2897, 2881, 2878, 2893, 2903, 2874, 2892, 2926, 2894, 2893, 2861, 2901, 2880, 2924, 2923, 2869, 2878, 2896, 2874, 2928, 2890, 2925, 2927, 2905, 2894, 2880, 2897, 2871, 2871, 2866, 2880, 2892, 2872, 2855, 2880, 2916, 2850, 2932, 2873, 2908, 2869, 2890, 2908, 2916, 2915, 2894, 2876, 2867, 2895, 2894, 2895, 2863, 2859, 2897, 2887, 2898, 2908, 2852, 2897, 2913, 2898, 2891, 2924, 2914, 2899, 2883, 2886, 2927, 2932, 2903, 2896, 2897, 2887, 2889, 2876, 2924, 2887, 2907, 2916, 2931, 2912, 2873, 2881, 2887, 2883, 2877, 2888, 2872, 2886, 2937, 2911, 2900, 2890, 2919, 2916, 2943, 2894, 2922],
      "WindowCenter": [777.0, 776.0, 776.0, 778.0, 778.0, 777.0, 776.0, 775.0, 776.0, 777.0, 777.0, 776.0, 776.0, 775.0, 775.0, 776.0, 776.0, 776.0, 776.0, 777.0, 777.0, 777.0, 776.0, 775.0, 775.0, 776.0, 776.0, 776.0, 777.0, 776.0, 775.0, 774.0, 774.0, 775.0, 776.0, 775.0, 774.0, 773.0, 773.0, 773.0, 774.0, 775.0, 774.0, 774.0, 773.0, 773.0, 774.0, 774.0, 774.0, 774.0, 774.0, 774.0, 774.0, 775.0, 775.0, 776.0, 776.0, 776.0, 775.0, 775.0, 774.0, 774.0, 774.0, 774.0, 775.0, 774.0, 774.0, 774.0, 774.0, 775.0, 775.0, 775.0, 775.0, 775.0, 776.0, 775.0, 774.0, 775.0, 776.0, 777.0, 776.0, 775.0, 774.0, 774.0, 775.0, 775.0, 775.0, 776.0, 775.0, 774.0, 773.0, 773.0, 774.0, 774.0, 774.0, 774.0, 775.0, 775.0, 775.0, 775.0, 775.0, 775.0, 775.0, 775.0, 774.0, 774.0, 775.0, 776.0, 775.0, 774.0, 774.0, 774.0, 774.0, 775.0, 774.0, 774.0, 774.0, 774.0, 775.0, 774.0, 774.0, 773.0, 775.0, 775.0, 774.0, 773.0, 774.0, 774.0, 772.0, 773.0, 773.0, 774.0, 774.0, 773.0, 773.0, 773.0, 774.0, 774.0, 775.0, 774.0, 773.0, 775.0, 773.0, 774.0, 774.0, 774.0, 775.0, 775.0, 775.0, 775.0, 776.0, 777.0, 777.0, 774.0, 773.0, 773.0, 773.0, 773.0, 774.0, 773.0, 773.0, 773.0, 774.0, 774.0, 775.0, 775.0, 775.0, 776.0, 775.0, 775.0, 775.0, 775.0, 776.0, 775.0, 775.0, 774.0, 774.0, 774.0, 774.0, 774.0, 774.0, 775.0, 775.0, 775.0, 775.0, 774.0, 775.0, 774.0, 774.0, 774.0, 774.0, 774.0, 774.0, 774.0, 774.0, 775.0, 774.0, 775.0, 775.0, 774.0, 773.0, 773.0, 774.0, 775.0, 775.0, 774.0, 774.0, 774.0, 775.0, 774.0, 774.0, 774.0, 774.0, 774.0, 774.0, 774.0, 774.0, 774.0, 773.0, 773.0, 774.0, 774.0, 774.0, 774.0, 774.0, 774.0, 775.0, 775.0, 775.0, 775.0, 776.0, 776.0, 775.0, 774.0, 773.0, 774.0, 774.0, 775.0, 776.0, 776.0, 775.0, 775.0, 775.0, 774.0, 774.0, 774.0, 774.0, 774.0, 774.0, 774.0, 775.0, 775.0, 776.0, 776.0, 775.0, 775.0],
      "WindowWidth": [1665.0, 1660.0, 1662.0, 1666.0, 1667.0, 1664.0, 1661.0, 1660.0, 1661.0, 1664.0, 1665.0, 1662.0, 1661.0, 1660.0, 1660.0, 1661.0, 1661.0, 1660.0, 1662.0, 1665.0, 1665.0, 1664.0, 1662.0, 1660.0, 1660.0, 1661.0, 1661.0, 1661.0, 1663.0, 1660.0, 1659.0, 1657.0, 1657.0, 1660.0, 1662.0, 1659.0, 1656.0, 1654.0, 1654.0, 1655.0, 1656.0, 1658.0, 1658.0, 1655.0, 1653.0, 1654.0, 1656.0, 1658.0, 1656.0, 1656.0, 1656.0, 1657.0, 1657.0, 1659.0, 1660.0, 1662.0, 1663.0, 1661.0, 1660.0, 1657.0, 1655.0, 1655.0, 1657.0, 1657.0, 1658.0, 1656.0, 1656.0, 1657.0, 1657.0, 1658.0, 1659.0, 1658.0, 1658.0, 1658.0, 1661.0, 1659.0, 1657.0, 1658.0, 1662.0, 1664.0, 1660.0, 1657.0, 1656.0, 1656.0, 1658.0, 1658.0, 1659.0, 1660.0, 1658.0, 1655.0, 1654.0, 1655.0, 1655.0, 1655.0, 1656.0, 1657.0, 1658.0, 1658.0, 1660.0, 1659.0, 1660.0, 1660.0, 1660.0, 1658.0, 1656.0, 1656.0, 1659.0, 1662.0, 1659.0, 1657.0, 1657.0, 1657.0, 1658.0, 1658.0, 1656.0, 1656.0, 1655.0, 1656.0, 1659.0, 1657.0, 1655.0, 1655.0, 1658.0, 1658.0, 1655.0, 1654.0, 1656.0, 1656.0, 1652.0, 1653.0, 1655.0, 1657.0, 1657.0, 1655.0, 1653.0, 1654.0, 1656.0, 1658.0, 1658.0, 1656.0, 1654.0, 1658.0, 1655.0, 1656.0, 1656.0, 1657.0, 1657.0, 1657.0, 1658.0, 1660.0, 1662.0, 1664.0, 1662.0, 1657.0, 1653.0, 1653.0, 1653.0, 1654.0, 1656.0, 1655.0, 1654.0, 1655.0, 1656.0, 1657.0, 1657.0, 1659.0, 1659.0, 1661.0, 1660.0, 1659.0, 1657.0, 1659.0, 1661.0, 1659.0, 1658.0, 1656.0, 1655.0, 1656.0, 1655.0, 1655.0, 1656.0, 1658.0, 1660.0, 1659.0, 1658.0, 1657.0, 1658.0, 1657.0, 1657.0, 1656.0, 1657.0, 1655.0, 1655.0, 1655.0, 1656.0, 1658.0, 1657.0, 1658.0, 1658.0, 1657.0, 1654.0, 1654.0, 1656.0, 1659.0, 1659.0, 1656.0, 1656.0, 1656.0, 1657.0, 1656.0, 1655.0, 1655.0, 1655.0, 1655.0, 1656.0, 1656.0, 1658.0, 1656.0, 1654.0, 1654.0, 1656.0, 1656.0, 1656.0, 1656.0, 1656.0, 1656.0, 1657.0, 1659.0, 1660.0, 1659.0, 1662.0, 1660.0, 1657.0, 1655.0, 1655.0, 1656.0, 1656.0, 1658.0, 1661.0, 1660.0, 1660.0, 1658.0, 1658.0, 1657.0, 1657.0, 1656.0, 1656.0, 1657.0, 1656.0, 1657.0, 1659.0, 1659.0, 1660.0, 1661.0, 1659.0, 1659.0]
    },
    "slices": {}
  }
}