{
  "AcquisitionMatrixPE": 100,
  "AcquisitionNumber": 1,
  "AcquisitionTime": "12:31:0.665000",
  "BandwidthPerPixelPhaseEncode": 18.519,
  "BaseResolution": 100,
  "BodyPartExamined": "BRAIN",
  "ConsistencyInfo": "N4_VE11C_LATEST_20160120",
  "ConversionSoftware": "dcm2niix",
  "ConversionSoftwareVersion": "v1.0.20180622 GCC4.9.2",
  "DerivedVendorReportedEchoSpacing": 0.000539986,
  "DeviceSerialNumber": "166078",
  "DwellTime": 2.1e-06,
  "EchoTime": 0.034,
  "EchoTrainLength": 100,
  "EffectiveEchoSpacing": 0.000539986,
  "FlipAngle": 90,
  "ImageOrientationPatientDICOM": [1, -0.00011844, -0.000577282, -2.63752e-08, 0.979586, -0.201026],
  "ImageType": [
    "ORIGINAL",
    "PRIMARY",
    "M",
    "ND",
    "MOSAIC"
],
  "InPlanePhaseEncodingDirectionDICOM": "COL",
  "InstitutionAddress": "Street_StreetNo_Bei_Jing_District_CN_ZIP",
  "InstitutionName": "BeiJing_Normal_University",
  "InstitutionalDepartmentName": "Department",
  "MRAcquisitionType": "2D",
  "MagneticFieldStrength": 3,
  "Manufacturer": "Siemens",
  "ManufacturersModelName": "Prisma",
  "Modality": "MR",
  "MultibandAccelerationFactor": 3,
  "PartialFourier": 1,
  "PatientPosition": "HFS",
  "PercentPhaseFOV": 100,
  "PhaseEncodingDirection": "j-",
  "PhaseEncodingSteps": 100,
  "PhaseResolution": 1,
  "PixelBandwidth": 2380,
  "ProcedureStepDescription": "BNU_P2018_64CH_Zhen.ZongLei",
  "ProtocolName": "bold_100x100_s3_2x2x2_static_256",
  "PulseSequenceDetails": "%SiemensSeq%_ep2d_bold",
  "ReceiveCoilActiveElements": "HC1-7;NC1",
  "ReceiveCoilName": "HeadNeck_64",
  "ReconMatrixPE": 100,
  "RepetitionTime": 2,
  "SAR": 0.0877247,
  "ScanOptions": "FS",
  "ScanningSequence": "EP",
  "SequenceName": "_epfid2d1_100",
  "SequenceVariant": "SK",
  "SeriesDescription": "bold_100x100_s3_2x2x2_static_256",
  "SeriesNumber": 13,
  "ShimSetting": [-5467, -11499, -1303, 498, -24, -181, -115, 87],
  "SliceThickness": 2,
  "SliceTiming": [1.485, 0, 0.99, 0.0825, 1.0725, 0.165, 1.155, 0.2475, 1.2375, 0.33, 1.32, 0.4125, 1.4025, 0.5775, 1.5675, 0.66, 1.65, 0.7425, 1.7325, 0.825, 1.815, 0.9075, 1.8975, 0.495, 1.485, 0, 0.99, 0.0825, 1.0725, 0.165, 1.155, 0.2475, 1.2375, 0.33, 1.32, 0.4125, 1.4025, 0.5775, 1.5675, 0.66, 1.65, 0.7425, 1.7325, 0.825, 1.815, 0.9075, 1.8975, 0.495, 1.485, 0, 0.99, 0.0825, 1.0725, 0.165, 1.155, 0.2475, 1.2375, 0.33, 1.32, 0.4125, 1.4025, 0.5775, 1.5675, 0.66, 1.65, 0.7425, 1.7325, 0.825, 1.815, 0.9075, 1.8975, 0.495],
  "SoftwareVersions": "syngo_MR_E11",
  "SpacingBetweenSlices": 2,
  "StationName": "AWP166078",
  "TaskName": "naturalvision",
  "TotalReadoutTime": 0.0534586,
  "TxRefAmp": 237.429,
  "dcmmeta_affine": [
    [-1.9999996423721313, -5.2750447565586e-08, -0.001178613631054759, 100.61858367919922],
    [0.00023688015062361956, 1.9591718912124634, -0.4020516574382782, -79.76741790771484],
    [-0.0011545639717951417, 0.402051717042923, 1.9591715335845947, -100.2239761352539],
    [0.0, 0.0, 0.0, 1.0]
],
  "dcmmeta_reorient_transform": [
    [0.0, -1.0, 0.0, 99.0],
    [1.0, 0.0, 0.0, 0.0],
    [0.0, 0.0, 1.0, 0.0],
    [0.0, 0.0, 0.0, 1.0]
],
  "dcmmeta_shape": [100, 100, 72, 256],
  "dcmmeta_slice_dim": 2,
  "dcmmeta_version": 0.6,
  "global": {
    "const": {
      "AcquisitionMatrix": [100, 0, 0, 100],
      "AngioFlag": "N",
      "BitsAllocated": 16,
      "BitsStored": 12,
      "BodyPartExamined": "BRAIN",
      "Columns": 900,
      "EchoNumbers": 1,
      "EchoTime": 34.0,
      "EchoTrainLength": 100,
      "FlipAngle": 90.0,
      "HighBit": 11,
      "ImageOrientationPatient": [0.99999982635871, -0.0001184400774, -0.0005772819846, -2.6375223e-08, 0.97958593418476, -0.2010258628818],
      "ImagePositionPatient": [-900.61841659855, -897.76459158994, 100.86166125134],
      "ImageType": [
        "ORIGINAL",
        "PRIMARY",
        "M",
        "ND",
        "MOSAIC"
],
      "ImagedNucleus": "1H",
      "ImagingFrequency": 123.25779,
      "InPlanePhaseEncodingDirection": "COL",
      "MRAcquisitionType": "2D",
      "MagneticFieldStrength": 3.0,
      "Manufacturer": "SIEMENS",
      "ManufacturerModelName": "Prisma",
      "Modality": "MR",
      "NumberOfAverages": 1.0,
      "NumberOfPhaseEncodingSteps": 100,
      "PercentPhaseFieldOfView": 100.0,
      "PercentSampling": 100.0,
      "PerformedProcedureStepStartTime": "110629.002000",
      "PhotometricInterpretation": "MONOCHROME2",
      "PixelBandwidth": 2380.0,
      "PixelRepresentation": 0,
      "PixelSpacing": [2.0, 2.0],
      "ProtocolName": "bold_100x100_s3_2x2x2_static_256",
      "RepetitionTime": 2000.0,
      "Rows": 900,
      "SAR": 0.08772471539337,
      "SamplesPerPixel": 1,
      "ScanOptions": "FS",
      "ScanningSequence": "EP",
      "SequenceName": "*epfid2d1_100",
      "SequenceVariant": "SK",
      "SeriesDescription": "bold_100x100_s3_2x2x2_static_256",
      "SeriesNumber": 13,
      "SeriesTime": "123103.681000",
      "SliceLocation": -82.201963446221,
      "SliceThickness": 2.0,
      "SmallestImagePixelValue": 0,
      "SoftwareVersions": "syngo MR E11",
      "SpacingBetweenSlices": 1.9999999851875,
      "SpecificCharacterSet": "ISO_IR 100",
      "StudyID": "1",
      "StudyTime": "110628.913000",
      "TransmitCoilName": "Body",
      "VariableFlipAngleFlag": "N",
      "WindowCenterWidthExplanation": "Algo1",
      "dBdt": 0.0},
    "slices": {}
  },
  "time": {
    "samples": {
      "AcquisitionNumber": [1, 2, 3, 4, 5, 6, 7, 8, 9, 10, 11, 12, 13, 14, 15, 16, 17, 18, 19, 20, 21, 22, 23, 24, 25, 26, 27, 28, 29, 30, 31, 32, 33, 34, 35, 36, 37, 38, 39, 40, 41, 42, 43, 44, 45, 46, 47, 48, 49, 50, 51, 52, 53, 54, 55, 56, 57, 58, 59, 60, 61, 62, 63, 64, 65, 66, 67, 68, 69, 70, 71, 72, 73, 74, 75, 76, 77, 78, 79, 80, 81, 82, 83, 84, 85, 86, 87, 88, 89, 90, 91, 92, 93, 94, 95, 96, 97, 98, 99, 100, 101, 102, 103, 104, 105, 106, 107, 108, 109, 110, 111, 112, 113, 114, 115, 116, 117, 118, 119, 120, 121, 122, 123, 124, 125, 126, 127, 128, 129, 130, 131, 132, 133, 134, 135, 136, 137, 138, 139, 140, 141, 142, 143, 144, 145, 146, 147, 148, 149, 150, 151, 152, 153, 154, 155, 156, 157, 158, 159, 160, 161, 162, 163, 164, 165, 166, 167, 168, 169, 170, 171, 172, 173, 174, 175, 176, 177, 178, 179, 180, 181, 182, 183, 184, 185, 186, 187, 188, 189, 190, 191, 192, 193, 194, 195, 196, 197, 198, 199, 200, 201, 202, 203, 204, 205, 206, 207, 208, 209, 210, 211, 212, 213, 214, 215, 216, 217, 218, 219, 220, 221, 222, 223, 224, 225, 226, 227, 228, 229, 230, 231, 232, 233, 234, 235, 236, 237, 238, 239, 240, 241, 242, 243, 244, 245, 246, 247, 248, 249, 250, 251, 252, 253, 254, 255, 256],
      "AcquisitionTime": ["123100.665000", "123102.665000", "123104.665000", "123106.665000", "123108.665000", "123110.665000", "123112.665000", "123114.665000", "123116.665000", "123118.665000", "123120.665000", "123122.665000", "123124.665000", "123126.665000", "123128.665000", "123130.665000", "123132.665000", "123134.665000", "123136.665000", "123138.665000", "123140.665000", "123142.665000", "123144.665000", "123146.665000", "123148.665000", "123150.665000", "123152.665000", "123154.665000", "123156.665000", "123158.665000", "123200.665000", "123202.665000", "123204.665000", "123206.665000", "123208.665000", "123210.665000", "123212.665000", "123214.665000", "123216.665000", "123218.665000", "123220.665000", "123222.665000", "123224.665000", "123226.665000", "123228.665000", "123230.665000", "123232.665000", "123234.665000", "123236.665000", "123238.665000", "123240.665000", "123242.665000", "123244.665000", "123246.665000", "123248.665000", "123250.665000", "123252.665000", "123254.665000", "123256.665000", "123258.665000", "123300.665000", "123302.665000", "123304.665000", "123306.665000", "123308.665000", "123310.665000", "123312.665000", "123314.665000", "123316.665000", "123318.665000", "123320.665000", "123322.665000", "123324.665000", "123326.665000", "123328.665000", "123330.665000", "123332.665000", "123334.665000", "123336.665000", "123338.665000", "123340.665000", "123342.665000", "123344.665000", "123346.665000", "123348.665000", "123350.665000", "123352.665000", "123354.665000", "123356.665000", "123358.665000", "123400.665000", "123402.665000", "123404.665000", "123406.665000", "123408.665000", "123410.665000", "123412.665000", "123414.665000", "123416.665000", "123418.665000", "123420.665000", "123422.665000", "123424.665000", "123426.665000", "123428.665000", "123430.665000", "123432.665000", "123434.665000", "123436.665000", "123438.665000", "123440.665000", "123442.665000", "123444.665000", "123446.665000", "123448.665000", "123450.665000", "123452.665000", "123454.665000", "123456.665000", "123458.665000", "123500.665000", "123502.665000", "123504.665000", "123506.665000", "123508.665000", "123510.665000", "123512.665000", "123514.665000", "123516.665000", "123518.665000", "123520.665000", "123522.665000", "123524.665000", "123526.665000", "123528.665000", "123530.665000", "123532.665000", "123534.665000", "123536.665000", "123538.665000", "123540.665000", "123542.665000", "123544.665000", "123546.665000", "123548.665000", "123550.665000", "123552.665000", "123554.665000", "123556.665000", "123558.665000", "123600.665000", "123602.665000", "123604.665000", "123606.665000", "123608.665000", "123610.665000", "123612.665000", "123614.665000", "123616.665000", "123618.665000", "123620.665000", "123622.665000", "123624.665000", "123626.665000", "123628.665000", "123630.665000", "123632.665000", "123634.665000", "123636.665000", "123638.665000", "123640.665000", "123642.665000", "123644.665000", "123646.665000", "123648.665000", "123650.665000", "123652.665000", "123654.665000", "123656.665000", "123658.665000", "123700.665000", "123702.665000", "123704.665000", "123706.665000", "123708.665000", "123710.665000", "123712.665000", "123714.665000", "123716.665000", "123718.665000", "123720.665000", "123722.665000", "123724.665000", "123726.665000", "123728.665000", "123730.665000", "123732.665000", "123734.665000", "123736.665000", "123738.665000", "123740.665000", "123742.665000", "123744.665000", "123746.665000", "123748.665000", "123750.665000", "123752.665000", "123754.665000", "123756.665000", "123758.665000", "123800.665000", "123802.665000", "123804.665000", "123806.665000", "123808.665000", "123810.665000", "123812.665000", "123814.665000", "123816.665000", "123818.665000", "123820.665000", "123822.665000", "123824.665000", "123826.665000", "123828.665000", "123830.665000", "123832.665000", "123834.665000", "123836.665000", "123838.665000", "123840.665000", "123842.665000", "123844.665000", "123846.665000", "123848.665000", "123850.665000", "123852.665000", "123854.665000", "123856.665000", "123858.665000", "123900.665000", "123902.665000", "123904.665000", "123906.665000", "123908.665000", "123910.665000", "123912.665000", "123914.665000", "123916.665000", "123918.665000", "123920.665000", "123922.665000", "123924.665000", "123926.665000", "123928.665000", "123930.665000"],
      "ContentTime": ["123103.685000", "123105.180000", "123107.181000", "123109.179000", "123111.180000", "123113.180000", "123115.179000", "123117.179000", "123119.181000", "123121.181000", "123123.180000", "123125.180000", "123127.180000", "123129.180000", "123131.180000", "123133.180000", "123135.181000", "123137.181000", "123139.181000", "123141.181000", "123143.180000", "123145.179000", "123147.180000", "123149.179000", "123151.180000", "123153.181000", "123155.180000", "123157.181000", "123159.180000", "123201.180000", "123203.179000", "123205.179000", "123207.180000", "123209.180000", "123211.181000", "123213.181000", "123215.181000", "123217.180000", "123219.180000", "123221.180000", "123223.179000", "123225.179000", "123227.180000", "123229.180000", "123231.180000", "123233.181000", "123235.180000", "123237.179000", "123239.180000", "123241.179000", "123243.179000", "123245.181000", "123247.181000", "123249.180000", "123251.181000", "123253.180000", "123255.179000", "123257.179000", "123259.180000", "123301.179000", "123303.180000", "123305.180000", "123307.181000", "123309.181000", "123311.181000", "123313.180000", "123315.179000", "123317.179000", "123319.179000", "123321.180000", "123323.180000", "123325.180000", "123327.180000", "123329.180000", "123331.179000", "123333.180000", "123335.179000", "123337.180000", "123339.180000", "123341.180000", "123343.180000", "123345.180000", "123347.180000", "123349.180000", "123351.180000", "123353.180000", "123355.180000", "123357.181000", "123359.181000", "123401.181000", "123403.181000", "123405.179000", "123407.179000", "123409.179000", "123411.180000", "123413.181000", "123415.181000", "123417.181000", "123419.180000", "123421.181000", "123423.179000", "123425.179000", "123427.179000", "123429.179000", "123431.181000", "123433.181000", "123435.181000", "123437.181000", "123439.179000", "123441.179000", "123443.179000", "123445.180000", "123447.180000", "123449.180000", "123451.180000", "123453.181000", "123455.181000", "123457.179000", "123459.179000", "123501.180000", "123503.180000", "123505.180000", "123507.181000", "123509.180000", "123511.181000", "123513.181000", "123515.180000", "123517.180000", "123519.179000", "123521.179000", "123523.181000", "123525.181000", "123527.180000", "123529.181000", "123531.181000", "123533.179000", "123535.180000", "123537.179000", "123539.179000", "123541.181000", "123543.181000", "123545.180000", "123547.181000", "123549.180000", "123551.179000", "123553.179000", "123555.179000", "123557.180000", "123559.180000", "123601.181000", "123603.181000", "123605.181000", "123607.179000", "123609.179000", "123611.180000", "123613.179000", "123615.180000", "123617.180000", "123619.181000", "123621.180000", "123623.181000", "123625.180000", "123627.179000", "123629.179000", "123631.180000", "123633.180000", "123635.180000", "123637.180000", "123639.181000", "123641.180000", "123643.180000", "123645.179000", "123647.179000", "123649.179000", "123651.181000", "123653.180000", "123655.180000", "123657.181000", "123659.180000", "123701.180000", "123703.180000", "123705.180000", "123707.180000", "123709.181000", "123711.180000", "123713.181000", "123715.180000", "123717.180000", "123719.180000", "123721.179000", "123723.179000", "123725.181000", "123727.181000", "123729.181000", "123731.181000", "123733.181000", "123735.180000", "123737.180000", "123739.180000", "123741.180000", "123743.181000", "123745.181000", "123747.181000", "123749.181000", "123751.180000", "123753.180000", "123755.180000", "123757.180000", "123759.179000", "123801.181000", "123803.181000", "123805.180000", "123807.181000", "123809.179000", "123811.180000", "123813.180000", "123815.180000", "123817.181000", "123819.180000", "123821.180000", "123823.180000", "123825.181000", "123827.179000", "123829.179000", "123831.180000", "123833.179000", "123835.180000", "123837.181000", "123839.181000", "123841.181000", "123843.180000", "123845.179000", "123847.179000", "123849.180000", "123851.180000", "123853.181000", "123855.181000", "123857.180000", "123859.180000", "123901.180000", "123903.180000", "123905.180000", "123907.180000", "123909.179000", "123911.181000", "123913.181000", "123915.181000", "123917.181000", "123919.180000", "123921.180000", "123923.180000", "123925.179000", "123927.180000", "123929.180000", "123931.181000", "123932.814000"],
      "InstanceCreationTime": ["123103.685000", "123105.180000", "123107.181000", "123109.179000", "123111.180000", "123113.180000", "123115.179000", "123117.179000", "123119.181000", "123121.181000", "123123.180000", "123125.180000", "123127.180000", "123129.180000", "123131.180000", "123133.180000", "123135.181000", "123137.181000", "123139.181000", "123141.181000", "123143.180000", "123145.179000", "123147.180000", "123149.179000", "123151.180000", "123153.181000", "123155.180000", "123157.181000", "123159.180000", "123201.180000", "123203.179000", "123205.179000", "123207.180000", "123209.180000", "123211.181000", "123213.181000", "123215.181000", "123217.180000", "123219.180000", "123221.180000", "123223.179000", "123225.179000", "123227.180000", "123229.180000", "123231.180000", "123233.181000", "123235.180000", "123237.179000", "123239.180000", "123241.179000", "123243.179000", "123245.181000", "123247.181000", "123249.180000", "123251.181000", "123253.180000", "123255.179000", "123257.179000", "123259.180000", "123301.179000", "123303.180000", "123305.180000", "123307.181000", "123309.181000", "123311.181000", "123313.180000", "123315.179000", "123317.179000", "123319.179000", "123321.180000", "123323.180000", "123325.180000", "123327.180000", "123329.180000", "123331.179000", "123333.180000", "123335.179000", "123337.180000", "123339.180000", "123341.180000", "123343.180000", "123345.180000", "123347.180000", "123349.180000", "123351.180000", "123353.180000", "123355.180000", "123357.181000", "123359.181000", "123401.181000", "123403.181000", "123405.179000", "123407.179000", "123409.179000", "123411.180000", "123413.181000", "123415.181000", "123417.181000", "123419.180000", "123421.181000", "123423.179000", "123425.179000", "123427.179000", "123429.179000", "123431.181000", "123433.181000", "123435.181000", "123437.181000", "123439.179000", "123441.179000", "123443.179000", "123445.180000", "123447.180000", "123449.180000", "123451.180000", "123453.181000", "123455.181000", "123457.179000", "123459.179000", "123501.180000", "123503.180000", "123505.180000", "123507.181000", "123509.180000", "123511.181000", "123513.181000", "123515.180000", "123517.180000", "123519.179000", "123521.179000", "123523.181000", "123525.181000", "123527.180000", "123529.181000", "123531.181000", "123533.179000", "123535.180000", "123537.179000", "123539.179000", "123541.181000", "123543.181000", "123545.180000", "123547.181000", "123549.180000", "123551.179000", "123553.179000", "123555.179000", "123557.180000", "123559.180000", "123601.181000", "123603.181000", "123605.181000", "123607.179000", "123609.179000", "123611.180000", "123613.179000", "123615.180000", "123617.180000", "123619.181000", "123621.180000", "123623.181000", "123625.180000", "123627.179000", "123629.179000", "123631.180000", "123633.180000", "123635.180000", "123637.180000", "123639.181000", "123641.180000", "123643.180000", "123645.179000", "123647.179000", "123649.179000", "123651.181000", "123653.180000", "123655.180000", "123657.181000", "123659.180000", "123701.180000", "123703.180000", "123705.180000", "123707.180000", "123709.181000", "123711.180000", "123713.181000", "123715.180000", "123717.180000", "123719.180000", "123721.179000", "123723.179000", "123725.181000", "123727.181000", "123729.181000", "123731.181000", "123733.181000", "123735.180000", "123737.180000", "123739.180000", "123741.180000", "123743.181000", "123745.181000", "123747.181000", "123749.181000", "123751.180000", "123753.180000", "123755.180000", "123757.180000", "123759.179000", "123801.181000", "123803.181000", "123805.180000", "123807.181000", "123809.179000", "123811.180000", "123813.180000", "123815.180000", "123817.181000", "123819.180000", "123821.180000", "123823.180000", "123825.181000", "123827.179000", "123829.179000", "123831.180000", "123833.179000", "123835.180000", "123837.181000", "123839.181000", "123841.181000", "123843.180000", "123845.179000", "123847.179000", "123849.180000", "123851.180000", "123853.181000", "123855.181000", "123857.180000", "123859.180000", "123901.180000", "123903.180000", "123905.180000", "123907.180000", "123909.179000", "123911.181000", "123913.181000", "123915.181000", "123917.181000", "123919.180000", "123921.180000", "123923.180000", "123925.179000", "123927.180000", "123929.180000", "123931.181000", "123932.814000"],
      "InstanceNumber": [1, 2, 3, 4, 5, 6, 7, 8, 9, 10, 11, 12, 13, 14, 15, 16, 17, 18, 19, 20, 21, 22, 23, 24, 25, 26, 27, 28, 29, 30, 31, 32, 33, 34, 35, 36, 37, 38, 39, 40, 41, 42, 43, 44, 45, 46, 47, 48, 49, 50, 51, 52, 53, 54, 55, 56, 57, 58, 59, 60, 61, 62, 63, 64, 65, 66, 67, 68, 69, 70, 71, 72, 73, 74, 75, 76, 77, 78, 79, 80, 81, 82, 83, 84, 85, 86, 87, 88, 89, 90, 91, 92, 93, 94, 95, 96, 97, 98, 99, 100, 101, 102, 103, 104, 105, 106, 107, 108, 109, 110, 111, 112, 113, 114, 115, 116, 117, 118, 119, 120, 121, 122, 123, 124, 125, 126, 127, 128, 129, 130, 131, 132, 133, 134, 135, 136, 137, 138, 139, 140, 141, 142, 143, 144, 145, 146, 147, 148, 149, 150, 151, 152, 153, 154, 155, 156, 157, 158, 159, 160, 161, 162, 163, 164, 165, 166, 167, 168, 169, 170, 171, 172, 173, 174, 175, 176, 177, 178, 179, 180, 181, 182, 183, 184, 185, 186, 187, 188, 189, 190, 191, 192, 193, 194, 195, 196, 197, 198, 199, 200, 201, 202, 203, 204, 205, 206, 207, 208, 209, 210, 211, 212, 213, 214, 215, 216, 217, 218, 219, 220, 221, 222, 223, 224, 225, 226, 227, 228, 229, 230, 231, 232, 233, 234, 235, 236, 237, 238, 239, 240, 241, 242, 243, 244, 245, 246, 247, 248, 249, 250, 251, 252, 253, 254, 255, 256],
      "LargestImagePixelValue": [2981, 2938, 2937, 2938, 2952, 2925, 2927, 2925, 2952, 2938, 2946, 2943, 2966, 2969, 2964, 2955, 2953, 2938, 2930, 2936, 2940, 2946, 2946, 2949, 2949, 2936, 2947, 2930, 2943, 2954, 2945, 2939, 2972, 2948, 2969, 2950, 2937, 2949, 2908, 2919, 2966, 2923, 2947, 2959, 2960, 2963, 2967, 2976, 2963, 2976, 2957, 2923, 2962, 2959, 2949, 2932, 2925, 2955, 2952, 2940, 2917, 2954, 2941, 2953, 2973, 2967, 2910, 2938, 2973, 2964, 3001, 2978, 2954, 2954, 2969, 2984, 2978, 2977, 2921, 2954, 2947, 2954, 2958, 2958, 2948, 2938, 2956, 2942, 2970, 2964, 2964, 2952, 2944, 2993, 2977, 2967, 2943, 2962, 3001, 2990, 2984, 2968, 2972, 2970, 2967, 3011, 2972, 2959, 2943, 2932, 2944, 2965, 2972, 2977, 2951, 2951, 2947, 2960, 2955, 2967, 2981, 2978, 2973, 2968, 2991, 2968, 2962, 2965, 2991, 3001, 2952, 3004, 2990, 2984, 2976, 2972, 2990, 2982, 3007, 2990, 2987, 2973, 2984, 2982, 2978, 2965, 2941, 2990, 2961, 2975, 2954, 2976, 2976, 2986, 2990, 2937, 2940, 2932, 2984, 2961, 2966, 2972, 2966, 2941, 2947, 2972, 2994, 2975, 2988, 2956, 2957, 2948, 2953, 2973, 2972, 2954, 2965, 2946, 2943, 2964, 2960, 2924, 2941, 2947, 2970, 2920, 2937, 2955, 2933, 2972, 2938, 2953, 2972, 2966, 2988, 2994, 2996, 2975, 2950, 2959, 2956, 2986, 2979, 2984, 2953, 2944, 2936, 2952, 2935, 2956, 2924, 2917, 2947, 2943, 2940, 2961, 2932, 2933, 2915, 2916, 2902, 2946, 2919, 2915, 2932, 2917, 2906, 2931, 2889, 2948, 2906, 2980, 2911, 2954, 2937, 2938, 2909, 2958, 2959, 2954, 2925, 2928, 2927, 2922, 2946, 2966, 2922, 2938, 2936, 2945, 2927, 2926, 2917, 2953, 2936, 2917],
      "WindowCenter": [777.0, 775.0, 775.0, 776.0, 775.0, 774.0, 774.0, 775.0, 776.0, 776.0, 777.0, 777.0, 777.0, 777.0, 777.0, 777.0, 776.0, 776.0, 775.0, 776.0, 776.0, 776.0, 775.0, 775.0, 775.0, 776.0, 775.0, 775.0, 774.0, 774.0, 774.0, 775.0, 775.0, 775.0, 775.0, 775.0, 775.0, 776.0, 775.0, 775.0, 775.0, 774.0, 774.0, 775.0, 776.0, 776.0, 776.0, 775.0, 775.0, 776.0, 777.0, 775.0, 775.0, 775.0, 775.0, 774.0, 774.0, 775.0, 775.0, 774.0, 775.0, 775.0, 775.0, 775.0, 776.0, 775.0, 774.0, 774.0, 775.0, 776.0, 777.0, 777.0, 776.0, 776.0, 775.0, 775.0, 776.0, 777.0, 776.0, 775.0, 774.0, 775.0, 775.0, 774.0, 773.0, 772.0, 773.0, 775.0, 776.0, 775.0, 774.0, 774.0, 775.0, 777.0, 776.0, 776.0, 776.0, 776.0, 777.0, 776.0, 776.0, 776.0, 777.0, 776.0, 776.0, 776.0, 776.0, 776.0, 775.0, 774.0, 774.0, 775.0, 776.0, 776.0, 776.0, 776.0, 776.0, 776.0, 776.0, 776.0, 777.0, 777.0, 777.0, 777.0, 778.0, 777.0, 777.0, 777.0, 777.0, 777.0, 776.0, 777.0, 776.0, 776.0, 776.0, 775.0, 776.0, 777.0, 777.0, 776.0, 775.0, 775.0, 775.0, 775.0, 774.0, 774.0, 775.0, 775.0, 775.0, 775.0, 775.0, 776.0, 777.0, 777.0, 777.0, 775.0, 774.0, 774.0, 776.0, 776.0, 776.0, 777.0, 776.0, 775.0, 775.0, 775.0, 776.0, 775.0, 776.0, 775.0, 774.0, 774.0, 775.0, 776.0, 777.0, 776.0, 776.0, 775.0, 775.0, 775.0, 775.0, 775.0, 775.0, 775.0, 775.0, 774.0, 775.0, 774.0, 774.0, 776.0, 776.0, 776.0, 776.0, 776.0, 776.0, 776.0, 777.0, 776.0, 775.0, 775.0, 776.0, 776.0, 776.0, 775.0, 775.0, 775.0, 776.0, 777.0, 776.0, 775.0, 774.0, 775.0, 775.0, 774.0, 774.0, 775.0, 775.0, 775.0, 774.0, 774.0, 774.0, 774.0, 774.0, 773.0, 773.0, 773.0, 774.0, 775.0, 775.0, 776.0, 776.0, 776.0, 774.0, 774.0, 774.0, 775.0, 775.0, 776.0, 776.0, 775.0, 775.0, 774.0, 775.0, 775.0, 775.0, 776.0, 775.0, 774.0, 774.0, 775.0, 775.0, 776.0, 776.0, 776.0, 776.0, 776.0],
      "WindowWidth": [1665.0, 1660.0, 1659.0, 1660.0, 1659.0, 1656.0, 1656.0, 1658.0, 1660.0, 1661.0, 1663.0, 1663.0, 1664.0, 1664.0, 1664.0, 1663.0, 1661.0, 1660.0, 1659.0, 1660.0, 1661.0, 1661.0, 1659.0, 1658.0, 1659.0, 1660.0, 1660.0, 1658.0, 1656.0, 1656.0, 1655.0, 1658.0, 1657.0, 1658.0, 1659.0, 1660.0, 1660.0, 1660.0, 1660.0, 1659.0, 1659.0, 1656.0, 1657.0, 1659.0, 1661.0, 1661.0, 1660.0, 1659.0, 1659.0, 1661.0, 1663.0, 1660.0, 1659.0, 1659.0, 1658.0, 1656.0, 1656.0, 1657.0, 1657.0, 1657.0, 1658.0, 1658.0, 1658.0, 1658.0, 1661.0, 1660.0, 1657.0, 1656.0, 1658.0, 1661.0, 1663.0, 1662.0, 1660.0, 1660.0, 1659.0, 1659.0, 1661.0, 1665.0, 1660.0, 1659.0, 1657.0, 1658.0, 1659.0, 1657.0, 1653.0, 1652.0, 1654.0, 1658.0, 1662.0, 1659.0, 1657.0, 1655.0, 1658.0, 1663.0, 1662.0, 1660.0, 1661.0, 1662.0, 1663.0, 1662.0, 1661.0, 1661.0, 1663.0, 1662.0, 1660.0, 1661.0, 1662.0, 1661.0, 1657.0, 1657.0, 1657.0, 1659.0, 1661.0, 1661.0, 1661.0, 1660.0, 1660.0, 1660.0, 1661.0, 1662.0, 1664.0, 1663.0, 1663.0, 1665.0, 1666.0, 1663.0, 1663.0, 1662.0, 1663.0, 1663.0, 1662.0, 1663.0, 1662.0, 1660.0, 1661.0, 1660.0, 1662.0, 1663.0, 1664.0, 1661.0, 1658.0, 1658.0, 1659.0, 1658.0, 1657.0, 1656.0, 1657.0, 1660.0, 1658.0, 1659.0, 1660.0, 1662.0, 1664.0, 1664.0, 1664.0, 1659.0, 1656.0, 1655.0, 1660.0, 1661.0, 1662.0, 1663.0, 1661.0, 1659.0, 1658.0, 1659.0, 1661.0, 1660.0, 1660.0, 1659.0, 1657.0, 1656.0, 1659.0, 1661.0, 1663.0, 1661.0, 1660.0, 1659.0, 1659.0, 1659.0, 1659.0, 1658.0, 1659.0, 1658.0, 1658.0, 1657.0, 1658.0, 1657.0, 1657.0, 1660.0, 1662.0, 1661.0, 1662.0, 1661.0, 1661.0, 1661.0, 1663.0, 1661.0, 1660.0, 1660.0, 1660.0, 1662.0, 1661.0, 1660.0, 1659.0, 1658.0, 1662.0, 1663.0, 1661.0, 1658.0, 1657.0, 1659.0, 1658.0, 1656.0, 1657.0, 1658.0, 1659.0, 1658.0, 1655.0, 1655.0, 1655.0, 1655.0, 1655.0, 1653.0, 1653.0, 1654.0, 1656.0, 1659.0, 1657.0, 1660.0, 1661.0, 1660.0, 1656.0, 1656.0, 1656.0, 1658.0, 1658.0, 1660.0, 1661.0, 1660.0, 1657.0, 1656.0, 1658.0, 1658.0, 1659.0, 1660.0, 1658.0, 1657.0, 1657.0, 1657.0, 1659.0, 1662.0, 1662.0, 1662.0, 1661.0, 1662.0]
    },
    "slices": {}
  }
}