{
  "AcquisitionMatrixPE": 100,
  "AcquisitionNumber": 1,
  "AcquisitionTime": "12:11:21.137500",
  "BandwidthPerPixelPhaseEncode": 18.519,
  "BaseResolution": 100,
  "BodyPartExamined": "BRAIN",
  "ConsistencyInfo": "N4_VE11C_LATEST_20160120",
  "ConversionSoftware": "dcm2niix",
  "ConversionSoftwareVersion": "v1.0.20180622 GCC4.9.2",
  "DerivedVendorReportedEchoSpacing": 0.000539986,
  "DeviceSerialNumber": "166078",
  "DwellTime": 2.1e-06,
  "EchoTime": 0.034,
  "EchoTrainLength": 100,
  "EffectiveEchoSpacing": 0.000539986,
  "FlipAngle": 90,
  "ImageOrientationPatientDICOM": [1, -0.00011844, -0.000577282, -2.63752e-08, 0.979586, -0.201026],
  "ImageType": [
    "ORIGINAL",
    "PRIMARY",
    "M",
    "ND",
    "MOSAIC"
],
  "InPlanePhaseEncodingDirectionDICOM": "COL",
  "InstitutionAddress": "Street_StreetNo_Bei_Jing_District_CN_ZIP",
  "InstitutionName": "BeiJing_Normal_University",
  "InstitutionalDepartmentName": "Department",
  "MRAcquisitionType": "2D",
  "MagneticFieldStrength": 3,
  "Manufacturer": "Siemens",
  "ManufacturersModelName": "Prisma",
  "Modality": "MR",
  "MultibandAccelerationFactor": 3,
  "PartialFourier": 1,
  "PatientPosition": "HFS",
  "PercentPhaseFOV": 100,
  "PhaseEncodingDirection": "j-",
  "PhaseEncodingSteps": 100,
  "PhaseResolution": 1,
  "PixelBandwidth": 2380,
  "ProcedureStepDescription": "BNU_P2018_64CH_Zhen.ZongLei",
  "ProtocolName": "bold_100x100_s3_2x2x2_static_256",
  "PulseSequenceDetails": "%SiemensSeq%_ep2d_bold",
  "ReceiveCoilActiveElements": "HC1-7;NC1",
  "ReceiveCoilName": "HeadNeck_64",
  "ReconMatrixPE": 100,
  "RepetitionTime": 2,
  "SAR": 0.0877247,
  "ScanOptions": "FS",
  "ScanningSequence": "EP",
  "SequenceName": "_epfid2d1_100",
  "SequenceVariant": "SK",
  "SeriesDescription": "bold_100x100_s3_2x2x2_static_256",
  "SeriesNumber": 11,
  "ShimSetting": [-5467, -11499, -1303, 498, -24, -181, -115, 87],
  "SliceThickness": 2,
  "SliceTiming": [1.485, 0, 0.99, 0.0825, 1.0725, 0.165, 1.155, 0.2475, 1.2375, 0.33, 1.32, 0.4125, 1.4025, 0.5775, 1.5675, 0.66, 1.65, 0.7425, 1.7325, 0.825, 1.815, 0.9075, 1.8975, 0.495, 1.485, 0, 0.99, 0.0825, 1.0725, 0.165, 1.155, 0.2475, 1.2375, 0.33, 1.32, 0.4125, 1.4025, 0.5775, 1.5675, 0.66, 1.65, 0.7425, 1.7325, 0.825, 1.815, 0.9075, 1.8975, 0.495, 1.485, 0, 0.99, 0.0825, 1.0725, 0.165, 1.155, 0.2475, 1.2375, 0.33, 1.32, 0.4125, 1.4025, 0.5775, 1.5675, 0.66, 1.65, 0.7425, 1.7325, 0.825, 1.815, 0.9075, 1.8975, 0.495],
  "SoftwareVersions": "syngo_MR_E11",
  "SpacingBetweenSlices": 2,
  "StationName": "AWP166078",
  "TaskName": "naturalvision",
  "TotalReadoutTime": 0.0534586,
  "TxRefAmp": 237.429,
  "dcmmeta_affine": [
    [-1.9999996423721313, -5.2750447565586e-08, -0.001178613631054759, 100.61858367919922],
    [0.00023688015062361956, 1.9591718912124634, -0.4020516574382782, -79.76741790771484],
    [-0.0011545639717951417, 0.402051717042923, 1.9591715335845947, -100.2239761352539],
    [0.0, 0.0, 0.0, 1.0]
],
  "dcmmeta_reorient_transform": [
    [0.0, -1.0, 0.0, 99.0],
    [1.0, 0.0, 0.0, 0.0],
    [0.0, 0.0, 1.0, 0.0],
    [0.0, 0.0, 0.0, 1.0]
],
  "dcmmeta_shape": [100, 100, 72, 256],
  "dcmmeta_slice_dim": 2,
  "dcmmeta_version": 0.6,
  "global": {
    "const": {
      "AcquisitionMatrix": [100, 0, 0, 100],
      "AngioFlag": "N",
      "BitsAllocated": 16,
      "BitsStored": 12,
      "BodyPartExamined": "BRAIN",
      "Columns": 900,
      "EchoNumbers": 1,
      "EchoTime": 34.0,
      "EchoTrainLength": 100,
      "FlipAngle": 90.0,
      "HighBit": 11,
      "ImageOrientationPatient": [0.99999982635871, -0.0001184400774, -0.0005772819846, -2.6375223e-08, 0.97958593418476, -0.2010258628818],
      "ImagePositionPatient": [-900.61841659855, -897.76459158994, 100.86166125134],
      "ImageType": [
        "ORIGINAL",
        "PRIMARY",
        "M",
        "ND",
        "MOSAIC"
],
      "ImagedNucleus": "1H",
      "ImagingFrequency": 123.25779,
      "InPlanePhaseEncodingDirection": "COL",
      "MRAcquisitionType": "2D",
      "MagneticFieldStrength": 3.0,
      "Manufacturer": "SIEMENS",
      "ManufacturerModelName": "Prisma",
      "Modality": "MR",
      "NumberOfAverages": 1.0,
      "NumberOfPhaseEncodingSteps": 100,
      "PercentPhaseFieldOfView": 100.0,
      "PercentSampling": 100.0,
      "PerformedProcedureStepStartTime": "110629.002000",
      "PhotometricInterpretation": "MONOCHROME2",
      "PixelBandwidth": 2380.0,
      "PixelRepresentation": 0,
      "PixelSpacing": [2.0, 2.0],
      "ProtocolName": "bold_100x100_s3_2x2x2_static_256",
      "RepetitionTime": 2000.0,
      "Rows": 900,
      "SAR": 0.08772471539337,
      "SamplesPerPixel": 1,
      "ScanOptions": "FS",
      "ScanningSequence": "EP",
      "SequenceName": "*epfid2d1_100",
      "SequenceVariant": "SK",
      "SeriesDescription": "bold_100x100_s3_2x2x2_static_256",
      "SeriesNumber": 11,
      "SeriesTime": "121123.549000",
      "SliceLocation": -82.201963446221,
      "SliceThickness": 2.0,
      "SmallestImagePixelValue": 0,
      "SoftwareVersions": "syngo MR E11",
      "SpacingBetweenSlices": 1.9999999851875,
      "SpecificCharacterSet": "ISO_IR 100",
      "StudyID": "1",
      "StudyTime": "110628.913000",
      "TransmitCoilName": "Body",
      "VariableFlipAngleFlag": "N",
      "WindowCenterWidthExplanation": "Algo1",
      "dBdt": 0.0},
    "slices": {}
  },
  "time": {
    "samples": {
      "AcquisitionNumber": [1, 2, 3, 4, 5, 6, 7, 8, 9, 10, 11, 12, 13, 14, 15, 16, 17, 18, 19, 20, 21, 22, 23, 24, 25, 26, 27, 28, 29, 30, 31, 32, 33, 34, 35, 36, 37, 38, 39, 40, 41, 42, 43, 44, 45, 46, 47, 48, 49, 50, 51, 52, 53, 54, 55, 56, 57, 58, 59, 60, 61, 62, 63, 64, 65, 66, 67, 68, 69, 70, 71, 72, 73, 74, 75, 76, 77, 78, 79, 80, 81, 82, 83, 84, 85, 86, 87, 88, 89, 90, 91, 92, 93, 94, 95, 96, 97, 98, 99, 100, 101, 102, 103, 104, 105, 106, 107, 108, 109, 110, 111, 112, 113, 114, 115, 116, 117, 118, 119, 120, 121, 122, 123, 124, 125, 126, 127, 128, 129, 130, 131, 132, 133, 134, 135, 136, 137, 138, 139, 140, 141, 142, 143, 144, 145, 146, 147, 148, 149, 150, 151, 152, 153, 154, 155, 156, 157, 158, 159, 160, 161, 162, 163, 164, 165, 166, 167, 168, 169, 170, 171, 172, 173, 174, 175, 176, 177, 178, 179, 180, 181, 182, 183, 184, 185, 186, 187, 188, 189, 190, 191, 192, 193, 194, 195, 196, 197, 198, 199, 200, 201, 202, 203, 204, 205, 206, 207, 208, 209, 210, 211, 212, 213, 214, 215, 216, 217, 218, 219, 220, 221, 222, 223, 224, 225, 226, 227, 228, 229, 230, 231, 232, 233, 234, 235, 236, 237, 238, 239, 240, 241, 242, 243, 244, 245, 246, 247, 248, 249, 250, 251, 252, 253, 254, 255, 256],
      "AcquisitionTime": ["121121.137500", "121123.137500", "121125.137500", "121127.137500", "121129.137500", "121131.137500", "121133.137500", "121135.137500", "121137.137500", "121139.137500", "121141.137500", "121143.137500", "121145.137500", "121147.137500", "121149.137500", "121151.137500", "121153.137500", "121155.137500", "121157.137500", "121159.137500", "121201.137500", "121203.137500", "121205.137500", "121207.137500", "121209.137500", "121211.137500", "121213.137500", "121215.137500", "121217.137500", "121219.137500", "121221.137500", "121223.137500", "121225.137500", "121227.137500", "121229.137500", "121231.137500", "121233.137500", "121235.137500", "121237.137500", "121239.137500", "121241.137500", "121243.137500", "121245.137500", "121247.137500", "121249.137500", "121251.137500", "121253.137500", "121255.137500", "121257.137500", "121259.137500", "121301.137500", "121303.137500", "121305.137500", "121307.137500", "121309.137500", "121311.137500", "121313.137500", "121315.137500", "121317.137500", "121319.137500", "121321.137500", "121323.137500", "121325.137500", "121327.137500", "121329.137500", "121331.137500", "121333.137500", "121335.137500", "121337.137500", "121339.137500", "121341.137500", "121343.137500", "121345.137500", "121347.137500", "121349.137500", "121351.137500", "121353.137500", "121355.137500", "121357.137500", "121359.137500", "121401.137500", "121403.137500", "121405.137500", "121407.137500", "121409.137500", "121411.137500", "121413.137500", "121415.137500", "121417.137500", "121419.137500", "121421.137500", "121423.137500", "121425.137500", "121427.137500", "121429.137500", "121431.137500", "121433.137500", "121435.137500", "121437.137500", "121439.137500", "121441.137500", "121443.137500", "121445.137500", "121447.137500", "121449.137500", "121451.137500", "121453.137500", "121455.137500", "121457.137500", "121459.137500", "121501.137500", "121503.137500", "121505.137500", "121507.137500", "121509.137500", "121511.137500", "121513.137500", "121515.137500", "121517.137500", "121519.137500", "121521.137500", "121523.137500", "121525.137500", "121527.137500", "121529.137500", "121531.137500", "121533.137500", "121535.137500", "121537.137500", "121539.137500", "121541.137500", "121543.137500", "121545.137500", "121547.137500", "121549.137500", "121551.137500", "121553.137500", "121555.137500", "121557.137500", "121559.137500", "121601.137500", "121603.137500", "121605.137500", "121607.137500", "121609.137500", "121611.137500", "121613.137500", "121615.137500", "121617.137500", "121619.137500", "121621.137500", "121623.137500", "121625.137500", "121627.137500", "121629.137500", "121631.137500", "121633.137500", "121635.137500", "121637.137500", "121639.137500", "121641.137500", "121643.137500", "121645.137500", "121647.137500", "121649.137500", "121651.137500", "121653.137500", "121655.137500", "121657.137500", "121659.137500", "121701.137500", "121703.137500", "121705.137500", "121707.137500", "121709.137500", "121711.137500", "121713.137500", "121715.137500", "121717.137500", "121719.137500", "121721.137500", "121723.137500", "121725.137500", "121727.137500", "121729.137500", "121731.137500", "121733.137500", "121735.137500", "121737.137500", "121739.137500", "121741.137500", "121743.137500", "121745.137500", "121747.137500", "121749.137500", "121751.137500", "121753.137500", "121755.137500", "121757.137500", "121759.137500", "121801.137500", "121803.137500", "121805.137500", "121807.137500", "121809.137500", "121811.137500", "121813.137500", "121815.137500", "121817.137500", "121819.137500", "121821.137500", "121823.137500", "121825.137500", "121827.137500", "121829.137500", "121831.137500", "121833.137500", "121835.137500", "121837.137500", "121839.137500", "121841.137500", "121843.137500", "121845.137500", "121847.137500", "121849.137500", "121851.137500", "121853.137500", "121855.137500", "121857.137500", "121859.137500", "121901.137500", "121903.137500", "121905.137500", "121907.137500", "121909.137500", "121911.137500", "121913.137500", "121915.137500", "121917.137500", "121919.137500", "121921.137500", "121923.137500", "121925.137500", "121927.137500", "121929.137500", "121931.137500", "121933.137500", "121935.137500", "121937.137500", "121939.137500", "121941.137500", "121943.137500", "121945.137500", "121947.137500", "121949.137500", "121951.137500"],
      "ContentTime": ["121123.553000", "121125.048000", "121127.048000", "121129.049000", "121131.048000", "121133.048000", "121135.048000", "121137.048000", "121139.049000", "121141.048000", "121143.048000", "121145.048000", "121147.049000", "121149.048000", "121151.048000", "121153.048000", "121155.048000", "121157.048000", "121159.049000", "121201.049000", "121203.048000", "121205.048000", "121207.048000", "121209.049000", "121211.049000", "121213.048000", "121215.049000", "121217.048000", "121219.049000", "121221.048000", "121223.048000", "121225.048000", "121227.048000", "121229.049000", "121231.048000", "121233.049000", "121235.048000", "121237.048000", "121239.050000", "121241.048000", "121243.048000", "121245.048000", "121247.048000", "121249.048000", "121251.048000", "121253.048000", "121255.049000", "121257.049000", "121259.048000", "121301.048000", "121303.048000", "121305.048000", "121307.048000", "121309.048000", "121311.049000", "121313.048000", "121315.049000", "121317.048000", "121319.048000", "121321.048000", "121323.049000", "121325.048000", "121327.048000", "121329.049000", "121331.050000", "121333.048000", "121335.048000", "121337.048000", "121339.048000", "121341.049000", "121343.049000", "121345.048000", "121347.048000", "121349.049000", "121351.048000", "121353.048000", "121355.049000", "121357.048000", "121359.049000", "121401.049000", "121403.048000", "121405.048000", "121407.049000", "121409.049000", "121411.049000", "121413.049000", "121415.049000", "121417.048000", "121419.048000", "121421.049000", "121423.049000", "121425.049000", "121427.048000", "121429.049000", "121431.049000", "121433.049000", "121435.049000", "121437.048000", "121439.048000", "121441.049000", "121443.049000", "121445.049000", "121447.048000", "121449.049000", "121451.048000", "121453.049000", "121455.048000", "121457.048000", "121459.049000", "121501.048000", "121503.048000", "121505.049000", "121507.048000", "121509.048000", "121511.049000", "121513.048000", "121515.048000", "121517.052000", "121519.048000", "121521.048000", "121523.049000", "121525.048000", "121527.048000", "121529.049000", "121531.049000", "121533.048000", "121535.048000", "121537.048000", "121539.049000", "121541.049000", "121543.048000", "121545.048000", "121547.048000", "121549.048000", "121551.049000", "121553.049000", "121555.049000", "121557.048000", "121559.048000", "121601.049000", "121603.048000", "121605.049000", "121607.048000", "121609.049000", "121611.048000", "121613.048000", "121615.048000", "121617.048000", "121619.049000", "121621.049000", "121623.049000", "121625.048000", "121627.049000", "121629.049000", "121631.048000", "121633.049000", "121635.048000", "121637.048000", "121639.048000", "121641.048000", "121643.049000", "121645.049000", "121647.048000", "121649.048000", "121651.049000", "121653.048000", "121655.048000", "121657.048000", "121659.048000", "121701.049000", "121703.048000", "121705.049000", "121707.048000", "121709.049000", "121711.048000", "121713.049000", "121715.049000", "121717.048000", "121719.049000", "121721.049000", "121723.048000", "121725.048000", "121727.048000", "121729.049000", "121731.049000", "121733.048000", "121735.049000", "121737.049000", "121739.048000", "121741.048000", "121743.048000", "121745.048000", "121747.048000", "121749.049000", "121751.049000", "121753.049000", "121755.048000", "121757.048000", "121759.049000", "121801.049000", "121803.048000", "121805.049000", "121807.048000", "121809.048000", "121811.049000", "121813.049000", "121815.048000", "121817.048000", "121819.048000", "121821.049000", "121823.049000", "121825.049000", "121827.048000", "121829.049000", "121831.049000", "121833.048000", "121835.048000", "121837.048000", "121839.048000", "121841.049000", "121843.049000", "121845.049000", "121847.048000", "121849.049000", "121851.048000", "121853.049000", "121855.049000", "121857.048000", "121859.049000", "121901.049000", "121903.048000", "121905.058000", "121907.048000", "121909.049000", "121911.048000", "121913.048000", "121915.048000", "121917.048000", "121919.049000", "121921.050000", "121923.048000", "121925.049000", "121927.048000", "121929.048000", "121931.049000", "121933.049000", "121935.048000", "121937.048000", "121939.050000", "121941.049000", "121943.048000", "121945.049000", "121947.048000", "121949.049000", "121951.049000", "121952.772000"],
      "InstanceCreationTime": ["121123.553000", "121125.048000", "121127.048000", "121129.049000", "121131.048000", "121133.048000", "121135.048000", "121137.048000", "121139.049000", "121141.048000", "121143.048000", "121145.048000", "121147.049000", "121149.048000", "121151.048000", "121153.048000", "121155.048000", "121157.048000", "121159.049000", "121201.049000", "121203.048000", "121205.048000", "121207.048000", "121209.049000", "121211.049000", "121213.048000", "121215.049000", "121217.048000", "121219.049000", "121221.048000", "121223.048000", "121225.048000", "121227.048000", "121229.049000", "121231.048000", "121233.049000", "121235.048000", "121237.048000", "121239.050000", "121241.048000", "121243.048000", "121245.048000", "121247.048000", "121249.048000", "121251.048000", "121253.048000", "121255.049000", "121257.049000", "121259.048000", "121301.048000", "121303.048000", "121305.048000", "121307.048000", "121309.048000", "121311.049000", "121313.048000", "121315.049000", "121317.048000", "121319.048000", "121321.048000", "121323.049000", "121325.048000", "121327.048000", "121329.049000", "121331.050000", "121333.048000", "121335.048000", "121337.048000", "121339.048000", "121341.049000", "121343.049000", "121345.048000", "121347.048000", "121349.049000", "121351.048000", "121353.048000", "121355.049000", "121357.048000", "121359.049000", "121401.049000", "121403.048000", "121405.048000", "121407.049000", "121409.049000", "121411.049000", "121413.049000", "121415.049000", "121417.048000", "121419.048000", "121421.049000", "121423.049000", "121425.049000", "121427.048000", "121429.049000", "121431.049000", "121433.049000", "121435.049000", "121437.048000", "121439.048000", "121441.049000", "121443.049000", "121445.049000", "121447.048000", "121449.049000", "121451.048000", "121453.049000", "121455.048000", "121457.048000", "121459.049000", "121501.048000", "121503.048000", "121505.049000", "121507.048000", "121509.048000", "121511.049000", "121513.048000", "121515.048000", "121517.052000", "121519.048000", "121521.048000", "121523.049000", "121525.048000", "121527.048000", "121529.049000", "121531.049000", "121533.048000", "121535.048000", "121537.048000", "121539.049000", "121541.049000", "121543.048000", "121545.048000", "121547.048000", "121549.048000", "121551.049000", "121553.049000", "121555.049000", "121557.048000", "121559.048000", "121601.049000", "121603.048000", "121605.049000", "121607.048000", "121609.049000", "121611.048000", "121613.048000", "121615.048000", "121617.048000", "121619.049000", "121621.049000", "121623.049000", "121625.048000", "121627.049000", "121629.049000", "121631.048000", "121633.049000", "121635.048000", "121637.048000", "121639.048000", "121641.048000", "121643.049000", "121645.049000", "121647.048000", "121649.048000", "121651.049000", "121653.048000", "121655.048000", "121657.048000", "121659.048000", "121701.049000", "121703.048000", "121705.049000", "121707.048000", "121709.049000", "121711.048000", "121713.049000", "121715.049000", "121717.048000", "121719.049000", "121721.049000", "121723.048000", "121725.048000", "121727.048000", "121729.049000", "121731.049000", "121733.048000", "121735.049000", "121737.049000", "121739.048000", "121741.048000", "121743.048000", "121745.048000", "121747.048000", "121749.049000", "121751.049000", "121753.049000", "121755.048000", "121757.048000", "121759.049000", "121801.049000", "121803.048000", "121805.049000", "121807.048000", "121809.048000", "121811.049000", "121813.049000", "121815.048000", "121817.048000", "121819.048000", "121821.049000", "121823.049000", "121825.049000", "121827.048000", "121829.049000", "121831.049000", "121833.048000", "121835.048000", "121837.048000", "121839.048000", "121841.049000", "121843.049000", "121845.049000", "121847.048000", "121849.049000", "121851.048000", "121853.049000", "121855.049000", "121857.048000", "121859.049000", "121901.049000", "121903.048000", "121905.058000", "121907.048000", "121909.049000", "121911.048000", "121913.048000", "121915.048000", "121917.048000", "121919.049000", "121921.050000", "121923.048000", "121925.049000", "121927.048000", "121929.048000", "121931.049000", "121933.049000", "121935.048000", "121937.048000", "121939.050000", "121941.049000", "121943.048000", "121945.049000", "121947.048000", "121949.049000", "121951.049000", "121952.772000"],
      "InstanceNumber": [1, 2, 3, 4, 5, 6, 7, 8, 9, 10, 11, 12, 13, 14, 15, 16, 17, 18, 19, 20, 21, 22, 23, 24, 25, 26, 27, 28, 29, 30, 31, 32, 33, 34, 35, 36, 37, 38, 39, 40, 41, 42, 43, 44, 45, 46, 47, 48, 49, 50, 51, 52, 53, 54, 55, 56, 57, 58, 59, 60, 61, 62, 63, 64, 65, 66, 67, 68, 69, 70, 71, 72, 73, 74, 75, 76, 77, 78, 79, 80, 81, 82, 83, 84, 85, 86, 87, 88, 89, 90, 91, 92, 93, 94, 95, 96, 97, 98, 99, 100, 101, 102, 103, 104, 105, 106, 107, 108, 109, 110, 111, 112, 113, 114, 115, 116, 117, 118, 119, 120, 121, 122, 123, 124, 125, 126, 127, 128, 129, 130, 131, 132, 133, 134, 135, 136, 137, 138, 139, 140, 141, 142, 143, 144, 145, 146, 147, 148, 149, 150, 151, 152, 153, 154, 155, 156, 157, 158, 159, 160, 161, 162, 163, 164, 165, 166, 167, 168, 169, 170, 171, 172, 173, 174, 175, 176, 177, 178, 179, 180, 181, 182, 183, 184, 185, 186, 187, 188, 189, 190, 191, 192, 193, 194, 195, 196, 197, 198, 199, 200, 201, 202, 203, 204, 205, 206, 207, 208, 209, 210, 211, 212, 213, 214, 215, 216, 217, 218, 219, 220, 221, 222, 223, 224, 225, 226, 227, 228, 229, 230, 231, 232, 233, 234, 235, 236, 237, 238, 239, 240, 241, 242, 243, 244, 245, 246, 247, 248, 249, 250, 251, 252, 253, 254, 255, 256],
      "LargestImagePixelValue": [2972, 2931, 2891, 2884, 2855, 2901, 2897, 2928, 2911, 2913, 2930, 2891, 2845, 2868, 2879, 2865, 2863, 2866, 2870, 2853, 2843, 2854, 2826, 2862, 2848, 2836, 2838, 2878, 2894, 2851, 2860, 2838, 2858, 2875, 2866, 2855, 2843, 2829, 2854, 2814, 2846, 2852, 2835, 2851, 2870, 2848, 2843, 2835, 2843, 2842, 2804, 2833, 2855, 2842, 2859, 2839, 2818, 2843, 2846, 2847, 2841, 2850, 2847, 2837, 2833, 2853, 2838, 2846, 2855, 2863, 2857, 2852, 2836, 2840, 2829, 2862, 2869, 2846, 2827, 2827, 2845, 2861, 2860, 2863, 2873, 2819, 2848, 2842, 2858, 2874, 2869, 2870, 2899, 2879, 2882, 2832, 2849, 2838, 2816, 2840, 2834, 2859, 2866, 2844, 2810, 2848, 2864, 2817, 2835, 2835, 2841, 2853, 2843, 2857, 2874, 2882, 2878, 2880, 2831, 2845, 2881, 2839, 2856, 2861, 2836, 2853, 2869, 2839, 2831, 2836, 2825, 2843, 2847, 2835, 2877, 2840, 2844, 2850, 2833, 2862, 2841, 2879, 2873, 2859, 2881, 2837, 2845, 2858, 2840, 2829, 2862, 2839, 2866, 2884, 2847, 2866, 2845, 2839, 2829, 2851, 2848, 2842, 2854, 2828, 2874, 2849, 2860, 2831, 2863, 2847, 2818, 2831, 2857, 2864, 2853, 2877, 2861, 2882, 2851, 2854, 2847, 2888, 2864, 2853, 2842, 2858, 2842, 2867, 2899, 2897, 2859, 2873, 2844, 2868, 2872, 2876, 2899, 2891, 2881, 2860, 2862, 2847, 2866, 2857, 2860, 2893, 2845, 2889, 2886, 2910, 2892, 2844, 2876, 2887, 2853, 2826, 2859, 2824, 2839, 2836, 2852, 2858, 2871, 2845, 2864, 2865, 2863, 2855, 2870, 2840, 2847, 2832, 2864, 2867, 2854, 2899, 2883, 2894, 2890, 2857, 2898, 2871, 2902, 2844, 2867, 2883, 2839, 2849, 2886, 2911, 2875, 2900, 2909, 2892, 2919, 2878],
      "WindowCenter": [776.0, 775.0, 775.0, 775.0, 775.0, 776.0, 775.0, 776.0, 775.0, 776.0, 777.0, 776.0, 775.0, 775.0, 774.0, 774.0, 773.0, 773.0, 773.0, 773.0, 772.0, 771.0, 770.0, 771.0, 771.0, 772.0, 772.0, 772.0, 771.0, 771.0, 772.0, 772.0, 772.0, 771.0, 772.0, 772.0, 772.0, 772.0, 772.0, 772.0, 773.0, 772.0, 772.0, 772.0, 773.0, 773.0, 773.0, 773.0, 773.0, 772.0, 771.0, 770.0, 771.0, 772.0, 773.0, 772.0, 771.0, 771.0, 771.0, 772.0, 773.0, 772.0, 771.0, 771.0, 771.0, 772.0, 771.0, 771.0, 771.0, 771.0, 771.0, 771.0, 772.0, 772.0, 773.0, 773.0, 773.0, 773.0, 772.0, 772.0, 773.0, 773.0, 773.0, 772.0, 772.0, 772.0, 773.0, 773.0, 772.0, 772.0, 772.0, 773.0, 772.0, 772.0, 772.0, 772.0, 772.0, 772.0, 771.0, 772.0, 772.0, 773.0, 772.0, 771.0, 772.0, 772.0, 773.0, 771.0, 771.0, 771.0, 771.0, 772.0, 773.0, 773.0, 773.0, 773.0, 773.0, 773.0, 773.0, 773.0, 775.0, 774.0, 773.0, 771.0, 771.0, 772.0, 773.0, 771.0, 770.0, 770.0, 771.0, 771.0, 772.0, 772.0, 772.0, 772.0, 772.0, 773.0, 773.0, 773.0, 773.0, 774.0, 774.0, 773.0, 773.0, 773.0, 773.0, 773.0, 772.0, 772.0, 773.0, 773.0, 773.0, 774.0, 773.0, 773.0, 773.0, 773.0, 772.0, 772.0, 772.0, 772.0, 773.0, 772.0, 773.0, 772.0, 773.0, 774.0, 774.0, 773.0, 773.0, 773.0, 774.0, 774.0, 774.0, 773.0, 774.0, 775.0, 774.0, 773.0, 773.0, 773.0, 774.0, 774.0, 773.0, 773.0, 773.0, 774.0, 774.0, 774.0, 774.0, 774.0, 773.0, 774.0, 774.0, 774.0, 775.0, 775.0, 775.0, 774.0, 773.0, 772.0, 773.0, 773.0, 774.0, 774.0, 772.0, 772.0, 773.0, 774.0, 775.0, 773.0, 773.0, 772.0, 772.0, 771.0, 772.0, 772.0, 772.0, 772.0, 772.0, 772.0, 772.0, 772.0, 771.0, 771.0, 772.0, 772.0, 773.0, 772.0, 772.0, 772.0, 772.0, 771.0, 772.0, 772.0, 772.0, 774.0, 777.0, 775.0, 775.0, 774.0, 773.0, 772.0, 772.0, 772.0, 772.0, 773.0, 774.0, 774.0, 773.0, 773.0, 774.0, 775.0, 775.0, 774.0],
      "WindowWidth": [1661.0, 1659.0, 1658.0, 1659.0, 1660.0, 1661.0, 1660.0, 1661.0, 1660.0, 1661.0, 1664.0, 1663.0, 1660.0, 1659.0, 1657.0, 1657.0, 1655.0, 1654.0, 1655.0, 1655.0, 1653.0, 1650.0, 1648.0, 1650.0, 1650.0, 1651.0, 1652.0, 1651.0, 1650.0, 1650.0, 1651.0, 1651.0, 1650.0, 1650.0, 1652.0, 1651.0, 1652.0, 1652.0, 1652.0, 1652.0, 1654.0, 1653.0, 1651.0, 1652.0, 1653.0, 1654.0, 1654.0, 1654.0, 1655.0, 1652.0, 1648.0, 1647.0, 1648.0, 1651.0, 1653.0, 1652.0, 1649.0, 1649.0, 1650.0, 1652.0, 1653.0, 1651.0, 1649.0, 1649.0, 1650.0, 1651.0, 1650.0, 1649.0, 1649.0, 1649.0, 1649.0, 1650.0, 1651.0, 1653.0, 1654.0, 1655.0, 1654.0, 1654.0, 1653.0, 1652.0, 1654.0, 1655.0, 1653.0, 1651.0, 1651.0, 1651.0, 1655.0, 1653.0, 1652.0, 1652.0, 1652.0, 1654.0, 1653.0, 1651.0, 1652.0, 1652.0, 1653.0, 1651.0, 1649.0, 1651.0, 1653.0, 1654.0, 1652.0, 1650.0, 1651.0, 1653.0, 1654.0, 1650.0, 1649.0, 1649.0, 1650.0, 1652.0, 1653.0, 1654.0, 1655.0, 1655.0, 1654.0, 1653.0, 1654.0, 1655.0, 1658.0, 1655.0, 1653.0, 1649.0, 1649.0, 1652.0, 1653.0, 1649.0, 1647.0, 1647.0, 1648.0, 1650.0, 1651.0, 1651.0, 1652.0, 1651.0, 1652.0, 1655.0, 1655.0, 1655.0, 1655.0, 1656.0, 1657.0, 1655.0, 1655.0, 1654.0, 1654.0, 1654.0, 1652.0, 1652.0, 1655.0, 1654.0, 1654.0, 1655.0, 1654.0, 1654.0, 1654.0, 1653.0, 1651.0, 1650.0, 1651.0, 1652.0, 1653.0, 1652.0, 1652.0, 1653.0, 1654.0, 1656.0, 1657.0, 1654.0, 1654.0, 1655.0, 1656.0, 1655.0, 1656.0, 1655.0, 1656.0, 1657.0, 1657.0, 1655.0, 1653.0, 1654.0, 1655.0, 1655.0, 1653.0, 1652.0, 1653.0, 1656.0, 1657.0, 1657.0, 1656.0, 1656.0, 1655.0, 1656.0, 1657.0, 1656.0, 1658.0, 1659.0, 1659.0, 1655.0, 1652.0, 1651.0, 1653.0, 1654.0, 1656.0, 1655.0, 1652.0, 1652.0, 1655.0, 1657.0, 1658.0, 1654.0, 1653.0, 1651.0, 1650.0, 1649.0, 1652.0, 1651.0, 1652.0, 1652.0, 1652.0, 1652.0, 1652.0, 1650.0, 1649.0, 1649.0, 1650.0, 1652.0, 1654.0, 1652.0, 1650.0, 1650.0, 1650.0, 1650.0, 1650.0, 1651.0, 1652.0, 1657.0, 1663.0, 1660.0, 1659.0, 1655.0, 1653.0, 1650.0, 1652.0, 1652.0, 1651.0, 1654.0, 1658.0, 1656.0, 1654.0, 1654.0, 1657.0, 1657.0, 1658.0, 1657.0]
    },
    "slices": {}
  }
}