{
 "AcquisitionMatrixPE": 100,
 "AcquisitionNumber": 1,
 "AcquisitionTime": "13:17:4.515000",
 "BandwidthPerPixelPhaseEncode": 18.519,
 "BaseResolution": 100,
 "BodyPartExamined": "BRAIN",
 "ConsistencyInfo": "N4_VE11C_LATEST_20160120",
 "ConversionSoftware": "dcm2niix",
 "ConversionSoftwareVersion": "v1.0.20180622 GCC4.9.2",
 "DerivedVendorReportedEchoSpacing": 0.000539986,
 "DeviceSerialNumber": "166078",
 "DwellTime": 2.1e-06,
 "EchoTime": 0.034,
 "EchoTrainLength": 100,
 "EffectiveEchoSpacing": 0.000539986,
 "FlipAngle": 90,
 "ImageOrientationPatientDICOM": [
  1,
  0,
  0,
  0,
  0.985109,
  -0.171929
 ],
 "ImageType": [
  "ORIGINAL",
  "PRIMARY",
  "M",
  "ND",
  "MOSAIC"
 ],
 "InPlanePhaseEncodingDirectionDICOM": "COL",
 "InstitutionAddress": "Street_StreetNo_Bei_Jing_District_CN_ZIP",
 "InstitutionName": "BeiJing_Normal_University",
 "InstitutionalDepartmentName": "Department",
 "MRAcquisitionType": "2D",
 "MagneticFieldStrength": 3,
 "Manufacturer": "Siemens",
 "ManufacturersModelName": "Prisma",
 "Modality": "MR",
 "MultibandAccelerationFactor": 3,
 "PartialFourier": 1,
 "PatientPosition": "HFS",
 "PercentPhaseFOV": 100,
 "PhaseEncodingDirection": "j-",
 "PhaseEncodingSteps": 100,
 "PhaseResolution": 1,
 "PixelBandwidth": 2380,
 "ProcedureStepDescription": "BNU_P2018_64CH_Zhen.ZongLei",
 "ProtocolName": "bold_100x100_s3_2x2x2_retino_150",
 "PulseSequenceDetails": "%SiemensSeq%_ep2d_bold",
 "ReceiveCoilActiveElements": "HC1-7;NC1",
 "ReceiveCoilName": "HeadNeck_64",
 "ReconMatrixPE": 100,
 "RepetitionTime": 2,
 "SAR": 0.0841872,
 "ScanOptions": "FS",
 "ScanningSequence": "EP",
 "SequenceName": "_epfid2d1_100",
 "SequenceVariant": "SK",
 "SeriesDescription": "bold_100x100_s3_2x2x2_retino_150",
 "SeriesNumber": 11,
 "ShimSetting": [
  -5481,
  -11509,
  -1252,
  521,
  -54,
  -236,
  -148,
  128
 ],
 "SliceThickness": 2,
 "SliceTiming": [
  1.485,
  0,
  0.99,
  0.0825,
  1.0725,
  0.165,
  1.155,
  0.2475,
  1.2375,
  0.33,
  1.32,
  0.4125,
  1.4025,
  0.5775,
  1.565,
  0.66,
  1.6475,
  0.7425,
  1.73,
  0.825,
  1.8125,
  0.9075,
  1.895,
  0.495,
  1.485,
  0,
  0.99,
  0.0825,
  1.0725,
  0.165,
  1.155,
  0.2475,
  1.2375,
  0.33,
  1.32,
  0.4125,
  1.4025,
  0.5775,
  1.565,
  0.66,
  1.6475,
  0.7425,
  1.73,
  0.825,
  1.8125,
  0.9075,
  1.895,
  0.495,
  1.485,
  0,
  0.99,
  0.0825,
  1.0725,
  0.165,
  1.155,
  0.2475,
  1.2375,
  0.33,
  1.32,
  0.4125,
  1.4025,
  0.5775,
  1.565,
  0.66,
  1.6475,
  0.7425,
  1.73,
  0.825,
  1.8125,
  0.9075,
  1.895,
  0.495
 ],
 "SoftwareVersions": "syngo_MR_E11",
 "SpacingBetweenSlices": 2,
 "StationName": "AWP166078",
 "TaskName": "prf",
 "TotalReadoutTime": 0.0534586,
 "TxRefAmp": 230.376,
 "dcmmeta_affine": [
  [
   -2.0,
   0.0,
   0.0,
   102.02409362792969
  ],
  [
   0.0,
   1.9702186584472656,
   -0.34385818243026733,
   -84.04940795898438
  ],
  [
   0.0,
   0.3438582122325897,
   1.9702186584472656,
   -83.70747375488281
  ],
  [
   0.0,
   0.0,
   0.0,
   1.0
  ]
 ],
 "dcmmeta_reorient_transform": [
  [
   0.0,
   -1.0,
   0.0,
   99.0
  ],
  [
   1.0,
   0.0,
   0.0,
   0.0
  ],
  [
   0.0,
   0.0,
   1.0,
   0.0
  ],
  [
   0.0,
   0.0,
   0.0,
   1.0
  ]
 ],
 "dcmmeta_shape": [
  100,
  100,
  72,
  150
 ],
 "dcmmeta_slice_dim": 2,
 "dcmmeta_version": 0.6,
 "global": {
  "const": {
   "AcquisitionMatrix": [
    100,
    0,
    0,
    100
   ],
   "AngioFlag": "N",
   "BitsAllocated": 16,
   "BitsStored": 12,
   "BodyPartExamined": "BRAIN",
   "Columns": 900,
   "EchoNumbers": 1,
   "EchoTime": 34.0,
   "EchoTrainLength": 100,
   "FlipAngle": 90.0,
   "HighBit": 11,
   "ImageOrientationPatient": [
    1.0,
    0.0,
    0.0,
    0.0,
    0.98510932620277,
    -0.1719291000044
   ],
   "ImagePositionPatient": [
    -902.02409648895,
    -899.0896970264,
    87.877768678303
   ],
   "ImageType": [
    "ORIGINAL",
    "PRIMARY",
    "M",
    "ND",
    "MOSAIC"
   ],
   "ImagedNucleus": "1H",
   "ImagingFrequency": 123.257751,
   "InPlanePhaseEncodingDirection": "COL",
   "MRAcquisitionType": "2D",
   "MagneticFieldStrength": 3.0,
   "Manufacturer": "SIEMENS",
   "ManufacturerModelName": "Prisma",
   "Modality": "MR",
   "NumberOfAverages": 1.0,
   "NumberOfPhaseEncodingSteps": 100,
   "PercentPhaseFieldOfView": 100.0,
   "PercentSampling": 100.0,
   "PerformedProcedureStepStartTime": "121324.353000",
   "PhotometricInterpretation": "MONOCHROME2",
   "PixelBandwidth": 2380.0,
   "PixelRepresentation": 0,
   "PixelSpacing": [
    2.0,
    2.0
   ],
   "ProtocolName": "bold_100x100_s3_2x2x2_retino_150",
   "RepetitionTime": 2000.0,
   "Rows": 900,
   "SAR": 0.08418718233249,
   "SamplesPerPixel": 1,
   "ScanOptions": "FS",
   "ScanningSequence": "EP",
   "SequenceName": "*epfid2d1_100",
   "SequenceVariant": "SK",
   "SeriesDescription": "bold_100x100_s3_2x2x2_retino_150",
   "SeriesNumber": 11,
   "SeriesTime": "131707.074000",
   "SliceLocation": -68.010472942118,
   "SliceThickness": 2.0,
   "SmallestImagePixelValue": 0,
   "SoftwareVersions": "syngo MR E11",
   "SpacingBetweenSlices": 1.9999999521664,
   "SpecificCharacterSet": "ISO_IR 100",
   "StudyID": "1",
   "StudyTime": "121324.253000",
   "TransmitCoilName": "Body",
   "VariableFlipAngleFlag": "N",
   "WindowCenterWidthExplanation": "Algo1",
   "dBdt": 0.0
  },
  "slices": {}
 },
 "time": {
  "samples": {
   "AcquisitionNumber": [
    1,
    2,
    3,
    4,
    5,
    6,
    7,
    8,
    9,
    10,
    11,
    12,
    13,
    14,
    15,
    16,
    17,
    18,
    19,
    20,
    21,
    22,
    23,
    24,
    25,
    26,
    27,
    28,
    29,
    30,
    31,
    32,
    33,
    34,
    35,
    36,
    37,
    38,
    39,
    40,
    41,
    42,
    43,
    44,
    45,
    46,
    47,
    48,
    49,
    50,
    51,
    52,
    53,
    54,
    55,
    56,
    57,
    58,
    59,
    60,
    61,
    62,
    63,
    64,
    65,
    66,
    67,
    68,
    69,
    70,
    71,
    72,
    73,
    74,
    75,
    76,
    77,
    78,
    79,
    80,
    81,
    82,
    83,
    84,
    85,
    86,
    87,
    88,
    89,
    90,
    91,
    92,
    93,
    94,
    95,
    96,
    97,
    98,
    99,
    100,
    101,
    102,
    103,
    104,
    105,
    106,
    107,
    108,
    109,
    110,
    111,
    112,
    113,
    114,
    115,
    116,
    117,
    118,
    119,
    120,
    121,
    122,
    123,
    124,
    125,
    126,
    127,
    128,
    129,
    130,
    131,
    132,
    133,
    134,
    135,
    136,
    137,
    138,
    139,
    140,
    141,
    142,
    143,
    144,
    145,
    146,
    147,
    148,
    149,
    150
   ],
   "AcquisitionTime": [
    "131704.515000",
    "131706.515000",
    "131708.515000",
    "131710.515000",
    "131712.515000",
    "131714.515000",
    "131716.515000",
    "131718.515000",
    "131720.515000",
    "131722.515000",
    "131724.515000",
    "131726.515000",
    "131728.515000",
    "131730.515000",
    "131732.515000",
    "131734.515000",
    "131736.515000",
    "131738.515000",
    "131740.515000",
    "131742.515000",
    "131744.515000",
    "131746.515000",
    "131748.515000",
    "131750.515000",
    "131752.515000",
    "131754.515000",
    "131756.515000",
    "131758.515000",
    "131800.515000",
    "131802.515000",
    "131804.515000",
    "131806.515000",
    "131808.515000",
    "131810.515000",
    "131812.515000",
    "131814.515000",
    "131816.515000",
    "131818.515000",
    "131820.515000",
    "131822.515000",
    "131824.515000",
    "131826.515000",
    "131828.515000",
    "131830.515000",
    "131832.515000",
    "131834.515000",
    "131836.515000",
    "131838.515000",
    "131840.515000",
    "131842.515000",
    "131844.515000",
    "131846.515000",
    "131848.515000",
    "131850.515000",
    "131852.515000",
    "131854.515000",
    "131856.515000",
    "131858.515000",
    "131900.515000",
    "131902.515000",
    "131904.515000",
    "131906.515000",
    "131908.515000",
    "131910.515000",
    "131912.515000",
    "131914.515000",
    "131916.515000",
    "131918.515000",
    "131920.515000",
    "131922.515000",
    "131924.515000",
    "131926.515000",
    "131928.515000",
    "131930.515000",
    "131932.515000",
    "131934.515000",
    "131936.515000",
    "131938.515000",
    "131940.515000",
    "131942.515000",
    "131944.515000",
    "131946.515000",
    "131948.515000",
    "131950.515000",
    "131952.515000",
    "131954.515000",
    "131956.515000",
    "131958.515000",
    "132000.515000",
    "132002.515000",
    "132004.515000",
    "132006.515000",
    "132008.515000",
    "132010.515000",
    "132012.515000",
    "132014.515000",
    "132016.515000",
    "132018.515000",
    "132020.515000",
    "132022.515000",
    "132024.515000",
    "132026.515000",
    "132028.515000",
    "132030.515000",
    "132032.515000",
    "132034.515000",
    "132036.515000",
    "132038.515000",
    "132040.515000",
    "132042.515000",
    "132044.515000",
    "132046.515000",
    "132048.515000",
    "132050.515000",
    "132052.515000",
    "132054.515000",
    "132056.515000",
    "132058.515000",
    "132100.515000",
    "132102.515000",
    "132104.515000",
    "132106.515000",
    "132108.515000",
    "132110.515000",
    "132112.515000",
    "132114.515000",
    "132116.515000",
    "132118.515000",
    "132120.515000",
    "132122.515000",
    "132124.515000",
    "132126.515000",
    "132128.515000",
    "132130.515000",
    "132132.515000",
    "132134.515000",
    "132136.515000",
    "132138.515000",
    "132140.515000",
    "132142.515000",
    "132144.515000",
    "132146.515000",
    "132148.515000",
    "132150.515000",
    "132152.515000",
    "132154.515000",
    "132156.515000",
    "132158.515000",
    "132200.515000",
    "132202.515000"
   ],
   "ContentTime": [
    "131707.078000",
    "131709.073000",
    "131711.074000",
    "131713.073000",
    "131714.573000",
    "131716.574000",
    "131719.074000",
    "131721.075000",
    "131723.074000",
    "131724.573000",
    "131727.073000",
    "131728.573000",
    "131731.074000",
    "131732.574000",
    "131734.573000",
    "131736.574000",
    "131738.574000",
    "131741.074000",
    "131743.074000",
    "131745.074000",
    "131746.573000",
    "131749.074000",
    "131751.074000",
    "131753.074000",
    "131754.574000",
    "131757.075000",
    "131758.574000",
    "131800.574000",
    "131803.073000",
    "131804.574000",
    "131806.573000",
    "131808.573000",
    "131810.573000",
    "131812.574000",
    "131814.575000",
    "131816.573000",
    "131818.573000",
    "131821.073000",
    "131823.073000",
    "131825.074000",
    "131826.574000",
    "131828.573000",
    "131830.574000",
    "131832.574000",
    "131834.573000",
    "131837.073000",
    "131839.074000",
    "131840.573000",
    "131843.073000",
    "131845.074000",
    "131847.074000",
    "131848.574000",
    "131850.574000",
    "131853.073000",
    "131855.073000",
    "131856.573000",
    "131859.073000",
    "131900.573000",
    "131902.574000",
    "131904.573000",
    "131907.074000",
    "131908.574000",
    "131910.573000",
    "131912.574000",
    "131914.573000",
    "131916.573000",
    "131918.573000",
    "131921.073000",
    "131922.573000",
    "131924.574000",
    "131927.074000",
    "131928.574000",
    "131930.573000",
    "131932.574000",
    "131934.573000",
    "131937.074000",
    "131939.074000",
    "131940.574000",
    "131942.575000",
    "131945.074000",
    "131947.074000",
    "131949.073000",
    "131951.073000",
    "131952.574000",
    "131954.573000",
    "131957.073000",
    "131959.075000",
    "132001.075000",
    "132002.573000",
    "132005.074000",
    "132007.073000",
    "132008.573000",
    "132011.073000",
    "132013.074000",
    "132014.574000",
    "132016.574000",
    "132019.073000",
    "132020.574000",
    "132022.574000",
    "132024.574000",
    "132026.573000",
    "132029.073000",
    "132030.574000",
    "132032.573000",
    "132035.075000",
    "132036.574000",
    "132038.574000",
    "132041.073000",
    "132042.573000",
    "132044.573000",
    "132047.074000",
    "132048.573000",
    "132050.575000",
    "132053.075000",
    "132054.574000",
    "132057.073000",
    "132059.073000",
    "132101.073000",
    "132103.073000",
    "132105.073000",
    "132107.073000",
    "132108.575000",
    "132111.075000",
    "132112.573000",
    "132114.573000",
    "132117.074000",
    "132118.573000",
    "132120.573000",
    "132122.574000",
    "132125.073000",
    "132126.575000",
    "132129.073000",
    "132131.105000",
    "132133.073000",
    "132135.073000",
    "132137.073000",
    "132139.074000",
    "132141.073000",
    "132143.074000",
    "132144.574000",
    "132147.073000",
    "132149.074000",
    "132150.573000",
    "132152.573000",
    "132155.073000",
    "132156.573000",
    "132159.074000",
    "132200.574000",
    "132202.575000",
    "132204.570000"
   ],
   "InstanceCreationTime": [
    "131707.078000",
    "131709.073000",
    "131711.074000",
    "131713.073000",
    "131714.573000",
    "131716.574000",
    "131719.074000",
    "131721.075000",
    "131723.074000",
    "131724.573000",
    "131727.073000",
    "131728.573000",
    "131731.074000",
    "131732.574000",
    "131734.573000",
    "131736.574000",
    "131738.574000",
    "131741.074000",
    "131743.074000",
    "131745.074000",
    "131746.573000",
    "131749.074000",
    "131751.074000",
    "131753.074000",
    "131754.574000",
    "131757.075000",
    "131758.574000",
    "131800.574000",
    "131803.073000",
    "131804.574000",
    "131806.573000",
    "131808.573000",
    "131810.573000",
    "131812.574000",
    "131814.575000",
    "131816.573000",
    "131818.573000",
    "131821.073000",
    "131823.073000",
    "131825.074000",
    "131826.574000",
    "131828.573000",
    "131830.574000",
    "131832.574000",
    "131834.573000",
    "131837.073000",
    "131839.074000",
    "131840.573000",
    "131843.073000",
    "131845.074000",
    "131847.074000",
    "131848.574000",
    "131850.574000",
    "131853.073000",
    "131855.073000",
    "131856.573000",
    "131859.073000",
    "131900.573000",
    "131902.574000",
    "131904.573000",
    "131907.074000",
    "131908.574000",
    "131910.573000",
    "131912.574000",
    "131914.573000",
    "131916.573000",
    "131918.573000",
    "131921.073000",
    "131922.573000",
    "131924.574000",
    "131927.074000",
    "131928.574000",
    "131930.573000",
    "131932.574000",
    "131934.573000",
    "131937.074000",
    "131939.074000",
    "131940.574000",
    "131942.575000",
    "131945.074000",
    "131947.074000",
    "131949.073000",
    "131951.073000",
    "131952.574000",
    "131954.573000",
    "131957.073000",
    "131959.075000",
    "132001.075000",
    "132002.573000",
    "132005.074000",
    "132007.073000",
    "132008.573000",
    "132011.073000",
    "132013.074000",
    "132014.574000",
    "132016.574000",
    "132019.073000",
    "132020.574000",
    "132022.574000",
    "132024.574000",
    "132026.573000",
    "132029.073000",
    "132030.574000",
    "132032.573000",
    "132035.075000",
    "132036.574000",
    "132038.574000",
    "132041.073000",
    "132042.573000",
    "132044.573000",
    "132047.074000",
    "132048.573000",
    "132050.575000",
    "132053.075000",
    "132054.574000",
    "132057.073000",
    "132059.073000",
    "132101.073000",
    "132103.073000",
    "132105.073000",
    "132107.073000",
    "132108.575000",
    "132111.075000",
    "132112.573000",
    "132114.573000",
    "132117.074000",
    "132118.573000",
    "132120.573000",
    "132122.574000",
    "132125.073000",
    "132126.575000",
    "132129.073000",
    "132131.105000",
    "132133.073000",
    "132135.073000",
    "132137.073000",
    "132139.074000",
    "132141.073000",
    "132143.074000",
    "132144.574000",
    "132147.073000",
    "132149.074000",
    "132150.573000",
    "132152.573000",
    "132155.073000",
    "132156.573000",
    "132159.074000",
    "132200.574000",
    "132202.575000",
    "132204.570000"
   ],
   "InstanceNumber": [
    1,
    2,
    3,
    4,
    5,
    6,
    7,
    8,
    9,
    10,
    11,
    12,
    13,
    14,
    15,
    16,
    17,
    18,
    19,
    20,
    21,
    22,
    23,
    24,
    25,
    26,
    27,
    28,
    29,
    30,
    31,
    32,
    33,
    34,
    35,
    36,
    37,
    38,
    39,
    40,
    41,
    42,
    43,
    44,
    45,
    46,
    47,
    48,
    49,
    50,
    51,
    52,
    53,
    54,
    55,
    56,
    57,
    58,
    59,
    60,
    61,
    62,
    63,
    64,
    65,
    66,
    67,
    68,
    69,
    70,
    71,
    72,
    73,
    74,
    75,
    76,
    77,
    78,
    79,
    80,
    81,
    82,
    83,
    84,
    85,
    86,
    87,
    88,
    89,
    90,
    91,
    92,
    93,
    94,
    95,
    96,
    97,
    98,
    99,
    100,
    101,
    102,
    103,
    104,
    105,
    106,
    107,
    108,
    109,
    110,
    111,
    112,
    113,
    114,
    115,
    116,
    117,
    118,
    119,
    120,
    121,
    122,
    123,
    124,
    125,
    126,
    127,
    128,
    129,
    130,
    131,
    132,
    133,
    134,
    135,
    136,
    137,
    138,
    139,
    140,
    141,
    142,
    143,
    144,
    145,
    146,
    147,
    148,
    149,
    150
   ],
   "LargestImagePixelValue": [
    3281,
    3248,
    3185,
    3173,
    3169,
    3160,
    3112,
    3100,
    3051,
    3047,
    3143,
    3202,
    3185,
    3159,
    3158,
    3152,
    3148,
    3128,
    3138,
    3093,
    3043,
    3071,
    2996,
    3061,
    3056,
    3108,
    3151,
    3155,
    3212,
    3236,
    3235,
    3228,
    3238,
    3231,
    3174,
    3111,
    3072,
    3080,
    3059,
    3071,
    3078,
    3060,
    3054,
    3099,
    3055,
    3063,
    3063,
    3099,
    3090,
    3130,
    3144,
    3122,
    3138,
    3096,
    3058,
    3115,
    3064,
    3088,
    3104,
    3097,
    3136,
    3133,
    3137,
    3089,
    3050,
    3031,
    3032,
    3049,
    3051,
    3092,
    3105,
    3062,
    3046,
    3041,
    2991,
    3031,
    3048,
    2974,
    2972,
    3016,
    3026,
    3032,
    3013,
    3041,
    2993,
    2976,
    3033,
    3058,
    3026,
    3086,
    3072,
    3074,
    3064,
    3074,
    3090,
    3066,
    3035,
    2987,
    3058,
    3051,
    3020,
    3018,
    2990,
    2978,
    2979,
    2991,
    2970,
    2991,
    3019,
    3004,
    2972,
    2993,
    2967,
    2942,
    2973,
    2955,
    2979,
    3029,
    3031,
    3011,
    3010,
    3017,
    3021,
    3050,
    2993,
    2988,
    3002,
    2998,
    3037,
    3053,
    3051,
    3012,
    3058,
    3040,
    3006,
    3029,
    3012,
    3012,
    3010,
    3009,
    3001,
    2991,
    3042,
    3042,
    2979,
    2958,
    2978,
    3007,
    3005,
    2996
   ],
   "WindowCenter": [
    794.0,
    792.0,
    791.0,
    790.0,
    790.0,
    789.0,
    788.0,
    787.0,
    786.0,
    786.0,
    788.0,
    789.0,
    789.0,
    788.0,
    788.0,
    788.0,
    789.0,
    788.0,
    789.0,
    787.0,
    786.0,
    787.0,
    787.0,
    786.0,
    787.0,
    788.0,
    789.0,
    789.0,
    790.0,
    790.0,
    789.0,
    789.0,
    790.0,
    790.0,
    789.0,
    787.0,
    787.0,
    786.0,
    786.0,
    786.0,
    786.0,
    786.0,
    786.0,
    787.0,
    787.0,
    787.0,
    787.0,
    787.0,
    787.0,
    788.0,
    788.0,
    788.0,
    787.0,
    787.0,
    787.0,
    787.0,
    787.0,
    787.0,
    787.0,
    786.0,
    787.0,
    787.0,
    787.0,
    787.0,
    787.0,
    786.0,
    786.0,
    786.0,
    787.0,
    788.0,
    788.0,
    787.0,
    786.0,
    787.0,
    787.0,
    788.0,
    787.0,
    786.0,
    785.0,
    786.0,
    786.0,
    786.0,
    786.0,
    787.0,
    787.0,
    787.0,
    788.0,
    788.0,
    787.0,
    787.0,
    787.0,
    789.0,
    788.0,
    788.0,
    789.0,
    788.0,
    787.0,
    786.0,
    788.0,
    789.0,
    788.0,
    788.0,
    786.0,
    786.0,
    786.0,
    786.0,
    787.0,
    788.0,
    788.0,
    788.0,
    787.0,
    787.0,
    786.0,
    785.0,
    785.0,
    786.0,
    787.0,
    788.0,
    788.0,
    787.0,
    786.0,
    786.0,
    787.0,
    787.0,
    786.0,
    785.0,
    785.0,
    786.0,
    786.0,
    786.0,
    785.0,
    785.0,
    787.0,
    786.0,
    786.0,
    786.0,
    785.0,
    786.0,
    786.0,
    785.0,
    785.0,
    785.0,
    786.0,
    785.0,
    784.0,
    784.0,
    785.0,
    785.0,
    785.0,
    785.0
   ],
   "WindowWidth": [
    1713.0,
    1706.0,
    1703.0,
    1702.0,
    1700.0,
    1697.0,
    1694.0,
    1693.0,
    1690.0,
    1691.0,
    1696.0,
    1699.0,
    1698.0,
    1696.0,
    1697.0,
    1697.0,
    1698.0,
    1696.0,
    1697.0,
    1694.0,
    1690.0,
    1693.0,
    1692.0,
    1692.0,
    1693.0,
    1697.0,
    1700.0,
    1700.0,
    1700.0,
    1701.0,
    1700.0,
    1699.0,
    1700.0,
    1700.0,
    1697.0,
    1694.0,
    1693.0,
    1692.0,
    1692.0,
    1691.0,
    1690.0,
    1690.0,
    1691.0,
    1693.0,
    1694.0,
    1693.0,
    1693.0,
    1693.0,
    1694.0,
    1696.0,
    1697.0,
    1695.0,
    1694.0,
    1693.0,
    1692.0,
    1694.0,
    1695.0,
    1694.0,
    1693.0,
    1692.0,
    1694.0,
    1694.0,
    1695.0,
    1694.0,
    1694.0,
    1692.0,
    1690.0,
    1690.0,
    1693.0,
    1697.0,
    1697.0,
    1693.0,
    1692.0,
    1694.0,
    1695.0,
    1695.0,
    1693.0,
    1690.0,
    1689.0,
    1690.0,
    1690.0,
    1691.0,
    1691.0,
    1693.0,
    1694.0,
    1693.0,
    1695.0,
    1696.0,
    1693.0,
    1694.0,
    1695.0,
    1698.0,
    1696.0,
    1697.0,
    1697.0,
    1695.0,
    1692.0,
    1691.0,
    1695.0,
    1697.0,
    1695.0,
    1695.0,
    1692.0,
    1690.0,
    1689.0,
    1691.0,
    1694.0,
    1694.0,
    1696.0,
    1694.0,
    1692.0,
    1693.0,
    1691.0,
    1688.0,
    1688.0,
    1690.0,
    1692.0,
    1695.0,
    1695.0,
    1692.0,
    1691.0,
    1691.0,
    1693.0,
    1693.0,
    1690.0,
    1688.0,
    1689.0,
    1691.0,
    1690.0,
    1690.0,
    1689.0,
    1689.0,
    1693.0,
    1692.0,
    1692.0,
    1692.0,
    1689.0,
    1690.0,
    1689.0,
    1689.0,
    1687.0,
    1687.0,
    1689.0,
    1687.0,
    1685.0,
    1684.0,
    1687.0,
    1688.0,
    1687.0,
    1687.0
   ]
  },
  "slices": {}
 }
}