{
 "AcquisitionMatrixPE": 100,
 "AcquisitionNumber": 1,
 "AcquisitionTime": "13:34:40.725000",
 "BandwidthPerPixelPhaseEncode": 18.519,
 "BaseResolution": 100,
 "BodyPartExamined": "BRAIN",
 "ConsistencyInfo": "N4_VE11C_LATEST_20160120",
 "ConversionSoftware": "dcm2niix",
 "ConversionSoftwareVersion": "v1.0.20180622 GCC4.9.2",
 "DerivedVendorReportedEchoSpacing": 0.000539986,
 "DeviceSerialNumber": "166078",
 "DwellTime": 2.1e-06,
 "EchoTime": 0.034,
 "EchoTrainLength": 100,
 "EffectiveEchoSpacing": 0.000539986,
 "FlipAngle": 90,
 "ImageOrientationPatientDICOM": [
  1,
  0,
  0,
  0,
  0.985109,
  -0.171929
 ],
 "ImageType": [
  "ORIGINAL",
  "PRIMARY",
  "M",
  "ND",
  "MOSAIC"
 ],
 "InPlanePhaseEncodingDirectionDICOM": "COL",
 "InstitutionAddress": "Street_StreetNo_Bei_Jing_District_CN_ZIP",
 "InstitutionName": "BeiJing_Normal_University",
 "InstitutionalDepartmentName": "Department",
 "MRAcquisitionType": "2D",
 "MagneticFieldStrength": 3,
 "Manufacturer": "Siemens",
 "ManufacturersModelName": "Prisma",
 "Modality": "MR",
 "MultibandAccelerationFactor": 3,
 "PartialFourier": 1,
 "PatientPosition": "HFS",
 "PercentPhaseFOV": 100,
 "PhaseEncodingDirection": "j-",
 "PhaseEncodingSteps": 100,
 "PhaseResolution": 1,
 "PixelBandwidth": 2380,
 "ProcedureStepDescription": "BNU_P2018_64CH_Zhen.ZongLei",
 "ProtocolName": "bold_100x100_s3_2x2x2_retino_150",
 "PulseSequenceDetails": "%SiemensSeq%_ep2d_bold",
 "ReceiveCoilActiveElements": "HC1-7;NC1",
 "ReceiveCoilName": "HeadNeck_64",
 "ReconMatrixPE": 100,
 "RepetitionTime": 2,
 "SAR": 0.0841872,
 "ScanOptions": "FS",
 "ScanningSequence": "EP",
 "SequenceName": "_epfid2d1_100",
 "SequenceVariant": "SK",
 "SeriesDescription": "bold_100x100_s3_2x2x2_retino_150",
 "SeriesNumber": 14,
 "ShimSetting": [
  -5481,
  -11509,
  -1252,
  521,
  -54,
  -236,
  -148,
  128
 ],
 "SliceThickness": 2,
 "SliceTiming": [
  1.485,
  0,
  0.99,
  0.0825,
  1.0725,
  0.165,
  1.155,
  0.2475,
  1.2375,
  0.33,
  1.32,
  0.4125,
  1.4025,
  0.5775,
  1.5675,
  0.66,
  1.65,
  0.7425,
  1.7325,
  0.825,
  1.815,
  0.9075,
  1.8975,
  0.495,
  1.485,
  0,
  0.99,
  0.0825,
  1.0725,
  0.165,
  1.155,
  0.2475,
  1.2375,
  0.33,
  1.32,
  0.4125,
  1.4025,
  0.5775,
  1.5675,
  0.66,
  1.65,
  0.7425,
  1.7325,
  0.825,
  1.815,
  0.9075,
  1.8975,
  0.495,
  1.485,
  0,
  0.99,
  0.0825,
  1.0725,
  0.165,
  1.155,
  0.2475,
  1.2375,
  0.33,
  1.32,
  0.4125,
  1.4025,
  0.5775,
  1.5675,
  0.66,
  1.65,
  0.7425,
  1.7325,
  0.825,
  1.815,
  0.9075,
  1.8975,
  0.495
 ],
 "SoftwareVersions": "syngo_MR_E11",
 "SpacingBetweenSlices": 2,
 "StationName": "AWP166078",
 "TaskName": "prf",
 "TotalReadoutTime": 0.0534586,
 "TxRefAmp": 230.376,
 "dcmmeta_affine": [
  [
   -2.0,
   0.0,
   0.0,
   102.02409362792969
  ],
  [
   0.0,
   1.9702186584472656,
   -0.34385818243026733,
   -84.04940795898438
  ],
  [
   0.0,
   0.3438582122325897,
   1.9702186584472656,
   -83.70747375488281
  ],
  [
   0.0,
   0.0,
   0.0,
   1.0
  ]
 ],
 "dcmmeta_reorient_transform": [
  [
   0.0,
   -1.0,
   0.0,
   99.0
  ],
  [
   1.0,
   0.0,
   0.0,
   0.0
  ],
  [
   0.0,
   0.0,
   1.0,
   0.0
  ],
  [
   0.0,
   0.0,
   0.0,
   1.0
  ]
 ],
 "dcmmeta_shape": [
  100,
  100,
  72,
  150
 ],
 "dcmmeta_slice_dim": 2,
 "dcmmeta_version": 0.6,
 "global": {
  "const": {
   "AcquisitionMatrix": [
    100,
    0,
    0,
    100
   ],
   "AngioFlag": "N",
   "BitsAllocated": 16,
   "BitsStored": 12,
   "BodyPartExamined": "BRAIN",
   "Columns": 900,
   "EchoNumbers": 1,
   "EchoTime": 34.0,
   "EchoTrainLength": 100,
   "FlipAngle": 90.0,
   "HighBit": 11,
   "ImageOrientationPatient": [
    1.0,
    0.0,
    0.0,
    0.0,
    0.98510932620277,
    -0.1719291000044
   ],
   "ImagePositionPatient": [
    -902.02409648895,
    -899.0896970264,
    87.877768678303
   ],
   "ImageType": [
    "ORIGINAL",
    "PRIMARY",
    "M",
    "ND",
    "MOSAIC"
   ],
   "ImagedNucleus": "1H",
   "ImagingFrequency": 123.25776,
   "InPlanePhaseEncodingDirection": "COL",
   "MRAcquisitionType": "2D",
   "MagneticFieldStrength": 3.0,
   "Manufacturer": "SIEMENS",
   "ManufacturerModelName": "Prisma",
   "Modality": "MR",
   "NumberOfAverages": 1.0,
   "NumberOfPhaseEncodingSteps": 100,
   "PercentPhaseFieldOfView": 100.0,
   "PercentSampling": 100.0,
   "PerformedProcedureStepStartTime": "121324.353000",
   "PhotometricInterpretation": "MONOCHROME2",
   "PixelBandwidth": 2380.0,
   "PixelRepresentation": 0,
   "PixelSpacing": [
    2.0,
    2.0
   ],
   "ProtocolName": "bold_100x100_s3_2x2x2_retino_150",
   "RepetitionTime": 2000.0,
   "Rows": 900,
   "SAR": 0.08418718233249,
   "SamplesPerPixel": 1,
   "ScanOptions": "FS",
   "ScanningSequence": "EP",
   "SequenceName": "*epfid2d1_100",
   "SequenceVariant": "SK",
   "SeriesDescription": "bold_100x100_s3_2x2x2_retino_150",
   "SeriesNumber": 14,
   "SeriesTime": "133443.475000",
   "SliceLocation": -68.010472942118,
   "SliceThickness": 2.0,
   "SmallestImagePixelValue": 0,
   "SoftwareVersions": "syngo MR E11",
   "SpacingBetweenSlices": 1.9999999521664,
   "SpecificCharacterSet": "ISO_IR 100",
   "StudyID": "1",
   "StudyTime": "121324.253000",
   "TransmitCoilName": "Body",
   "VariableFlipAngleFlag": "N",
   "WindowCenterWidthExplanation": "Algo1",
   "dBdt": 0.0
  },
  "slices": {}
 },
 "time": {
  "samples": {
   "AcquisitionNumber": [
    1,
    2,
    3,
    4,
    5,
    6,
    7,
    8,
    9,
    10,
    11,
    12,
    13,
    14,
    15,
    16,
    17,
    18,
    19,
    20,
    21,
    22,
    23,
    24,
    25,
    26,
    27,
    28,
    29,
    30,
    31,
    32,
    33,
    34,
    35,
    36,
    37,
    38,
    39,
    40,
    41,
    42,
    43,
    44,
    45,
    46,
    47,
    48,
    49,
    50,
    51,
    52,
    53,
    54,
    55,
    56,
    57,
    58,
    59,
    60,
    61,
    62,
    63,
    64,
    65,
    66,
    67,
    68,
    69,
    70,
    71,
    72,
    73,
    74,
    75,
    76,
    77,
    78,
    79,
    80,
    81,
    82,
    83,
    84,
    85,
    86,
    87,
    88,
    89,
    90,
    91,
    92,
    93,
    94,
    95,
    96,
    97,
    98,
    99,
    100,
    101,
    102,
    103,
    104,
    105,
    106,
    107,
    108,
    109,
    110,
    111,
    112,
    113,
    114,
    115,
    116,
    117,
    118,
    119,
    120,
    121,
    122,
    123,
    124,
    125,
    126,
    127,
    128,
    129,
    130,
    131,
    132,
    133,
    134,
    135,
    136,
    137,
    138,
    139,
    140,
    141,
    142,
    143,
    144,
    145,
    146,
    147,
    148,
    149,
    150
   ],
   "AcquisitionTime": [
    "133440.725000",
    "133442.725000",
    "133444.725000",
    "133446.725000",
    "133448.725000",
    "133450.725000",
    "133452.725000",
    "133454.725000",
    "133456.725000",
    "133458.725000",
    "133500.725000",
    "133502.725000",
    "133504.725000",
    "133506.725000",
    "133508.725000",
    "133510.725000",
    "133512.725000",
    "133514.725000",
    "133516.725000",
    "133518.725000",
    "133520.725000",
    "133522.725000",
    "133524.725000",
    "133526.725000",
    "133528.725000",
    "133530.725000",
    "133532.725000",
    "133534.725000",
    "133536.725000",
    "133538.725000",
    "133540.725000",
    "133542.725000",
    "133544.725000",
    "133546.725000",
    "133548.725000",
    "133550.725000",
    "133552.725000",
    "133554.725000",
    "133556.725000",
    "133558.725000",
    "133600.725000",
    "133602.725000",
    "133604.725000",
    "133606.725000",
    "133608.725000",
    "133610.725000",
    "133612.725000",
    "133614.725000",
    "133616.725000",
    "133618.725000",
    "133620.725000",
    "133622.725000",
    "133624.725000",
    "133626.725000",
    "133628.725000",
    "133630.725000",
    "133632.725000",
    "133634.725000",
    "133636.725000",
    "133638.725000",
    "133640.725000",
    "133642.725000",
    "133644.725000",
    "133646.725000",
    "133648.725000",
    "133650.725000",
    "133652.725000",
    "133654.725000",
    "133656.725000",
    "133658.725000",
    "133700.725000",
    "133702.725000",
    "133704.725000",
    "133706.725000",
    "133708.725000",
    "133710.725000",
    "133712.725000",
    "133714.725000",
    "133716.725000",
    "133718.725000",
    "133720.725000",
    "133722.725000",
    "133724.725000",
    "133726.725000",
    "133728.725000",
    "133730.725000",
    "133732.725000",
    "133734.725000",
    "133736.725000",
    "133738.725000",
    "133740.725000",
    "133742.725000",
    "133744.725000",
    "133746.725000",
    "133748.725000",
    "133750.725000",
    "133752.725000",
    "133754.725000",
    "133756.725000",
    "133758.725000",
    "133800.725000",
    "133802.725000",
    "133804.725000",
    "133806.725000",
    "133808.725000",
    "133810.725000",
    "133812.725000",
    "133814.725000",
    "133816.725000",
    "133818.725000",
    "133820.725000",
    "133822.725000",
    "133824.725000",
    "133826.725000",
    "133828.725000",
    "133830.725000",
    "133832.725000",
    "133834.725000",
    "133836.725000",
    "133838.725000",
    "133840.725000",
    "133842.725000",
    "133844.725000",
    "133846.725000",
    "133848.725000",
    "133850.725000",
    "133852.725000",
    "133854.725000",
    "133856.725000",
    "133858.725000",
    "133900.725000",
    "133902.725000",
    "133904.725000",
    "133906.725000",
    "133908.725000",
    "133910.725000",
    "133912.725000",
    "133914.725000",
    "133916.725000",
    "133918.725000",
    "133920.725000",
    "133922.725000",
    "133924.725000",
    "133926.725000",
    "133928.725000",
    "133930.725000",
    "133932.725000",
    "133934.725000",
    "133936.725000",
    "133938.725000"
   ],
   "ContentTime": [
    "133443.479000",
    "133444.975000",
    "133446.975000",
    "133448.974000",
    "133450.975000",
    "133452.975000",
    "133454.974000",
    "133456.974000",
    "133458.974000",
    "133500.974000",
    "133502.975000",
    "133504.975000",
    "133506.974000",
    "133508.976000",
    "133510.974000",
    "133512.974000",
    "133514.975000",
    "133516.975000",
    "133518.974000",
    "133520.974000",
    "133522.975000",
    "133524.975000",
    "133526.975000",
    "133528.974000",
    "133530.974000",
    "133532.975000",
    "133534.974000",
    "133536.975000",
    "133538.975000",
    "133540.974000",
    "133542.975000",
    "133544.974000",
    "133546.974000",
    "133548.975000",
    "133550.975000",
    "133552.975000",
    "133554.975000",
    "133556.975000",
    "133558.974000",
    "133600.976000",
    "133602.975000",
    "133604.975000",
    "133606.975000",
    "133608.974000",
    "133610.974000",
    "133612.975000",
    "133614.975000",
    "133616.975000",
    "133618.976000",
    "133620.975000",
    "133622.974000",
    "133624.975000",
    "133626.974000",
    "133628.974000",
    "133630.975000",
    "133632.974000",
    "133634.976000",
    "133636.974000",
    "133638.974000",
    "133640.974000",
    "133642.975000",
    "133644.975000",
    "133646.975000",
    "133648.975000",
    "133650.974000",
    "133652.975000",
    "133654.975000",
    "133656.975000",
    "133658.975000",
    "133700.974000",
    "133702.975000",
    "133704.974000",
    "133706.974000",
    "133708.975000",
    "133710.975000",
    "133712.974000",
    "133714.974000",
    "133716.975000",
    "133718.974000",
    "133720.974000",
    "133722.974000",
    "133724.975000",
    "133726.976000",
    "133728.976000",
    "133730.975000",
    "133732.974000",
    "133734.974000",
    "133736.975000",
    "133738.974000",
    "133740.975000",
    "133742.975000",
    "133744.976000",
    "133746.974000",
    "133748.975000",
    "133750.974000",
    "133752.974000",
    "133754.975000",
    "133756.974000",
    "133758.975000",
    "133800.974000",
    "133802.976000",
    "133804.974000",
    "133806.974000",
    "133808.974000",
    "133810.974000",
    "133812.974000",
    "133814.975000",
    "133816.975000",
    "133818.974000",
    "133820.976000",
    "133822.974000",
    "133824.975000",
    "133826.975000",
    "133828.974000",
    "133830.974000",
    "133832.974000",
    "133834.974000",
    "133836.975000",
    "133838.976000",
    "133840.975000",
    "133842.975000",
    "133844.974000",
    "133846.975000",
    "133848.974000",
    "133850.975000",
    "133852.975000",
    "133854.976000",
    "133856.975000",
    "133858.975000",
    "133900.974000",
    "133902.975000",
    "133904.975000",
    "133906.975000",
    "133908.974000",
    "133910.975000",
    "133912.975000",
    "133914.974000",
    "133916.975000",
    "133918.974000",
    "133920.974000",
    "133922.975000",
    "133924.975000",
    "133926.974000",
    "133928.975000",
    "133930.975000",
    "133932.975000",
    "133934.974000",
    "133936.974000",
    "133938.975000",
    "133940.674000"
   ],
   "InstanceCreationTime": [
    "133443.479000",
    "133444.975000",
    "133446.975000",
    "133448.974000",
    "133450.975000",
    "133452.975000",
    "133454.974000",
    "133456.974000",
    "133458.974000",
    "133500.974000",
    "133502.975000",
    "133504.975000",
    "133506.974000",
    "133508.976000",
    "133510.974000",
    "133512.974000",
    "133514.975000",
    "133516.975000",
    "133518.974000",
    "133520.974000",
    "133522.975000",
    "133524.975000",
    "133526.975000",
    "133528.974000",
    "133530.974000",
    "133532.975000",
    "133534.974000",
    "133536.975000",
    "133538.975000",
    "133540.974000",
    "133542.975000",
    "133544.974000",
    "133546.974000",
    "133548.975000",
    "133550.975000",
    "133552.975000",
    "133554.975000",
    "133556.975000",
    "133558.974000",
    "133600.976000",
    "133602.975000",
    "133604.975000",
    "133606.975000",
    "133608.974000",
    "133610.974000",
    "133612.975000",
    "133614.975000",
    "133616.975000",
    "133618.976000",
    "133620.975000",
    "133622.974000",
    "133624.975000",
    "133626.974000",
    "133628.974000",
    "133630.975000",
    "133632.974000",
    "133634.976000",
    "133636.974000",
    "133638.974000",
    "133640.974000",
    "133642.975000",
    "133644.975000",
    "133646.975000",
    "133648.975000",
    "133650.974000",
    "133652.975000",
    "133654.975000",
    "133656.975000",
    "133658.975000",
    "133700.974000",
    "133702.975000",
    "133704.974000",
    "133706.974000",
    "133708.975000",
    "133710.975000",
    "133712.974000",
    "133714.974000",
    "133716.975000",
    "133718.974000",
    "133720.974000",
    "133722.974000",
    "133724.975000",
    "133726.976000",
    "133728.976000",
    "133730.975000",
    "133732.974000",
    "133734.974000",
    "133736.975000",
    "133738.974000",
    "133740.975000",
    "133742.975000",
    "133744.976000",
    "133746.974000",
    "133748.975000",
    "133750.974000",
    "133752.974000",
    "133754.975000",
    "133756.974000",
    "133758.975000",
    "133800.974000",
    "133802.976000",
    "133804.974000",
    "133806.974000",
    "133808.974000",
    "133810.974000",
    "133812.974000",
    "133814.975000",
    "133816.975000",
    "133818.974000",
    "133820.976000",
    "133822.974000",
    "133824.975000",
    "133826.975000",
    "133828.974000",
    "133830.974000",
    "133832.974000",
    "133834.974000",
    "133836.975000",
    "133838.976000",
    "133840.975000",
    "133842.975000",
    "133844.974000",
    "133846.975000",
    "133848.974000",
    "133850.975000",
    "133852.975000",
    "133854.976000",
    "133856.975000",
    "133858.975000",
    "133900.974000",
    "133902.975000",
    "133904.975000",
    "133906.975000",
    "133908.974000",
    "133910.975000",
    "133912.975000",
    "133914.974000",
    "133916.975000",
    "133918.974000",
    "133920.974000",
    "133922.975000",
    "133924.975000",
    "133926.974000",
    "133928.975000",
    "133930.975000",
    "133932.975000",
    "133934.974000",
    "133936.974000",
    "133938.975000",
    "133940.674000"
   ],
   "InstanceNumber": [
    1,
    2,
    3,
    4,
    5,
    6,
    7,
    8,
    9,
    10,
    11,
    12,
    13,
    14,
    15,
    16,
    17,
    18,
    19,
    20,
    21,
    22,
    23,
    24,
    25,
    26,
    27,
    28,
    29,
    30,
    31,
    32,
    33,
    34,
    35,
    36,
    37,
    38,
    39,
    40,
    41,
    42,
    43,
    44,
    45,
    46,
    47,
    48,
    49,
    50,
    51,
    52,
    53,
    54,
    55,
    56,
    57,
    58,
    59,
    60,
    61,
    62,
    63,
    64,
    65,
    66,
    67,
    68,
    69,
    70,
    71,
    72,
    73,
    74,
    75,
    76,
    77,
    78,
    79,
    80,
    81,
    82,
    83,
    84,
    85,
    86,
    87,
    88,
    89,
    90,
    91,
    92,
    93,
    94,
    95,
    96,
    97,
    98,
    99,
    100,
    101,
    102,
    103,
    104,
    105,
    106,
    107,
    108,
    109,
    110,
    111,
    112,
    113,
    114,
    115,
    116,
    117,
    118,
    119,
    120,
    121,
    122,
    123,
    124,
    125,
    126,
    127,
    128,
    129,
    130,
    131,
    132,
    133,
    134,
    135,
    136,
    137,
    138,
    139,
    140,
    141,
    142,
    143,
    144,
    145,
    146,
    147,
    148,
    149,
    150
   ],
   "LargestImagePixelValue": [
    3071,
    3018,
    3044,
    3012,
    3101,
    3066,
    3021,
    2992,
    2950,
    3049,
    3023,
    3072,
    3059,
    3078,
    3083,
    3021,
    3046,
    2979,
    2933,
    2990,
    3032,
    2975,
    2960,
    2961,
    2971,
    2938,
    2969,
    3006,
    2942,
    2992,
    3027,
    3066,
    3023,
    3071,
    3068,
    3050,
    3034,
    3037,
    3061,
    3091,
    3009,
    3063,
    3042,
    2986,
    2973,
    3011,
    3032,
    3014,
    3044,
    3055,
    3013,
    3043,
    3003,
    3088,
    3072,
    3024,
    3095,
    3068,
    3025,
    2953,
    3010,
    3029,
    3023,
    3028,
    2945,
    3004,
    2973,
    2957,
    2941,
    2924,
    2956,
    2946,
    2963,
    2932,
    2931,
    2959,
    2999,
    2998,
    2970,
    2986,
    2963,
    2966,
    2975,
    2987,
    2977,
    2982,
    2975,
    2970,
    2939,
    2958,
    2974,
    3003,
    3011,
    3037,
    3024,
    3026,
    2973,
    2950,
    2993,
    2967,
    2965,
    2956,
    3022,
    2982,
    2953,
    2970,
    2919,
    2962,
    2971,
    2972,
    2976,
    2947,
    2966,
    2970,
    2977,
    3014,
    3041,
    3051,
    2979,
    2991,
    2979,
    2968,
    2980,
    2968,
    2943,
    3013,
    3024,
    3026,
    3048,
    3067,
    2983,
    2971,
    3012,
    3024,
    3086,
    3030,
    3037,
    3078,
    3081,
    3005,
    2968,
    3033,
    3080,
    3096,
    3108,
    3061,
    3002,
    3069,
    3110,
    3093
   ],
   "WindowCenter": [
    791.0,
    789.0,
    789.0,
    791.0,
    792.0,
    790.0,
    788.0,
    787.0,
    787.0,
    788.0,
    787.0,
    788.0,
    787.0,
    788.0,
    788.0,
    787.0,
    787.0,
    786.0,
    786.0,
    787.0,
    787.0,
    786.0,
    787.0,
    787.0,
    786.0,
    785.0,
    786.0,
    786.0,
    785.0,
    787.0,
    787.0,
    788.0,
    789.0,
    789.0,
    789.0,
    788.0,
    788.0,
    789.0,
    790.0,
    790.0,
    789.0,
    789.0,
    789.0,
    787.0,
    787.0,
    787.0,
    788.0,
    788.0,
    788.0,
    788.0,
    787.0,
    788.0,
    788.0,
    788.0,
    789.0,
    789.0,
    788.0,
    787.0,
    786.0,
    786.0,
    787.0,
    788.0,
    788.0,
    787.0,
    787.0,
    788.0,
    787.0,
    787.0,
    786.0,
    785.0,
    785.0,
    785.0,
    785.0,
    784.0,
    785.0,
    785.0,
    785.0,
    786.0,
    787.0,
    788.0,
    787.0,
    786.0,
    787.0,
    788.0,
    788.0,
    787.0,
    788.0,
    787.0,
    787.0,
    787.0,
    787.0,
    789.0,
    790.0,
    790.0,
    790.0,
    790.0,
    789.0,
    789.0,
    789.0,
    788.0,
    787.0,
    789.0,
    790.0,
    788.0,
    787.0,
    787.0,
    786.0,
    787.0,
    789.0,
    788.0,
    788.0,
    787.0,
    788.0,
    790.0,
    790.0,
    790.0,
    789.0,
    790.0,
    789.0,
    790.0,
    789.0,
    789.0,
    789.0,
    789.0,
    788.0,
    789.0,
    789.0,
    789.0,
    789.0,
    789.0,
    788.0,
    789.0,
    790.0,
    789.0,
    789.0,
    789.0,
    789.0,
    789.0,
    788.0,
    787.0,
    787.0,
    789.0,
    789.0,
    789.0,
    788.0,
    788.0,
    788.0,
    789.0,
    790.0,
    790.0
   ],
   "WindowWidth": [
    1703.0,
    1697.0,
    1699.0,
    1703.0,
    1704.0,
    1700.0,
    1696.0,
    1693.0,
    1692.0,
    1695.0,
    1693.0,
    1694.0,
    1693.0,
    1695.0,
    1696.0,
    1693.0,
    1693.0,
    1689.0,
    1690.0,
    1694.0,
    1694.0,
    1691.0,
    1692.0,
    1691.0,
    1689.0,
    1688.0,
    1689.0,
    1689.0,
    1688.0,
    1692.0,
    1693.0,
    1696.0,
    1697.0,
    1698.0,
    1698.0,
    1695.0,
    1695.0,
    1699.0,
    1701.0,
    1700.0,
    1696.0,
    1698.0,
    1696.0,
    1692.0,
    1691.0,
    1693.0,
    1695.0,
    1694.0,
    1695.0,
    1695.0,
    1694.0,
    1694.0,
    1694.0,
    1696.0,
    1698.0,
    1696.0,
    1696.0,
    1692.0,
    1690.0,
    1689.0,
    1692.0,
    1694.0,
    1694.0,
    1694.0,
    1693.0,
    1695.0,
    1693.0,
    1692.0,
    1689.0,
    1686.0,
    1688.0,
    1686.0,
    1686.0,
    1685.0,
    1686.0,
    1686.0,
    1688.0,
    1691.0,
    1693.0,
    1695.0,
    1692.0,
    1690.0,
    1692.0,
    1695.0,
    1695.0,
    1693.0,
    1694.0,
    1692.0,
    1691.0,
    1691.0,
    1693.0,
    1696.0,
    1700.0,
    1700.0,
    1699.0,
    1700.0,
    1699.0,
    1698.0,
    1697.0,
    1694.0,
    1693.0,
    1697.0,
    1699.0,
    1694.0,
    1691.0,
    1691.0,
    1690.0,
    1692.0,
    1696.0,
    1695.0,
    1695.0,
    1693.0,
    1694.0,
    1699.0,
    1701.0,
    1701.0,
    1698.0,
    1699.0,
    1698.0,
    1700.0,
    1698.0,
    1697.0,
    1696.0,
    1697.0,
    1696.0,
    1698.0,
    1699.0,
    1698.0,
    1698.0,
    1697.0,
    1696.0,
    1698.0,
    1699.0,
    1698.0,
    1697.0,
    1697.0,
    1698.0,
    1698.0,
    1695.0,
    1691.0,
    1693.0,
    1697.0,
    1697.0,
    1697.0,
    1696.0,
    1694.0,
    1694.0,
    1698.0,
    1700.0,
    1700.0
   ]
  },
  "slices": {}
 }
}