{
  "AcquisitionMatrixPE": 100,
  "AcquisitionNumber": 1,
  "AcquisitionTime": "10:35:17.375000",
  "BandwidthPerPixelPhaseEncode": 18.519,
  "BaseResolution": 100,
  "BodyPartExamined": "BRAIN",
  "ConsistencyInfo": "N4_VE11C_LATEST_20160120",
  "ConversionSoftware": "dcm2niix",
  "ConversionSoftwareVersion": "v1.0.20180622 GCC4.9.2",
  "DerivedVendorReportedEchoSpacing": 0.000539986,
  "DeviceSerialNumber": "166078",
  "DwellTime": 2.1e-06,
  "EchoTime": 0.034,
  "EchoTrainLength": 100,
  "EffectiveEchoSpacing": 0.000539986,
  "FlipAngle": 90,
  "ImageOrientationPatientDICOM": [1, 0, 0, 0, 0.986856, -0.161604],
  "ImageType": [
    "ORIGINAL",
    "PRIMARY",
    "M",
    "ND",
    "MOSAIC"
],
  "InPlanePhaseEncodingDirectionDICOM": "COL",
  "InstitutionAddress": "Street_StreetNo_Bei_Jing_District_CN_ZIP",
  "InstitutionName": "BeiJing_Normal_University",
  "InstitutionalDepartmentName": "Department",
  "MRAcquisitionType": "2D",
  "MagneticFieldStrength": 3,
  "Manufacturer": "Siemens",
  "ManufacturersModelName": "Prisma",
  "Modality": "MR",
  "MultibandAccelerationFactor": 3,
  "PartialFourier": 1,
  "PatientPosition": "HFS",
  "PercentPhaseFOV": 100,
  "PhaseEncodingDirection": "j-",
  "PhaseEncodingSteps": 100,
  "PhaseResolution": 1,
  "PixelBandwidth": 2380,
  "ProcedureStepDescription": "BNU_P2018_64CH_Zhen.ZongLei",
  "ProtocolName": "bold_100x100_s3_2x2x2_static_256",
  "PulseSequenceDetails": "%SiemensSeq%_ep2d_bold",
  "ReceiveCoilActiveElements": "HC1-7;NC1",
  "ReceiveCoilName": "HeadNeck_64",
  "ReconMatrixPE": 100,
  "RepetitionTime": 2,
  "SAR": 0.0621423,
  "ScanOptions": "FS",
  "ScanningSequence": "EP",
  "SequenceName": "_epfid2d1_100",
  "SequenceVariant": "SK",
  "SeriesDescription": "bold_100x100_s3_2x2x2_static_256",
  "SeriesNumber": 14,
  "ShimSetting": [-5455, -11461, -1290, 385, -16, -338, -269, 36],
  "SliceThickness": 2,
  "SliceTiming": [1.485, 0, 0.99, 0.0825, 1.0725, 0.165, 1.155, 0.2475, 1.2375, 0.33, 1.32, 0.4125, 1.4025, 0.5775, 1.5675, 0.66, 1.65, 0.7425, 1.7325, 0.825, 1.815, 0.9075, 1.8975, 0.495, 1.485, 0, 0.99, 0.0825, 1.0725, 0.165, 1.155, 0.2475, 1.2375, 0.33, 1.32, 0.4125, 1.4025, 0.5775, 1.5675, 0.66, 1.65, 0.7425, 1.7325, 0.825, 1.815, 0.9075, 1.8975, 0.495, 1.485, 0, 0.99, 0.0825, 1.0725, 0.165, 1.155, 0.2475, 1.2375, 0.33, 1.32, 0.4125, 1.4025, 0.5775, 1.5675, 0.66, 1.65, 0.7425, 1.7325, 0.825, 1.815, 0.9075, 1.8975, 0.495],
  "SoftwareVersions": "syngo_MR_E11",
  "SpacingBetweenSlices": 2,
  "StationName": "AWP166078",
  "TaskName": "naturalvision",
  "TotalReadoutTime": 0.0534586,
  "TxRefAmp": 208.559,
  "dcmmeta_affine": [
    [-2.0, 0.0, 0.0, 100.0],
    [0.0, 1.9737114906311035, -0.32320764660835266, -85.03076171875],
    [0.0, 0.32320764660835266, 1.973711371421814, -97.83645629882812],
    [0.0, 0.0, 0.0, 1.0]
],
  "dcmmeta_reorient_transform": [
    [0.0, -1.0, 0.0, 99.0],
    [1.0, 0.0, 0.0, 0.0],
    [0.0, 0.0, 1.0, 0.0],
    [0.0, 0.0, 0.0, 1.0]
],
  "dcmmeta_shape": [100, 100, 72, 256],
  "dcmmeta_slice_dim": 2,
  "dcmmeta_version": 0.6,
  "global": {
    "const": {
      "AcquisitionMatrix": [100, 0, 0, 100],
      "AngioFlag": "N",
      "BitsAllocated": 16,
      "BitsStored": 12,
      "BodyPartExamined": "BRAIN",
      "Columns": 900,
      "EchoNumbers": 1,
      "EchoTime": 34.0,
      "EchoTrainLength": 100,
      "FlipAngle": 90.0,
      "HighBit": 11,
      "ImageOrientationPatient": [1.0, 0.0, 0.0, 0.0, 0.98685571586892, -0.1616038243881],
      "ImagePositionPatient": [-900.0, -899.85124417369, 63.444159112358],
      "ImageType": [
        "ORIGINAL",
        "PRIMARY",
        "M",
        "ND",
        "MOSAIC"
],
      "ImagedNucleus": "1H",
      "ImagingFrequency": 123.257796,
      "InPlanePhaseEncodingDirection": "COL",
      "MRAcquisitionType": "2D",
      "MagneticFieldStrength": 3.0,
      "Manufacturer": "SIEMENS",
      "ManufacturerModelName": "Prisma",
      "Modality": "MR",
      "NumberOfAverages": 1.0,
      "NumberOfPhaseEncodingSteps": 100,
      "PercentPhaseFieldOfView": 100.0,
      "PercentSampling": 100.0,
      "PerformedProcedureStepStartTime": "090613.470000",
      "PhotometricInterpretation": "MONOCHROME2",
      "PixelBandwidth": 2380.0,
      "PixelRepresentation": 0,
      "PixelSpacing": [2.0, 2.0],
      "ProtocolName": "bold_100x100_s3_2x2x2_static_256",
      "RepetitionTime": 2000.0,
      "Rows": 900,
      "SAR": 0.06214227852428,
      "SamplesPerPixel": 1,
      "ScanOptions": "FS",
      "ScanningSequence": "EP",
      "SequenceName": "*epfid2d1_100",
      "SequenceVariant": "SK",
      "SeriesDescription": "bold_100x100_s3_2x2x2_static_256",
      "SeriesNumber": 14,
      "SeriesTime": "103519.900000",
      "SliceLocation": -82.809171380312,
      "SliceThickness": 2.0,
      "SmallestImagePixelValue": 0,
      "SoftwareVersions": "syngo MR E11",
      "SpacingBetweenSlices": 1.9999999308243,
      "SpecificCharacterSet": "ISO_IR 100",
      "StudyID": "1",
      "StudyTime": "090613.379000",
      "TransmitCoilName": "Body",
      "VariableFlipAngleFlag": "N",
      "WindowCenterWidthExplanation": "Algo1",
      "dBdt": 0.0},
    "slices": {}
  },
  "time": {
    "samples": {
      "AcquisitionNumber": [1, 2, 3, 4, 5, 6, 7, 8, 9, 10, 11, 12, 13, 14, 15, 16, 17, 18, 19, 20, 21, 22, 23, 24, 25, 26, 27, 28, 29, 30, 31, 32, 33, 34, 35, 36, 37, 38, 39, 40, 41, 42, 43, 44, 45, 46, 47, 48, 49, 50, 51, 52, 53, 54, 55, 56, 57, 58, 59, 60, 61, 62, 63, 64, 65, 66, 67, 68, 69, 70, 71, 72, 73, 74, 75, 76, 77, 78, 79, 80, 81, 82, 83, 84, 85, 86, 87, 88, 89, 90, 91, 92, 93, 94, 95, 96, 97, 98, 99, 100, 101, 102, 103, 104, 105, 106, 107, 108, 109, 110, 111, 112, 113, 114, 115, 116, 117, 118, 119, 120, 121, 122, 123, 124, 125, 126, 127, 128, 129, 130, 131, 132, 133, 134, 135, 136, 137, 138, 139, 140, 141, 142, 143, 144, 145, 146, 147, 148, 149, 150, 151, 152, 153, 154, 155, 156, 157, 158, 159, 160, 161, 162, 163, 164, 165, 166, 167, 168, 169, 170, 171, 172, 173, 174, 175, 176, 177, 178, 179, 180, 181, 182, 183, 184, 185, 186, 187, 188, 189, 190, 191, 192, 193, 194, 195, 196, 197, 198, 199, 200, 201, 202, 203, 204, 205, 206, 207, 208, 209, 210, 211, 212, 213, 214, 215, 216, 217, 218, 219, 220, 221, 222, 223, 224, 225, 226, 227, 228, 229, 230, 231, 232, 233, 234, 235, 236, 237, 238, 239, 240, 241, 242, 243, 244, 245, 246, 247, 248, 249, 250, 251, 252, 253, 254, 255, 256],
      "AcquisitionTime": ["103517.375000", "103519.375000", "103521.375000", "103523.375000", "103525.375000", "103527.375000", "103529.375000", "103531.375000", "103533.375000", "103535.375000", "103537.375000", "103539.375000", "103541.375000", "103543.375000", "103545.375000", "103547.375000", "103549.375000", "103551.375000", "103553.375000", "103555.375000", "103557.375000", "103559.375000", "103601.375000", "103603.375000", "103605.375000", "103607.375000", "103609.375000", "103611.375000", "103613.375000", "103615.375000", "103617.375000", "103619.375000", "103621.375000", "103623.375000", "103625.375000", "103627.375000", "103629.375000", "103631.375000", "103633.375000", "103635.375000", "103637.375000", "103639.375000", "103641.375000", "103643.375000", "103645.375000", "103647.375000", "103649.375000", "103651.375000", "103653.375000", "103655.375000", "103657.375000", "103659.375000", "103701.375000", "103703.375000", "103705.375000", "103707.375000", "103709.375000", "103711.375000", "103713.375000", "103715.375000", "103717.375000", "103719.375000", "103721.375000", "103723.375000", "103725.375000", "103727.375000", "103729.375000", "103731.375000", "103733.375000", "103735.375000", "103737.375000", "103739.375000", "103741.375000", "103743.375000", "103745.375000", "103747.375000", "103749.375000", "103751.375000", "103753.375000", "103755.375000", "103757.375000", "103759.375000", "103801.375000", "103803.375000", "103805.375000", "103807.375000", "103809.375000", "103811.375000", "103813.375000", "103815.375000", "103817.375000", "103819.375000", "103821.375000", "103823.375000", "103825.375000", "103827.375000", "103829.375000", "103831.375000", "103833.375000", "103835.375000", "103837.375000", "103839.375000", "103841.375000", "103843.375000", "103845.375000", "103847.375000", "103849.375000", "103851.375000", "103853.375000", "103855.375000", "103857.375000", "103859.375000", "103901.375000", "103903.375000", "103905.375000", "103907.375000", "103909.375000", "103911.375000", "103913.375000", "103915.375000", "103917.375000", "103919.375000", "103921.375000", "103923.375000", "103925.375000", "103927.375000", "103929.375000", "103931.375000", "103933.375000", "103935.375000", "103937.375000", "103939.375000", "103941.375000", "103943.375000", "103945.375000", "103947.375000", "103949.375000", "103951.375000", "103953.375000", "103955.375000", "103957.375000", "103959.375000", "104001.375000", "104003.375000", "104005.375000", "104007.375000", "104009.375000", "104011.375000", "104013.375000", "104015.375000", "104017.375000", "104019.375000", "104021.375000", "104023.375000", "104025.375000", "104027.375000", "104029.375000", "104031.375000", "104033.375000", "104035.375000", "104037.375000", "104039.375000", "104041.375000", "104043.375000", "104045.375000", "104047.375000", "104049.375000", "104051.375000", "104053.375000", "104055.375000", "104057.375000", "104059.375000", "104101.375000", "104103.375000", "104105.375000", "104107.375000", "104109.375000", "104111.375000", "104113.375000", "104115.375000", "104117.375000", "104119.375000", "104121.375000", "104123.375000", "104125.375000", "104127.375000", "104129.375000", "104131.375000", "104133.375000", "104135.375000", "104137.375000", "104139.375000", "104141.375000", "104143.375000", "104145.375000", "104147.375000", "104149.375000", "104151.375000", "104153.375000", "104155.375000", "104157.375000", "104159.375000", "104201.375000", "104203.375000", "104205.375000", "104207.375000", "104209.375000", "104211.375000", "104213.375000", "104215.375000", "104217.375000", "104219.375000", "104221.375000", "104223.375000", "104225.375000", "104227.375000", "104229.375000", "104231.375000", "104233.375000", "104235.375000", "104237.375000", "104239.375000", "104241.375000", "104243.375000", "104245.375000", "104247.375000", "104249.375000", "104251.375000", "104253.375000", "104255.375000", "104257.375000", "104259.375000", "104301.375000", "104303.375000", "104305.375000", "104307.375000", "104309.375000", "104311.375000", "104313.375000", "104315.375000", "104317.375000", "104319.375000", "104321.375000", "104323.375000", "104325.375000", "104327.375000", "104329.375000", "104331.375000", "104333.375000", "104335.375000", "104337.375000", "104339.375000", "104341.375000", "104343.375000", "104345.375000", "104347.375000"],
      "ContentTime": ["103519.904000", "103520.900000", "103522.899000", "103524.899000", "103526.898000", "103528.899000", "103530.899000", "103532.899000", "103534.899000", "103536.899000", "103538.899000", "103540.899000", "103542.898000", "103544.899000", "103546.899000", "103548.899000", "103550.899000", "103552.899000", "103554.900000", "103556.900000", "103558.899000", "103600.899000", "103602.898000", "103604.900000", "103606.900000", "103608.900000", "103610.900000", "103612.899000", "103614.898000", "103616.899000", "103618.898000", "103620.899000", "103622.900000", "103624.900000", "103626.900000", "103628.900000", "103630.899000", "103632.898000", "103634.899000", "103636.899000", "103638.900000", "103640.899000", "103642.899000", "103644.899000", "103646.899000", "103648.900000", "103650.898000", "103652.899000", "103654.899000", "103656.900000", "103658.900000", "103700.900000", "103702.900000", "103704.900000", "103706.899000", "103708.898000", "103710.898000", "103712.899000", "103714.900000", "103716.900000", "103718.900000", "103720.899000", "103722.899000", "103724.898000", "103726.898000", "103728.898000", "103730.900000", "103732.900000", "103734.900000", "103736.899000", "103738.900000", "103740.900000", "103742.898000", "103744.898000", "103746.898000", "103748.900000", "103750.900000", "103752.900000", "103754.899000", "103756.899000", "103758.900000", "103800.898000", "103802.898000", "103804.898000", "103807.400000", "103808.899000", "103810.900000", "103812.899000", "103814.900000", "103816.899000", "103818.899000", "103820.898000", "103822.899000", "103824.899000", "103826.900000", "103828.900000", "103830.900000", "103832.899000", "103834.898000", "103836.898000", "103838.898000", "103840.900000", "103842.899000", "103844.899000", "103846.899000", "103848.900000", "103850.900000", "103852.898000", "103854.899000", "103856.899000", "103858.900000", "103900.899000", "103902.900000", "103904.899000", "103906.900000", "103908.899000", "103910.898000", "103912.898000", "103914.898000", "103916.900000", "103918.899000", "103920.900000", "103922.900000", "103924.900000", "103926.900000", "103928.898000", "103930.899000", "103932.899000", "103934.900000", "103936.900000", "103938.899000", "103940.900000", "103942.899000", "103944.898000", "103946.899000", "103948.898000", "103950.900000", "103952.900000", "103954.899000", "103956.900000", "103958.899000", "104000.899000", "104002.899000", "104004.899000", "104006.899000", "104008.900000", "104010.900000", "104012.899000", "104014.900000", "104016.899000", "104018.900000", "104020.899000", "104022.899000", "104024.899000", "104026.900000", "104028.900000", "104030.900000", "104032.900000", "104034.899000", "104036.899000", "104038.899000", "104040.898000", "104042.898000", "104044.899000", "104046.900000", "104048.913000", "104050.899000", "104052.899000", "104054.899000", "104056.899000", "104058.899000", "104100.900000", "104102.900000", "104104.900000", "104106.899000", "104108.900000", "104110.899000", "104112.898000", "104114.899000", "104116.899000", "104118.899000", "104120.900000", "104122.899000", "104124.900000", "104126.900000", "104128.900000", "104130.899000", "104132.899000", "104134.899000", "104136.899000", "104138.900000", "104140.900000", "104142.899000", "104144.900000", "104146.900000", "104148.899000", "104150.898000", "104152.898000", "104154.899000", "104156.900000", "104158.900000", "104200.899000", "104202.900000", "104204.899000", "104206.899000", "104208.899000", "104210.899000", "104212.899000", "104214.900000", "104216.900000", "104218.900000", "104220.900000", "104222.899000", "104224.899000", "104226.899000", "104228.899000", "104230.899000", "104232.900000", "104234.899000", "104236.899000", "104238.899000", "104240.899000", "104242.898000", "104244.898000", "104246.900000", "104248.900000", "104250.899000", "104252.899000", "104254.900000", "104256.900000", "104258.898000", "104300.898000", "104302.899000", "104304.900000", "104307.400000", "104308.900000", "104310.900000", "104312.900000", "104314.899000", "104316.899000", "104318.899000", "104320.899000", "104322.900000", "104324.900000", "104326.900000", "104328.900000", "104330.899000", "104332.899000", "104334.898000", "104336.899000", "104338.899000", "104340.900000", "104342.899000", "104344.900000", "104346.900000", "104348.738000"],
      "InstanceCreationTime": ["103519.904000", "103520.900000", "103522.899000", "103524.899000", "103526.898000", "103528.899000", "103530.899000", "103532.899000", "103534.899000", "103536.899000", "103538.899000", "103540.899000", "103542.898000", "103544.899000", "103546.899000", "103548.899000", "103550.899000", "103552.899000", "103554.900000", "103556.900000", "103558.899000", "103600.899000", "103602.898000", "103604.900000", "103606.900000", "103608.900000", "103610.900000", "103612.899000", "103614.898000", "103616.899000", "103618.898000", "103620.899000", "103622.900000", "103624.900000", "103626.900000", "103628.900000", "103630.899000", "103632.898000", "103634.899000", "103636.899000", "103638.900000", "103640.899000", "103642.899000", "103644.899000", "103646.899000", "103648.900000", "103650.898000", "103652.899000", "103654.899000", "103656.900000", "103658.900000", "103700.900000", "103702.900000", "103704.900000", "103706.899000", "103708.898000", "103710.898000", "103712.899000", "103714.900000", "103716.900000", "103718.900000", "103720.899000", "103722.899000", "103724.898000", "103726.898000", "103728.898000", "103730.900000", "103732.900000", "103734.900000", "103736.899000", "103738.900000", "103740.900000", "103742.898000", "103744.898000", "103746.898000", "103748.900000", "103750.900000", "103752.900000", "103754.899000", "103756.899000", "103758.900000", "103800.898000", "103802.898000", "103804.898000", "103807.400000", "103808.899000", "103810.900000", "103812.899000", "103814.900000", "103816.899000", "103818.899000", "103820.898000", "103822.899000", "103824.899000", "103826.900000", "103828.900000", "103830.900000", "103832.899000", "103834.898000", "103836.898000", "103838.898000", "103840.900000", "103842.899000", "103844.899000", "103846.899000", "103848.900000", "103850.900000", "103852.898000", "103854.899000", "103856.899000", "103858.900000", "103900.899000", "103902.900000", "103904.899000", "103906.900000", "103908.899000", "103910.898000", "103912.898000", "103914.898000", "103916.900000", "103918.899000", "103920.900000", "103922.900000", "103924.900000", "103926.900000", "103928.898000", "103930.899000", "103932.899000", "103934.900000", "103936.900000", "103938.899000", "103940.900000", "103942.899000", "103944.898000", "103946.899000", "103948.898000", "103950.900000", "103952.900000", "103954.899000", "103956.900000", "103958.899000", "104000.899000", "104002.899000", "104004.899000", "104006.899000", "104008.900000", "104010.900000", "104012.899000", "104014.900000", "104016.899000", "104018.900000", "104020.899000", "104022.899000", "104024.899000", "104026.900000", "104028.900000", "104030.900000", "104032.900000", "104034.899000", "104036.899000", "104038.899000", "104040.898000", "104042.898000", "104044.899000", "104046.900000", "104048.913000", "104050.899000", "104052.899000", "104054.899000", "104056.899000", "104058.899000", "104100.900000", "104102.900000", "104104.900000", "104106.899000", "104108.900000", "104110.899000", "104112.898000", "104114.899000", "104116.899000", "104118.899000", "104120.900000", "104122.899000", "104124.900000", "104126.900000", "104128.900000", "104130.899000", "104132.899000", "104134.899000", "104136.899000", "104138.900000", "104140.900000", "104142.899000", "104144.900000", "104146.900000", "104148.899000", "104150.898000", "104152.898000", "104154.899000", "104156.900000", "104158.900000", "104200.899000", "104202.900000", "104204.899000", "104206.899000", "104208.899000", "104210.899000", "104212.899000", "104214.900000", "104216.900000", "104218.900000", "104220.900000", "104222.899000", "104224.899000", "104226.899000", "104228.899000", "104230.899000", "104232.900000", "104234.899000", "104236.899000", "104238.899000", "104240.899000", "104242.898000", "104244.898000", "104246.900000", "104248.900000", "104250.899000", "104252.899000", "104254.900000", "104256.900000", "104258.898000", "104300.898000", "104302.899000", "104304.900000", "104307.400000", "104308.900000", "104310.900000", "104312.900000", "104314.899000", "104316.899000", "104318.899000", "104320.899000", "104322.900000", "104324.900000", "104326.900000", "104328.900000", "104330.899000", "104332.899000", "104334.898000", "104336.899000", "104338.899000", "104340.900000", "104342.899000", "104344.900000", "104346.900000", "104348.738000"],
      "InstanceNumber": [1, 2, 3, 4, 5, 6, 7, 8, 9, 10, 11, 12, 13, 14, 15, 16, 17, 18, 19, 20, 21, 22, 23, 24, 25, 26, 27, 28, 29, 30, 31, 32, 33, 34, 35, 36, 37, 38, 39, 40, 41, 42, 43, 44, 45, 46, 47, 48, 49, 50, 51, 52, 53, 54, 55, 56, 57, 58, 59, 60, 61, 62, 63, 64, 65, 66, 67, 68, 69, 70, 71, 72, 73, 74, 75, 76, 77, 78, 79, 80, 81, 82, 83, 84, 85, 86, 87, 88, 89, 90, 91, 92, 93, 94, 95, 96, 97, 98, 99, 100, 101, 102, 103, 104, 105, 106, 107, 108, 109, 110, 111, 112, 113, 114, 115, 116, 117, 118, 119, 120, 121, 122, 123, 124, 125, 126, 127, 128, 129, 130, 131, 132, 133, 134, 135, 136, 137, 138, 139, 140, 141, 142, 143, 144, 145, 146, 147, 148, 149, 150, 151, 152, 153, 154, 155, 156, 157, 158, 159, 160, 161, 162, 163, 164, 165, 166, 167, 168, 169, 170, 171, 172, 173, 174, 175, 176, 177, 178, 179, 180, 181, 182, 183, 184, 185, 186, 187, 188, 189, 190, 191, 192, 193, 194, 195, 196, 197, 198, 199, 200, 201, 202, 203, 204, 205, 206, 207, 208, 209, 210, 211, 212, 213, 214, 215, 216, 217, 218, 219, 220, 221, 222, 223, 224, 225, 226, 227, 228, 229, 230, 231, 232, 233, 234, 235, 236, 237, 238, 239, 240, 241, 242, 243, 244, 245, 246, 247, 248, 249, 250, 251, 252, 253, 254, 255, 256],
      "LargestImagePixelValue": [3448, 3385, 3408, 3377, 3338, 3303, 3336, 3350, 3369, 3367, 3399, 3433, 3437, 3386, 3363, 3326, 3341, 3382, 3380, 3308, 3293, 3246, 3305, 3347, 3393, 3387, 3352, 3374, 3362, 3311, 3312, 3329, 3343, 3297, 3327, 3342, 3329, 3301, 3349, 3393, 3416, 3401, 3424, 3385, 3384, 3420, 3458, 3455, 3461, 3361, 3390, 3402, 3399, 3387, 3393, 3398, 3338, 3413, 3420, 3405, 3391, 3375, 3416, 3385, 3340, 3370, 3340, 3374, 3372, 3323, 3413, 3405, 3376, 3324, 3332, 3296, 3342, 3383, 3370, 3411, 3330, 3337, 3428, 3415, 3445, 3370, 3342, 3365, 3425, 3423, 3399, 3417, 3323, 3328, 3297, 3310, 3314, 3280, 3322, 3364, 3387, 3319, 3382, 3353, 3334, 3321, 3413, 3414, 3414, 3374, 3348, 3356, 3342, 3327, 3345, 3414, 3401, 3393, 3322, 3283, 3294, 3345, 3370, 3343, 3353, 3354, 3324, 3307, 3261, 3257, 3360, 3420, 3427, 3442, 3400, 3340, 3352, 3359, 3371, 3406, 3388, 3407, 3415, 3436, 3393, 3369, 3384, 3419, 3335, 3274, 3289, 3307, 3329, 3374, 3423, 3406, 3350, 3349, 3332, 3366, 3314, 3331, 3331, 3361, 3328, 3387, 3346, 3354, 3397, 3386, 3335, 3273, 3362, 3368, 3446, 3367, 3398, 3350, 3395, 3313, 3324, 3311, 3315, 3375, 3396, 3437, 3378, 3389, 3379, 3332, 3349, 3367, 3368, 3287, 3313, 3331, 3349, 3372, 3385, 3391, 3388, 3399, 3402, 3408, 3433, 3422, 3431, 3376, 3389, 3382, 3393, 3369, 3400, 3419, 3413, 3390, 3343, 3376, 3348, 3323, 3318, 3359, 3360, 3348, 3366, 3377, 3335, 3400, 3473, 3428, 3355, 3347, 3419, 3385, 3354, 3350, 3372, 3339, 3336, 3330, 3307, 3284, 3284, 3330, 3394, 3332, 3341, 3437, 3457, 3468, 3416, 3362, 3379, 3432, 3422, 3424],
      "WindowCenter": [774.0, 771.0, 772.0, 773.0, 772.0, 771.0, 771.0, 771.0, 772.0, 773.0, 776.0, 778.0, 776.0, 773.0, 771.0, 769.0, 769.0, 770.0, 771.0, 770.0, 769.0, 769.0, 771.0, 774.0, 776.0, 775.0, 773.0, 770.0, 769.0, 768.0, 769.0, 770.0, 770.0, 769.0, 772.0, 771.0, 771.0, 770.0, 770.0, 770.0, 770.0, 770.0, 771.0, 771.0, 772.0, 773.0, 775.0, 775.0, 772.0, 770.0, 770.0, 771.0, 772.0, 772.0, 772.0, 771.0, 770.0, 769.0, 771.0, 773.0, 774.0, 773.0, 773.0, 773.0, 773.0, 773.0, 772.0, 772.0, 772.0, 772.0, 775.0, 776.0, 775.0, 772.0, 770.0, 768.0, 770.0, 771.0, 770.0, 770.0, 770.0, 771.0, 774.0, 775.0, 774.0, 771.0, 770.0, 771.0, 773.0, 775.0, 773.0, 772.0, 770.0, 768.0, 768.0, 769.0, 770.0, 770.0, 773.0, 773.0, 773.0, 772.0, 772.0, 772.0, 772.0, 772.0, 774.0, 775.0, 775.0, 775.0, 775.0, 773.0, 772.0, 772.0, 774.0, 776.0, 775.0, 772.0, 771.0, 770.0, 771.0, 772.0, 774.0, 774.0, 773.0, 771.0, 771.0, 771.0, 770.0, 770.0, 772.0, 773.0, 774.0, 775.0, 775.0, 773.0, 773.0, 772.0, 772.0, 773.0, 774.0, 776.0, 777.0, 777.0, 776.0, 775.0, 776.0, 776.0, 773.0, 770.0, 770.0, 770.0, 771.0, 772.0, 773.0, 772.0, 771.0, 771.0, 772.0, 772.0, 771.0, 772.0, 773.0, 773.0, 772.0, 771.0, 771.0, 772.0, 774.0, 773.0, 773.0, 772.0, 773.0, 773.0, 774.0, 773.0, 772.0, 771.0, 772.0, 772.0, 772.0, 771.0, 772.0, 773.0, 774.0, 775.0, 776.0, 775.0, 773.0, 770.0, 771.0, 771.0, 771.0, 770.0, 771.0, 771.0, 772.0, 773.0, 774.0, 773.0, 772.0, 772.0, 774.0, 775.0, 775.0, 775.0, 773.0, 772.0, 774.0, 776.0, 777.0, 775.0, 773.0, 773.0, 773.0, 772.0, 771.0, 771.0, 771.0, 772.0, 772.0, 772.0, 772.0, 771.0, 770.0, 771.0, 772.0, 772.0, 773.0, 772.0, 772.0, 772.0, 774.0, 775.0, 774.0, 773.0, 772.0, 772.0, 773.0, 772.0, 772.0, 771.0, 773.0, 774.0, 775.0, 773.0, 773.0, 774.0, 774.0, 774.0, 772.0, 773.0, 774.0, 775.0, 774.0, 772.0],
      "WindowWidth": [1675.0, 1668.0, 1671.0, 1673.0, 1670.0, 1666.0, 1666.0, 1667.0, 1670.0, 1672.0, 1681.0, 1686.0, 1681.0, 1671.0, 1666.0, 1662.0, 1663.0, 1665.0, 1667.0, 1664.0, 1662.0, 1662.0, 1668.0, 1676.0, 1681.0, 1677.0, 1671.0, 1663.0, 1663.0, 1660.0, 1661.0, 1664.0, 1664.0, 1662.0, 1669.0, 1667.0, 1667.0, 1664.0, 1665.0, 1663.0, 1664.0, 1664.0, 1667.0, 1668.0, 1669.0, 1672.0, 1678.0, 1678.0, 1670.0, 1664.0, 1665.0, 1668.0, 1669.0, 1669.0, 1671.0, 1668.0, 1663.0, 1663.0, 1668.0, 1672.0, 1675.0, 1673.0, 1673.0, 1672.0, 1673.0, 1674.0, 1671.0, 1669.0, 1669.0, 1669.0, 1677.0, 1682.0, 1677.0, 1670.0, 1664.0, 1661.0, 1665.0, 1667.0, 1665.0, 1664.0, 1664.0, 1667.0, 1675.0, 1678.0, 1675.0, 1668.0, 1665.0, 1666.0, 1673.0, 1678.0, 1674.0, 1670.0, 1664.0, 1660.0, 1661.0, 1663.0, 1664.0, 1666.0, 1671.0, 1673.0, 1673.0, 1671.0, 1672.0, 1670.0, 1670.0, 1670.0, 1675.0, 1677.0, 1679.0, 1679.0, 1677.0, 1673.0, 1671.0, 1671.0, 1675.0, 1680.0, 1678.0, 1671.0, 1667.0, 1664.0, 1667.0, 1670.0, 1676.0, 1676.0, 1673.0, 1666.0, 1666.0, 1666.0, 1664.0, 1664.0, 1670.0, 1674.0, 1677.0, 1678.0, 1677.0, 1673.0, 1672.0, 1671.0, 1671.0, 1673.0, 1676.0, 1680.0, 1684.0, 1683.0, 1681.0, 1679.0, 1681.0, 1679.0, 1672.0, 1665.0, 1663.0, 1664.0, 1667.0, 1670.0, 1671.0, 1669.0, 1669.0, 1667.0, 1670.0, 1669.0, 1668.0, 1669.0, 1673.0, 1674.0, 1669.0, 1667.0, 1667.0, 1670.0, 1675.0, 1674.0, 1672.0, 1670.0, 1674.0, 1674.0, 1675.0, 1673.0, 1671.0, 1668.0, 1670.0, 1669.0, 1670.0, 1669.0, 1669.0, 1673.0, 1676.0, 1679.0, 1681.0, 1679.0, 1673.0, 1665.0, 1666.0, 1667.0, 1667.0, 1665.0, 1666.0, 1668.0, 1671.0, 1673.0, 1674.0, 1673.0, 1671.0, 1669.0, 1675.0, 1678.0, 1679.0, 1678.0, 1673.0, 1671.0, 1674.0, 1681.0, 1684.0, 1678.0, 1673.0, 1673.0, 1673.0, 1671.0, 1668.0, 1667.0, 1668.0, 1669.0, 1670.0, 1671.0, 1670.0, 1666.0, 1664.0, 1666.0, 1669.0, 1670.0, 1672.0, 1671.0, 1669.0, 1669.0, 1675.0, 1677.0, 1676.0, 1672.0, 1669.0, 1669.0, 1671.0, 1670.0, 1670.0, 1668.0, 1671.0, 1674.0, 1677.0, 1673.0, 1674.0, 1676.0, 1676.0, 1673.0, 1670.0, 1672.0, 1676.0, 1678.0, 1676.0, 1671.0]
    },
    "slices": {}
  }
}