{
  "AcquisitionMatrixPE": 100,
  "AcquisitionNumber": 1,
  "AcquisitionTime": "10:07:46.160000",
  "BandwidthPerPixelPhaseEncode": 18.519,
  "BaseResolution": 100,
  "BodyPartExamined": "BRAIN",
  "ConsistencyInfo": "N4_VE11C_LATEST_20160120",
  "ConversionSoftware": "dcm2niix",
  "ConversionSoftwareVersion": "v1.0.20180622 GCC4.9.2",
  "DerivedVendorReportedEchoSpacing": 0.000539986,
  "DeviceSerialNumber": "166078",
  "DwellTime": 2.1e-06,
  "EchoTime": 0.034,
  "EchoTrainLength": 100,
  "EffectiveEchoSpacing": 0.000539986,
  "FlipAngle": 90,
  "ImageOrientationPatientDICOM": [1, 0, 0, 0, 0.986856, -0.161604],
  "ImageType": [
    "ORIGINAL",
    "PRIMARY",
    "M",
    "ND",
    "MOSAIC"
],
  "InPlanePhaseEncodingDirectionDICOM": "COL",
  "InstitutionAddress": "Street_StreetNo_Bei_Jing_District_CN_ZIP",
  "InstitutionName": "BeiJing_Normal_University",
  "InstitutionalDepartmentName": "Department",
  "MRAcquisitionType": "2D",
  "MagneticFieldStrength": 3,
  "Manufacturer": "Siemens",
  "ManufacturersModelName": "Prisma",
  "Modality": "MR",
  "MultibandAccelerationFactor": 3,
  "PartialFourier": 1,
  "PatientPosition": "HFS",
  "PercentPhaseFOV": 100,
  "PhaseEncodingDirection": "j-",
  "PhaseEncodingSteps": 100,
  "PhaseResolution": 1,
  "PixelBandwidth": 2380,
  "ProcedureStepDescription": "BNU_P2018_64CH_Zhen.ZongLei",
  "ProtocolName": "bold_100x100_s3_2x2x2_static_256",
  "PulseSequenceDetails": "%SiemensSeq%_ep2d_bold",
  "ReceiveCoilActiveElements": "HC1-7;NC1",
  "ReceiveCoilName": "HeadNeck_64",
  "ReconMatrixPE": 100,
  "RepetitionTime": 2,
  "SAR": 0.0621423,
  "ScanOptions": "FS",
  "ScanningSequence": "EP",
  "SequenceName": "_epfid2d1_100",
  "SequenceVariant": "SK",
  "SeriesDescription": "bold_100x100_s3_2x2x2_static_256",
  "SeriesNumber": 11,
  "ShimSetting": [-5455, -11461, -1290, 385, -16, -338, -269, 36],
  "SliceThickness": 2,
  "SliceTiming": [1.485, 0, 0.99, 0.0825, 1.0725, 0.165, 1.155, 0.2475, 1.2375, 0.33, 1.32, 0.4125, 1.4025, 0.5775, 1.5675, 0.66, 1.65, 0.7425, 1.7325, 0.825, 1.815, 0.9075, 1.8975, 0.495, 1.485, 0, 0.99, 0.0825, 1.0725, 0.165, 1.155, 0.2475, 1.2375, 0.33, 1.32, 0.4125, 1.4025, 0.5775, 1.5675, 0.66, 1.65, 0.7425, 1.7325, 0.825, 1.815, 0.9075, 1.8975, 0.495, 1.485, 0, 0.99, 0.0825, 1.0725, 0.165, 1.155, 0.2475, 1.2375, 0.33, 1.32, 0.4125, 1.4025, 0.5775, 1.5675, 0.66, 1.65, 0.7425, 1.7325, 0.825, 1.815, 0.9075, 1.8975, 0.495],
  "SoftwareVersions": "syngo_MR_E11",
  "SpacingBetweenSlices": 2,
  "StationName": "AWP166078",
  "TaskName": "naturalvision",
  "TotalReadoutTime": 0.0534586,
  "TxRefAmp": 208.559,
  "dcmmeta_affine": [
    [-2.0, 0.0, 0.0, 100.0],
    [0.0, 1.9737114906311035, -0.32320764660835266, -85.03076171875],
    [0.0, 0.32320764660835266, 1.973711371421814, -97.83645629882812],
    [0.0, 0.0, 0.0, 1.0]
],
  "dcmmeta_reorient_transform": [
    [0.0, -1.0, 0.0, 99.0],
    [1.0, 0.0, 0.0, 0.0],
    [0.0, 0.0, 1.0, 0.0],
    [0.0, 0.0, 0.0, 1.0]
],
  "dcmmeta_shape": [100, 100, 72, 256],
  "dcmmeta_slice_dim": 2,
  "dcmmeta_version": 0.6,
  "global": {
    "const": {
      "AcquisitionMatrix": [100, 0, 0, 100],
      "AngioFlag": "N",
      "BitsAllocated": 16,
      "BitsStored": 12,
      "BodyPartExamined": "BRAIN",
      "Columns": 900,
      "EchoNumbers": 1,
      "EchoTime": 34.0,
      "EchoTrainLength": 100,
      "FlipAngle": 90.0,
      "HighBit": 11,
      "ImageOrientationPatient": [1.0, 0.0, 0.0, 0.0, 0.98685571586892, -0.1616038243881],
      "ImagePositionPatient": [-900.0, -899.85124417369, 63.444159112358],
      "ImageType": [
        "ORIGINAL",
        "PRIMARY",
        "M",
        "ND",
        "MOSAIC"
],
      "ImagedNucleus": "1H",
      "ImagingFrequency": 123.257791,
      "InPlanePhaseEncodingDirection": "COL",
      "MRAcquisitionType": "2D",
      "MagneticFieldStrength": 3.0,
      "Manufacturer": "SIEMENS",
      "ManufacturerModelName": "Prisma",
      "Modality": "MR",
      "NumberOfAverages": 1.0,
      "NumberOfPhaseEncodingSteps": 100,
      "PercentPhaseFieldOfView": 100.0,
      "PercentSampling": 100.0,
      "PerformedProcedureStepStartTime": "090613.470000",
      "PhotometricInterpretation": "MONOCHROME2",
      "PixelBandwidth": 2380.0,
      "PixelRepresentation": 0,
      "PixelSpacing": [2.0, 2.0],
      "ProtocolName": "bold_100x100_s3_2x2x2_static_256",
      "RepetitionTime": 2000.0,
      "Rows": 900,
      "SAR": 0.06214227852428,
      "SamplesPerPixel": 1,
      "ScanOptions": "FS",
      "ScanningSequence": "EP",
      "SequenceName": "*epfid2d1_100",
      "SequenceVariant": "SK",
      "SeriesDescription": "bold_100x100_s3_2x2x2_static_256",
      "SeriesNumber": 11,
      "SeriesTime": "100748.876000",
      "SliceLocation": -82.809171380312,
      "SliceThickness": 2.0,
      "SmallestImagePixelValue": 0,
      "SoftwareVersions": "syngo MR E11",
      "SpacingBetweenSlices": 1.9999999308243,
      "SpecificCharacterSet": "ISO_IR 100",
      "StudyID": "1",
      "StudyTime": "090613.379000",
      "TransmitCoilName": "Body",
      "VariableFlipAngleFlag": "N",
      "WindowCenterWidthExplanation": "Algo1",
      "dBdt": 0.0},
    "slices": {}
  },
  "time": {
    "samples": {
      "AcquisitionNumber": [1, 2, 3, 4, 5, 6, 7, 8, 9, 10, 11, 12, 13, 14, 15, 16, 17, 18, 19, 20, 21, 22, 23, 24, 25, 26, 27, 28, 29, 30, 31, 32, 33, 34, 35, 36, 37, 38, 39, 40, 41, 42, 43, 44, 45, 46, 47, 48, 49, 50, 51, 52, 53, 54, 55, 56, 57, 58, 59, 60, 61, 62, 63, 64, 65, 66, 67, 68, 69, 70, 71, 72, 73, 74, 75, 76, 77, 78, 79, 80, 81, 82, 83, 84, 85, 86, 87, 88, 89, 90, 91, 92, 93, 94, 95, 96, 97, 98, 99, 100, 101, 102, 103, 104, 105, 106, 107, 108, 109, 110, 111, 112, 113, 114, 115, 116, 117, 118, 119, 120, 121, 122, 123, 124, 125, 126, 127, 128, 129, 130, 131, 132, 133, 134, 135, 136, 137, 138, 139, 140, 141, 142, 143, 144, 145, 146, 147, 148, 149, 150, 151, 152, 153, 154, 155, 156, 157, 158, 159, 160, 161, 162, 163, 164, 165, 166, 167, 168, 169, 170, 171, 172, 173, 174, 175, 176, 177, 178, 179, 180, 181, 182, 183, 184, 185, 186, 187, 188, 189, 190, 191, 192, 193, 194, 195, 196, 197, 198, 199, 200, 201, 202, 203, 204, 205, 206, 207, 208, 209, 210, 211, 212, 213, 214, 215, 216, 217, 218, 219, 220, 221, 222, 223, 224, 225, 226, 227, 228, 229, 230, 231, 232, 233, 234, 235, 236, 237, 238, 239, 240, 241, 242, 243, 244, 245, 246, 247, 248, 249, 250, 251, 252, 253, 254, 255, 256],
      "AcquisitionTime": ["100746.160000", "100748.160000", "100750.160000", "100752.160000", "100754.160000", "100756.160000", "100758.160000", "100800.160000", "100802.160000", "100804.160000", "100806.160000", "100808.160000", "100810.160000", "100812.160000", "100814.160000", "100816.160000", "100818.160000", "100820.160000", "100822.160000", "100824.160000", "100826.160000", "100828.160000", "100830.160000", "100832.160000", "100834.160000", "100836.160000", "100838.160000", "100840.160000", "100842.160000", "100844.160000", "100846.160000", "100848.160000", "100850.160000", "100852.160000", "100854.160000", "100856.160000", "100858.160000", "100900.160000", "100902.160000", "100904.160000", "100906.160000", "100908.160000", "100910.160000", "100912.160000", "100914.160000", "100916.160000", "100918.160000", "100920.160000", "100922.160000", "100924.160000", "100926.160000", "100928.160000", "100930.160000", "100932.160000", "100934.160000", "100936.160000", "100938.160000", "100940.160000", "100942.160000", "100944.160000", "100946.160000", "100948.160000", "100950.160000", "100952.160000", "100954.160000", "100956.160000", "100958.160000", "101000.160000", "101002.160000", "101004.160000", "101006.160000", "101008.160000", "101010.160000", "101012.160000", "101014.160000", "101016.160000", "101018.160000", "101020.160000", "101022.160000", "101024.160000", "101026.160000", "101028.160000", "101030.160000", "101032.160000", "101034.160000", "101036.160000", "101038.160000", "101040.160000", "101042.160000", "101044.160000", "101046.160000", "101048.160000", "101050.160000", "101052.160000", "101054.160000", "101056.160000", "101058.160000", "101100.160000", "101102.160000", "101104.160000", "101106.160000", "101108.160000", "101110.160000", "101112.160000", "101114.160000", "101116.160000", "101118.160000", "101120.160000", "101122.160000", "101124.160000", "101126.160000", "101128.160000", "101130.160000", "101132.160000", "101134.160000", "101136.160000", "101138.160000", "101140.160000", "101142.160000", "101144.160000", "101146.160000", "101148.160000", "101150.160000", "101152.160000", "101154.160000", "101156.160000", "101158.160000", "101200.160000", "101202.160000", "101204.160000", "101206.160000", "101208.160000", "101210.160000", "101212.160000", "101214.160000", "101216.160000", "101218.160000", "101220.160000", "101222.160000", "101224.160000", "101226.160000", "101228.160000", "101230.160000", "101232.160000", "101234.160000", "101236.160000", "101238.160000", "101240.160000", "101242.160000", "101244.160000", "101246.160000", "101248.160000", "101250.160000", "101252.160000", "101254.160000", "101256.160000", "101258.160000", "101300.160000", "101302.160000", "101304.160000", "101306.160000", "101308.160000", "101310.160000", "101312.160000", "101314.160000", "101316.160000", "101318.160000", "101320.160000", "101322.160000", "101324.160000", "101326.160000", "101328.160000", "101330.160000", "101332.160000", "101334.160000", "101336.160000", "101338.160000", "101340.160000", "101342.160000", "101344.160000", "101346.160000", "101348.160000", "101350.160000", "101352.160000", "101354.160000", "101356.160000", "101358.160000", "101400.160000", "101402.160000", "101404.160000", "101406.160000", "101408.160000", "101410.160000", "101412.160000", "101414.160000", "101416.160000", "101418.160000", "101420.160000", "101422.160000", "101424.160000", "101426.160000", "101428.160000", "101430.160000", "101432.160000", "101434.160000", "101436.160000", "101438.160000", "101440.160000", "101442.160000", "101444.160000", "101446.160000", "101448.160000", "101450.160000", "101452.160000", "101454.160000", "101456.160000", "101458.160000", "101500.160000", "101502.160000", "101504.160000", "101506.160000", "101508.160000", "101510.160000", "101512.160000", "101514.160000", "101516.160000", "101518.160000", "101520.160000", "101522.160000", "101524.160000", "101526.160000", "101528.160000", "101530.160000", "101532.160000", "101534.160000", "101536.160000", "101538.160000", "101540.160000", "101542.160000", "101544.160000", "101546.160000", "101548.160000", "101550.160000", "101552.160000", "101554.160000", "101556.160000", "101558.160000", "101600.160000", "101602.160000", "101604.160000", "101606.160000", "101608.160000", "101610.160000", "101612.160000", "101614.160000", "101616.160000"],
      "ContentTime": ["100748.880000", "100750.376000", "100752.376000", "100754.376000", "100756.375000", "100758.376000", "100800.375000", "100802.374000", "100804.375000", "100806.376000", "100808.376000", "100810.376000", "100812.375000", "100814.375000", "100816.376000", "100818.376000", "100820.375000", "100822.375000", "100824.375000", "100826.376000", "100828.375000", "100830.376000", "100832.376000", "100834.375000", "100836.374000", "100838.375000", "100840.376000", "100842.375000", "100844.376000", "100846.375000", "100848.376000", "100850.376000", "100852.376000", "100854.374000", "100856.375000", "100858.376000", "100900.376000", "100902.375000", "100904.376000", "100906.376000", "100908.375000", "100910.376000", "100912.375000", "100914.374000", "100916.376000", "100918.375000", "100920.375000", "100922.376000", "100924.375000", "100926.375000", "100928.376000", "100930.374000", "100932.375000", "100934.375000", "100936.375000", "100938.375000", "100940.376000", "100942.376000", "100944.375000", "100946.375000", "100948.374000", "100950.376000", "100952.376000", "100954.376000", "100956.375000", "100958.375000", "101000.376000", "101002.376000", "101004.375000", "101006.374000", "101008.375000", "101010.376000", "101012.375000", "101014.376000", "101016.376000", "101018.376000", "101020.376000", "101022.374000", "101024.374000", "101026.376000", "101028.375000", "101030.375000", "101032.376000", "101034.376000", "101036.375000", "101038.375000", "101040.375000", "101042.375000", "101044.375000", "101046.375000", "101048.375000", "101050.375000", "101052.376000", "101054.376000", "101056.374000", "101058.375000", "101100.375000", "101102.375000", "101104.376000", "101106.376000", "101108.376000", "101110.376000", "101112.375000", "101114.374000", "101116.374000", "101118.375000", "101120.375000", "101122.376000", "101124.376000", "101126.375000", "101128.376000", "101130.376000", "101132.375000", "101134.375000", "101136.376000", "101138.376000", "101140.376000", "101142.376000", "101144.375000", "101146.376000", "101148.375000", "101150.375000", "101152.375000", "101154.376000", "101156.375000", "101158.376000", "101200.375000", "101202.376000", "101204.376000", "101206.374000", "101208.375000", "101210.375000", "101212.388000", "101214.375000", "101216.376000", "101218.376000", "101220.376000", "101222.376000", "101224.374000", "101226.374000", "101228.376000", "101230.375000", "101232.376000", "101234.375000", "101236.375000", "101238.376000", "101240.376000", "101242.375000", "101244.375000", "101246.376000", "101248.376000", "101250.376000", "101252.376000", "101254.375000", "101256.375000", "101258.375000", "101300.375000", "101302.376000", "101304.376000", "101306.376000", "101308.375000", "101310.376000", "101312.375000", "101314.376000", "101316.374000", "101318.375000", "101320.375000", "101322.376000", "101324.375000", "101326.375000", "101328.376000", "101330.376000", "101332.376000", "101334.375000", "101336.374000", "101338.376000", "101340.375000", "101342.375000", "101344.376000", "101346.375000", "101348.376000", "101350.376000", "101352.374000", "101354.374000", "101356.376000", "101358.375000", "101400.376000", "101402.375000", "101404.376000", "101406.375000", "101408.375000", "101410.375000", "101412.376000", "101414.376000", "101416.376000", "101418.376000", "101420.376000", "101422.376000", "101424.375000", "101426.374000", "101428.375000", "101430.376000", "101432.375000", "101434.375000", "101436.375000", "101438.376000", "101440.375000", "101442.376000", "101444.375000", "101446.374000", "101448.376000", "101450.375000", "101452.375000", "101454.375000", "101456.375000", "101458.376000", "101500.375000", "101502.374000", "101504.375000", "101506.376000", "101508.376000", "101510.376000", "101512.376000", "101514.375000", "101516.376000", "101518.376000", "101520.375000", "101522.376000", "101524.376000", "101526.376000", "101528.376000", "101530.376000", "101532.376000", "101534.375000", "101536.375000", "101538.375000", "101540.376000", "101542.375000", "101544.376000", "101546.375000", "101548.375000", "101550.375000", "101552.376000", "101554.375000", "101556.375000", "101558.376000", "101600.376000", "101602.375000", "101604.376000", "101606.376000", "101608.376000", "101610.375000", "101612.375000", "101614.375000", "101616.376000", "101618.069000"],
      "InstanceCreationTime": ["100748.880000", "100750.376000", "100752.376000", "100754.376000", "100756.375000", "100758.376000", "100800.375000", "100802.374000", "100804.375000", "100806.376000", "100808.376000", "100810.376000", "100812.375000", "100814.375000", "100816.376000", "100818.376000", "100820.375000", "100822.375000", "100824.375000", "100826.376000", "100828.375000", "100830.376000", "100832.376000", "100834.375000", "100836.374000", "100838.375000", "100840.376000", "100842.375000", "100844.376000", "100846.375000", "100848.376000", "100850.376000", "100852.376000", "100854.374000", "100856.375000", "100858.376000", "100900.376000", "100902.375000", "100904.376000", "100906.376000", "100908.375000", "100910.376000", "100912.375000", "100914.374000", "100916.376000", "100918.375000", "100920.375000", "100922.376000", "100924.375000", "100926.375000", "100928.376000", "100930.374000", "100932.375000", "100934.375000", "100936.375000", "100938.375000", "100940.376000", "100942.376000", "100944.375000", "100946.375000", "100948.374000", "100950.376000", "100952.376000", "100954.376000", "100956.375000", "100958.375000", "101000.376000", "101002.376000", "101004.375000", "101006.374000", "101008.375000", "101010.376000", "101012.375000", "101014.376000", "101016.376000", "101018.376000", "101020.376000", "101022.374000", "101024.374000", "101026.376000", "101028.375000", "101030.375000", "101032.376000", "101034.376000", "101036.375000", "101038.375000", "101040.375000", "101042.375000", "101044.375000", "101046.375000", "101048.375000", "101050.375000", "101052.376000", "101054.376000", "101056.374000", "101058.375000", "101100.375000", "101102.375000", "101104.376000", "101106.376000", "101108.376000", "101110.376000", "101112.375000", "101114.374000", "101116.374000", "101118.375000", "101120.375000", "101122.376000", "101124.376000", "101126.375000", "101128.376000", "101130.376000", "101132.375000", "101134.375000", "101136.376000", "101138.376000", "101140.376000", "101142.376000", "101144.375000", "101146.376000", "101148.375000", "101150.375000", "101152.375000", "101154.376000", "101156.375000", "101158.376000", "101200.375000", "101202.376000", "101204.376000", "101206.374000", "101208.375000", "101210.375000", "101212.388000", "101214.375000", "101216.376000", "101218.376000", "101220.376000", "101222.376000", "101224.374000", "101226.374000", "101228.376000", "101230.375000", "101232.376000", "101234.375000", "101236.375000", "101238.376000", "101240.376000", "101242.375000", "101244.375000", "101246.376000", "101248.376000", "101250.376000", "101252.376000", "101254.375000", "101256.375000", "101258.375000", "101300.375000", "101302.376000", "101304.376000", "101306.376000", "101308.375000", "101310.376000", "101312.375000", "101314.376000", "101316.374000", "101318.375000", "101320.375000", "101322.376000", "101324.375000", "101326.375000", "101328.376000", "101330.376000", "101332.376000", "101334.375000", "101336.374000", "101338.376000", "101340.375000", "101342.375000", "101344.376000", "101346.375000", "101348.376000", "101350.376000", "101352.374000", "101354.374000", "101356.376000", "101358.375000", "101400.376000", "101402.375000", "101404.376000", "101406.375000", "101408.375000", "101410.375000", "101412.376000", "101414.376000", "101416.376000", "101418.376000", "101420.376000", "101422.376000", "101424.375000", "101426.374000", "101428.375000", "101430.376000", "101432.375000", "101434.375000", "101436.375000", "101438.376000", "101440.375000", "101442.376000", "101444.375000", "101446.374000", "101448.376000", "101450.375000", "101452.375000", "101454.375000", "101456.375000", "101458.376000", "101500.375000", "101502.374000", "101504.375000", "101506.376000", "101508.376000", "101510.376000", "101512.376000", "101514.375000", "101516.376000", "101518.376000", "101520.375000", "101522.376000", "101524.376000", "101526.376000", "101528.376000", "101530.376000", "101532.376000", "101534.375000", "101536.375000", "101538.375000", "101540.376000", "101542.375000", "101544.376000", "101546.375000", "101548.375000", "101550.375000", "101552.376000", "101554.375000", "101556.375000", "101558.376000", "101600.376000", "101602.375000", "101604.376000", "101606.376000", "101608.376000", "101610.375000", "101612.375000", "101614.375000", "101616.376000", "101618.069000"],
      "InstanceNumber": [1, 2, 3, 4, 5, 6, 7, 8, 9, 10, 11, 12, 13, 14, 15, 16, 17, 18, 19, 20, 21, 22, 23, 24, 25, 26, 27, 28, 29, 30, 31, 32, 33, 34, 35, 36, 37, 38, 39, 40, 41, 42, 43, 44, 45, 46, 47, 48, 49, 50, 51, 52, 53, 54, 55, 56, 57, 58, 59, 60, 61, 62, 63, 64, 65, 66, 67, 68, 69, 70, 71, 72, 73, 74, 75, 76, 77, 78, 79, 80, 81, 82, 83, 84, 85, 86, 87, 88, 89, 90, 91, 92, 93, 94, 95, 96, 97, 98, 99, 100, 101, 102, 103, 104, 105, 106, 107, 108, 109, 110, 111, 112, 113, 114, 115, 116, 117, 118, 119, 120, 121, 122, 123, 124, 125, 126, 127, 128, 129, 130, 131, 132, 133, 134, 135, 136, 137, 138, 139, 140, 141, 142, 143, 144, 145, 146, 147, 148, 149, 150, 151, 152, 153, 154, 155, 156, 157, 158, 159, 160, 161, 162, 163, 164, 165, 166, 167, 168, 169, 170, 171, 172, 173, 174, 175, 176, 177, 178, 179, 180, 181, 182, 183, 184, 185, 186, 187, 188, 189, 190, 191, 192, 193, 194, 195, 196, 197, 198, 199, 200, 201, 202, 203, 204, 205, 206, 207, 208, 209, 210, 211, 212, 213, 214, 215, 216, 217, 218, 219, 220, 221, 222, 223, 224, 225, 226, 227, 228, 229, 230, 231, 232, 233, 234, 235, 236, 237, 238, 239, 240, 241, 242, 243, 244, 245, 246, 247, 248, 249, 250, 251, 252, 253, 254, 255, 256],
      "LargestImagePixelValue": [3493, 3444, 3436, 3411, 3351, 3390, 3424, 3411, 3407, 3420, 3411, 3424, 3424, 3385, 3392, 3417, 3482, 3429, 3462, 3462, 3402, 3370, 3372, 3446, 3496, 3435, 3448, 3433, 3493, 3467, 3496, 3424, 3403, 3392, 3363, 3393, 3429, 3431, 3431, 3366, 3356, 3442, 3440, 3453, 3454, 3430, 3419, 3466, 3431, 3414, 3391, 3406, 3471, 3379, 3392, 3418, 3428, 3416, 3399, 3437, 3403, 3416, 3414, 3419, 3506, 3445, 3394, 3450, 3411, 3402, 3392, 3381, 3463, 3422, 3454, 3416, 3450, 3447, 3407, 3432, 3387, 3406, 3425, 3459, 3448, 3436, 3420, 3442, 3426, 3463, 3434, 3473, 3380, 3420, 3439, 3427, 3461, 3481, 3467, 3459, 3484, 3485, 3440, 3450, 3462, 3413, 3414, 3427, 3460, 3490, 3414, 3431, 3393, 3423, 3374, 3394, 3399, 3474, 3453, 3504, 3418, 3477, 3476, 3427, 3363, 3425, 3401, 3384, 3373, 3429, 3425, 3472, 3477, 3480, 3425, 3461, 3440, 3392, 3393, 3412, 3477, 3428, 3411, 3404, 3415, 3352, 3363, 3377, 3353, 3401, 3390, 3423, 3448, 3363, 3397, 3377, 3392, 3400, 3405, 3413, 3393, 3364, 3365, 3417, 3483, 3468, 3476, 3453, 3381, 3471, 3448, 3434, 3457, 3464, 3460, 3434, 3501, 3491, 3433, 3453, 3500, 3491, 3458, 3389, 3391, 3395, 3387, 3466, 3477, 3462, 3392, 3448, 3436, 3411, 3426, 3479, 3510, 3490, 3441, 3415, 3433, 3457, 3499, 3479, 3495, 3494, 3489, 3451, 3463, 3426, 3447, 3427, 3448, 3475, 3471, 3493, 3377, 3421, 3395, 3402, 3391, 3422, 3447, 3405, 3388, 3450, 3412, 3404, 3419, 3413, 3402, 3408, 3307, 3391, 3399, 3481, 3451, 3437, 3451, 3455, 3440, 3466, 3400, 3431, 3433, 3422, 3448, 3458, 3460, 3428, 3458, 3433, 3455, 3461, 3514, 3553],
      "WindowCenter": [773.0, 769.0, 767.0, 767.0, 767.0, 768.0, 770.0, 773.0, 772.0, 771.0, 771.0, 772.0, 771.0, 770.0, 768.0, 768.0, 771.0, 772.0, 772.0, 771.0, 770.0, 769.0, 770.0, 771.0, 771.0, 772.0, 771.0, 771.0, 772.0, 774.0, 775.0, 773.0, 771.0, 770.0, 770.0, 772.0, 774.0, 775.0, 774.0, 773.0, 772.0, 773.0, 774.0, 773.0, 773.0, 772.0, 774.0, 774.0, 773.0, 772.0, 773.0, 773.0, 775.0, 773.0, 772.0, 771.0, 771.0, 773.0, 774.0, 774.0, 774.0, 773.0, 773.0, 773.0, 774.0, 772.0, 771.0, 771.0, 771.0, 772.0, 773.0, 773.0, 774.0, 772.0, 772.0, 772.0, 774.0, 774.0, 773.0, 772.0, 771.0, 771.0, 773.0, 775.0, 775.0, 773.0, 771.0, 769.0, 770.0, 771.0, 772.0, 771.0, 770.0, 770.0, 772.0, 774.0, 774.0, 772.0, 772.0, 772.0, 773.0, 775.0, 774.0, 773.0, 772.0, 771.0, 772.0, 773.0, 775.0, 775.0, 774.0, 773.0, 772.0, 772.0, 774.0, 773.0, 772.0, 772.0, 773.0, 774.0, 774.0, 774.0, 773.0, 771.0, 771.0, 772.0, 772.0, 772.0, 771.0, 771.0, 772.0, 773.0, 775.0, 775.0, 774.0, 772.0, 771.0, 771.0, 772.0, 774.0, 775.0, 775.0, 774.0, 773.0, 772.0, 770.0, 771.0, 772.0, 774.0, 774.0, 774.0, 774.0, 774.0, 773.0, 772.0, 771.0, 772.0, 773.0, 775.0, 773.0, 771.0, 770.0, 771.0, 774.0, 775.0, 773.0, 773.0, 772.0, 772.0, 773.0, 773.0, 773.0, 773.0, 774.0, 774.0, 774.0, 774.0, 773.0, 773.0, 773.0, 773.0, 775.0, 775.0, 774.0, 772.0, 771.0, 771.0, 773.0, 774.0, 774.0, 773.0, 773.0, 772.0, 771.0, 771.0, 772.0, 774.0, 775.0, 773.0, 772.0, 772.0, 772.0, 773.0, 774.0, 774.0, 774.0, 775.0, 774.0, 775.0, 774.0, 774.0, 773.0, 773.0, 774.0, 776.0, 775.0, 773.0, 773.0, 772.0, 772.0, 772.0, 772.0, 773.0, 774.0, 775.0, 775.0, 774.0, 774.0, 776.0, 774.0, 772.0, 771.0, 770.0, 771.0, 772.0, 774.0, 774.0, 773.0, 773.0, 772.0, 772.0, 771.0, 771.0, 771.0, 772.0, 771.0, 772.0, 773.0, 773.0, 773.0, 774.0, 774.0, 773.0, 774.0, 775.0, 775.0],
      "WindowWidth": [1673.0, 1662.0, 1658.0, 1657.0, 1656.0, 1660.0, 1666.0, 1672.0, 1670.0, 1667.0, 1668.0, 1670.0, 1669.0, 1664.0, 1660.0, 1660.0, 1668.0, 1672.0, 1671.0, 1668.0, 1664.0, 1663.0, 1664.0, 1668.0, 1669.0, 1670.0, 1668.0, 1667.0, 1671.0, 1677.0, 1679.0, 1673.0, 1668.0, 1665.0, 1666.0, 1670.0, 1675.0, 1678.0, 1677.0, 1672.0, 1672.0, 1674.0, 1675.0, 1674.0, 1672.0, 1671.0, 1675.0, 1676.0, 1675.0, 1671.0, 1672.0, 1675.0, 1678.0, 1674.0, 1670.0, 1667.0, 1669.0, 1674.0, 1677.0, 1677.0, 1676.0, 1673.0, 1672.0, 1674.0, 1677.0, 1672.0, 1669.0, 1669.0, 1668.0, 1669.0, 1672.0, 1675.0, 1676.0, 1672.0, 1670.0, 1671.0, 1676.0, 1676.0, 1673.0, 1670.0, 1667.0, 1666.0, 1673.0, 1680.0, 1680.0, 1674.0, 1667.0, 1663.0, 1666.0, 1669.0, 1670.0, 1669.0, 1665.0, 1665.0, 1672.0, 1675.0, 1675.0, 1671.0, 1671.0, 1671.0, 1675.0, 1678.0, 1677.0, 1674.0, 1670.0, 1666.0, 1671.0, 1674.0, 1678.0, 1679.0, 1677.0, 1673.0, 1671.0, 1671.0, 1675.0, 1673.0, 1671.0, 1671.0, 1672.0, 1676.0, 1675.0, 1676.0, 1673.0, 1669.0, 1669.0, 1671.0, 1671.0, 1670.0, 1668.0, 1668.0, 1670.0, 1674.0, 1680.0, 1679.0, 1676.0, 1671.0, 1668.0, 1668.0, 1671.0, 1675.0, 1679.0, 1678.0, 1675.0, 1673.0, 1670.0, 1665.0, 1666.0, 1671.0, 1675.0, 1676.0, 1676.0, 1675.0, 1675.0, 1671.0, 1670.0, 1667.0, 1670.0, 1674.0, 1678.0, 1673.0, 1668.0, 1664.0, 1668.0, 1675.0, 1678.0, 1674.0, 1673.0, 1671.0, 1671.0, 1674.0, 1675.0, 1674.0, 1674.0, 1676.0, 1675.0, 1677.0, 1676.0, 1674.0, 1674.0, 1673.0, 1673.0, 1678.0, 1679.0, 1675.0, 1671.0, 1668.0, 1668.0, 1674.0, 1675.0, 1674.0, 1674.0, 1673.0, 1670.0, 1667.0, 1669.0, 1672.0, 1675.0, 1679.0, 1674.0, 1671.0, 1671.0, 1671.0, 1673.0, 1676.0, 1677.0, 1677.0, 1678.0, 1677.0, 1677.0, 1676.0, 1675.0, 1672.0, 1674.0, 1677.0, 1682.0, 1678.0, 1674.0, 1673.0, 1672.0, 1671.0, 1671.0, 1670.0, 1672.0, 1675.0, 1678.0, 1677.0, 1676.0, 1675.0, 1680.0, 1676.0, 1672.0, 1668.0, 1666.0, 1668.0, 1670.0, 1675.0, 1677.0, 1674.0, 1672.0, 1670.0, 1670.0, 1668.0, 1667.0, 1668.0, 1670.0, 1669.0, 1672.0, 1674.0, 1674.0, 1673.0, 1676.0, 1675.0, 1673.0, 1676.0, 1678.0, 1678.0]
    },
    "slices": {}
  }
}