{
 "AcquisitionMatrixPE": 100,
 "AcquisitionNumber": 1,
 "AcquisitionTime": "12:02:58.420000",
 "BandwidthPerPixelPhaseEncode": 18.519,
 "BaseResolution": 100,
 "BodyPartExamined": "BRAIN",
 "ConsistencyInfo": "N4_VE11C_LATEST_20160120",
 "ConversionSoftware": "dcm2niix",
 "ConversionSoftwareVersion": "v1.0.20180622 GCC4.9.2",
 "DerivedVendorReportedEchoSpacing": 0.000539986,
 "DeviceSerialNumber": "166078",
 "DwellTime": 2.1e-06,
 "EchoTime": 0.034,
 "EchoTrainLength": 100,
 "EffectiveEchoSpacing": 0.000539986,
 "FlipAngle": 90,
 "ImageOrientationPatientDICOM": [
  0.998393,
  0.00675559,
  0.0562657,
  0.00174249,
  0.98874,
  -0.149633
 ],
 "ImageType": [
  "ORIGINAL",
  "PRIMARY",
  "M",
  "ND",
  "MOSAIC"
 ],
 "InPlanePhaseEncodingDirectionDICOM": "COL",
 "InstitutionAddress": "Street_StreetNo_Bei_Jing_District_CN_ZIP",
 "InstitutionName": "BeiJing_Normal_University",
 "InstitutionalDepartmentName": "Department",
 "MRAcquisitionType": "2D",
 "MagneticFieldStrength": 3,
 "Manufacturer": "Siemens",
 "ManufacturersModelName": "Prisma",
 "Modality": "MR",
 "MultibandAccelerationFactor": 3,
 "PartialFourier": 1,
 "PatientPosition": "HFS",
 "PercentPhaseFOV": 100,
 "PhaseEncodingDirection": "j-",
 "PhaseEncodingSteps": 100,
 "PhaseResolution": 1,
 "PixelBandwidth": 2380,
 "ProcedureStepDescription": "BNU_P2018_64CH_Zhen.ZongLei",
 "ProtocolName": "bold_100x100_s3_2x2x2_static_256",
 "PulseSequenceDetails": "%SiemensSeq%_ep2d_bold",
 "ReceiveCoilActiveElements": "HC1-7;NC1",
 "ReceiveCoilName": "HeadNeck_64",
 "ReconMatrixPE": 100,
 "RepetitionTime": 2,
 "SAR": 0.0700087,
 "ScanOptions": "FS",
 "ScanningSequence": "EP",
 "SequenceName": "_epfid2d1_100",
 "SequenceVariant": "SK",
 "SeriesDescription": "bold_100x100_s3_2x2x2_static_256",
 "SeriesNumber": 10,
 "ShimSetting": [
  -5452,
  -11487,
  -1283,
  313,
  69,
  -113,
  -156,
  113
 ],
 "SliceThickness": 2,
 "SliceTiming": [
  1.485,
  0,
  0.99,
  0.0825,
  1.0725,
  0.165,
  1.155,
  0.2475,
  1.2375,
  0.33,
  1.32,
  0.4125,
  1.4025,
  0.5775,
  1.5675,
  0.66,
  1.65,
  0.7425,
  1.7325,
  0.825,
  1.815,
  0.9075,
  1.8975,
  0.495,
  1.485,
  0,
  0.99,
  0.0825,
  1.0725,
  0.165,
  1.155,
  0.2475,
  1.2375,
  0.33,
  1.32,
  0.4125,
  1.4025,
  0.5775,
  1.5675,
  0.66,
  1.65,
  0.7425,
  1.7325,
  0.825,
  1.815,
  0.9075,
  1.8975,
  0.495,
  1.485,
  0,
  0.99,
  0.0825,
  1.0725,
  0.165,
  1.155,
  0.2475,
  1.2375,
  0.33,
  1.32,
  0.4125,
  1.4025,
  0.5775,
  1.5675,
  0.66,
  1.65,
  0.7425,
  1.7325,
  0.825,
  1.815,
  0.9075,
  1.8975,
  0.495
 ],
 "SoftwareVersions": "syngo_MR_E11",
 "SpacingBetweenSlices": 2,
 "StationName": "AWP166078",
 "TaskName": "imagenet",
 "TotalReadoutTime": 0.0534586,
 "TxRefAmp": 228.714,
 "dcmmeta_affine": [
  [
   -1.9967859983444214,
   0.003484982531517744,
   0.11328604072332382,
   98.32250213623047
  ],
  [
   -0.013511180877685547,
   1.9774800539016724,
   -0.2989814281463623,
   -83.06224822998047
  ],
  [
   0.11253141611814499,
   0.2992662489414215,
   1.9742786884307861,
   -85.91451263427734
  ],
  [
   0.0,
   0.0,
   0.0,
   1.0
  ]
 ],
 "dcmmeta_reorient_transform": [
  [
   0.0,
   -1.0,
   0.0,
   99.0
  ],
  [
   1.0,
   0.0,
   0.0,
   0.0
  ],
  [
   0.0,
   0.0,
   1.0,
   0.0
  ],
  [
   0.0,
   0.0,
   0.0,
   1.0
  ]
 ],
 "dcmmeta_shape": [
  100,
  100,
  72,
  256
 ],
 "dcmmeta_slice_dim": 2,
 "dcmmeta_version": 0.6,
 "global": {
  "const": {
   "AcquisitionMatrix": [
    100,
    0,
    0,
    100
   ],
   "AngioFlag": "N",
   "BitsAllocated": 16,
   "BitsStored": 12,
   "BodyPartExamined": "BRAIN",
   "Columns": 900,
   "EchoNumbers": 1,
   "EchoTime": 34.0,
   "EchoTrainLength": 100,
   "FlipAngle": 90.0,
   "HighBit": 11,
   "ImageOrientationPatient": [
    0.99839297484957,
    0.00675559029302,
    0.056265706881,
    0.00174249127712,
    0.98874005207592,
    -0.1496331285012
   ],
   "ImagePositionPatient": [
    -898.77588606008,
    -909.10479814853,
    18.406785720393
   ],
   "ImageType": [
    "ORIGINAL",
    "PRIMARY",
    "M",
    "ND",
    "MOSAIC"
   ],
   "ImagedNucleus": "1H",
   "ImagingFrequency": 123.257753,
   "InPlanePhaseEncodingDirection": "COL",
   "MRAcquisitionType": "2D",
   "MagneticFieldStrength": 3.0,
   "Manufacturer": "SIEMENS",
   "ManufacturerModelName": "Prisma",
   "Modality": "MR",
   "NumberOfAverages": 1.0,
   "NumberOfPhaseEncodingSteps": 100,
   "PercentPhaseFieldOfView": 100.0,
   "PercentSampling": 100.0,
   "PerformedProcedureStepStartTime": "110641.103000",
   "PhotometricInterpretation": "MONOCHROME2",
   "PixelBandwidth": 2380.0,
   "PixelRepresentation": 0,
   "PixelSpacing": [
    2.0,
    2.0
   ],
   "ProtocolName": "bold_100x100_s3_2x2x2_static_256",
   "RepetitionTime": 2000.0,
   "Rows": 900,
   "SAR": 0.07000867473645,
   "SamplesPerPixel": 1,
   "ScanOptions": "FS",
   "ScanningSequence": "EP",
   "SequenceName": "*epfid2d1_100",
   "SequenceVariant": "SK",
   "SeriesDescription": "bold_100x100_s3_2x2x2_static_256",
   "SeriesNumber": 10,
   "SeriesTime": "120301.582000",
   "SliceLocation": -66.823277587386,
   "SliceThickness": 2.0,
   "SmallestImagePixelValue": 0,
   "SoftwareVersions": "syngo MR E11",
   "SpacingBetweenSlices": 2.0000000302302,
   "SpecificCharacterSet": "ISO_IR 100",
   "StudyID": "1",
   "StudyTime": "110641.031000",
   "TransmitCoilName": "Body",
   "VariableFlipAngleFlag": "N",
   "WindowCenterWidthExplanation": "Algo1",
   "dBdt": 0.0
  },
  "slices": {}
 },
 "time": {
  "samples": {
   "AcquisitionNumber": [
    1,
    2,
    3,
    4,
    5,
    6,
    7,
    8,
    9,
    10,
    11,
    12,
    13,
    14,
    15,
    16,
    17,
    18,
    19,
    20,
    21,
    22,
    23,
    24,
    25,
    26,
    27,
    28,
    29,
    30,
    31,
    32,
    33,
    34,
    35,
    36,
    37,
    38,
    39,
    40,
    41,
    42,
    43,
    44,
    45,
    46,
    47,
    48,
    49,
    50,
    51,
    52,
    53,
    54,
    55,
    56,
    57,
    58,
    59,
    60,
    61,
    62,
    63,
    64,
    65,
    66,
    67,
    68,
    69,
    70,
    71,
    72,
    73,
    74,
    75,
    76,
    77,
    78,
    79,
    80,
    81,
    82,
    83,
    84,
    85,
    86,
    87,
    88,
    89,
    90,
    91,
    92,
    93,
    94,
    95,
    96,
    97,
    98,
    99,
    100,
    101,
    102,
    103,
    104,
    105,
    106,
    107,
    108,
    109,
    110,
    111,
    112,
    113,
    114,
    115,
    116,
    117,
    118,
    119,
    120,
    121,
    122,
    123,
    124,
    125,
    126,
    127,
    128,
    129,
    130,
    131,
    132,
    133,
    134,
    135,
    136,
    137,
    138,
    139,
    140,
    141,
    142,
    143,
    144,
    145,
    146,
    147,
    148,
    149,
    150,
    151,
    152,
    153,
    154,
    155,
    156,
    157,
    158,
    159,
    160,
    161,
    162,
    163,
    164,
    165,
    166,
    167,
    168,
    169,
    170,
    171,
    172,
    173,
    174,
    175,
    176,
    177,
    178,
    179,
    180,
    181,
    182,
    183,
    184,
    185,
    186,
    187,
    188,
    189,
    190,
    191,
    192,
    193,
    194,
    195,
    196,
    197,
    198,
    199,
    200,
    201,
    202,
    203,
    204,
    205,
    206,
    207,
    208,
    209,
    210,
    211,
    212,
    213,
    214,
    215,
    216,
    217,
    218,
    219,
    220,
    221,
    222,
    223,
    224,
    225,
    226,
    227,
    228,
    229,
    230,
    231,
    232,
    233,
    234,
    235,
    236,
    237,
    238,
    239,
    240,
    241,
    242,
    243,
    244,
    245,
    246,
    247,
    248,
    249,
    250,
    251,
    252,
    253,
    254,
    255,
    256
   ],
   "AcquisitionTime": [
    "120258.420000",
    "120300.420000",
    "120302.420000",
    "120304.420000",
    "120306.420000",
    "120308.420000",
    "120310.420000",
    "120312.420000",
    "120314.420000",
    "120316.420000",
    "120318.420000",
    "120320.420000",
    "120322.420000",
    "120324.420000",
    "120326.420000",
    "120328.420000",
    "120330.420000",
    "120332.420000",
    "120334.420000",
    "120336.420000",
    "120338.420000",
    "120340.420000",
    "120342.420000",
    "120344.420000",
    "120346.420000",
    "120348.420000",
    "120350.420000",
    "120352.420000",
    "120354.420000",
    "120356.420000",
    "120358.420000",
    "120400.420000",
    "120402.420000",
    "120404.420000",
    "120406.420000",
    "120408.420000",
    "120410.420000",
    "120412.420000",
    "120414.420000",
    "120416.420000",
    "120418.420000",
    "120420.420000",
    "120422.420000",
    "120424.420000",
    "120426.420000",
    "120428.420000",
    "120430.420000",
    "120432.420000",
    "120434.420000",
    "120436.420000",
    "120438.420000",
    "120440.420000",
    "120442.420000",
    "120444.420000",
    "120446.420000",
    "120448.420000",
    "120450.420000",
    "120452.420000",
    "120454.420000",
    "120456.420000",
    "120458.420000",
    "120500.420000",
    "120502.420000",
    "120504.420000",
    "120506.420000",
    "120508.420000",
    "120510.420000",
    "120512.420000",
    "120514.420000",
    "120516.420000",
    "120518.420000",
    "120520.420000",
    "120522.420000",
    "120524.420000",
    "120526.420000",
    "120528.420000",
    "120530.420000",
    "120532.420000",
    "120534.420000",
    "120536.420000",
    "120538.420000",
    "120540.420000",
    "120542.420000",
    "120544.420000",
    "120546.420000",
    "120548.420000",
    "120550.420000",
    "120552.420000",
    "120554.420000",
    "120556.420000",
    "120558.420000",
    "120600.420000",
    "120602.420000",
    "120604.420000",
    "120606.420000",
    "120608.420000",
    "120610.420000",
    "120612.420000",
    "120614.420000",
    "120616.420000",
    "120618.420000",
    "120620.420000",
    "120622.420000",
    "120624.420000",
    "120626.420000",
    "120628.420000",
    "120630.420000",
    "120632.420000",
    "120634.420000",
    "120636.420000",
    "120638.420000",
    "120640.420000",
    "120642.420000",
    "120644.420000",
    "120646.420000",
    "120648.420000",
    "120650.420000",
    "120652.420000",
    "120654.420000",
    "120656.420000",
    "120658.420000",
    "120700.420000",
    "120702.420000",
    "120704.420000",
    "120706.420000",
    "120708.420000",
    "120710.420000",
    "120712.420000",
    "120714.420000",
    "120716.420000",
    "120718.420000",
    "120720.420000",
    "120722.420000",
    "120724.420000",
    "120726.420000",
    "120728.420000",
    "120730.420000",
    "120732.420000",
    "120734.420000",
    "120736.420000",
    "120738.420000",
    "120740.420000",
    "120742.420000",
    "120744.420000",
    "120746.420000",
    "120748.420000",
    "120750.420000",
    "120752.420000",
    "120754.420000",
    "120756.420000",
    "120758.420000",
    "120800.420000",
    "120802.420000",
    "120804.420000",
    "120806.420000",
    "120808.420000",
    "120810.420000",
    "120812.420000",
    "120814.420000",
    "120816.420000",
    "120818.420000",
    "120820.420000",
    "120822.420000",
    "120824.420000",
    "120826.420000",
    "120828.420000",
    "120830.420000",
    "120832.420000",
    "120834.420000",
    "120836.420000",
    "120838.420000",
    "120840.420000",
    "120842.420000",
    "120844.420000",
    "120846.420000",
    "120848.420000",
    "120850.420000",
    "120852.420000",
    "120854.420000",
    "120856.420000",
    "120858.420000",
    "120900.420000",
    "120902.420000",
    "120904.420000",
    "120906.420000",
    "120908.420000",
    "120910.420000",
    "120912.420000",
    "120914.420000",
    "120916.420000",
    "120918.420000",
    "120920.420000",
    "120922.420000",
    "120924.420000",
    "120926.420000",
    "120928.420000",
    "120930.420000",
    "120932.420000",
    "120934.420000",
    "120936.420000",
    "120938.420000",
    "120940.420000",
    "120942.420000",
    "120944.420000",
    "120946.420000",
    "120948.420000",
    "120950.420000",
    "120952.420000",
    "120954.420000",
    "120956.420000",
    "120958.420000",
    "121000.420000",
    "121002.420000",
    "121004.420000",
    "121006.420000",
    "121008.420000",
    "121010.420000",
    "121012.420000",
    "121014.420000",
    "121016.420000",
    "121018.420000",
    "121020.420000",
    "121022.420000",
    "121024.420000",
    "121026.420000",
    "121028.420000",
    "121030.420000",
    "121032.420000",
    "121034.420000",
    "121036.420000",
    "121038.420000",
    "121040.420000",
    "121042.420000",
    "121044.420000",
    "121046.420000",
    "121048.420000",
    "121050.420000",
    "121052.420000",
    "121054.420000",
    "121056.420000",
    "121058.420000",
    "121100.420000",
    "121102.420000",
    "121104.420000",
    "121106.420000",
    "121108.420000",
    "121110.420000",
    "121112.420000",
    "121114.420000",
    "121116.420000",
    "121118.420000",
    "121120.420000",
    "121122.420000",
    "121124.420000",
    "121126.420000",
    "121128.420000"
   ],
   "ContentTime": [
    "120301.586000",
    "120303.081000",
    "120305.082000",
    "120307.081000",
    "120309.081000",
    "120311.081000",
    "120312.581000",
    "120314.581000",
    "120317.081000",
    "120319.082000",
    "120321.081000",
    "120323.082000",
    "120325.081000",
    "120327.081000",
    "120329.082000",
    "120331.081000",
    "120333.082000",
    "120335.082000",
    "120337.081000",
    "120339.081000",
    "120341.082000",
    "120343.081000",
    "120345.081000",
    "120347.082000",
    "120349.081000",
    "120351.081000",
    "120353.082000",
    "120355.081000",
    "120357.082000",
    "120359.080000",
    "120401.080000",
    "120403.081000",
    "120405.082000",
    "120407.081000",
    "120409.081000",
    "120410.582000",
    "120413.081000",
    "120415.082000",
    "120417.080000",
    "120418.581000",
    "120420.581000",
    "120423.082000",
    "120425.082000",
    "120427.081000",
    "120429.081000",
    "120431.082000",
    "120433.082000",
    "120435.080000",
    "120437.080000",
    "120439.082000",
    "120441.081000",
    "120443.081000",
    "120445.082000",
    "120447.082000",
    "120449.082000",
    "120451.081000",
    "120453.080000",
    "120455.080000",
    "120457.082000",
    "120459.082000",
    "120501.082000",
    "120503.081000",
    "120505.082000",
    "120507.082000",
    "120509.081000",
    "120511.081000",
    "120513.081000",
    "120515.081000",
    "120517.082000",
    "120519.082000",
    "120521.082000",
    "120523.081000",
    "120525.082000",
    "120527.081000",
    "120529.080000",
    "120531.082000",
    "120533.081000",
    "120535.081000",
    "120537.082000",
    "120539.082000",
    "120541.082000",
    "120543.081000",
    "120545.081000",
    "120547.080000",
    "120549.082000",
    "120551.082000",
    "120553.081000",
    "120555.082000",
    "120557.082000",
    "120559.082000",
    "120601.082000",
    "120603.080000",
    "120605.081000",
    "120607.081000",
    "120609.082000",
    "120611.082000",
    "120613.082000",
    "120615.082000",
    "120616.582000",
    "120619.081000",
    "120620.581000",
    "120623.081000",
    "120625.081000",
    "120627.081000",
    "120629.082000",
    "120631.081000",
    "120633.082000",
    "120635.082000",
    "120637.080000",
    "120639.081000",
    "120641.082000",
    "120643.082000",
    "120645.081000",
    "120647.081000",
    "120649.082000",
    "120651.082000",
    "120653.082000",
    "120655.081000",
    "120657.081000",
    "120659.082000",
    "120701.082000",
    "120703.082000",
    "120705.081000",
    "120707.082000",
    "120709.082000",
    "120710.581000",
    "120713.081000",
    "120715.081000",
    "120717.081000",
    "120719.082000",
    "120721.082000",
    "120723.082000",
    "120725.082000",
    "120727.082000",
    "120729.081000",
    "120731.080000",
    "120732.581000",
    "120735.082000",
    "120737.082000",
    "120739.081000",
    "120741.081000",
    "120743.082000",
    "120745.081000",
    "120747.081000",
    "120749.081000",
    "120751.082000",
    "120753.082000",
    "120755.082000",
    "120757.081000",
    "120759.082000",
    "120801.081000",
    "120803.082000",
    "120805.080000",
    "120807.080000",
    "120809.082000",
    "120811.082000",
    "120813.082000",
    "120815.082000",
    "120817.081000",
    "120819.082000",
    "120821.082000",
    "120823.081000",
    "120825.080000",
    "120827.081000",
    "120829.082000",
    "120831.092000",
    "120833.082000",
    "120835.081000",
    "120837.081000",
    "120839.081000",
    "120841.080000",
    "120843.081000",
    "120845.082000",
    "120847.081000",
    "120849.082000",
    "120851.082000",
    "120853.082000",
    "120855.082000",
    "120857.080000",
    "120859.081000",
    "120901.081000",
    "120903.082000",
    "120905.082000",
    "120907.082000",
    "120909.081000",
    "120911.082000",
    "120913.082000",
    "120915.081000",
    "120917.081000",
    "120919.082000",
    "120921.082000",
    "120923.082000",
    "120925.081000",
    "120927.082000",
    "120929.082000",
    "120931.081000",
    "120933.080000",
    "120935.081000",
    "120937.082000",
    "120939.082000",
    "120941.082000",
    "120943.081000",
    "120945.082000",
    "120947.081000",
    "120949.080000",
    "120951.081000",
    "120953.081000",
    "120955.082000",
    "120957.082000",
    "120959.082000",
    "121001.081000",
    "121003.082000",
    "121005.082000",
    "121007.081000",
    "121009.081000",
    "121011.082000",
    "121013.082000",
    "121015.081000",
    "121017.081000",
    "121019.082000",
    "121021.082000",
    "121023.081000",
    "121025.081000",
    "121027.081000",
    "121029.082000",
    "121031.081000",
    "121033.082000",
    "121035.082000",
    "121037.082000",
    "121039.082000",
    "121041.082000",
    "121043.081000",
    "121045.081000",
    "121047.082000",
    "121049.081000",
    "121050.582000",
    "121053.082000",
    "121055.082000",
    "121057.082000",
    "121059.081000",
    "121101.081000",
    "121103.082000",
    "121105.082000",
    "121107.082000",
    "121109.082000",
    "121111.082000",
    "121113.082000",
    "121115.082000",
    "121117.080000",
    "121119.081000",
    "121121.081000",
    "121123.082000",
    "121125.082000",
    "121127.082000",
    "121129.081000",
    "121130.565000"
   ],
   "InstanceCreationTime": [
    "120301.586000",
    "120303.081000",
    "120305.082000",
    "120307.081000",
    "120309.081000",
    "120311.081000",
    "120312.581000",
    "120314.581000",
    "120317.081000",
    "120319.082000",
    "120321.081000",
    "120323.082000",
    "120325.081000",
    "120327.081000",
    "120329.082000",
    "120331.081000",
    "120333.082000",
    "120335.082000",
    "120337.081000",
    "120339.081000",
    "120341.082000",
    "120343.081000",
    "120345.081000",
    "120347.082000",
    "120349.081000",
    "120351.081000",
    "120353.082000",
    "120355.081000",
    "120357.082000",
    "120359.080000",
    "120401.080000",
    "120403.081000",
    "120405.082000",
    "120407.081000",
    "120409.081000",
    "120410.582000",
    "120413.081000",
    "120415.082000",
    "120417.080000",
    "120418.581000",
    "120420.581000",
    "120423.082000",
    "120425.082000",
    "120427.081000",
    "120429.081000",
    "120431.082000",
    "120433.082000",
    "120435.080000",
    "120437.080000",
    "120439.082000",
    "120441.081000",
    "120443.081000",
    "120445.082000",
    "120447.082000",
    "120449.082000",
    "120451.081000",
    "120453.080000",
    "120455.080000",
    "120457.082000",
    "120459.082000",
    "120501.082000",
    "120503.081000",
    "120505.082000",
    "120507.082000",
    "120509.081000",
    "120511.081000",
    "120513.081000",
    "120515.081000",
    "120517.082000",
    "120519.082000",
    "120521.082000",
    "120523.081000",
    "120525.082000",
    "120527.081000",
    "120529.080000",
    "120531.082000",
    "120533.081000",
    "120535.081000",
    "120537.082000",
    "120539.082000",
    "120541.082000",
    "120543.081000",
    "120545.081000",
    "120547.080000",
    "120549.082000",
    "120551.082000",
    "120553.081000",
    "120555.082000",
    "120557.082000",
    "120559.082000",
    "120601.082000",
    "120603.080000",
    "120605.081000",
    "120607.081000",
    "120609.082000",
    "120611.082000",
    "120613.082000",
    "120615.082000",
    "120616.582000",
    "120619.081000",
    "120620.581000",
    "120623.081000",
    "120625.081000",
    "120627.081000",
    "120629.082000",
    "120631.081000",
    "120633.082000",
    "120635.082000",
    "120637.080000",
    "120639.081000",
    "120641.082000",
    "120643.082000",
    "120645.081000",
    "120647.081000",
    "120649.082000",
    "120651.082000",
    "120653.082000",
    "120655.081000",
    "120657.081000",
    "120659.082000",
    "120701.082000",
    "120703.082000",
    "120705.081000",
    "120707.082000",
    "120709.082000",
    "120710.581000",
    "120713.081000",
    "120715.081000",
    "120717.081000",
    "120719.082000",
    "120721.082000",
    "120723.082000",
    "120725.082000",
    "120727.082000",
    "120729.081000",
    "120731.080000",
    "120732.581000",
    "120735.082000",
    "120737.082000",
    "120739.081000",
    "120741.081000",
    "120743.082000",
    "120745.081000",
    "120747.081000",
    "120749.081000",
    "120751.082000",
    "120753.082000",
    "120755.082000",
    "120757.081000",
    "120759.082000",
    "120801.081000",
    "120803.082000",
    "120805.080000",
    "120807.080000",
    "120809.082000",
    "120811.082000",
    "120813.082000",
    "120815.082000",
    "120817.081000",
    "120819.082000",
    "120821.082000",
    "120823.081000",
    "120825.080000",
    "120827.081000",
    "120829.082000",
    "120831.092000",
    "120833.082000",
    "120835.081000",
    "120837.081000",
    "120839.081000",
    "120841.080000",
    "120843.081000",
    "120845.082000",
    "120847.081000",
    "120849.082000",
    "120851.082000",
    "120853.082000",
    "120855.082000",
    "120857.080000",
    "120859.081000",
    "120901.081000",
    "120903.082000",
    "120905.082000",
    "120907.082000",
    "120909.081000",
    "120911.082000",
    "120913.082000",
    "120915.081000",
    "120917.081000",
    "120919.082000",
    "120921.082000",
    "120923.082000",
    "120925.081000",
    "120927.082000",
    "120929.082000",
    "120931.081000",
    "120933.080000",
    "120935.081000",
    "120937.082000",
    "120939.082000",
    "120941.082000",
    "120943.081000",
    "120945.082000",
    "120947.081000",
    "120949.080000",
    "120951.081000",
    "120953.081000",
    "120955.082000",
    "120957.082000",
    "120959.082000",
    "121001.081000",
    "121003.082000",
    "121005.082000",
    "121007.081000",
    "121009.081000",
    "121011.082000",
    "121013.082000",
    "121015.081000",
    "121017.081000",
    "121019.082000",
    "121021.082000",
    "121023.081000",
    "121025.081000",
    "121027.081000",
    "121029.082000",
    "121031.081000",
    "121033.082000",
    "121035.082000",
    "121037.082000",
    "121039.082000",
    "121041.082000",
    "121043.081000",
    "121045.081000",
    "121047.082000",
    "121049.081000",
    "121050.582000",
    "121053.082000",
    "121055.082000",
    "121057.082000",
    "121059.081000",
    "121101.081000",
    "121103.082000",
    "121105.082000",
    "121107.082000",
    "121109.082000",
    "121111.082000",
    "121113.082000",
    "121115.082000",
    "121117.080000",
    "121119.081000",
    "121121.081000",
    "121123.082000",
    "121125.082000",
    "121127.082000",
    "121129.081000",
    "121130.565000"
   ],
   "InstanceNumber": [
    1,
    2,
    3,
    4,
    5,
    6,
    7,
    8,
    9,
    10,
    11,
    12,
    13,
    14,
    15,
    16,
    17,
    18,
    19,
    20,
    21,
    22,
    23,
    24,
    25,
    26,
    27,
    28,
    29,
    30,
    31,
    32,
    33,
    34,
    35,
    36,
    37,
    38,
    39,
    40,
    41,
    42,
    43,
    44,
    45,
    46,
    47,
    48,
    49,
    50,
    51,
    52,
    53,
    54,
    55,
    56,
    57,
    58,
    59,
    60,
    61,
    62,
    63,
    64,
    65,
    66,
    67,
    68,
    69,
    70,
    71,
    72,
    73,
    74,
    75,
    76,
    77,
    78,
    79,
    80,
    81,
    82,
    83,
    84,
    85,
    86,
    87,
    88,
    89,
    90,
    91,
    92,
    93,
    94,
    95,
    96,
    97,
    98,
    99,
    100,
    101,
    102,
    103,
    104,
    105,
    106,
    107,
    108,
    109,
    110,
    111,
    112,
    113,
    114,
    115,
    116,
    117,
    118,
    119,
    120,
    121,
    122,
    123,
    124,
    125,
    126,
    127,
    128,
    129,
    130,
    131,
    132,
    133,
    134,
    135,
    136,
    137,
    138,
    139,
    140,
    141,
    142,
    143,
    144,
    145,
    146,
    147,
    148,
    149,
    150,
    151,
    152,
    153,
    154,
    155,
    156,
    157,
    158,
    159,
    160,
    161,
    162,
    163,
    164,
    165,
    166,
    167,
    168,
    169,
    170,
    171,
    172,
    173,
    174,
    175,
    176,
    177,
    178,
    179,
    180,
    181,
    182,
    183,
    184,
    185,
    186,
    187,
    188,
    189,
    190,
    191,
    192,
    193,
    194,
    195,
    196,
    197,
    198,
    199,
    200,
    201,
    202,
    203,
    204,
    205,
    206,
    207,
    208,
    209,
    210,
    211,
    212,
    213,
    214,
    215,
    216,
    217,
    218,
    219,
    220,
    221,
    222,
    223,
    224,
    225,
    226,
    227,
    228,
    229,
    230,
    231,
    232,
    233,
    234,
    235,
    236,
    237,
    238,
    239,
    240,
    241,
    242,
    243,
    244,
    245,
    246,
    247,
    248,
    249,
    250,
    251,
    252,
    253,
    254,
    255,
    256
   ],
   "LargestImagePixelValue": [
    3279,
    3303,
    3238,
    3279,
    3220,
    3295,
    3227,
    3333,
    3234,
    3290,
    3212,
    3297,
    3242,
    3339,
    3225,
    3343,
    3274,
    3364,
    3241,
    3361,
    3315,
    3336,
    3327,
    3349,
    3304,
    3331,
    3358,
    3321,
    3377,
    3325,
    3413,
    3328,
    3382,
    3318,
    3397,
    3335,
    3411,
    3303,
    3454,
    3396,
    3361,
    3411,
    3328,
    3435,
    3417,
    3363,
    3451,
    3386,
    3445,
    3392,
    3412,
    3393,
    3402,
    3389,
    3436,
    3444,
    3436,
    3436,
    3436,
    3468,
    3411,
    3501,
    3440,
    3430,
    3433,
    3419,
    3483,
    3453,
    3492,
    3472,
    3444,
    3450,
    3462,
    3474,
    3433,
    3482,
    3474,
    3490,
    3476,
    3476,
    3480,
    3459,
    3494,
    3475,
    3538,
    3483,
    3494,
    3426,
    3457,
    3429,
    3479,
    3452,
    3453,
    3479,
    3468,
    3526,
    3444,
    3516,
    3479,
    3525,
    3492,
    3532,
    3444,
    3500,
    3493,
    3480,
    3521,
    3481,
    3499,
    3478,
    3520,
    3490,
    3483,
    3483,
    3501,
    3496,
    3478,
    3461,
    3493,
    3458,
    3466,
    3468,
    3472,
    3459,
    3428,
    3489,
    3426,
    3441,
    3470,
    3482,
    3481,
    3445,
    3476,
    3443,
    3484,
    3467,
    3506,
    3489,
    3473,
    3469,
    3445,
    3471,
    3447,
    3465,
    3482,
    3483,
    3427,
    3449,
    3463,
    3460,
    3469,
    3469,
    3477,
    3463,
    3477,
    3438,
    3440,
    3444,
    3457,
    3485,
    3477,
    3466,
    3447,
    3457,
    3506,
    3473,
    3465,
    3463,
    3439,
    3429,
    3444,
    3429,
    3461,
    3468,
    3383,
    3417,
    3384,
    3449,
    3442,
    3411,
    3413,
    3445,
    3431,
    3402,
    3444,
    3407,
    3398,
    3424,
    3434,
    3454,
    3428,
    3407,
    3418,
    3427,
    3427,
    3397,
    3425,
    3403,
    3387,
    3387,
    3431,
    3459,
    3421,
    3424,
    3426,
    3439,
    3414,
    3426,
    3381,
    3404,
    3404,
    3389,
    3406,
    3404,
    3429,
    3447,
    3401,
    3417,
    3414,
    3392,
    3394,
    3430,
    3417,
    3421,
    3380,
    3448,
    3431,
    3447,
    3433,
    3446,
    3380,
    3417,
    3426,
    3449,
    3377,
    3390,
    3407,
    3382,
    3364,
    3392,
    3366,
    3367,
    3414,
    3412,
    3410,
    3364,
    3416,
    3415,
    3431,
    3412,
    3425,
    3417,
    3397,
    3395,
    3366,
    3402
   ],
   "WindowCenter": [
    807.0,
    806.0,
    805.0,
    806.0,
    805.0,
    805.0,
    804.0,
    805.0,
    806.0,
    807.0,
    806.0,
    807.0,
    805.0,
    805.0,
    804.0,
    805.0,
    805.0,
    805.0,
    803.0,
    805.0,
    804.0,
    805.0,
    806.0,
    806.0,
    805.0,
    804.0,
    805.0,
    806.0,
    807.0,
    805.0,
    805.0,
    804.0,
    805.0,
    805.0,
    805.0,
    803.0,
    802.0,
    802.0,
    803.0,
    802.0,
    803.0,
    804.0,
    805.0,
    805.0,
    805.0,
    805.0,
    806.0,
    806.0,
    806.0,
    806.0,
    806.0,
    806.0,
    806.0,
    805.0,
    805.0,
    804.0,
    804.0,
    804.0,
    805.0,
    806.0,
    806.0,
    804.0,
    803.0,
    804.0,
    806.0,
    805.0,
    803.0,
    802.0,
    804.0,
    805.0,
    804.0,
    802.0,
    803.0,
    805.0,
    806.0,
    804.0,
    803.0,
    802.0,
    802.0,
    803.0,
    804.0,
    804.0,
    804.0,
    803.0,
    804.0,
    802.0,
    803.0,
    803.0,
    805.0,
    804.0,
    805.0,
    804.0,
    804.0,
    804.0,
    806.0,
    805.0,
    803.0,
    802.0,
    802.0,
    803.0,
    804.0,
    804.0,
    803.0,
    803.0,
    802.0,
    802.0,
    803.0,
    803.0,
    804.0,
    804.0,
