{
  "AcquisitionMatrixPE": 100,
  "AcquisitionNumber": 1,
  "AcquisitionTime": "11:30:3.712500",
  "BandwidthPerPixelPhaseEncode": 18.519,
  "BaseResolution": 100,
  "BodyPartExamined": "BRAIN",
  "ConsistencyInfo": "N4_VE11C_LATEST_20160120",
  "ConversionSoftware": "dcm2niix",
  "ConversionSoftwareVersion": "v1.0.20180622 GCC4.9.2",
  "DerivedVendorReportedEchoSpacing": 0.000539986,
  "DeviceSerialNumber": "166078",
  "DwellTime": 2.1e-06,
  "EchoTime": 0.034,
  "EchoTrainLength": 100,
  "EffectiveEchoSpacing": 0.000539986,
  "FlipAngle": 90,
  "ImageOrientationPatientDICOM": [0.998393, 0.00675559, 0.0562657, 0.00174249, 0.98874, -0.149633],
  "ImageType": [
    "ORIGINAL",
    "PRIMARY",
    "M",
    "ND",
    "MOSAIC"
],
  "InPlanePhaseEncodingDirectionDICOM": "COL",
  "InstitutionAddress": "Street_StreetNo_Bei_Jing_District_CN_ZIP",
  "InstitutionName": "BeiJing_Normal_University",
  "InstitutionalDepartmentName": "Department",
  "MRAcquisitionType": "2D",
  "MagneticFieldStrength": 3,
  "Manufacturer": "Siemens",
  "ManufacturersModelName": "Prisma",
  "Modality": "MR",
  "MultibandAccelerationFactor": 3,
  "PartialFourier": 1,
  "PatientPosition": "HFS",
  "PercentPhaseFOV": 100,
  "PhaseEncodingDirection": "j-",
  "PhaseEncodingSteps": 100,
  "PhaseResolution": 1,
  "PixelBandwidth": 2380,
  "ProcedureStepDescription": "BNU_P2018_64CH_Zhen.ZongLei",
  "ProtocolName": "bold_100x100_s3_2x2x2_static_256",
  "PulseSequenceDetails": "%SiemensSeq%_ep2d_bold",
  "ReceiveCoilActiveElements": "HC1-7;NC1",
  "ReceiveCoilName": "HeadNeck_64",
  "ReconMatrixPE": 100,
  "RepetitionTime": 2,
  "SAR": 0.0700087,
  "ScanOptions": "FS",
  "ScanningSequence": "EP",
  "SequenceName": "_epfid2d1_100",
  "SequenceVariant": "SK",
  "SeriesDescription": "bold_100x100_s3_2x2x2_static_256",
  "SeriesNumber": 5,
  "ShimSetting": [-5452, -11487, -1283, 313, 69, -113, -156, 113],
  "SliceThickness": 2,
  "SliceTiming": [1.485, 0, 0.99, 0.0825, 1.0725, 0.165, 1.155, 0.2475, 1.2375, 0.33, 1.32, 0.4125, 1.4025, 0.5775, 1.5675, 0.66, 1.65, 0.7425, 1.7325, 0.825, 1.815, 0.9075, 1.8975, 0.495, 1.485, 0, 0.99, 0.0825, 1.0725, 0.165, 1.155, 0.2475, 1.2375, 0.33, 1.32, 0.4125, 1.4025, 0.5775, 1.5675, 0.66, 1.65, 0.7425, 1.7325, 0.825, 1.815, 0.9075, 1.8975, 0.495, 1.485, 0, 0.99, 0.0825, 1.0725, 0.165, 1.155, 0.2475, 1.2375, 0.33, 1.32, 0.4125, 1.4025, 0.5775, 1.5675, 0.66, 1.65, 0.7425, 1.7325, 0.825, 1.815, 0.9075, 1.8975, 0.495],
  "SoftwareVersions": "syngo_MR_E11",
  "SpacingBetweenSlices": 2,
  "StationName": "AWP166078",
  "TaskName": "naturalvision",
  "TotalReadoutTime": 0.0534586,
  "TxRefAmp": 228.714,
  "dcmmeta_affine": [
    [-1.9967859983444214, 0.003484982531517744, 0.11328604072332382, 98.32250213623047],
    [-0.013511180877685547, 1.9774800539016724, -0.2989814281463623, -83.06224822998047],
    [0.11253141611814499, 0.2992662489414215, 1.9742786884307861, -85.91451263427734],
    [0.0, 0.0, 0.0, 1.0]
],
  "dcmmeta_reorient_transform": [
    [0.0, -1.0, 0.0, 99.0],
    [1.0, 0.0, 0.0, 0.0],
    [0.0, 0.0, 1.0, 0.0],
    [0.0, 0.0, 0.0, 1.0]
],
  "dcmmeta_shape": [100, 100, 72, 256],
  "dcmmeta_slice_dim": 2,
  "dcmmeta_version": 0.6,
  "global": {
    "const": {
      "AcquisitionMatrix": [100, 0, 0, 100],
      "AngioFlag": "N",
      "BitsAllocated": 16,
      "BitsStored": 12,
      "BodyPartExamined": "BRAIN",
      "Columns": 900,
      "EchoNumbers": 1,
      "EchoTime": 34.0,
      "EchoTrainLength": 100,
      "FlipAngle": 90.0,
      "HighBit": 11,
      "ImageOrientationPatient": [0.99839297484957, 0.00675559029302, 0.056265706881, 0.00174249127712, 0.98874005207592, -0.1496331285012],
      "ImagePositionPatient": [-898.77588606008, -909.10479814853, 18.406785720393],
      "ImageType": [
        "ORIGINAL",
        "PRIMARY",
        "M",
        "ND",
        "MOSAIC"
],
      "ImagedNucleus": "1H",
      "ImagingFrequency": 123.257757,
      "InPlanePhaseEncodingDirection": "COL",
      "MRAcquisitionType": "2D",
      "MagneticFieldStrength": 3.0,
      "Manufacturer": "SIEMENS",
      "ManufacturerModelName": "Prisma",
      "Modality": "MR",
      "NumberOfAverages": 1.0,
      "NumberOfPhaseEncodingSteps": 100,
      "PercentPhaseFieldOfView": 100.0,
      "PercentSampling": 100.0,
      "PerformedProcedureStepStartTime": "110641.103000",
      "PhotometricInterpretation": "MONOCHROME2",
      "PixelBandwidth": 2380.0,
      "PixelRepresentation": 0,
      "PixelSpacing": [2.0, 2.0],
      "ProtocolName": "bold_100x100_s3_2x2x2_static_256",
      "RepetitionTime": 2000.0,
      "Rows": 900,
      "SAR": 0.07000867473645,
      "SamplesPerPixel": 1,
      "ScanOptions": "FS",
      "ScanningSequence": "EP",
      "SequenceName": "*epfid2d1_100",
      "SequenceVariant": "SK",
      "SeriesDescription": "bold_100x100_s3_2x2x2_static_256",
      "SeriesNumber": 5,
      "SeriesTime": "113006.717000",
      "SliceLocation": -66.823277587386,
      "SliceThickness": 2.0,
      "SmallestImagePixelValue": 0,
      "SoftwareVersions": "syngo MR E11",
      "SpacingBetweenSlices": 2.0000000302302,
      "SpecificCharacterSet": "ISO_IR 100",
      "StudyID": "1",
      "StudyTime": "110641.031000",
      "TransmitCoilName": "Body",
      "VariableFlipAngleFlag": "N",
      "WindowCenterWidthExplanation": "Algo1",
      "dBdt": 0.0},
    "slices": {}
  },
  "time": {
    "samples": {
      "AcquisitionNumber": [1, 2, 3, 4, 5, 6, 7, 8, 9, 10, 11, 12, 13, 14, 15, 16, 17, 18, 19, 20, 21, 22, 23, 24, 25, 26, 27, 28, 29, 30, 31, 32, 33, 34, 35, 36, 37, 38, 39, 40, 41, 42, 43, 44, 45, 46, 47, 48, 49, 50, 51, 52, 53, 54, 55, 56, 57, 58, 59, 60, 61, 62, 63, 64, 65, 66, 67, 68, 69, 70, 71, 72, 73, 74, 75, 76, 77, 78, 79, 80, 81, 82, 83, 84, 85, 86, 87, 88, 89, 90, 91, 92, 93, 94, 95, 96, 97, 98, 99, 100, 101, 102, 103, 104, 105, 106, 107, 108, 109, 110, 111, 112, 113, 114, 115, 116, 117, 118, 119, 120, 121, 122, 123, 124, 125, 126, 127, 128, 129, 130, 131, 132, 133, 134, 135, 136, 137, 138, 139, 140, 141, 142, 143, 144, 145, 146, 147, 148, 149, 150, 151, 152, 153, 154, 155, 156, 157, 158, 159, 160, 161, 162, 163, 164, 165, 166, 167, 168, 169, 170, 171, 172, 173, 174, 175, 176, 177, 178, 179, 180, 181, 182, 183, 184, 185, 186, 187, 188, 189, 190, 191, 192, 193, 194, 195, 196, 197, 198, 199, 200, 201, 202, 203, 204, 205, 206, 207, 208, 209, 210, 211, 212, 213, 214, 215, 216, 217, 218, 219, 220, 221, 222, 223, 224, 225, 226, 227, 228, 229, 230, 231, 232, 233, 234, 235, 236, 237, 238, 239, 240, 241, 242, 243, 244, 245, 246, 247, 248, 249, 250, 251, 252, 253, 254, 255, 256],
      "AcquisitionTime": ["113003.712500", "113005.712500", "113007.712500", "113009.712500", "113011.712500", "113013.712500", "113015.712500", "113017.712500", "113019.712500", "113021.712500", "113023.712500", "113025.712500", "113027.712500", "113029.712500", "113031.712500", "113033.712500", "113035.712500", "113037.712500", "113039.712500", "113041.712500", "113043.712500", "113045.712500", "113047.712500", "113049.712500", "113051.712500", "113053.712500", "113055.712500", "113057.712500", "113059.712500", "113101.712500", "113103.712500", "113105.712500", "113107.712500", "113109.712500", "113111.712500", "113113.712500", "113115.712500", "113117.712500", "113119.712500", "113121.712500", "113123.712500", "113125.712500", "113127.712500", "113129.712500", "113131.712500", "113133.712500", "113135.712500", "113137.712500", "113139.712500", "113141.712500", "113143.712500", "113145.712500", "113147.712500", "113149.712500", "113151.712500", "113153.712500", "113155.712500", "113157.712500", "113159.712500", "113201.712500", "113203.712500", "113205.712500", "113207.712500", "113209.712500", "113211.712500", "113213.712500", "113215.712500", "113217.712500", "113219.712500", "113221.712500", "113223.712500", "113225.712500", "113227.712500", "113229.712500", "113231.712500", "113233.712500", "113235.712500", "113237.712500", "113239.712500", "113241.712500", "113243.712500", "113245.712500", "113247.712500", "113249.712500", "113251.712500", "113253.712500", "113255.712500", "113257.712500", "113259.712500", "113301.712500", "113303.712500", "113305.712500", "113307.712500", "113309.712500", "113311.712500", "113313.712500", "113315.712500", "113317.712500", "113319.712500", "113321.712500", "113323.712500", "113325.712500", "113327.712500", "113329.712500", "113331.712500", "113333.712500", "113335.712500", "113337.712500", "113339.712500", "113341.712500", "113343.712500", "113345.712500", "113347.712500", "113349.712500", "113351.712500", "113353.712500", "113355.712500", "113357.712500", "113359.712500", "113401.712500", "113403.712500", "113405.712500", "113407.712500", "113409.712500", "113411.712500", "113413.712500", "113415.712500", "113417.712500", "113419.712500", "113421.712500", "113423.712500", "113425.712500", "113427.712500", "113429.712500", "113431.712500", "113433.712500", "113435.712500", "113437.712500", "113439.712500", "113441.712500", "113443.712500", "113445.712500", "113447.712500", "113449.712500", "113451.712500", "113453.712500", "113455.712500", "113457.712500", "113459.712500", "113501.712500", "113503.712500", "113505.712500", "113507.712500", "113509.712500", "113511.712500", "113513.712500", "113515.712500", "113517.712500", "113519.712500", "113521.712500", "113523.712500", "113525.712500", "113527.712500", "113529.712500", "113531.712500", "113533.712500", "113535.712500", "113537.712500", "113539.712500", "113541.712500", "113543.712500", "113545.712500", "113547.712500", "113549.712500", "113551.712500", "113553.712500", "113555.712500", "113557.712500", "113559.712500", "113601.712500", "113603.712500", "113605.712500", "113607.712500", "113609.712500", "113611.712500", "113613.712500", "113615.712500", "113617.712500", "113619.712500", "113621.712500", "113623.712500", "113625.712500", "113627.712500", "113629.712500", "113631.712500", "113633.712500", "113635.712500", "113637.712500", "113639.712500", "113641.712500", "113643.712500", "113645.712500", "113647.712500", "113649.712500", "113651.712500", "113653.712500", "113655.712500", "113657.712500", "113659.712500", "113701.712500", "113703.712500", "113705.712500", "113707.712500", "113709.712500", "113711.712500", "113713.712500", "113715.712500", "113717.712500", "113719.712500", "113721.712500", "113723.712500", "113725.712500", "113727.712500", "113729.712500", "113731.712500", "113733.712500", "113735.712500", "113737.712500", "113739.712500", "113741.712500", "113743.712500", "113745.712500", "113747.712500", "113749.712500", "113751.712500", "113753.712500", "113755.712500", "113757.712500", "113759.712500", "113801.712500", "113803.712500", "113805.712500", "113807.712500", "113809.712500", "113811.712500", "113813.712500", "113815.712500", "113817.712500", "113819.712500", "113821.712500", "113823.712500", "113825.712500", "113827.712500", "113829.712500", "113831.712500", "113833.712500"],
      "ContentTime": ["113006.720000", "113008.215000", "113010.216000", "113012.216000", "113014.216000", "113016.217000", "113018.216000", "113020.216000", "113022.217000", "113024.216000", "113026.215000", "113028.215000", "113030.215000", "113032.216000", "113034.216000", "113036.217000", "113038.216000", "113040.216000", "113042.215000", "113044.216000", "113046.216000", "113048.216000", "113050.216000", "113052.217000", "113054.217000", "113056.216000", "113058.217000", "113100.216000", "113102.216000", "113104.216000", "113106.216000", "113108.216000", "113110.216000", "113112.216000", "113114.216000", "113116.216000", "113118.215000", "113120.215000", "113122.216000", "113124.215000", "113126.217000", "113128.217000", "113130.217000", "113132.217000", "113134.215000", "113136.215000", "113138.216000", "113140.216000", "113142.215000", "113144.216000", "113146.217000", "113148.217000", "113150.217000", "113152.216000", "113154.215000", "113156.216000", "113158.215000", "113200.216000", "113202.217000", "113204.217000", "113206.217000", "113208.217000", "113210.215000", "113212.215000", "113214.215000", "113216.217000", "113218.218000", "113220.217000", "113222.216000", "113224.217000", "113226.217000", "113228.216000", "113230.215000", "113232.216000", "113234.215000", "113236.217000", "113238.217000", "113240.216000", "113242.217000", "113244.216000", "113246.215000", "113248.216000", "113250.215000", "113252.216000", "113254.216000", "113256.217000", "113258.217000", "113300.217000", "113302.217000", "113304.215000", "113306.215000", "113308.216000", "113310.217000", "113312.217000", "113314.216000", "113316.217000", "113318.217000", "113320.216000", "113322.216000", "113324.215000", "113326.216000", "113328.216000", "113330.217000", "113332.216000", "113334.216000", "113336.217000", "113338.215000", "113340.216000", "113342.216000", "113344.215000", "113346.216000", "113348.216000", "113350.217000", "113352.216000", "113354.215000", "113356.216000", "113358.215000", "113400.216000", "113402.216000", "113404.217000", "113406.216000", "113408.217000", "113410.217000", "113412.216000", "113414.216000", "113416.215000", "113418.216000", "113420.217000", "113422.217000", "113424.217000", "113426.217000", "113428.217000", "113430.216000", "113432.216000", "113434.216000", "113436.216000", "113438.217000", "113440.217000", "113442.216000", "113444.217000", "113446.217000", "113448.216000", "113450.215000", "113452.215000", "113454.215000", "113456.217000", "113458.217000", "113500.217000", "113502.217000", "113504.216000", "113506.216000", "113508.215000", "113510.215000", "113512.216000", "113514.217000", "113516.216000", "113518.217000", "113520.217000", "113522.215000", "113524.215000", "113526.215000", "113528.215000", "113530.216000", "113532.217000", "113534.216000", "113536.217000", "113538.216000", "113540.216000", "113542.215000", "113544.215000", "113546.216000", "113548.216000", "113550.216000", "113552.216000", "113554.217000", "113556.217000", "113558.215000", "113600.215000", "113602.215000", "113604.215000", "113606.216000", "113608.217000", "113610.216000", "113612.217000", "113614.215000", "113616.216000", "113618.215000", "113620.216000", "113622.215000", "113624.216000", "113626.217000", "113628.218000", "113630.217000", "113632.217000", "113634.216000", "113636.215000", "113638.216000", "113640.216000", "113642.216000", "113644.216000", "113646.216000", "113648.216000", "113650.216000", "113652.216000", "113654.215000", "113656.216000", "113658.217000", "113700.217000", "113702.216000", "113704.217000", "113706.217000", "113708.216000", "113710.215000", "113712.216000", "113714.216000", "113716.217000", "113718.217000", "113720.216000", "113722.217000", "113724.216000", "113726.216000", "113728.216000", "113730.215000", "113732.216000", "113734.216000", "113736.217000", "113738.216000", "113740.216000", "113742.216000", "113744.216000", "113746.216000", "113748.216000", "113750.217000", "113752.217000", "113754.217000", "113756.217000", "113758.217000", "113800.216000", "113802.216000", "113804.215000", "113806.215000", "113808.216000", "113810.217000", "113812.217000", "113814.217000", "113816.216000", "113818.216000", "113820.216000", "113822.216000", "113824.215000", "113826.217000", "113828.216000", "113830.216000", "113832.231000", "113834.216000", "113835.898000"],
      "InstanceCreationTime": ["113006.720000", "113008.215000", "113010.216000", "113012.216000", "113014.216000", "113016.217000", "113018.216000", "113020.216000", "113022.217000", "113024.216000", "113026.215000", "113028.215000", "113030.215000", "113032.216000", "113034.216000", "113036.217000", "113038.216000", "113040.216000", "113042.215000", "113044.216000", "113046.216000", "113048.216000", "113050.216000", "113052.217000", "113054.217000", "113056.216000", "113058.217000", "113100.216000", "113102.216000", "113104.216000", "113106.216000", "113108.216000", "113110.216000", "113112.216000", "113114.216000", "113116.216000", "113118.215000", "113120.215000", "113122.216000", "113124.215000", "113126.217000", "113128.217000", "113130.217000", "113132.217000", "113134.215000", "113136.215000", "113138.216000", "113140.216000", "113142.215000", "113144.216000", "113146.217000", "113148.217000", "113150.217000", "113152.216000", "113154.215000", "113156.216000", "113158.215000", "113200.216000", "113202.217000", "113204.217000", "113206.217000", "113208.217000", "113210.215000", "113212.215000", "113214.215000", "113216.217000", "113218.218000", "113220.217000", "113222.216000", "113224.217000", "113226.217000", "113228.216000", "113230.215000", "113232.216000", "113234.215000", "113236.217000", "113238.217000", "113240.216000", "113242.217000", "113244.216000", "113246.215000", "113248.216000", "113250.215000", "113252.216000", "113254.216000", "113256.217000", "113258.217000", "113300.217000", "113302.217000", "113304.215000", "113306.215000", "113308.216000", "113310.217000", "113312.217000", "113314.216000", "113316.217000", "113318.217000", "113320.216000", "113322.216000", "113324.215000", "113326.216000", "113328.216000", "113330.217000", "113332.216000", "113334.216000", "113336.217000", "113338.215000", "113340.216000", "113342.216000", "113344.215000", "113346.216000", "113348.216000", "113350.217000", "113352.216000", "113354.215000", "113356.216000", "113358.215000", "113400.216000", "113402.216000", "113404.217000", "113406.216000", "113408.217000", "113410.217000", "113412.216000", "113414.216000", "113416.215000", "113418.216000", "113420.217000", "113422.217000", "113424.217000", "113426.217000", "113428.217000", "113430.216000", "113432.216000", "113434.216000", "113436.216000", "113438.217000", "113440.217000", "113442.216000", "113444.217000", "113446.217000", "113448.216000", "113450.215000", "113452.215000", "113454.215000", "113456.217000", "113458.217000", "113500.217000", "113502.217000", "113504.216000", "113506.216000", "113508.215000", "113510.215000", "113512.216000", "113514.217000", "113516.216000", "113518.217000", "113520.217000", "113522.215000", "113524.215000", "113526.215000", "113528.215000", "113530.216000", "113532.217000", "113534.216000", "113536.217000", "113538.216000", "113540.216000", "113542.215000", "113544.215000", "113546.216000", "113548.216000", "113550.216000", "113552.216000", "113554.217000", "113556.217000", "113558.215000", "113600.215000", "113602.215000", "113604.215000", "113606.216000", "113608.217000", "113610.216000", "113612.217000", "113614.215000", "113616.216000", "113618.215000", "113620.216000", "113622.215000", "113624.216000", "113626.217000", "113628.218000", "113630.217000", "113632.217000", "113634.216000", "113636.215000", "113638.216000", "113640.216000", "113642.216000", "113644.216000", "113646.216000", "113648.216000", "113650.216000", "113652.216000", "113654.215000", "113656.216000", "113658.217000", "113700.217000", "113702.216000", "113704.217000", "113706.217000", "113708.216000", "113710.215000", "113712.216000", "113714.216000", "113716.217000", "113718.217000", "113720.216000", "113722.217000", "113724.216000", "113726.216000", "113728.216000", "113730.215000", "113732.216000", "113734.216000", "113736.217000", "113738.216000", "113740.216000", "113742.216000", "113744.216000", "113746.216000", "113748.216000", "113750.217000", "113752.217000", "113754.217000", "113756.217000", "113758.217000", "113800.216000", "113802.216000", "113804.215000", "113806.215000", "113808.216000", "113810.217000", "113812.217000", "113814.217000", "113816.216000", "113818.216000", "113820.216000", "113822.216000", "113824.215000", "113826.217000", "113828.216000", "113830.216000", "113832.231000", "113834.216000", "113835.898000"],
      "InstanceNumber": [1, 2, 3, 4, 5, 6, 7, 8, 9, 10, 11, 12, 13, 14, 15, 16, 17, 18, 19, 20, 21, 22, 23, 24, 25, 26, 27, 28, 29, 30, 31, 32, 33, 34, 35, 36, 37, 38, 39, 40, 41, 42, 43, 44, 45, 46, 47, 48, 49, 50, 51, 52, 53, 54, 55, 56, 57, 58, 59, 60, 61, 62, 63, 64, 65, 66, 67, 68, 69, 70, 71, 72, 73, 74, 75, 76, 77, 78, 79, 80, 81, 82, 83, 84, 85, 86, 87, 88, 89, 90, 91, 92, 93, 94, 95, 96, 97, 98, 99, 100, 101, 102, 103, 104, 105, 106, 107, 108, 109, 110, 111, 112, 113, 114, 115, 116, 117, 118, 119, 120, 121, 122, 123, 124, 125, 126, 127, 128, 129, 130, 131, 132, 133, 134, 135, 136, 137, 138, 139, 140, 141, 142, 143, 144, 145, 146, 147, 148, 149, 150, 151, 152, 153, 154, 155, 156, 157, 158, 159, 160, 161, 162, 163, 164, 165, 166, 167, 168, 169, 170, 171, 172, 173, 174, 175, 176, 177, 178, 179, 180, 181, 182, 183, 184, 185, 186, 187, 188, 189, 190, 191, 192, 193, 194, 195, 196, 197, 198, 199, 200, 201, 202, 203, 204, 205, 206, 207, 208, 209, 210, 211, 212, 213, 214, 215, 216, 217, 218, 219, 220, 221, 222, 223, 224, 225, 226, 227, 228, 229, 230, 231, 232, 233, 234, 235, 236, 237, 238, 239, 240, 241, 242, 243, 244, 245, 246, 247, 248, 249, 250, 251, 252, 253, 254, 255, 256],
      "LargestImagePixelValue": [3441, 3374, 3394, 3316, 3371, 3324, 3428, 3322, 3407, 3337, 3382, 3323, 3380, 3341, 3320, 3363, 3319, 3391, 3298, 3364, 3210, 3372, 3280, 3377, 3316, 3350, 3355, 3369, 3340, 3346, 3278, 3372, 3341, 3431, 3315, 3382, 3358, 3281, 3359, 3307, 3377, 3319, 3373, 3350, 3389, 3350, 3383, 3308, 3401, 3307, 3437, 3320, 3443, 3364, 3448, 3344, 3420, 3353, 3398, 3318, 3433, 3337, 3415, 3357, 3402, 3347, 3387, 3377, 3366, 3388, 3338, 3418, 3343, 3446, 3379, 3441, 3371, 3448, 3375, 3442, 3370, 3456, 3376, 3425, 3368, 3455, 3378, 3433, 3386, 3449, 3381, 3483, 3370, 3480, 3390, 3507, 3447, 3480, 3401, 3460, 3465, 3469, 3467, 3473, 3484, 3448, 3530, 3403, 3536, 3465, 3524, 3484, 3481, 3493, 3509, 3483, 3525, 3500, 3488, 3519, 3500, 3545, 3475, 3536, 3451, 3546, 3497, 3599, 3513, 3587, 3537, 3595, 3531, 3571, 3520, 3565, 3571, 3555, 3583, 3544, 3606, 3562, 3597, 3526, 3614, 3569, 3594, 3534, 3626, 3593, 3633, 3608, 3641, 3599, 3607, 3549, 3583, 3539, 3628, 3558, 3623, 3576, 3657, 3581, 3639, 3597, 3623, 3549, 3638, 3581, 3596, 3592, 3646, 3607, 3658, 3635, 3620, 3598, 3681, 3611, 3621, 3596, 3621, 3583, 3592, 3608, 3583, 3617, 3614, 3606, 3647, 3638, 3617, 3603, 3595, 3580, 3591, 3587, 3594, 3603, 3610, 3577, 3562, 3616, 3624, 3569, 3600, 3604, 3615, 3604, 3594, 3607, 3612, 3599, 3618, 3621, 3633, 3607, 3632, 3651, 3627, 3624, 3638, 3619, 3629, 3613, 3634, 3643, 3656, 3607, 3578, 3591, 3571, 3603, 3583, 3578, 3613, 3614, 3628, 3585, 3606, 3577, 3627, 3578, 3621, 3611, 3629, 3599, 3602, 3631, 3604, 3618, 3590, 3608, 3605, 3635],
      "WindowCenter": [805.0, 804.0, 803.0, 803.0, 803.0, 803.0, 804.0, 803.0, 804.0, 803.0, 804.0, 805.0, 805.0, 803.0, 803.0, 803.0, 803.0, 804.0, 803.0, 802.0, 800.0, 800.0, 800.0, 802.0, 803.0, 803.0, 802.0, 802.0, 802.0, 803.0, 805.0, 804.0, 802.0, 803.0, 803.0, 803.0, 803.0, 802.0, 803.0, 803.0, 804.0, 802.0, 803.0, 805.0, 805.0, 805.0, 805.0, 804.0, 804.0, 803.0, 804.0, 803.0, 804.0, 802.0, 803.0, 802.0, 803.0, 803.0, 804.0, 804.0, 804.0, 803.0, 803.0, 803.0, 803.0, 802.0, 802.0, 803.0, 803.0, 803.0, 802.0, 803.0, 803.0, 804.0, 803.0, 803.0, 802.0, 804.0, 804.0, 804.0, 802.0, 803.0, 804.0, 804.0, 802.0, 802.0, 802.0, 803.0, 803.0, 803.0, 803.0, 803.0, 802.0, 802.0, 802.0, 802.0, 802.0, 803.0, 803.0, 803.0, 803.0, 803.0, 804.0, 804.0, 802.0, 801.0, 803.0, 803.0, 803.0, 802.0, 803.0, 803.0, 804.0, 803.0, 803.0, 803.0, 803.0, 803.0, 803.0, 805.0, 805.0, 804.0, 804.0, 805.0, 805.0, 805.0, 804.0, 804.0, 802.0, 802.0, 802.0, 802.0, 801.0, 801.0, 801.0, 802.0, 802.0, 802.0, 802.0, 801.0, 803.0, 803.0, 803.0, 802.0, 802.0, 802.0, 803.0, 803.0, 803.0, 802.0, 802.0, 802.0, 803.0, 803.0, 805.0, 805.0, 804.0, 803.0, 803.0, 803.0, 804.0, 803.0, 802.0, 801.0, 802.0, 803.0, 803.0, 801.0, 802.0, 802.0, 803.0, 802.0, 801.0, 800.0, 801.0, 804.0, 803.0, 802.0, 803.0, 802.0, 803.0, 803.0, 802.0, 801.0, 801.0, 803.0, 803.0, 802.0, 800.0, 800.0, 801.0, 801.0, 801.0, 801.0, 802.0, 801.0, 800.0, 800.0, 801.0, 803.0, 804.0, 805.0, 803.0, 802.0, 802.0, 803.0, 803.0, 803.0, 802.0, 802.0, 803.0, 803.0, 803.0, 802.0, 803.0, 804.0, 804.0, 802.0, 801.0, 800.0, 800.0, 800.0, 800.0, 801.0, 801.0, 801.0, 801.0, 802.0, 802.0, 801.0, 801.0, 803.0, 802.0, 801.0, 801.0, 802.0, 803.0, 803.0, 804.0, 803.0, 803.0, 802.0, 802.0, 801.0, 803.0, 802.0, 802.0, 802.0, 801.0, 801.0, 801.0, 803.0, 804.0, 803.0, 802.0, 802.0],
      "WindowWidth": [1720.0, 1717.0, 1716.0, 1715.0, 1716.0, 1715.0, 1718.0, 1716.0, 1717.0, 1715.0, 1718.0, 1720.0, 1719.0, 1716.0, 1715.0, 1715.0, 1716.0, 1719.0, 1716.0, 1714.0, 1707.0, 1709.0, 1707.0, 1712.0, 1715.0, 1715.0, 1713.0, 1712.0, 1713.0, 1717.0, 1720.0, 1718.0, 1713.0, 1716.0, 1716.0, 1717.0, 1715.0, 1712.0, 1716.0, 1716.0, 1717.0, 1714.0, 1716.0, 1719.0, 1721.0, 1721.0, 1721.0, 1718.0, 1719.0, 1716.0, 1718.0, 1715.0, 1717.0, 1713.0, 1715.0, 1713.0, 1715.0, 1715.0, 1717.0, 1717.0, 1719.0, 1714.0, 1716.0, 1715.0, 1715.0, 1713.0, 1714.0, 1715.0, 1716.0, 1715.0, 1713.0, 1716.0, 1715.0, 1717.0, 1715.0, 1715.0, 1713.0, 1716.0, 1717.0, 1717.0, 1711.0, 1716.0, 1717.0, 1716.0, 1712.0, 1713.0, 1711.0, 1714.0, 1714.0, 1715.0, 1714.0, 1716.0, 1713.0, 1714.0, 1712.0, 1714.0, 1714.0, 1715.0, 1715.0, 1716.0, 1716.0, 1716.0, 1718.0, 1716.0, 1712.0, 1710.0, 1716.0, 1714.0, 1716.0, 1713.0, 1714.0, 1716.0, 1716.0, 1715.0, 1714.0, 1715.0, 1715.0, 1714.0, 1716.0, 1720.0, 1719.0, 1718.0, 1717.0, 1719.0, 1720.0, 1721.0, 1718.0, 1717.0, 1712.0, 1713.0, 1713.0, 1712.0, 1710.0, 1710.0, 1710.0, 1711.0, 1713.0, 1712.0, 1712.0, 1710.0, 1714.0, 1715.0, 1715.0, 1712.0, 1712.0, 1712.0, 1714.0, 1714.0, 1713.0, 1712.0, 1711.0, 1712.0, 1714.0, 1713.0, 1719.0, 1719.0, 1718.0, 1713.0, 1715.0, 1714.0, 1716.0, 1714.0, 1713.0, 1708.0, 1711.0, 1714.0, 1715.0, 1710.0, 1713.0, 1712.0, 1713.0, 1711.0, 1708.0, 1706.0, 1710.0, 1716.0, 1714.0, 1712.0, 1714.0, 1712.0, 1713.0, 1714.0, 1713.0, 1709.0, 1710.0, 1713.0, 1715.0, 1711.0, 1708.0, 1708.0, 1709.0, 1709.0, 1709.0, 1710.0, 1711.0, 1709.0, 1708.0, 1708.0, 1710.0, 1714.0, 1717.0, 1718.0, 1715.0, 1712.0, 1712.0, 1715.0, 1715.0, 1713.0, 1711.0, 1711.0, 1715.0, 1715.0, 1713.0, 1710.0, 1713.0, 1717.0, 1716.0, 1710.0, 1708.0, 1707.0, 1707.0, 1706.0, 1707.0, 1709.0, 1710.0, 1709.0, 1710.0, 1711.0, 1713.0, 1709.0, 1708.0, 1713.0, 1712.0, 1709.0, 1709.0, 1711.0, 1714.0, 1715.0, 1717.0, 1714.0, 1713.0, 1712.0, 1711.0, 1710.0, 1714.0, 1712.0, 1712.0, 1710.0, 1709.0, 1709.0, 1710.0, 1714.0, 1717.0, 1714.0, 1712.0, 1710.0]
    },
    "slices": {}
  }
}