{
  "AcquisitionMatrixPE": 100,
  "AcquisitionNumber": 1,
  "AcquisitionTime": "12:22:39.892500",
  "BandwidthPerPixelPhaseEncode": 18.519,
  "BaseResolution": 100,
  "BodyPartExamined": "BRAIN",
  "ConsistencyInfo": "N4_VE11C_LATEST_20160120",
  "ConversionSoftware": "dcm2niix",
  "ConversionSoftwareVersion": "v1.0.20180622 GCC4.9.2",
  "DerivedVendorReportedEchoSpacing": 0.000539986,
  "DeviceSerialNumber": "166078",
  "DwellTime": 2.1e-06,
  "EchoTime": 0.034,
  "EchoTrainLength": 100,
  "EffectiveEchoSpacing": 0.000539986,
  "FlipAngle": 90,
  "ImageOrientationPatientDICOM": [0.998393, 0.00675559, 0.0562657, 0.00174249, 0.98874, -0.149633],
  "ImageType": [
    "ORIGINAL",
    "PRIMARY",
    "M",
    "ND",
    "MOSAIC"
],
  "InPlanePhaseEncodingDirectionDICOM": "COL",
  "InstitutionAddress": "Street_StreetNo_Bei_Jing_District_CN_ZIP",
  "InstitutionName": "BeiJing_Normal_University",
  "InstitutionalDepartmentName": "Department",
  "MRAcquisitionType": "2D",
  "MagneticFieldStrength": 3,
  "Manufacturer": "Siemens",
  "ManufacturersModelName": "Prisma",
  "Modality": "MR",
  "MultibandAccelerationFactor": 3,
  "PartialFourier": 1,
  "PatientPosition": "HFS",
  "PercentPhaseFOV": 100,
  "PhaseEncodingDirection": "j-",
  "PhaseEncodingSteps": 100,
  "PhaseResolution": 1,
  "PixelBandwidth": 2380,
  "ProcedureStepDescription": "BNU_P2018_64CH_Zhen.ZongLei",
  "ProtocolName": "bold_100x100_s3_2x2x2_static_256",
  "PulseSequenceDetails": "%SiemensSeq%_ep2d_bold",
  "ReceiveCoilActiveElements": "HC1-7;NC1",
  "ReceiveCoilName": "HeadNeck_64",
  "ReconMatrixPE": 100,
  "RepetitionTime": 2,
  "SAR": 0.0700087,
  "ScanOptions": "FS",
  "ScanningSequence": "EP",
  "SequenceName": "_epfid2d1_100",
  "SequenceVariant": "SK",
  "SeriesDescription": "bold_100x100_s3_2x2x2_static_256",
  "SeriesNumber": 12,
  "ShimSetting": [-5452, -11487, -1283, 313, 69, -113, -156, 113],
  "SliceThickness": 2,
  "SliceTiming": [1.485, 0, 0.99, 0.0825, 1.0725, 0.165, 1.155, 0.2475, 1.2375, 0.33, 1.32, 0.4125, 1.4025, 0.5775, 1.5675, 0.66, 1.65, 0.7425, 1.7325, 0.825, 1.815, 0.9075, 1.8975, 0.495, 1.485, 0, 0.99, 0.0825, 1.0725, 0.165, 1.155, 0.2475, 1.2375, 0.33, 1.32, 0.4125, 1.4025, 0.5775, 1.5675, 0.66, 1.65, 0.7425, 1.7325, 0.825, 1.815, 0.9075, 1.8975, 0.495, 1.485, 0, 0.99, 0.0825, 1.0725, 0.165, 1.155, 0.2475, 1.2375, 0.33, 1.32, 0.4125, 1.4025, 0.5775, 1.5675, 0.66, 1.65, 0.7425, 1.7325, 0.825, 1.815, 0.9075, 1.8975, 0.495],
  "SoftwareVersions": "syngo_MR_E11",
  "SpacingBetweenSlices": 2,
  "StationName": "AWP166078",
  "TaskName": "naturalvision",
  "TotalReadoutTime": 0.0534586,
  "TxRefAmp": 228.714,
  "dcmmeta_affine": [
    [-1.9967859983444214, 0.003484982531517744, 0.11328604072332382, 98.32250213623047],
    [-0.013511180877685547, 1.9774800539016724, -0.2989814281463623, -83.06224822998047],
    [0.11253141611814499, 0.2992662489414215, 1.9742786884307861, -85.91451263427734],
    [0.0, 0.0, 0.0, 1.0]
],
  "dcmmeta_reorient_transform": [
    [0.0, -1.0, 0.0, 99.0],
    [1.0, 0.0, 0.0, 0.0],
    [0.0, 0.0, 1.0, 0.0],
    [0.0, 0.0, 0.0, 1.0]
],
  "dcmmeta_shape": [100, 100, 72, 256],
  "dcmmeta_slice_dim": 2,
  "dcmmeta_version": 0.6,
  "global": {
    "const": {
      "AcquisitionMatrix": [100, 0, 0, 100],
      "AngioFlag": "N",
      "BitsAllocated": 16,
      "BitsStored": 12,
      "BodyPartExamined": "BRAIN",
      "Columns": 900,
      "EchoNumbers": 1,
      "EchoTime": 34.0,
      "EchoTrainLength": 100,
      "FlipAngle": 90.0,
      "HighBit": 11,
      "ImageOrientationPatient": [0.99839297484957, 0.00675559029302, 0.056265706881, 0.00174249127712, 0.98874005207592, -0.1496331285012],
      "ImagePositionPatient": [-898.77588606008, -909.10479814853, 18.406785720393],
      "ImageType": [
        "ORIGINAL",
        "PRIMARY",
        "M",
        "ND",
        "MOSAIC"
],
      "ImagedNucleus": "1H",
      "ImagingFrequency": 123.257763,
      "InPlanePhaseEncodingDirection": "COL",
      "MRAcquisitionType": "2D",
      "MagneticFieldStrength": 3.0,
      "Manufacturer": "SIEMENS",
      "ManufacturerModelName": "Prisma",
      "Modality": "MR",
      "NumberOfAverages": 1.0,
      "NumberOfPhaseEncodingSteps": 100,
      "PercentPhaseFieldOfView": 100.0,
      "PercentSampling": 100.0,
      "PerformedProcedureStepStartTime": "110641.103000",
      "PhotometricInterpretation": "MONOCHROME2",
      "PixelBandwidth": 2380.0,
      "PixelRepresentation": 0,
      "PixelSpacing": [2.0, 2.0],
      "ProtocolName": "bold_100x100_s3_2x2x2_static_256",
      "RepetitionTime": 2000.0,
      "Rows": 900,
      "SAR": 0.07000867473645,
      "SamplesPerPixel": 1,
      "ScanOptions": "FS",
      "ScanningSequence": "EP",
      "SequenceName": "*epfid2d1_100",
      "SequenceVariant": "SK",
      "SeriesDescription": "bold_100x100_s3_2x2x2_static_256",
      "SeriesNumber": 12,
      "SeriesTime": "122242.055000",
      "SliceLocation": -66.823277587386,
      "SliceThickness": 2.0,
      "SmallestImagePixelValue": 0,
      "SoftwareVersions": "syngo MR E11",
      "SpacingBetweenSlices": 2.0000000302302,
      "SpecificCharacterSet": "ISO_IR 100",
      "StudyID": "1",
      "StudyTime": "110641.031000",
      "TransmitCoilName": "Body",
      "VariableFlipAngleFlag": "N",
      "WindowCenterWidthExplanation": "Algo1",
      "dBdt": 0.0},
    "slices": {}
  },
  "time": {
    "samples": {
      "AcquisitionNumber": [1, 2, 3, 4, 5, 6, 7, 8, 9, 10, 11, 12, 13, 14, 15, 16, 17, 18, 19, 20, 21, 22, 23, 24, 25, 26, 27, 28, 29, 30, 31, 32, 33, 34, 35, 36, 37, 38, 39, 40, 41, 42, 43, 44, 45, 46, 47, 48, 49, 50, 51, 52, 53, 54, 55, 56, 57, 58, 59, 60, 61, 62, 63, 64, 65, 66, 67, 68, 69, 70, 71, 72, 73, 74, 75, 76, 77, 78, 79, 80, 81, 82, 83, 84, 85, 86, 87, 88, 89, 90, 91, 92, 93, 94, 95, 96, 97, 98, 99, 100, 101, 102, 103, 104, 105, 106, 107, 108, 109, 110, 111, 112, 113, 114, 115, 116, 117, 118, 119, 120, 121, 122, 123, 124, 125, 126, 127, 128, 129, 130, 131, 132, 133, 134, 135, 136, 137, 138, 139, 140, 141, 142, 143, 144, 145, 146, 147, 148, 149, 150, 151, 152, 153, 154, 155, 156, 157, 158, 159, 160, 161, 162, 163, 164, 165, 166, 167, 168, 169, 170, 171, 172, 173, 174, 175, 176, 177, 178, 179, 180, 181, 182, 183, 184, 185, 186, 187, 188, 189, 190, 191, 192, 193, 194, 195, 196, 197, 198, 199, 200, 201, 202, 203, 204, 205, 206, 207, 208, 209, 210, 211, 212, 213, 214, 215, 216, 217, 218, 219, 220, 221, 222, 223, 224, 225, 226, 227, 228, 229, 230, 231, 232, 233, 234, 235, 236, 237, 238, 239, 240, 241, 242, 243, 244, 245, 246, 247, 248, 249, 250, 251, 252, 253, 254, 255, 256],
      "AcquisitionTime": ["122239.892500", "122241.892500", "122243.892500", "122245.892500", "122247.892500", "122249.892500", "122251.892500", "122253.892500", "122255.892500", "122257.892500", "122259.892500", "122301.892500", "122303.892500", "122305.892500", "122307.892500", "122309.892500", "122311.892500", "122313.892500", "122315.892500", "122317.892500", "122319.892500", "122321.892500", "122323.892500", "122325.892500", "122327.892500", "122329.892500", "122331.892500", "122333.892500", "122335.892500", "122337.892500", "122339.892500", "122341.892500", "122343.892500", "122345.892500", "122347.892500", "122349.892500", "122351.892500", "122353.892500", "122355.892500", "122357.892500", "122359.892500", "122401.892500", "122403.892500", "122405.892500", "122407.892500", "122409.892500", "122411.892500", "122413.892500", "122415.892500", "122417.892500", "122419.892500", "122421.892500", "122423.892500", "122425.892500", "122427.892500", "122429.892500", "122431.892500", "122433.892500", "122435.892500", "122437.892500", "122439.892500", "122441.892500", "122443.892500", "122445.892500", "122447.892500", "122449.892500", "122451.892500", "122453.892500", "122455.892500", "122457.892500", "122459.892500", "122501.892500", "122503.892500", "122505.892500", "122507.892500", "122509.892500", "122511.892500", "122513.892500", "122515.892500", "122517.892500", "122519.892500", "122521.892500", "122523.892500", "122525.892500", "122527.892500", "122529.892500", "122531.892500", "122533.892500", "122535.892500", "122537.892500", "122539.892500", "122541.892500", "122543.892500", "122545.892500", "122547.892500", "122549.892500", "122551.892500", "122553.892500", "122555.892500", "122557.892500", "122559.892500", "122601.892500", "122603.892500", "122605.892500", "122607.892500", "122609.892500", "122611.892500", "122613.892500", "122615.892500", "122617.892500", "122619.892500", "122621.892500", "122623.892500", "122625.892500", "122627.892500", "122629.892500", "122631.892500", "122633.892500", "122635.892500", "122637.892500", "122639.892500", "122641.892500", "122643.892500", "122645.892500", "122647.892500", "122649.892500", "122651.892500", "122653.892500", "122655.892500", "122657.892500", "122659.892500", "122701.892500", "122703.892500", "122705.892500", "122707.892500", "122709.892500", "122711.892500", "122713.892500", "122715.892500", "122717.892500", "122719.892500", "122721.892500", "122723.892500", "122725.892500", "122727.892500", "122729.892500", "122731.892500", "122733.892500", "122735.892500", "122737.892500", "122739.892500", "122741.892500", "122743.892500", "122745.892500", "122747.892500", "122749.892500", "122751.892500", "122753.892500", "122755.892500", "122757.892500", "122759.892500", "122801.892500", "122803.892500", "122805.892500", "122807.892500", "122809.892500", "122811.892500", "122813.892500", "122815.892500", "122817.892500", "122819.892500", "122821.892500", "122823.892500", "122825.892500", "122827.892500", "122829.892500", "122831.892500", "122833.892500", "122835.892500", "122837.892500", "122839.892500", "122841.892500", "122843.892500", "122845.892500", "122847.892500", "122849.892500", "122851.892500", "122853.892500", "122855.892500", "122857.892500", "122859.892500", "122901.892500", "122903.892500", "122905.892500", "122907.892500", "122909.892500", "122911.892500", "122913.892500", "122915.892500", "122917.892500", "122919.892500", "122921.892500", "122923.892500", "122925.892500", "122927.892500", "122929.892500", "122931.892500", "122933.892500", "122935.892500", "122937.892500", "122939.892500", "122941.892500", "122943.892500", "122945.892500", "122947.892500", "122949.892500", "122951.892500", "122953.892500", "122955.892500", "122957.892500", "122959.892500", "123001.892500", "123003.892500", "123005.892500", "123007.892500", "123009.892500", "123011.892500", "123013.892500", "123015.892500", "123017.892500", "123019.892500", "123021.892500", "123023.892500", "123025.892500", "123027.892500", "123029.892500", "123031.892500", "123033.892500", "123035.892500", "123037.892500", "123039.892500", "123041.892500", "123043.892500", "123045.892500", "123047.892500", "123049.892500", "123051.892500", "123053.892500", "123055.892500", "123057.892500", "123059.892500", "123101.892500", "123103.892500", "123105.892500", "123107.892500", "123109.892500"],
      "ContentTime": ["122242.059000", "122243.555000", "122245.554000", "122247.555000", "122249.554000", "122251.554000", "122253.554000", "122255.555000", "122257.555000", "122259.554000", "122301.555000", "122303.554000", "122305.554000", "122307.555000", "122309.554000", "122311.554000", "122313.555000", "122315.554000", "122317.556000", "122319.555000", "122321.554000", "122323.554000", "122325.555000", "122327.554000", "122329.554000", "122331.554000", "122333.555000", "122335.555000", "122337.554000", "122339.555000", "122341.555000", "122343.554000", "122345.554000", "122347.554000", "122349.555000", "122351.555000", "122353.555000", "122355.554000", "122357.554000", "122359.555000", "122401.554000", "122403.555000", "122405.555000", "122407.554000", "122409.554000", "122411.555000", "122413.554000", "122415.554000", "122417.555000", "122419.555000", "122421.554000", "122423.555000", "122425.555000", "122427.555000", "122429.554000", "122431.555000", "122433.554000", "122435.555000", "122437.554000", "122439.554000", "122441.555000", "122443.554000", "122445.555000", "122447.554000", "122449.554000", "122451.555000", "122453.555000", "122455.555000", "122457.554000", "122459.554000", "122501.555000", "122503.554000", "122505.554000", "122507.554000", "122509.555000", "122511.555000", "122513.555000", "122515.554000", "122517.554000", "122519.555000", "122521.555000", "122523.555000", "122525.555000", "122527.554000", "122529.555000", "122531.555000", "122533.555000", "122535.555000", "122537.556000", "122539.555000", "122541.555000", "122543.555000", "122545.554000", "122547.555000", "122549.554000", "122551.555000", "122553.555000", "122555.556000", "122557.554000", "122559.555000", "122601.554000", "122603.554000", "122605.555000", "122607.555000", "122609.555000", "122611.555000", "122613.555000", "122615.554000", "122617.555000", "122619.555000", "122621.554000", "122623.555000", "122626.055000", "122628.055000", "122629.556000", "122631.554000", "122633.555000", "122635.555000", "122637.554000", "122639.554000", "122641.554000", "122643.555000", "122645.555000", "122647.556000", "122649.555000", "122651.555000", "122653.554000", "122655.554000", "122657.554000", "122659.555000", "122701.554000", "122703.555000", "122705.555000", "122707.555000", "122709.554000", "122711.555000", "122713.555000", "122715.554000", "122717.555000", "122719.555000", "122721.555000", "122723.555000", "122725.555000", "122727.554000", "122729.555000", "122731.554000", "122733.555000", "122735.555000", "122737.555000", "122739.556000", "122741.554000", "122743.555000", "122745.554000", "122747.555000", "122749.555000", "122751.554000", "122753.555000", "122755.555000", "122757.556000", "122759.555000", "122801.555000", "122803.555000", "122805.555000", "122807.555000", "122809.554000", "122812.055000", "122813.555000", "122815.555000", "122817.554000", "122819.554000", "122821.555000", "122823.555000", "122825.555000", "122827.554000", "122829.554000", "122831.555000", "122833.554000", "122835.554000", "122837.555000", "122839.554000", "122841.555000", "122843.555000", "122845.555000", "122847.555000", "122849.555000", "122851.555000", "122853.555000", "122855.554000", "122857.555000", "122859.555000", "122901.555000", "122903.555000", "122905.555000", "122907.556000", "122909.555000", "122911.555000", "122913.554000", "122915.554000", "122917.555000", "122919.555000", "122921.555000", "122923.554000", "122925.555000", "122927.554000", "122929.555000", "122931.555000", "122933.554000", "122935.554000", "122937.555000", "122939.568000", "122941.555000", "122943.555000", "122945.555000", "122947.555000", "122949.555000", "122951.555000", "122953.554000", "122955.555000", "122957.555000", "122959.556000", "123001.555000", "123003.555000", "123005.554000", "123007.555000", "123009.555000", "123011.555000", "123013.555000", "123015.554000", "123017.556000", "123019.555000", "123021.555000", "123023.555000", "123025.555000", "123027.555000", "123029.555000", "123031.554000", "123033.555000", "123035.555000", "123037.555000", "123039.555000", "123041.555000", "123043.555000", "123045.555000", "123047.555000", "123049.555000", "123051.555000", "123053.554000", "123055.554000", "123057.555000", "123059.554000", "123101.555000", "123103.555000", "123105.555000", "123107.555000", "123109.556000", "123111.510000"],
      "InstanceCreationTime": ["122242.059000", "122243.555000", "122245.554000", "122247.555000", "122249.554000", "122251.554000", "122253.554000", "122255.555000", "122257.555000", "122259.554000", "122301.555000", "122303.554000", "122305.554000", "122307.555000", "122309.554000", "122311.554000", "122313.555000", "122315.554000", "122317.556000", "122319.555000", "122321.554000", "122323.554000", "122325.555000", "122327.554000", "122329.554000", "122331.554000", "122333.555000", "122335.555000", "122337.554000", "122339.555000", "122341.555000", "122343.554000", "122345.554000", "122347.554000", "122349.555000", "122351.555000", "122353.555000", "122355.554000", "122357.554000", "122359.555000", "122401.554000", "122403.555000", "122405.555000", "122407.554000", "122409.554000", "122411.555000", "122413.554000", "122415.554000", "122417.555000", "122419.555000", "122421.554000", "122423.555000", "122425.555000", "122427.555000", "122429.554000", "122431.555000", "122433.554000", "122435.555000", "122437.554000", "122439.554000", "122441.555000", "122443.554000", "122445.555000", "122447.554000", "122449.554000", "122451.555000", "122453.555000", "122455.555000", "122457.554000", "122459.554000", "122501.555000", "122503.554000", "122505.554000", "122507.554000", "122509.555000", "122511.555000", "122513.555000", "122515.554000", "122517.554000", "122519.555000", "122521.555000", "122523.555000", "122525.555000", "122527.554000", "122529.555000", "122531.555000", "122533.555000", "122535.555000", "122537.556000", "122539.555000", "122541.555000", "122543.555000", "122545.554000", "122547.555000", "122549.554000", "122551.555000", "122553.555000", "122555.556000", "122557.554000", "122559.555000", "122601.554000", "122603.554000", "122605.555000", "122607.555000", "122609.555000", "122611.555000", "122613.555000", "122615.554000", "122617.555000", "122619.555000", "122621.554000", "122623.555000", "122626.055000", "122628.055000", "122629.556000", "122631.554000", "122633.555000", "122635.555000", "122637.554000", "122639.554000", "122641.554000", "122643.555000", "122645.555000", "122647.556000", "122649.555000", "122651.555000", "122653.554000", "122655.554000", "122657.554000", "122659.555000", "122701.554000", "122703.555000", "122705.555000", "122707.555000", "122709.554000", "122711.555000", "122713.555000", "122715.554000", "122717.555000", "122719.555000", "122721.555000", "122723.555000", "122725.555000", "122727.554000", "122729.555000", "122731.554000", "122733.555000", "122735.555000", "122737.555000", "122739.556000", "122741.554000", "122743.555000", "122745.554000", "122747.555000", "122749.555000", "122751.554000", "122753.555000", "122755.555000", "122757.556000", "122759.555000", "122801.555000", "122803.555000", "122805.555000", "122807.555000", "122809.554000", "122812.055000", "122813.555000", "122815.555000", "122817.554000", "122819.554000", "122821.555000", "122823.555000", "122825.555000", "122827.554000", "122829.554000", "122831.555000", "122833.554000", "122835.554000", "122837.555000", "122839.554000", "122841.555000", "122843.555000", "122845.555000", "122847.555000", "122849.555000", "122851.555000", "122853.555000", "122855.554000", "122857.555000", "122859.555000", "122901.555000", "122903.555000", "122905.555000", "122907.556000", "122909.555000", "122911.555000", "122913.554000", "122915.554000", "122917.555000", "122919.555000", "122921.555000", "122923.554000", "122925.555000", "122927.554000", "122929.555000", "122931.555000", "122933.554000", "122935.554000", "122937.555000", "122939.568000", "122941.555000", "122943.555000", "122945.555000", "122947.555000", "122949.555000", "122951.555000", "122953.554000", "122955.555000", "122957.555000", "122959.556000", "123001.555000", "123003.555000", "123005.554000", "123007.555000", "123009.555000", "123011.555000", "123013.555000", "123015.554000", "123017.556000", "123019.555000", "123021.555000", "123023.555000", "123025.555000", "123027.555000", "123029.555000", "123031.554000", "123033.555000", "123035.555000", "123037.555000", "123039.555000", "123041.555000", "123043.555000", "123045.555000", "123047.555000", "123049.555000", "123051.555000", "123053.554000", "123055.554000", "123057.555000", "123059.554000", "123101.555000", "123103.555000", "123105.555000", "123107.555000", "123109.556000", "123111.510000"],
      "InstanceNumber": [1, 2, 3, 4, 5, 6, 7, 8, 9, 10, 11, 12, 13, 14, 15, 16, 17, 18, 19, 20, 21, 22, 23, 24, 25, 26, 27, 28, 29, 30, 31, 32, 33, 34, 35, 36, 37, 38, 39, 40, 41, 42, 43, 44, 45, 46, 47, 48, 49, 50, 51, 52, 53, 54, 55, 56, 57, 58, 59, 60, 61, 62, 63, 64, 65, 66, 67, 68, 69, 70, 71, 72, 73, 74, 75, 76, 77, 78, 79, 80, 81, 82, 83, 84, 85, 86, 87, 88, 89, 90, 91, 92, 93, 94, 95, 96, 97, 98, 99, 100, 101, 102, 103, 104, 105, 106, 107, 108, 109, 110, 111, 112, 113, 114, 115, 116, 117, 118, 119, 120, 121, 122, 123, 124, 125, 126, 127, 128, 129, 130, 131, 132, 133, 134, 135, 136, 137, 138, 139, 140, 141, 142, 143, 144, 145, 146, 147, 148, 149, 150, 151, 152, 153, 154, 155, 156, 157, 158, 159, 160, 161, 162, 163, 164, 165, 166, 167, 168, 169, 170, 171, 172, 173, 174, 175, 176, 177, 178, 179, 180, 181, 182, 183, 184, 185, 186, 187, 188, 189, 190, 191, 192, 193, 194, 195, 196, 197, 198, 199, 200, 201, 202, 203, 204, 205, 206, 207, 208, 209, 210, 211, 212, 213, 214, 215, 216, 217, 218, 219, 220, 221, 222, 223, 224, 225, 226, 227, 228, 229, 230, 231, 232, 233, 234, 235, 236, 237, 238, 239, 240, 241, 242, 243, 244, 245, 246, 247, 248, 249, 250, 251, 252, 253, 254, 255, 256],
      "LargestImagePixelValue": [3320, 3266, 3258, 3270, 3236, 3281, 3241, 3279, 3239, 3285, 3228, 3268, 3273, 3307, 3240, 3237, 3258, 3274, 3274, 3231, 3261, 3217, 3274, 3248, 3254, 3252, 3230, 3230, 3250, 3215, 3288, 3295, 3279, 3282, 3229, 3279, 3242, 3274, 3314, 3244, 3304, 3257, 3236, 3267, 3276, 3259, 3296, 3235, 3280, 3271, 3264, 3248, 3296, 3220, 3323, 3308, 3261, 3243, 3267, 3278, 3281, 3325, 3260, 3251, 3321, 3224, 3265, 3274, 3280, 3218, 3294, 3279, 3317, 3272, 3267, 3251, 3276, 3324, 3256, 3265, 3317, 3224, 3224, 3264, 3333, 3244, 3273, 3228, 3353, 3302, 3315, 3301, 3241, 3287, 3324, 3255, 3322, 3217, 3287, 3331, 3281, 3275, 3298, 3302, 3249, 3307, 3306, 3334, 3274, 3308, 3291, 3232, 3290, 3287, 3355, 3282, 3297, 3326, 3342, 3282, 3282, 3347, 3312, 3330, 3331, 3414, 3266, 3389, 3373, 3336, 3317, 3359, 3286, 3341, 3288, 3399, 3330, 3372, 3312, 3379, 3316, 3405, 3337, 3459, 3396, 3498, 3408, 3433, 3397, 3451, 3404, 3483, 3451, 3521, 3438, 3513, 3449, 3441, 3443, 3422, 3438, 3452, 3482, 3484, 3468, 3495, 3495, 3446, 3517, 3467, 3528, 3485, 3497, 3493, 3518, 3529, 3512, 3530, 3541, 3540, 3525, 3549, 3497, 3500, 3460, 3510, 3513, 3510, 3510, 3519, 3526, 3538, 3524, 3560, 3527, 3539, 3547, 3491, 3531, 3518, 3528, 3521, 3519, 3521, 3521, 3514, 3531, 3536, 3531, 3547, 3523, 3520, 3509, 3495, 3514, 3529, 3540, 3507, 3518, 3537, 3549, 3537, 3540, 3544, 3531, 3535, 3537, 3484, 3517, 3533, 3562, 3578, 3543, 3519, 3537, 3506, 3550, 3560, 3564, 3528, 3550, 3514, 3543, 3547, 3523, 3529, 3507, 3526, 3503, 3567, 3476, 3513, 3508, 3464, 3503, 3467],
      "WindowCenter": [806.0, 804.0, 804.0, 804.0, 803.0, 804.0, 804.0, 806.0, 807.0, 809.0, 807.0, 806.0, 805.0, 805.0, 805.0, 805.0, 804.0, 804.0, 805.0, 806.0, 806.0, 805.0, 805.0, 806.0, 808.0, 807.0, 807.0, 805.0, 806.0, 805.0, 806.0, 805.0, 804.0, 803.0, 803.0, 804.0, 803.0, 804.0, 806.0, 807.0, 807.0, 805.0, 804.0, 804.0, 803.0, 803.0, 804.0, 803.0, 805.0, 806.0, 807.0, 804.0, 805.0, 805.0, 808.0, 806.0, 805.0, 805.0, 807.0, 806.0, 806.0, 805.0, 804.0, 804.0, 804.0, 803.0, 805.0, 806.0, 805.0, 805.0, 806.0, 807.0, 806.0, 804.0, 803.0, 803.0, 803.0, 803.0, 804.0, 805.0, 806.0, 806.0, 807.0, 807.0, 806.0, 803.0, 804.0, 804.0, 805.0, 804.0, 804.0, 803.0, 802.0, 802.0, 804.0, 802.0, 804.0, 804.0, 805.0, 804.0, 804.0, 804.0, 804.0, 804.0, 805.0, 805.0, 806.0, 805.0, 804.0, 804.0, 806.0, 805.0, 805.0, 803.0, 804.0, 805.0, 805.0, 804.0, 806.0, 807.0, 807.0, 805.0, 803.0, 802.0, 802.0, 802.0, 802.0, 804.0, 803.0, 803.0, 803.0, 804.0, 803.0, 803.0, 803.0, 804.0, 803.0, 803.0, 803.0, 803.0, 802.0, 803.0, 804.0, 805.0, 804.0, 804.0, 803.0, 805.0, 806.0, 806.0, 804.0, 806.0, 806.0, 805.0, 804.0, 804.0, 803.0, 805.0, 807.0, 805.0, 804.0, 802.0, 801.0, 802.0, 802.0, 802.0, 803.0, 805.0, 806.0, 804.0, 803.0, 802.0, 802.0, 802.0, 802.0, 803.0, 802.0, 801.0, 802.0, 803.0, 804.0, 805.0, 805.0, 805.0, 804.0, 804.0, 802.0, 802.0, 803.0, 803.0, 803.0, 802.0, 800.0, 799.0, 801.0, 802.0, 804.0, 804.0, 804.0, 802.0, 802.0, 802.0, 802.0, 803.0, 803.0, 803.0, 803.0, 802.0, 803.0, 803.0, 803.0, 805.0, 808.0, 807.0, 805.0, 803.0, 802.0, 802.0, 803.0, 802.0, 802.0, 802.0, 803.0, 803.0, 803.0, 803.0, 807.0, 807.0, 805.0, 802.0, 800.0, 799.0, 800.0, 802.0, 804.0, 802.0, 801.0, 801.0, 803.0, 803.0, 803.0, 802.0, 802.0, 803.0, 803.0, 803.0, 802.0, 802.0, 802.0, 802.0, 802.0, 803.0, 803.0, 802.0, 803.0, 805.0],
      "WindowWidth": [1720.0, 1715.0, 1714.0, 1713.0, 1713.0, 1715.0, 1716.0, 1720.0, 1723.0, 1726.0, 1723.0, 1719.0, 1717.0, 1716.0, 1717.0, 1716.0, 1715.0, 1715.0, 1716.0, 1718.0, 1720.0, 1718.0, 1718.0, 1720.0, 1724.0, 1722.0, 1722.0, 1717.0, 1719.0, 1717.0, 1718.0, 1716.0, 1713.0, 1712.0, 1713.0, 1714.0, 1712.0, 1713.0, 1718.0, 1721.0, 1723.0, 1717.0, 1714.0, 1713.0, 1711.0, 1712.0, 1715.0, 1711.0, 1716.0, 1720.0, 1720.0, 1714.0, 1715.0, 1716.0, 1724.0, 1720.0, 1717.0, 1717.0, 1721.0, 1720.0, 1718.0, 1716.0, 1713.0, 1715.0, 1714.0, 1712.0, 1716.0, 1718.0, 1716.0, 1715.0, 1720.0, 1721.0, 1720.0, 1714.0, 1711.0, 1711.0, 1710.0, 1711.0, 1715.0, 1716.0, 1719.0, 1719.0, 1722.0, 1721.0, 1718.0, 1712.0, 1713.0, 1713.0, 1717.0, 1713.0, 1713.0, 1712.0, 1709.0, 1709.0, 1712.0, 1709.0, 1714.0, 1714.0, 1716.0, 1714.0, 1713.0, 1712.0, 1713.0, 1714.0, 1715.0, 1716.0, 1718.0, 1716.0, 1713.0, 1714.0, 1718.0, 1717.0, 1717.0, 1711.0, 1714.0, 1715.0, 1716.0, 1714.0, 1718.0, 1722.0, 1722.0, 1716.0, 1710.0, 1708.0, 1708.0, 1709.0, 1708.0, 1714.0, 1711.0, 1711.0, 1712.0, 1713.0, 1710.0, 1712.0, 1710.0, 1713.0, 1712.0, 1710.0, 1709.0, 1710.0, 1707.0, 1712.0, 1714.0, 1717.0, 1712.0, 1713.0, 1711.0, 1717.0, 1720.0, 1718.0, 1715.0, 1718.0, 1719.0, 1717.0, 1713.0, 1712.0, 1712.0, 1717.0, 1720.0, 1717.0, 1712.0, 1707.0, 1706.0, 1708.0, 1709.0, 1707.0, 1710.0, 1716.0, 1719.0, 1714.0, 1711.0, 1709.0, 1709.0, 1708.0, 1709.0, 1710.0, 1708.0, 1707.0, 1707.0, 1710.0, 1713.0, 1716.0, 1717.0, 1716.0, 1714.0, 1712.0, 1709.0, 1708.0, 1710.0, 1710.0, 1711.0, 1707.0, 1703.0, 1700.0, 1705.0, 1709.0, 1714.0, 1714.0, 1713.0, 1709.0, 1708.0, 1708.0, 1709.0, 1711.0, 1711.0, 1711.0, 1710.0, 1708.0, 1711.0, 1709.0, 1710.0, 1717.0, 1723.0, 1720.0, 1714.0, 1710.0, 1709.0, 1707.0, 1710.0, 1709.0, 1709.0, 1708.0, 1710.0, 1710.0, 1709.0, 1710.0, 1720.0, 1720.0, 1715.0, 1707.0, 1703.0, 1701.0, 1703.0, 1708.0, 1714.0, 1708.0, 1707.0, 1706.0, 1710.0, 1711.0, 1711.0, 1707.0, 1708.0, 1709.0, 1710.0, 1710.0, 1707.0, 1708.0, 1708.0, 1708.0, 1707.0, 1709.0, 1709.0, 1708.0, 1710.0, 1715.0]
    },
    "slices": {}
  }
}