{
 "AcquisitionMatrixPE": 100,
 "AcquisitionNumber": 1,
 "AcquisitionTime": "11:40:17.797500",
 "BandwidthPerPixelPhaseEncode": 18.519,
 "BaseResolution": 100,
 "BodyPartExamined": "BRAIN",
 "ConsistencyInfo": "N4_VE11C_LATEST_20160120",
 "ConversionSoftware": "dcm2niix",
 "ConversionSoftwareVersion": "v1.0.20180622 GCC4.9.2",
 "DerivedVendorReportedEchoSpacing": 0.000539986,
 "DeviceSerialNumber": "166078",
 "DwellTime": 2.1e-06,
 "EchoTime": 0.034,
 "EchoTrainLength": 100,
 "EffectiveEchoSpacing": 0.000539986,
 "FlipAngle": 90,
 "ImageOrientationPatientDICOM": [
  0.998393,
  0.00675559,
  0.0562657,
  0.00174249,
  0.98874,
  -0.149633
 ],
 "ImageType": [
  "ORIGINAL",
  "PRIMARY",
  "M",
  "ND",
  "MOSAIC"
 ],
 "InPlanePhaseEncodingDirectionDICOM": "COL",
 "InstitutionAddress": "Street_StreetNo_Bei_Jing_District_CN_ZIP",
 "InstitutionName": "BeiJing_Normal_University",
 "InstitutionalDepartmentName": "Department",
 "MRAcquisitionType": "2D",
 "MagneticFieldStrength": 3,
 "Manufacturer": "Siemens",
 "ManufacturersModelName": "Prisma",
 "Modality": "MR",
 "MultibandAccelerationFactor": 3,
 "PartialFourier": 1,
 "PatientPosition": "HFS",
 "PercentPhaseFOV": 100,
 "PhaseEncodingDirection": "j-",
 "PhaseEncodingSteps": 100,
 "PhaseResolution": 1,
 "PixelBandwidth": 2380,
 "ProcedureStepDescription": "BNU_P2018_64CH_Zhen.ZongLei",
 "ProtocolName": "bold_100x100_s3_2x2x2_static_256",
 "PulseSequenceDetails": "%SiemensSeq%_ep2d_bold",
 "ReceiveCoilActiveElements": "HC1-7;NC1",
 "ReceiveCoilName": "HeadNeck_64",
 "ReconMatrixPE": 100,
 "RepetitionTime": 2,
 "SAR": 0.0700087,
 "ScanOptions": "FS",
 "ScanningSequence": "EP",
 "SequenceName": "_epfid2d1_100",
 "SequenceVariant": "SK",
 "SeriesDescription": "bold_100x100_s3_2x2x2_static_256",
 "SeriesNumber": 6,
 "ShimSetting": [
  -5452,
  -11487,
  -1283,
  313,
  69,
  -113,
  -156,
  113
 ],
 "SliceThickness": 2,
 "SliceTiming": [
  1.485,
  0,
  0.99,
  0.0825,
  1.0725,
  0.165,
  1.155,
  0.2475,
  1.2375,
  0.33,
  1.32,
  0.4125,
  1.4025,
  0.5775,
  1.5675,
  0.66,
  1.65,
  0.7425,
  1.7325,
  0.825,
  1.815,
  0.9075,
  1.8975,
  0.495,
  1.485,
  0,
  0.99,
  0.0825,
  1.0725,
  0.165,
  1.155,
  0.2475,
  1.2375,
  0.33,
  1.32,
  0.4125,
  1.4025,
  0.5775,
  1.5675,
  0.66,
  1.65,
  0.7425,
  1.7325,
  0.825,
  1.815,
  0.9075,
  1.8975,
  0.495,
  1.485,
  0,
  0.99,
  0.0825,
  1.0725,
  0.165,
  1.155,
  0.2475,
  1.2375,
  0.33,
  1.32,
  0.4125,
  1.4025,
  0.5775,
  1.5675,
  0.66,
  1.65,
  0.7425,
  1.7325,
  0.825,
  1.815,
  0.9075,
  1.8975,
  0.495
 ],
 "SoftwareVersions": "syngo_MR_E11",
 "SpacingBetweenSlices": 2,
 "StationName": "AWP166078",
 "TaskName": "imagenet",
 "TotalReadoutTime": 0.0534586,
 "TxRefAmp": 228.714,
 "dcmmeta_affine": [
  [
   -1.9967859983444214,
   0.003484982531517744,
   0.11328604072332382,
   98.32250213623047
  ],
  [
   -0.013511180877685547,
   1.9774800539016724,
   -0.2989814281463623,
   -83.06224822998047
  ],
  [
   0.11253141611814499,
   0.2992662489414215,
   1.9742786884307861,
   -85.91451263427734
  ],
  [
   0.0,
   0.0,
   0.0,
   1.0
  ]
 ],
 "dcmmeta_reorient_transform": [
  [
   0.0,
   -1.0,
   0.0,
   99.0
  ],
  [
   1.0,
   0.0,
   0.0,
   0.0
  ],
  [
   0.0,
   0.0,
   1.0,
   0.0
  ],
  [
   0.0,
   0.0,
   0.0,
   1.0
  ]
 ],
 "dcmmeta_shape": [
  100,
  100,
  72,
  256
 ],
 "dcmmeta_slice_dim": 2,
 "dcmmeta_version": 0.6,
 "global": {
  "const": {
   "AcquisitionMatrix": [
    100,
    0,
    0,
    100
   ],
   "AngioFlag": "N",
   "BitsAllocated": 16,
   "BitsStored": 12,
   "BodyPartExamined": "BRAIN",
   "Columns": 900,
   "EchoNumbers": 1,
   "EchoTime": 34.0,
   "EchoTrainLength": 100,
   "FlipAngle": 90.0,
   "HighBit": 11,
   "ImageOrientationPatient": [
    0.99839297484957,
    0.00675559029302,
    0.056265706881,
    0.00174249127712,
    0.98874005207592,
    -0.1496331285012
   ],
   "ImagePositionPatient": [
    -898.77588606008,
    -909.10479814853,
    18.406785720393
   ],
   "ImageType": [
    "ORIGINAL",
    "PRIMARY",
    "M",
    "ND",
    "MOSAIC"
   ],
   "ImagedNucleus": "1H",
   "ImagingFrequency": 123.257758,
   "InPlanePhaseEncodingDirection": "COL",
   "MRAcquisitionType": "2D",
   "MagneticFieldStrength": 3.0,
   "Manufacturer": "SIEMENS",
   "ManufacturerModelName": "Prisma",
   "Modality": "MR",
   "NumberOfAverages": 1.0,
   "NumberOfPhaseEncodingSteps": 100,
   "PercentPhaseFieldOfView": 100.0,
   "PercentSampling": 100.0,
   "PerformedProcedureStepStartTime": "110641.103000",
   "PhotometricInterpretation": "MONOCHROME2",
   "PixelBandwidth": 2380.0,
   "PixelRepresentation": 0,
   "PixelSpacing": [
    2.0,
    2.0
   ],
   "ProtocolName": "bold_100x100_s3_2x2x2_static_256",
   "RepetitionTime": 2000.0,
   "Rows": 900,
   "SAR": 0.07000867473645,
   "SamplesPerPixel": 1,
   "ScanOptions": "FS",
   "ScanningSequence": "EP",
   "SequenceName": "*epfid2d1_100",
   "SequenceVariant": "SK",
   "SeriesDescription": "bold_100x100_s3_2x2x2_static_256",
   "SeriesNumber": 6,
   "SeriesTime": "114020.643000",
   "SliceLocation": -66.823277587386,
   "SliceThickness": 2.0,
   "SmallestImagePixelValue": 0,
   "SoftwareVersions": "syngo MR E11",
   "SpacingBetweenSlices": 2.0000000302302,
   "SpecificCharacterSet": "ISO_IR 100",
   "StudyID": "1",
   "StudyTime": "110641.031000",
   "TransmitCoilName": "Body",
   "VariableFlipAngleFlag": "N",
   "WindowCenterWidthExplanation": "Algo1",
   "dBdt": 0.0
  },
  "slices": {}
 },
 "time": {
  "samples": {
   "AcquisitionNumber": [
    1,
    2,
    3,
    4,
    5,
    6,
    7,
    8,
    9,
    10,
    11,
    12,
    13,
    14,
    15,
    16,
    17,
    18,
    19,
    20,
    21,
    22,
    23,
    24,
    25,
    26,
    27,
    28,
    29,
    30,
    31,
    32,
    33,
    34,
    35,
    36,
    37,
    38,
    39,
    40,
    41,
    42,
    43,
    44,
    45,
    46,
    47,
    48,
    49,
    50,
    51,
    52,
    53,
    54,
    55,
    56,
    57,
    58,
    59,
    60,
    61,
    62,
    63,
    64,
    65,
    66,
    67,
    68,
    69,
    70,
    71,
    72,
    73,
    74,
    75,
    76,
    77,
    78,
    79,
    80,
    81,
    82,
    83,
    84,
    85,
    86,
    87,
    88,
    89,
    90,
    91,
    92,
    93,
    94,
    95,
    96,
    97,
    98,
    99,
    100,
    101,
    102,
    103,
    104,
    105,
    106,
    107,
    108,
    109,
    110,
    111,
    112,
    113,
    114,
    115,
    116,
    117,
    118,
    119,
    120,
    121,
    122,
    123,
    124,
    125,
    126,
    127,
    128,
    129,
    130,
    131,
    132,
    133,
    134,
    135,
    136,
    137,
    138,
    139,
    140,
    141,
    142,
    143,
    144,
    145,
    146,
    147,
    148,
    149,
    150,
    151,
    152,
    153,
    154,
    155,
    156,
    157,
    158,
    159,
    160,
    161,
    162,
    163,
    164,
    165,
    166,
    167,
    168,
    169,
    170,
    171,
    172,
    173,
    174,
    175,
    176,
    177,
    178,
    179,
    180,
    181,
    182,
    183,
    184,
    185,
    186,
    187,
    188,
    189,
    190,
    191,
    192,
    193,
    194,
    195,
    196,
    197,
    198,
    199,
    200,
    201,
    202,
    203,
    204,
    205,
    206,
    207,
    208,
    209,
    210,
    211,
    212,
    213,
    214,
    215,
    216,
    217,
    218,
    219,
    220,
    221,
    222,
    223,
    224,
    225,
    226,
    227,
    228,
    229,
    230,
    231,
    232,
    233,
    234,
    235,
    236,
    237,
    238,
    239,
    240,
    241,
    242,
    243,
    244,
    245,
    246,
    247,
    248,
    249,
    250,
    251,
    252,
    253,
    254,
    255,
    256
   ],
   "AcquisitionTime": [
    "114017.797500",
    "114019.797500",
    "114021.797500",
    "114023.797500",
    "114025.797500",
    "114027.797500",
    "114029.797500",
    "114031.797500",
    "114033.797500",
    "114035.797500",
    "114037.797500",
    "114039.797500",
    "114041.797500",
    "114043.797500",
    "114045.797500",
    "114047.797500",
    "114049.797500",
    "114051.797500",
    "114053.797500",
    "114055.797500",
    "114057.797500",
    "114059.797500",
    "114101.797500",
    "114103.797500",
    "114105.797500",
    "114107.797500",
    "114109.797500",
    "114111.797500",
    "114113.797500",
    "114115.797500",
    "114117.797500",
    "114119.797500",
    "114121.797500",
    "114123.797500",
    "114125.797500",
    "114127.797500",
    "114129.797500",
    "114131.797500",
    "114133.797500",
    "114135.797500",
    "114137.797500",
    "114139.797500",
    "114141.797500",
    "114143.797500",
    "114145.797500",
    "114147.797500",
    "114149.797500",
    "114151.797500",
    "114153.797500",
    "114155.797500",
    "114157.797500",
    "114159.797500",
    "114201.797500",
    "114203.797500",
    "114205.797500",
    "114207.797500",
    "114209.797500",
    "114211.797500",
    "114213.797500",
    "114215.797500",
    "114217.797500",
    "114219.797500",
    "114221.797500",
    "114223.797500",
    "114225.797500",
    "114227.797500",
    "114229.797500",
    "114231.797500",
    "114233.797500",
    "114235.797500",
    "114237.797500",
    "114239.797500",
    "114241.797500",
    "114243.797500",
    "114245.797500",
    "114247.797500",
    "114249.797500",
    "114251.797500",
    "114253.797500",
    "114255.797500",
    "114257.797500",
    "114259.797500",
    "114301.797500",
    "114303.797500",
    "114305.797500",
    "114307.797500",
    "114309.797500",
    "114311.797500",
    "114313.797500",
    "114315.797500",
    "114317.797500",
    "114319.797500",
    "114321.797500",
    "114323.797500",
    "114325.797500",
    "114327.797500",
    "114329.797500",
    "114331.797500",
    "114333.797500",
    "114335.797500",
    "114337.797500",
    "114339.797500",
    "114341.797500",
    "114343.797500",
    "114345.797500",
    "114347.797500",
    "114349.797500",
    "114351.797500",
    "114353.797500",
    "114355.797500",
    "114357.797500",
    "114359.797500",
    "114401.797500",
    "114403.797500",
    "114405.797500",
    "114407.797500",
    "114409.797500",
    "114411.797500",
    "114413.797500",
    "114415.797500",
    "114417.797500",
    "114419.797500",
    "114421.797500",
    "114423.797500",
    "114425.797500",
    "114427.797500",
    "114429.797500",
    "114431.797500",
    "114433.797500",
    "114435.797500",
    "114437.797500",
    "114439.797500",
    "114441.797500",
    "114443.797500",
    "114445.797500",
    "114447.797500",
    "114449.797500",
    "114451.797500",
    "114453.797500",
    "114455.797500",
    "114457.797500",
    "114459.797500",
    "114501.797500",
    "114503.797500",
    "114505.797500",
    "114507.797500",
    "114509.797500",
    "114511.797500",
    "114513.797500",
    "114515.797500",
    "114517.797500",
    "114519.797500",
    "114521.797500",
    "114523.797500",
    "114525.797500",
    "114527.797500",
    "114529.797500",
    "114531.797500",
    "114533.797500",
    "114535.797500",
    "114537.797500",
    "114539.797500",
    "114541.797500",
    "114543.797500",
    "114545.797500",
    "114547.797500",
    "114549.797500",
    "114551.797500",
    "114553.797500",
    "114555.797500",
    "114557.797500",
    "114559.797500",
    "114601.797500",
    "114603.797500",
    "114605.797500",
    "114607.797500",
    "114609.797500",
    "114611.797500",
    "114613.797500",
    "114615.797500",
    "114617.797500",
    "114619.797500",
    "114621.797500",
    "114623.797500",
    "114625.797500",
    "114627.797500",
    "114629.797500",
    "114631.797500",
    "114633.797500",
    "114635.797500",
    "114637.797500",
    "114639.797500",
    "114641.797500",
    "114643.797500",
    "114645.797500",
    "114647.797500",
    "114649.797500",
    "114651.797500",
    "114653.797500",
    "114655.797500",
    "114657.797500",
    "114659.797500",
    "114701.797500",
    "114703.797500",
    "114705.797500",
    "114707.797500",
    "114709.797500",
    "114711.797500",
    "114713.797500",
    "114715.797500",
    "114717.797500",
    "114719.797500",
    "114721.797500",
    "114723.797500",
    "114725.797500",
    "114727.797500",
    "114729.797500",
    "114731.797500",
    "114733.797500",
    "114735.797500",
    "114737.797500",
    "114739.797500",
    "114741.797500",
    "114743.797500",
    "114745.797500",
    "114747.797500",
    "114749.797500",
    "114751.797500",
    "114753.797500",
    "114755.797500",
    "114757.797500",
    "114759.797500",
    "114801.797500",
    "114803.797500",
    "114805.797500",
    "114807.797500",
    "114809.797500",
    "114811.797500",
    "114813.797500",
    "114815.797500",
    "114817.797500",
    "114819.797500",
    "114821.797500",
    "114823.797500",
    "114825.797500",
    "114827.797500",
    "114829.797500",
    "114831.797500",
    "114833.797500",
    "114835.797500",
    "114837.797500",
    "114839.797500",
    "114841.797500",
    "114843.797500",
    "114845.797500",
    "114847.797500"
   ],
   "ContentTime": [
    "114020.647000",
    "114022.142000",
    "114024.142000",
    "114026.142000",
    "114028.142000",
    "114030.142000",
    "114032.143000",
    "114034.143000",
    "114036.142000",
    "114038.142000",
    "114040.143000",
    "114042.142000",
    "114044.141000",
    "114046.142000",
    "114048.142000",
    "114050.143000",
    "114052.142000",
    "114054.142000",
    "114056.143000",
    "114058.141000",
    "114100.142000",
    "114102.142000",
    "114104.142000",
    "114106.143000",
    "114108.143000",
    "114110.143000",
    "114112.142000",
    "114114.142000",
    "114116.141000",
    "114118.142000",
    "114120.142000",
    "114122.143000",
    "114124.142000",
    "114126.143000",
    "114128.142000",
    "114130.142000",
    "114132.142000",
    "114134.142000",
    "114136.141000",
    "114138.142000",
    "114140.142000",
    "114142.142000",
    "114144.143000",
    "114146.143000",
    "114148.143000",
    "114150.143000",
    "114152.141000",
    "114154.141000",
    "114156.143000",
    "114158.143000",
    "114200.142000",
    "114202.143000",
    "114204.143000",
    "114206.142000",
    "114208.142000",
    "114210.142000",
    "114212.143000",
    "114214.142000",
    "114216.142000",
    "114218.142000",
    "114220.143000",
    "114222.142000",
    "114224.142000",
    "114226.142000",
    "114228.141000",
    "114230.142000",
    "114232.142000",
    "114234.143000",
    "114236.143000",
    "114238.143000",
    "114240.143000",
    "114242.142000",
    "114244.141000",
    "114246.141000",
    "114248.143000",
    "114250.143000",
    "114252.142000",
    "114254.142000",
    "114256.142000",
    "114258.142000",
    "114300.142000",
    "114302.141000",
    "114304.142000",
    "114306.143000",
    "114308.143000",
    "114310.142000",
    "114312.143000",
    "114314.142000",
    "114316.142000",
    "114318.141000",
    "114320.141000",
    "114322.143000",
    "114324.143000",
    "114326.143000",
    "114328.142000",
    "114330.142000",
    "114332.143000",
    "114334.142000",
    "114336.142000",
    "114338.141000",
    "114340.143000",
    "114342.143000",
    "114344.143000",
    "114346.142000",
    "114348.143000",
    "114350.142000",
    "114352.143000",
    "114354.141000",
    "114356.141000",
    "114358.143000",
    "114400.142000",
    "114402.142000",
    "114404.143000",
    "114406.142000",
    "114408.143000",
    "114410.143000",
    "114412.141000",
    "114414.141000",
    "114416.143000",
    "114418.142000",
    "114420.142000",
    "114422.143000",
    "114424.143000",
    "114426.143000",
    "114428.142000",
    "114430.142000",
    "114432.142000",
    "114434.142000",
    "114436.143000",
    "114438.143000",
    "114440.143000",
    "114442.142000",
    "114444.143000",
    "114446.142000",
    "114448.142000",
    "114450.142000",
    "114452.143000",
    "114454.143000",
    "114456.143000",
    "114458.142000",
    "114500.143000",
    "114502.143000",
    "114504.142000",
    "114506.142000",
    "114508.142000",
    "114510.143000",
    "114512.143000",
    "114514.143000",
    "114516.142000",
    "114518.142000",
    "114520.143000",
    "114522.142000",
    "114524.141000",
    "114526.143000",
    "114528.143000",
    "114530.143000",
    "114532.143000",
    "114534.142000",
    "114536.143000",
    "114538.141000",
    "114540.142000",
    "114542.143000",
    "114544.142000",
    "114546.143000",
    "114548.143000",
    "114550.142000",
    "114552.143000",
    "114554.143000",
    "114556.142000",
    "114558.142000",
    "114600.143000",
    "114602.143000",
    "114604.142000",
    "114606.143000",
    "114608.143000",
    "114610.142000",
    "114612.143000",
    "114614.142000",
    "114616.142000",
    "114618.142000",
    "114620.143000",
    "114622.143000",
    "114624.143000",
    "114626.143000",
    "114628.142000",
    "114630.142000",
    "114632.141000",
    "114634.142000",
    "114636.143000",
    "114638.143000",
    "114640.142000",
    "114642.143000",
    "114644.143000",
    "114646.143000",
    "114648.142000",
    "114650.142000",
    "114652.142000",
    "114654.143000",
    "114656.143000",
    "114658.143000",
    "114700.143000",
    "114702.142000",
    "114704.142000",
    "114706.141000",
    "114708.142000",
    "114710.143000",
    "114712.143000",
    "114714.143000",
    "114716.143000",
    "114718.143000",
    "114720.143000",
    "114722.143000",
    "114724.141000",
    "114726.142000",
    "114728.143000",
    "114730.143000",
    "114732.143000",
    "114734.143000",
    "114736.142000",
    "114738.142000",
    "114740.142000",
    "114742.142000",
    "114744.142000",
    "114746.143000",
    "114748.143000",
    "114750.142000",
    "114752.143000",
    "114754.143000",
    "114756.143000",
    "114758.142000",
    "114800.142000",
    "114802.143000",
    "114804.143000",
    "114806.142000",
    "114808.143000",
    "114810.143000",
    "114812.143000",
    "114814.143000",
    "114816.141000",
    "114818.142000",
    "114820.143000",
    "114822.143000",
    "114824.143000",
    "114826.143000",
    "114828.142000",
    "114830.143000",
    "114832.142000",
    "114834.142000",
    "114836.142000",
    "114838.143000",
    "114840.143000",
    "114842.143000",
    "114844.143000",
    "114846.143000",
    "114848.143000",
    "114849.883000"
   ],
   "InstanceCreationTime": [
    "114020.647000",
    "114022.142000",
    "114024.142000",
    "114026.142000",
    "114028.142000",
    "114030.142000",
    "114032.143000",
    "114034.143000",
    "114036.142000",
    "114038.142000",
    "114040.143000",
    "114042.142000",
    "114044.141000",
    "114046.142000",
    "114048.142000",
    "114050.143000",
    "114052.142000",
    "114054.142000",
    "114056.143000",
    "114058.141000",
    "114100.142000",
    "114102.142000",
    "114104.142000",
    "114106.143000",
    "114108.143000",
    "114110.143000",
    "114112.142000",
    "114114.142000",
    "114116.141000",
    "114118.142000",
    "114120.142000",
    "114122.143000",
    "114124.142000",
    "114126.143000",
    "114128.142000",
    "114130.142000",
    "114132.142000",
    "114134.142000",
    "114136.141000",
    "114138.142000",
    "114140.142000",
    "114142.142000",
    "114144.143000",
    "114146.143000",
    "114148.143000",
    "114150.143000",
    "114152.141000",
    "114154.141000",
    "114156.143000",
    "114158.143000",
    "114200.142000",
    "114202.143000",
    "114204.143000",
    "114206.142000",
    "114208.142000",
    "114210.142000",
    "114212.143000",
    "114214.142000",
    "114216.142000",
    "114218.142000",
    "114220.143000",
    "114222.142000",
    "114224.142000",
    "114226.142000",
    "114228.141000",
    "114230.142000",
    "114232.142000",
    "114234.143000",
    "114236.143000",
    "114238.143000",
    "114240.143000",
    "114242.142000",
    "114244.141000",
    "114246.141000",
    "114248.143000",
    "114250.143000",
    "114252.142000",
    "114254.142000",
    "114256.142000",
    "114258.142000",
    "114300.142000",
    "114302.141000",
    "114304.142000",
    "114306.143000",
    "114308.143000",
    "114310.142000",
    "114312.143000",
    "114314.142000",
    "114316.142000",
    "114318.141000",
    "114320.141000",
    "114322.143000",
    "114324.143000",
    "114326.143000",
    "114328.142000",
    "114330.142000",
    "114332.143000",
    "114334.142000",
    "114336.142000",
    "114338.141000",
    "114340.143000",
    "114342.143000",
    "114344.143000",
    "114346.142000",
    "114348.143000",
    "114350.142000",
    "114352.143000",
    "114354.141000",
    "114356.141000",
    "114358.143000",
    "114400.142000",
    "114402.142000",
    "114404.143000",
    "114406.142000",
    "114408.143000",
    "114410.143000",
    "114412.141000",
    "114414.141000",
    "114416.143000",
    "114418.142000",
    "114420.142000",
    "114422.143000",
    "114424.143000",
    "114426.143000",
    "114428.142000",
    "114430.142000",
    "114432.142000",
    "114434.142000",
    "114436.143000",
    "114438.143000",
    "114440.143000",
    "114442.142000",
    "114444.143000",
    "114446.142000",
    "114448.142000",
    "114450.142000",
    "114452.143000",
    "114454.143000",
    "114456.143000",
    "114458.142000",
    "114500.143000",
    "114502.143000",
    "114504.142000",
    "114506.142000",
    "114508.142000",
    "114510.143000",
    "114512.143000",
    "114514.143000",
    "114516.142000",
    "114518.142000",
    "114520.143000",
    "114522.142000",
    "114524.141000",
    "114526.143000",
    "114528.143000",
    "114530.143000",
    "114532.143000",
    "114534.142000",
    "114536.143000",
    "114538.141000",
    "114540.142000",
    "114542.143000",
    "114544.142000",
    "114546.143000",
    "114548.143000",
    "114550.142000",
    "114552.143000",
    "114554.143000",
    "114556.142000",
    "114558.142000",
    "114600.143000",
    "114602.143000",
    "114604.142000",
    "114606.143000",
    "114608.143000",
    "114610.142000",
    "114612.143000",
    "114614.142000",
    "114616.142000",
    "114618.142000",
    "114620.143000",
    "114622.143000",
    "114624.143000",
    "114626.143000",
    "114628.142000",
    "114630.142000",
    "114632.141000",
    "114634.142000",
    "114636.143000",
    "114638.143000",
    "114640.142000",
    "114642.143000",
    "114644.143000",
    "114646.143000",
    "114648.142000",
    "114650.142000",
    "114652.142000",
    "114654.143000",
    "114656.143000",
    "114658.143000",
    "114700.143000",
    "114702.142000",
    "114704.142000",
    "114706.141000",
    "114708.142000",
    "114710.143000",
    "114712.143000",
    "114714.143000",
    "114716.143000",
    "114718.143000",
    "114720.143000",
    "114722.143000",
    "114724.141000",
    "114726.142000",
    "114728.143000",
    "114730.143000",
    "114732.143000",
    "114734.143000",
    "114736.142000",
    "114738.142000",
    "114740.142000",
    "114742.142000",
    "114744.142000",
    "114746.143000",
    "114748.143000",
    "114750.142000",
    "114752.143000",
    "114754.143000",
    "114756.143000",
    "114758.142000",
    "114800.142000",
    "114802.143000",
    "114804.143000",
    "114806.142000",
    "114808.143000",
    "114810.143000",
    "114812.143000",
    "114814.143000",
    "114816.141000",
    "114818.142000",
    "114820.143000",
    "114822.143000",
    "114824.143000",
    "114826.143000",
    "114828.142000",
    "114830.143000",
    "114832.142000",
    "114834.142000",
    "114836.142000",
    "114838.143000",
    "114840.143000",
    "114842.143000",
    "114844.143000",
    "114846.143000",
    "114848.143000",
    "114849.883000"
   ],
   "InstanceNumber": [
    1,
    2,
    3,
    4,
    5,
    6,
    7,
    8,
    9,
    10,
    11,
    12,
    13,
    14,
    15,
    16,
    17,
    18,
    19,
    20,
    21,
    22,
    23,
    24,
    25,
    26,
    27,
    28,
    29,
    30,
    31,
    32,
    33,
    34,
    35,
    36,
    37,
    38,
    39,
    40,
    41,
    42,
    43,
    44,
    45,
    46,
    47,
    48,
    49,
    50,
    51,
    52,
    53,
    54,
    55,
    56,
    57,
    58,
    59,
    60,
    61,
    62,
    63,
    64,
    65,
    66,
    67,
    68,
    69,
    70,
    71,
    72,
    73,
    74,
    75,
    76,
    77,
    78,
    79,
    80,
    81,
    82,
    83,
    84,
    85,
    86,
    87,
    88,
    89,
    90,
    91,
    92,
    93,
    94,
    95,
    96,
    97,
    98,
    99,
    100,
    101,
    102,
    103,
    104,
    105,
    106,
    107,
    108,
    109,
    110,
    111,
    112,
    113,
    114,
    115,
    116,
    117,
    118,
    119,
    120,
    121,
    122,
    123,
    124,
    125,
    126,
    127,
    128,
    129,
    130,
    131,
    132,
    133,
    134,
    135,
    136,
    137,
    138,
    139,
    140,
    141,
    142,
    143,
    144,
    145,
    146,
    147,
    148,
    149,
    150,
    151,
    152,
    153,
    154,
    155,
    156,
    157,
    158,
    159,
    160,
    161,
    162,
    163,
    164,
    165,
    166,
    167,
    168,
    169,
    170,
    171,
    172,
    173,
    174,
    175,
    176,
    177,
    178,
    179,
    180,
    181,
    182,
    183,
    184,
    185,
    186,
    187,
    188,
    189,
    190,
    191,
    192,
    193,
    194,
    195,
    196,
    197,
    198,
    199,
    200,
    201,
    202,
    203,
    204,
    205,
    206,
    207,
    208,
    209,
    210,
    211,
    212,
    213,
    214,
    215,
    216,
    217,
    218,
    219,
    220,
    221,
    222,
    223,
    224,
    225,
    226,
    227,
    228,
    229,
    230,
    231,
    232,
    233,
    234,
    235,
    236,
    237,
    238,
    239,
    240,
    241,
    242,
    243,
    244,
    245,
    246,
    247,
    248,
    249,
    250,
    251,
    252,
    253,
    254,
    255,
    256
   ],
   "LargestImagePixelValue": [
    3628,
    3603,
    3512,
    3555,
    3512,
    3518,
    3472,
    3516,
    3504,
    3521,
    3541,
    3508,
    3500,
    3519,
    3520,
    3548,
    3537,
    3532,
    3499,
    3529,
    3568,
    3528,
    3552,
    3495,
    3562,
    3522,
    3529,
    3512,
    3590,
    3556,
    3547,
    3470,
    3568,
    3507,
    3548,
    3535,
    3536,
    3510,
    3490,
    3482,
    3532,
    3518,
    3587,
    3564,
    3537,
    3531,
    3560,
    3549,
    3551,
    3560,
    3562,
    3551,
    3562,
    3528,
    3546,
    3520,
    3572,
    3542,
    3609,
    3527,
    3593,
    3541,
    3598,
    3535,
    3546,
    3514,
    3564,
    3540,
    3581,
    3518,
    3603,
    3540,
    3547,
    3502,
    3599,
    3546,
    3618,
    3519,
    3560,
    3534,
    3602,
    3574,
    3576,
    3574,
    3558,
    3564,
    3580,
    3552,
    3587,
    3518,
    3607,
    3542,
    3596,
    3493,
    3601,
    3509,
    3607,
    3553,
    3516,
    3530,
    3557,
    3545,
    3578,
    3555,
    3575,
    3606,
    3532,
    3614,
    3598,
    3553,
    3565,
    3543,
    3567,
    3548,
    3591,
    3546,
    3608,
    3569,
    3569,
    3527,
    3560,
    3530,
    3587,
    3555,
    3574,
    3564,
    3559,
    3544,
    3566,
    3573,
    3532,
    3605,
    3542,
    3609,
    3527,
    3623,
    3551,
    3559,
    3573,
    3556,
    3565,
    3549,
    3575,
    3549,
    3607,
    3560,
    3595,
    3561,
    3594,
    3573,
    3629,
    3573,
    3607,
    3541,
    3571,
    3592,
    3595,
    3597,
    3578,
    3577,
    3562,
    3591,
    3577,
    3583,
    3602,
    3596,
    3577,
    3562,
    3570,
    3606,
    3572,
    3564,
    3594,
    3576,
    3624,
    3562,
    3526,
    3560,
    3558,
    3572,
    3556,
    3551,
    3532,
    3572,
    3563,
    3561,
    3553,
    3542,
    3553,
    3580,
    3584,
    3551,
    3526,
    3596,
    3572,
    3531,
    3567,
    3593,
    3542,
    3603,
    3570,
    3575,
    3590,
    3521,
    3599,
    3555,
    3583,
    3576,
    3747,
    3521,
    3577,
    3569,
    3569,
    3561,
    3572,
    3566,
    3582,
    3563,
    3556,
    3554,
    3606,
    3590,
    3562,
    3564,
    3570,
    3576,
    3575,
    3586,
    3576,
    3612,
    3598,
    3579,
    3604,
    3602,
    3582,
    3573,
    3596,
    3579,
    3559,
    3564,
    3555,
    3552,
    3575,
    3563,
    3584,
    3566,
    3586,
    3576,
    3632,
    3571,
    3612,
    3576,
    3583,
    3589,
    3590,
    3585
   ],
   "WindowCenter": [
    806.0,
    804.0,
    804.0,
    804.0,
    803.0,
    803.0,
    802.0,
    802.0,
    802.0,
    802.0,
    804.0,
    805.0,
    805.0,
    804.0,
    804.0,
    804.0,
    804.0,
    803.0,
    803.0,
    803.0,
    802.0,
    802.0,
    804.0,
    804.0,
    804.0,
    803.0,
    803.0,
    803.0,
    804.0,
    803.0,
    802.0,
    804.0,
    804.0,
    803.0,
    803.0,
    804.0,
    805.0,
    805.0,
    804.0,
    803.0,
    803.0,
    803.0,
    803.0,
    803.0,
    803.0,
    804.0,
    803.0,
    803.0,
    803.0,
    803.0,
    803.0,
    803.0,
    802.0,
    803.0,
    803.0,
    803.0,
    802.0,
    801.0,
    803.0,
    803.0,
    804.0,
    803.0,
    804.0,
    804.0,
    805.0,
    807.0,
    805.0,
    802.0,
    802.0,
    802.0,
    803.0,
    805.0,
    805.0,
    804.0,
    804.0,
    802.0,
    803.0,
    803.0,
    803.0,
    803.0,
    802.0,
    802.0,
    803.0,
    804.0,
    804.0,
    802.0,
    803.0,
    804.0,
    804.0,
    802.0,
    802.0,
    803.0,
    804.0,
    802.0,
    804.0,
    803.0,
    804.0,
    805.0,
    806.0,
    805.0,
    803.0,
    802.0,
    802.0,
    802.0,
    802.0,
    801.0,
    802.0,
    803.0,
    804.0,
    804.0,
