{
 "AcquisitionMatrixPE": 100,
 "AcquisitionNumber": 1,
 "AcquisitionTime": "11:20:5.362500",
 "BandwidthPerPixelPhaseEncode": 18.519,
 "BaseResolution": 100,
 "BodyPartExamined": "BRAIN",
 "ConsistencyInfo": "N4_VE11C_LATEST_20160120",
 "ConversionSoftware": "dcm2niix",
 "ConversionSoftwareVersion": "v1.0.20180622 GCC4.9.2",
 "DerivedVendorReportedEchoSpacing": 0.000539986,
 "DeviceSerialNumber": "166078",
 "DwellTime": 2.1e-06,
 "EchoTime": 0.034,
 "EchoTrainLength": 100,
 "EffectiveEchoSpacing": 0.000539986,
 "FlipAngle": 90,
 "ImageOrientationPatientDICOM": [
  0.998393,
  0.00675559,
  0.0562657,
  0.00174249,
  0.98874,
  -0.149633
 ],
 "ImageType": [
  "ORIGINAL",
  "PRIMARY",
  "M",
  "ND",
  "MOSAIC"
 ],
 "InPlanePhaseEncodingDirectionDICOM": "COL",
 "InstitutionAddress": "Street_StreetNo_Bei_Jing_District_CN_ZIP",
 "InstitutionName": "BeiJing_Normal_University",
 "InstitutionalDepartmentName": "Department",
 "MRAcquisitionType": "2D",
 "MagneticFieldStrength": 3,
 "Manufacturer": "Siemens",
 "ManufacturersModelName": "Prisma",
 "Modality": "MR",
 "MultibandAccelerationFactor": 3,
 "PartialFourier": 1,
 "PatientPosition": "HFS",
 "PercentPhaseFOV": 100,
 "PhaseEncodingDirection": "j-",
 "PhaseEncodingSteps": 100,
 "PhaseResolution": 1,
 "PixelBandwidth": 2380,
 "ProcedureStepDescription": "BNU_P2018_64CH_Zhen.ZongLei",
 "ProtocolName": "bold_100x100_s3_2x2x2_static_256",
 "PulseSequenceDetails": "%SiemensSeq%_ep2d_bold",
 "ReceiveCoilActiveElements": "HC1-7;NC1",
 "ReceiveCoilName": "HeadNeck_64",
 "ReconMatrixPE": 100,
 "RepetitionTime": 2,
 "SAR": 0.0700087,
 "ScanOptions": "FS",
 "ScanningSequence": "EP",
 "SequenceName": "_epfid2d1_100",
 "SequenceVariant": "SK",
 "SeriesDescription": "bold_100x100_s3_2x2x2_static_256",
 "SeriesNumber": 4,
 "ShimSetting": [
  -5452,
  -11487,
  -1283,
  313,
  69,
  -113,
  -156,
  113
 ],
 "SliceThickness": 2,
 "SliceTiming": [
  1.485,
  0,
  0.99,
  0.0825,
  1.0725,
  0.165,
  1.155,
  0.2475,
  1.2375,
  0.33,
  1.32,
  0.4125,
  1.4025,
  0.5775,
  1.5675,
  0.66,
  1.65,
  0.7425,
  1.7325,
  0.825,
  1.815,
  0.9075,
  1.8975,
  0.495,
  1.485,
  0,
  0.99,
  0.0825,
  1.0725,
  0.165,
  1.155,
  0.2475,
  1.2375,
  0.33,
  1.32,
  0.4125,
  1.4025,
  0.5775,
  1.5675,
  0.66,
  1.65,
  0.7425,
  1.7325,
  0.825,
  1.815,
  0.9075,
  1.8975,
  0.495,
  1.485,
  0,
  0.99,
  0.0825,
  1.0725,
  0.165,
  1.155,
  0.2475,
  1.2375,
  0.33,
  1.32,
  0.4125,
  1.4025,
  0.5775,
  1.5675,
  0.66,
  1.65,
  0.7425,
  1.7325,
  0.825,
  1.815,
  0.9075,
  1.8975,
  0.495
 ],
 "SoftwareVersions": "syngo_MR_E11",
 "SpacingBetweenSlices": 2,
 "StationName": "AWP166078",
 "TaskName": "imagenet",
 "TotalReadoutTime": 0.0534586,
 "TxRefAmp": 228.714,
 "dcmmeta_affine": [
  [
   -1.9967859983444214,
   0.003484982531517744,
   0.11328604072332382,
   98.32250213623047
  ],
  [
   -0.013511180877685547,
   1.9774800539016724,
   -0.2989814281463623,
   -83.06224822998047
  ],
  [
   0.11253141611814499,
   0.2992662489414215,
   1.9742786884307861,
   -85.91451263427734
  ],
  [
   0.0,
   0.0,
   0.0,
   1.0
  ]
 ],
 "dcmmeta_reorient_transform": [
  [
   0.0,
   -1.0,
   0.0,
   99.0
  ],
  [
   1.0,
   0.0,
   0.0,
   0.0
  ],
  [
   0.0,
   0.0,
   1.0,
   0.0
  ],
  [
   0.0,
   0.0,
   0.0,
   1.0
  ]
 ],
 "dcmmeta_shape": [
  100,
  100,
  72,
  256
 ],
 "dcmmeta_slice_dim": 2,
 "dcmmeta_version": 0.6,
 "global": {
  "const": {
   "AcquisitionMatrix": [
    100,
    0,
    0,
    100
   ],
   "AngioFlag": "N",
   "BitsAllocated": 16,
   "BitsStored": 12,
   "BodyPartExamined": "BRAIN",
   "Columns": 900,
   "EchoNumbers": 1,
   "EchoTime": 34.0,
   "EchoTrainLength": 100,
   "FlipAngle": 90.0,
   "HighBit": 11,
   "ImageOrientationPatient": [
    0.99839297484957,
    0.00675559029302,
    0.056265706881,
    0.00174249127712,
    0.98874005207592,
    -0.1496331285012
   ],
   "ImagePositionPatient": [
    -898.77588606008,
    -909.10479814853,
    18.406785720393
   ],
   "ImageType": [
    "ORIGINAL",
    "PRIMARY",
    "M",
    "ND",
    "MOSAIC"
   ],
   "ImagedNucleus": "1H",
   "ImagingFrequency": 123.257754,
   "InPlanePhaseEncodingDirection": "COL",
   "MRAcquisitionType": "2D",
   "MagneticFieldStrength": 3.0,
   "Manufacturer": "SIEMENS",
   "ManufacturerModelName": "Prisma",
   "Modality": "MR",
   "NumberOfAverages": 1.0,
   "NumberOfPhaseEncodingSteps": 100,
   "PercentPhaseFieldOfView": 100.0,
   "PercentSampling": 100.0,
   "PerformedProcedureStepStartTime": "110641.103000",
   "PhotometricInterpretation": "MONOCHROME2",
   "PixelBandwidth": 2380.0,
   "PixelRepresentation": 0,
   "PixelSpacing": [
    2.0,
    2.0
   ],
   "ProtocolName": "bold_100x100_s3_2x2x2_static_256",
   "RepetitionTime": 2000.0,
   "Rows": 900,
   "SAR": 0.07000867473645,
   "SamplesPerPixel": 1,
   "ScanOptions": "FS",
   "ScanningSequence": "EP",
   "SequenceName": "*epfid2d1_100",
   "SequenceVariant": "SK",
   "SeriesDescription": "bold_100x100_s3_2x2x2_static_256",
   "SeriesNumber": 4,
   "SeriesTime": "112007.616000",
   "SliceLocation": -66.823277587386,
   "SliceThickness": 2.0,
   "SmallestImagePixelValue": 0,
   "SoftwareVersions": "syngo MR E11",
   "SpacingBetweenSlices": 2.0000000302302,
   "SpecificCharacterSet": "ISO_IR 100",
   "StudyID": "1",
   "StudyTime": "110641.031000",
   "TransmitCoilName": "Body",
   "VariableFlipAngleFlag": "N",
   "WindowCenterWidthExplanation": "Algo1",
   "dBdt": 0.0
  },
  "slices": {}
 },
 "time": {
  "samples": {
   "AcquisitionNumber": [
    1,
    2,
    3,
    4,
    5,
    6,
    7,
    8,
    9,
    10,
    11,
    12,
    13,
    14,
    15,
    16,
    17,
    18,
    19,
    20,
    21,
    22,
    23,
    24,
    25,
    26,
    27,
    28,
    29,
    30,
    31,
    32,
    33,
    34,
    35,
    36,
    37,
    38,
    39,
    40,
    41,
    42,
    43,
    44,
    45,
    46,
    47,
    48,
    49,
    50,
    51,
    52,
    53,
    54,
    55,
    56,
    57,
    58,
    59,
    60,
    61,
    62,
    63,
    64,
    65,
    66,
    67,
    68,
    69,
    70,
    71,
    72,
    73,
    74,
    75,
    76,
    77,
    78,
    79,
    80,
    81,
    82,
    83,
    84,
    85,
    86,
    87,
    88,
    89,
    90,
    91,
    92,
    93,
    94,
    95,
    96,
    97,
    98,
    99,
    100,
    101,
    102,
    103,
    104,
    105,
    106,
    107,
    108,
    109,
    110,
    111,
    112,
    113,
    114,
    115,
    116,
    117,
    118,
    119,
    120,
    121,
    122,
    123,
    124,
    125,
    126,
    127,
    128,
    129,
    130,
    131,
    132,
    133,
    134,
    135,
    136,
    137,
    138,
    139,
    140,
    141,
    142,
    143,
    144,
    145,
    146,
    147,
    148,
    149,
    150,
    151,
    152,
    153,
    154,
    155,
    156,
    157,
    158,
    159,
    160,
    161,
    162,
    163,
    164,
    165,
    166,
    167,
    168,
    169,
    170,
    171,
    172,
    173,
    174,
    175,
    176,
    177,
    178,
    179,
    180,
    181,
    182,
    183,
    184,
    185,
    186,
    187,
    188,
    189,
    190,
    191,
    192,
    193,
    194,
    195,
    196,
    197,
    198,
    199,
    200,
    201,
    202,
    203,
    204,
    205,
    206,
    207,
    208,
    209,
    210,
    211,
    212,
    213,
    214,
    215,
    216,
    217,
    218,
    219,
    220,
    221,
    222,
    223,
    224,
    225,
    226,
    227,
    228,
    229,
    230,
    231,
    232,
    233,
    234,
    235,
    236,
    237,
    238,
    239,
    240,
    241,
    242,
    243,
    244,
    245,
    246,
    247,
    248,
    249,
    250,
    251,
    252,
    253,
    254,
    255,
    256
   ],
   "AcquisitionTime": [
    "112005.362500",
    "112007.362500",
    "112009.362500",
    "112011.362500",
    "112013.362500",
    "112015.362500",
    "112017.362500",
    "112019.362500",
    "112021.362500",
    "112023.362500",
    "112025.362500",
    "112027.362500",
    "112029.362500",
    "112031.362500",
    "112033.362500",
    "112035.362500",
    "112037.362500",
    "112039.362500",
    "112041.362500",
    "112043.362500",
    "112045.362500",
    "112047.362500",
    "112049.362500",
    "112051.362500",
    "112053.362500",
    "112055.362500",
    "112057.362500",
    "112059.362500",
    "112101.362500",
    "112103.362500",
    "112105.362500",
    "112107.362500",
    "112109.362500",
    "112111.362500",
    "112113.362500",
    "112115.362500",
    "112117.362500",
    "112119.362500",
    "112121.362500",
    "112123.362500",
    "112125.362500",
    "112127.362500",
    "112129.362500",
    "112131.362500",
    "112133.362500",
    "112135.362500",
    "112137.362500",
    "112139.362500",
    "112141.362500",
    "112143.362500",
    "112145.362500",
    "112147.362500",
    "112149.362500",
    "112151.362500",
    "112153.362500",
    "112155.362500",
    "112157.362500",
    "112159.362500",
    "112201.362500",
    "112203.362500",
    "112205.362500",
    "112207.362500",
    "112209.362500",
    "112211.362500",
    "112213.362500",
    "112215.362500",
    "112217.362500",
    "112219.362500",
    "112221.362500",
    "112223.362500",
    "112225.362500",
    "112227.362500",
    "112229.362500",
    "112231.362500",
    "112233.362500",
    "112235.362500",
    "112237.362500",
    "112239.362500",
    "112241.362500",
    "112243.362500",
    "112245.362500",
    "112247.362500",
    "112249.362500",
    "112251.362500",
    "112253.362500",
    "112255.362500",
    "112257.362500",
    "112259.362500",
    "112301.362500",
    "112303.362500",
    "112305.362500",
    "112307.362500",
    "112309.362500",
    "112311.362500",
    "112313.362500",
    "112315.362500",
    "112317.362500",
    "112319.362500",
    "112321.362500",
    "112323.362500",
    "112325.362500",
    "112327.362500",
    "112329.362500",
    "112331.362500",
    "112333.362500",
    "112335.362500",
    "112337.362500",
    "112339.362500",
    "112341.362500",
    "112343.362500",
    "112345.362500",
    "112347.362500",
    "112349.362500",
    "112351.362500",
    "112353.362500",
    "112355.362500",
    "112357.362500",
    "112359.362500",
    "112401.362500",
    "112403.362500",
    "112405.362500",
    "112407.362500",
    "112409.362500",
    "112411.362500",
    "112413.362500",
    "112415.362500",
    "112417.362500",
    "112419.362500",
    "112421.362500",
    "112423.362500",
    "112425.362500",
    "112427.362500",
    "112429.362500",
    "112431.362500",
    "112433.362500",
    "112435.362500",
    "112437.362500",
    "112439.362500",
    "112441.362500",
    "112443.362500",
    "112445.362500",
    "112447.362500",
    "112449.362500",
    "112451.362500",
    "112453.362500",
    "112455.362500",
    "112457.362500",
    "112459.362500",
    "112501.362500",
    "112503.362500",
    "112505.362500",
    "112507.362500",
    "112509.362500",
    "112511.362500",
    "112513.362500",
    "112515.362500",
    "112517.362500",
    "112519.362500",
    "112521.362500",
    "112523.362500",
    "112525.362500",
    "112527.362500",
    "112529.362500",
    "112531.362500",
    "112533.362500",
    "112535.362500",
    "112537.362500",
    "112539.362500",
    "112541.362500",
    "112543.362500",
    "112545.362500",
    "112547.362500",
    "112549.362500",
    "112551.362500",
    "112553.362500",
    "112555.362500",
    "112557.362500",
    "112559.362500",
    "112601.362500",
    "112603.362500",
    "112605.362500",
    "112607.362500",
    "112609.362500",
    "112611.362500",
    "112613.362500",
    "112615.362500",
    "112617.362500",
    "112619.362500",
    "112621.362500",
    "112623.362500",
    "112625.362500",
    "112627.362500",
    "112629.362500",
    "112631.362500",
    "112633.362500",
    "112635.362500",
    "112637.362500",
    "112639.362500",
    "112641.362500",
    "112643.362500",
    "112645.362500",
    "112647.362500",
    "112649.362500",
    "112651.362500",
    "112653.362500",
    "112655.362500",
    "112657.362500",
    "112659.362500",
    "112701.362500",
    "112703.362500",
    "112705.362500",
    "112707.362500",
    "112709.362500",
    "112711.362500",
    "112713.362500",
    "112715.362500",
    "112717.362500",
    "112719.362500",
    "112721.362500",
    "112723.362500",
    "112725.362500",
    "112727.362500",
    "112729.362500",
    "112731.362500",
    "112733.362500",
    "112735.362500",
    "112737.362500",
    "112739.362500",
    "112741.362500",
    "112743.362500",
    "112745.362500",
    "112747.362500",
    "112749.362500",
    "112751.362500",
    "112753.362500",
    "112755.362500",
    "112757.362500",
    "112759.362500",
    "112801.362500",
    "112803.362500",
    "112805.362500",
    "112807.362500",
    "112809.362500",
    "112811.362500",
    "112813.362500",
    "112815.362500",
    "112817.362500",
    "112819.362500",
    "112821.362500",
    "112823.362500",
    "112825.362500",
    "112827.362500",
    "112829.362500",
    "112831.362500",
    "112833.362500",
    "112835.362500"
   ],
   "ContentTime": [
    "112007.620000",
    "112009.116000",
    "112011.115000",
    "112013.116000",
    "112015.116000",
    "112017.116000",
    "112019.116000",
    "112021.118000",
    "112023.116000",
    "112025.115000",
    "112027.115000",
    "112029.115000",
    "112031.115000",
    "112033.116000",
    "112035.115000",
    "112037.116000",
    "112039.116000",
    "112041.117000",
    "112043.116000",
    "112045.115000",
    "112047.115000",
    "112049.115000",
    "112051.115000",
    "112053.115000",
    "112055.116000",
    "112057.116000",
    "112059.116000",
    "112101.116000",
    "112103.115000",
    "112105.116000",
    "112107.116000",
    "112109.115000",
    "112111.115000",
    "112113.116000",
    "112115.116000",
    "112117.117000",
    "112119.115000",
    "112121.116000",
    "112123.118000",
    "112125.116000",
    "112127.115000",
    "112129.116000",
    "112131.116000",
    "112133.116000",
    "112135.116000",
    "112137.115000",
    "112139.116000",
    "112141.116000",
    "112143.115000",
    "112145.115000",
    "112147.116000",
    "112149.116000",
    "112151.116000",
    "112153.115000",
    "112155.116000",
    "112157.116000",
    "112159.115000",
    "112201.116000",
    "112203.115000",
    "112205.115000",
    "112207.116000",
    "112209.117000",
    "112211.116000",
    "112213.115000",
    "112215.116000",
    "112217.115000",
    "112219.116000",
    "112221.115000",
    "112223.116000",
    "112225.116000",
    "112227.116000",
    "112229.115000",
    "112231.115000",
    "112233.116000",
    "112235.116000",
    "112237.115000",
    "112239.115000",
    "112241.117000",
    "112243.116000",
    "112245.116000",
    "112247.115000",
    "112249.116000",
    "112251.115000",
    "112253.116000",
    "112255.116000",
    "112257.115000",
    "112259.117000",
    "112301.117000",
    "112303.116000",
    "112305.116000",
    "112307.116000",
    "112309.116000",
    "112311.115000",
    "112313.116000",
    "112315.117000",
    "112317.116000",
    "112319.117000",
    "112321.115000",
    "112323.116000",
    "112325.116000",
    "112327.115000",
    "112329.115000",
    "112331.115000",
    "112333.116000",
    "112335.117000",
    "112337.116000",
    "112339.115000",
    "112341.116000",
    "112343.116000",
    "112345.117000",
    "112347.116000",
    "112349.115000",
    "112351.117000",
    "112353.117000",
    "112355.116000",
    "112357.115000",
    "112359.115000",
    "112401.115000",
    "112403.116000",
    "112405.116000",
    "112407.116000",
    "112409.117000",
    "112411.117000",
    "112413.115000",
    "112415.115000",
    "112417.115000",
    "112419.115000",
    "112421.116000",
    "112423.116000",
    "112425.116000",
    "112427.117000",
    "112429.117000",
    "112431.115000",
    "112433.116000",
    "112435.115000",
    "112437.115000",
    "112439.115000",
    "112441.115000",
    "112443.117000",
    "112445.116000",
    "112447.116000",
    "112449.115000",
    "112451.116000",
    "112453.116000",
    "112455.115000",
    "112457.116000",
    "112459.116000",
    "112501.116000",
    "112503.116000",
    "112505.116000",
    "112507.115000",
    "112509.115000",
    "112511.117000",
    "112513.115000",
    "112515.115000",
    "112517.116000",
    "112519.117000",
    "112521.117000",
    "112523.116000",
    "112525.116000",
    "112527.115000",
    "112529.115000",
    "112531.116000",
    "112533.115000",
    "112535.115000",
    "112537.117000",
    "112539.117000",
    "112541.116000",
    "112543.116000",
    "112545.116000",
    "112547.115000",
    "112549.116000",
    "112551.116000",
    "112553.117000",
    "112555.617000",
    "112557.116000",
    "112559.116000",
    "112601.116000",
    "112603.118000",
    "112605.116000",
    "112607.116000",
    "112609.116000",
    "112611.116000",
    "112613.117000",
    "112615.116000",
    "112617.115000",
    "112619.115000",
    "112621.118000",
    "112623.115000",
    "112625.116000",
    "112627.116000",
    "112629.117000",
    "112631.116000",
    "112633.116000",
    "112635.115000",
    "112637.115000",
    "112639.116000",
    "112641.116000",
    "112643.115000",
    "112645.115000",
    "112647.116000",
    "112649.117000",
    "112651.116000",
    "112653.116000",
    "112655.116000",
    "112657.115000",
    "112659.116000",
    "112701.115000",
    "112703.117000",
    "112705.116000",
    "112707.117000",
    "112709.115000",
    "112711.116000",
    "112713.115000",
    "112715.116000",
    "112717.115000",
    "112719.116000",
    "112721.116000",
    "112723.117000",
    "112725.116000",
    "112727.116000",
    "112729.115000",
    "112731.115000",
    "112733.115000",
    "112735.115000",
    "112737.116000",
    "112739.117000",
    "112741.117000",
    "112743.116000",
    "112745.116000",
    "112747.115000",
    "112749.115000",
    "112751.115000",
    "112753.116000",
    "112755.116000",
    "112757.116000",
    "112759.117000",
    "112801.115000",
    "112803.116000",
    "112805.116000",
    "112807.116000",
    "112809.116000",
    "112811.132000",
    "112813.117000",
    "112815.117000",
    "112817.116000",
    "112819.116000",
    "112821.115000",
    "112823.116000",
    "112825.116000",
    "112827.116000",
    "112829.116000",
    "112831.116000",
    "112833.117000",
    "112835.116000",
    "112836.881000"
   ],
   "InstanceCreationTime": [
    "112007.620000",
    "112009.116000",
    "112011.115000",
    "112013.116000",
    "112015.116000",
    "112017.116000",
    "112019.116000",
    "112021.118000",
    "112023.116000",
    "112025.115000",
    "112027.115000",
    "112029.115000",
    "112031.115000",
    "112033.116000",
    "112035.115000",
    "112037.116000",
    "112039.116000",
    "112041.117000",
    "112043.116000",
    "112045.115000",
    "112047.115000",
    "112049.115000",
    "112051.115000",
    "112053.115000",
    "112055.116000",
    "112057.116000",
    "112059.116000",
    "112101.116000",
    "112103.115000",
    "112105.116000",
    "112107.116000",
    "112109.115000",
    "112111.115000",
    "112113.116000",
    "112115.116000",
    "112117.117000",
    "112119.115000",
    "112121.116000",
    "112123.118000",
    "112125.116000",
    "112127.115000",
    "112129.116000",
    "112131.116000",
    "112133.116000",
    "112135.116000",
    "112137.115000",
    "112139.116000",
    "112141.116000",
    "112143.115000",
    "112145.115000",
    "112147.116000",
    "112149.116000",
    "112151.116000",
    "112153.115000",
    "112155.116000",
    "112157.116000",
    "112159.115000",
    "112201.116000",
    "112203.115000",
    "112205.115000",
    "112207.116000",
    "112209.117000",
    "112211.116000",
    "112213.115000",
    "112215.116000",
    "112217.115000",
    "112219.116000",
    "112221.115000",
    "112223.116000",
    "112225.116000",
    "112227.116000",
    "112229.115000",
    "112231.115000",
    "112233.116000",
    "112235.116000",
    "112237.115000",
    "112239.115000",
    "112241.117000",
    "112243.116000",
    "112245.116000",
    "112247.115000",
    "112249.116000",
    "112251.115000",
    "112253.116000",
    "112255.116000",
    "112257.115000",
    "112259.117000",
    "112301.117000",
    "112303.116000",
    "112305.116000",
    "112307.116000",
    "112309.116000",
    "112311.115000",
    "112313.116000",
    "112315.117000",
    "112317.116000",
    "112319.117000",
    "112321.115000",
    "112323.116000",
    "112325.116000",
    "112327.115000",
    "112329.115000",
    "112331.115000",
    "112333.116000",
    "112335.117000",
    "112337.116000",
    "112339.115000",
    "112341.116000",
    "112343.116000",
    "112345.117000",
    "112347.116000",
    "112349.115000",
    "112351.117000",
    "112353.117000",
    "112355.116000",
    "112357.115000",
    "112359.115000",
    "112401.115000",
    "112403.116000",
    "112405.116000",
    "112407.116000",
    "112409.117000",
    "112411.117000",
    "112413.115000",
    "112415.115000",
    "112417.115000",
    "112419.115000",
    "112421.116000",
    "112423.116000",
    "112425.116000",
    "112427.117000",
    "112429.117000",
    "112431.115000",
    "112433.116000",
    "112435.115000",
    "112437.115000",
    "112439.115000",
    "112441.115000",
    "112443.117000",
    "112445.116000",
    "112447.116000",
    "112449.115000",
    "112451.116000",
    "112453.116000",
    "112455.115000",
    "112457.116000",
    "112459.116000",
    "112501.116000",
    "112503.116000",
    "112505.116000",
    "112507.115000",
    "112509.115000",
    "112511.117000",
    "112513.115000",
    "112515.115000",
    "112517.116000",
    "112519.117000",
    "112521.117000",
    "112523.116000",
    "112525.116000",
    "112527.115000",
    "112529.115000",
    "112531.116000",
    "112533.115000",
    "112535.115000",
    "112537.117000",
    "112539.117000",
    "112541.116000",
    "112543.116000",
    "112545.116000",
    "112547.115000",
    "112549.116000",
    "112551.116000",
    "112553.117000",
    "112555.617000",
    "112557.116000",
    "112559.116000",
    "112601.116000",
    "112603.118000",
    "112605.116000",
    "112607.116000",
    "112609.116000",
    "112611.116000",
    "112613.117000",
    "112615.116000",
    "112617.115000",
    "112619.115000",
    "112621.118000",
    "112623.115000",
    "112625.116000",
    "112627.116000",
    "112629.117000",
    "112631.116000",
    "112633.116000",
    "112635.115000",
    "112637.115000",
    "112639.116000",
    "112641.116000",
    "112643.115000",
    "112645.115000",
    "112647.116000",
    "112649.117000",
    "112651.116000",
    "112653.116000",
    "112655.116000",
    "112657.115000",
    "112659.116000",
    "112701.115000",
    "112703.117000",
    "112705.116000",
    "112707.117000",
    "112709.115000",
    "112711.116000",
    "112713.115000",
    "112715.116000",
    "112717.115000",
    "112719.116000",
    "112721.116000",
    "112723.117000",
    "112725.116000",
    "112727.116000",
    "112729.115000",
    "112731.115000",
    "112733.115000",
    "112735.115000",
    "112737.116000",
    "112739.117000",
    "112741.117000",
    "112743.116000",
    "112745.116000",
    "112747.115000",
    "112749.115000",
    "112751.115000",
    "112753.116000",
    "112755.116000",
    "112757.116000",
    "112759.117000",
    "112801.115000",
    "112803.116000",
    "112805.116000",
    "112807.116000",
    "112809.116000",
    "112811.132000",
    "112813.117000",
    "112815.117000",
    "112817.116000",
    "112819.116000",
    "112821.115000",
    "112823.116000",
    "112825.116000",
    "112827.116000",
    "112829.116000",
    "112831.116000",
    "112833.117000",
    "112835.116000",
    "112836.881000"
   ],
   "InstanceNumber": [
    1,
    2,
    3,
    4,
    5,
    6,
    7,
    8,
    9,
    10,
    11,
    12,
    13,
    14,
    15,
    16,
    17,
    18,
    19,
    20,
    21,
    22,
    23,
    24,
    25,
    26,
    27,
    28,
    29,
    30,
    31,
    32,
    33,
    34,
    35,
    36,
    37,
    38,
    39,
    40,
    41,
    42,
    43,
    44,
    45,
    46,
    47,
    48,
    49,
    50,
    51,
    52,
    53,
    54,
    55,
    56,
    57,
    58,
    59,
    60,
    61,
    62,
    63,
    64,
    65,
    66,
    67,
    68,
    69,
    70,
    71,
    72,
    73,
    74,
    75,
    76,
    77,
    78,
    79,
    80,
    81,
    82,
    83,
    84,
    85,
    86,
    87,
    88,
    89,
    90,
    91,
    92,
    93,
    94,
    95,
    96,
    97,
    98,
    99,
    100,
    101,
    102,
    103,
    104,
    105,
    106,
    107,
    108,
    109,
    110,
    111,
    112,
    113,
    114,
    115,
    116,
    117,
    118,
    119,
    120,
    121,
    122,
    123,
    124,
    125,
    126,
    127,
    128,
    129,
    130,
    131,
    132,
    133,
    134,
    135,
    136,
    137,
    138,
    139,
    140,
    141,
    142,
    143,
    144,
    145,
    146,
    147,
    148,
    149,
    150,
    151,
    152,
    153,
    154,
    155,
    156,
    157,
    158,
    159,
    160,
    161,
    162,
    163,
    164,
    165,
    166,
    167,
    168,
    169,
    170,
    171,
    172,
    173,
    174,
    175,
    176,
    177,
    178,
    179,
    180,
    181,
    182,
    183,
    184,
    185,
    186,
    187,
    188,
    189,
    190,
    191,
    192,
    193,
    194,
    195,
    196,
    197,
    198,
    199,
    200,
    201,
    202,
    203,
    204,
    205,
    206,
    207,
    208,
    209,
    210,
    211,
    212,
    213,
    214,
    215,
    216,
    217,
    218,
    219,
    220,
    221,
    222,
    223,
    224,
    225,
    226,
    227,
    228,
    229,
    230,
    231,
    232,
    233,
    234,
    235,
    236,
    237,
    238,
    239,
    240,
    241,
    242,
    243,
    244,
    245,
    246,
    247,
    248,
    249,
    250,
    251,
    252,
    253,
    254,
    255,
    256
   ],
   "LargestImagePixelValue": [
    3317,
    3349,
    3324,
    3268,
    3389,
    3242,
    3381,
    3270,
    3378,
    3253,
    3386,
    3308,
    3306,
    3415,
    3276,
    3415,
    3315,
    3379,
    3315,
    3393,
    3323,
    3386,
    3290,
    3429,
    3330,
    3437,
    3351,
    3465,
    3337,
    3432,
    3366,
    3432,
    3327,
    3459,
    3366,
    3408,
    3372,
    3381,
    3352,
    3442,
    3376,
    3478,
    3374,
    3437,
    3383,
    3466,
    3397,
    3476,
    3359,
    3496,
    3363,
    3513,
    3426,
    3522,
    3407,
    3487,
    3449,
    3458,
    3456,
    3423,
    3496,
    3445,
    3470,
    3432,
    3447,
    3452,
    3438,
    3488,
    3448,
    3497,
    3415,
    3495,
    3406,
    3519,
    3407,
    3516,
    3437,
    3540,
    3444,
    3551,
    3454,
    3548,
    3473,
    3509,
    3454,
    3499,
    3491,
    3483,
    3471,
    3499,
    3484,
    3498,
    3510,
    3503,
    3544,
    3488,
    3529,
    3505,
    3495,
    3508,
    3463,
    3508,
    3472,
    3565,
    3480,
    3567,
    3518,
    3555,
    3480,
    3600,
    3527,
    3585,
    3532,
    3535,
    3505,
    3562,
    3502,
    3587,
    3542,
    3607,
    3513,
    3552,
    3501,
    3541,
    3529,
    3570,
    3542,
    3575,
    3521,
    3602,
    3508,
    3580,
    3540,
    3566,
    3499,
    3551,
    3526,
    3549,
    3510,
    3553,
    3513,
    3635,
    3577,
    3625,
    3545,
    3615,
    3519,
    3604,
    3568,
    3620,
    3568,
    3606,
    3546,
    3593,
    3575,
    3572,
    3575,
    3562,
    3627,
    3562,
    3633,
    3564,
    3592,
    3584,
    3599,
    3590,
    3545,
    3594,
    3555,
    3656,
    3592,
    3633,
    3568,
    3603,
    3555,
    3608,
    3585,
    3608,
    3580,
    3642,
    3607,
    3628,
    3586,
    3576,
    3581,
    3560,
    3605,
    3632,
    3649,
    3610,
    3667,
    3620,
    3671,
    3611,
    3587,
    3602,
    3594,
    3614,
    3578,
    3595,
    3601,
    3594,
    3592,
    3607,
    3595,
    3593,
    3590,
    3632,
    3589,
    3589,
    3606,
    3607,
    3624,
    3613,
    3612,
    3647,
    3587,
    3571,
    3555,
    3596,
    3584,
    3611,
    3613,
    3616,
    3607,
    3600,
    3582,
    3604,
    3585,
    3598,
    3557,
    3612,
    3611,
    3616,
    3613,
    3612,
    3624,
    3628,
    3589,
    3612,
    3613,
    3633,
    3629,
    3643,
    3619,
    3618,
    3620,
    3597,
    3602,
    3609,
    3593,
    3598,
    3615,
    3596,
    3616,
    3569
   ],
   "WindowCenter": [
    802.0,
    801.0,
    801.0,
    801.0,
    801.0,
    799.0,
    799.0,
    800.0,
    801.0,
    799.0,
    801.0,
    802.0,
    801.0,
    800.0,
    799.0,
    801.0,
    800.0,
    800.0,
    799.0,
    799.0,
    799.0,
    799.0,
    799.0,
    800.0,
    800.0,
    801.0,
    800.0,
    800.0,
    799.0,
    800.0,
    800.0,
    801.0,
    800.0,
    801.0,
    801.0,
    801.0,
    801.0,
    801.0,
    801.0,
    802.0,
    801.0,
    803.0,
    802.0,
    802.0,
    801.0,
    801.0,
    801.0,
    802.0,
    803.0,
    803.0,
    801.0,
    801.0,
    800.0,
    802.0,
    801.0,
    801.0,
    800.0,
    801.0,
    801.0,
    801.0,
    802.0,
    801.0,
    802.0,
    801.0,
    801.0,
    801.0,
    802.0,
    802.0,
    802.0,
    801.0,
    801.0,
    802.0,
    802.0,
    801.0,
    800.0,
    801.0,
    801.0,
    802.0,
    801.0,
    801.0,
    800.0,
    802.0,
    802.0,
    803.0,
    802.0,
    801.0,
    801.0,
    801.0,
    802.0,
    802.0,
    801.0,
    801.0,
    800.0,
    801.0,
    802.0,
    802.0,
    802.0,
    801.0,
    801.0,
    801.0,
    801.0,
    801.0,
    801.0,
    801.0,
    800.0,
    801.0,
    801.0,
    800.0,
    800.0,
    802.0,
