{
  "AcquisitionMatrixPE": 100,
  "AcquisitionNumber": 1,
  "AcquisitionTime": "13:55:22.122500",
  "BandwidthPerPixelPhaseEncode": 18.519,
  "BaseResolution": 100,
  "BodyPartExamined": "BRAIN",
  "ConsistencyInfo": "N4_VE11C_LATEST_20160120",
  "ConversionSoftware": "dcm2niix",
  "ConversionSoftwareVersion": "v1.0.20180622 GCC4.9.2",
  "DerivedVendorReportedEchoSpacing": 0.000539986,
  "DeviceSerialNumber": "166078",
  "DwellTime": 2.1e-06,
  "EchoTime": 0.034,
  "EchoTrainLength": 100,
  "EffectiveEchoSpacing": 0.000539986,
  "FlipAngle": 90,
  "ImageOrientationPatientDICOM": [1, 0, 0, 0, 0.965926, -0.258819],
  "ImageType": [
    "ORIGINAL",
    "PRIMARY",
    "M",
    "ND",
    "MOSAIC"
],
  "InPlanePhaseEncodingDirectionDICOM": "COL",
  "InstitutionAddress": "Street_StreetNo_Bei_Jing_District_CN_ZIP",
  "InstitutionName": "BeiJing_Normal_University",
  "InstitutionalDepartmentName": "Department",
  "MRAcquisitionType": "2D",
  "MagneticFieldStrength": 3,
  "Manufacturer": "Siemens",
  "ManufacturersModelName": "Prisma",
  "Modality": "MR",
  "MultibandAccelerationFactor": 3,
  "PartialFourier": 1,
  "PatientPosition": "HFS",
  "PercentPhaseFOV": 100,
  "PhaseEncodingDirection": "j-",
  "PhaseEncodingSteps": 100,
  "PhaseResolution": 1,
  "PixelBandwidth": 2380,
  "ProcedureStepDescription": "BNU_P2018_64CH_Zhen.ZongLei",
  "ProtocolName": "bold_100x100_s3_2x2x2_retino_150",
  "PulseSequenceDetails": "%SiemensSeq%_ep2d_bold",
  "ReceiveCoilActiveElements": "HC1-7;NC1",
  "ReceiveCoilName": "HeadNeck_64",
  "ReconMatrixPE": 100,
  "RepetitionTime": 2,
  "SAR": 0.0731478,
  "ScanOptions": "FS",
  "ScanningSequence": "EP",
  "SequenceName": "_epfid2d1_100",
  "SequenceVariant": "SK",
  "SeriesDescription": "bold_100x100_s3_2x2x2_retino_150",
  "SeriesNumber": 12,
  "ShimSetting": [-5457, -11469, -1286, 302, -33, -169, -225, 82],
  "SliceThickness": 2,
  "SliceTiming": [1.485, 0, 0.99, 0.0825, 1.0725, 0.165, 1.155, 0.2475, 1.2375, 0.33, 1.32, 0.4125, 1.4025, 0.5775, 1.5675, 0.66, 1.65, 0.7425, 1.7325, 0.825, 1.815, 0.9075, 1.8975, 0.495, 1.485, 0, 0.99, 0.0825, 1.0725, 0.165, 1.155, 0.2475, 1.2375, 0.33, 1.32, 0.4125, 1.4025, 0.5775, 1.5675, 0.66, 1.65, 0.7425, 1.7325, 0.825, 1.815, 0.9075, 1.8975, 0.495, 1.485, 0, 0.99, 0.0825, 1.0725, 0.165, 1.155, 0.2475, 1.2375, 0.33, 1.32, 0.4125, 1.4025, 0.5775, 1.5675, 0.66, 1.65, 0.7425, 1.7325, 0.825, 1.815, 0.9075, 1.8975, 0.495],
  "SoftwareVersions": "syngo_MR_E11",
  "SpacingBetweenSlices": 2,
  "StationName": "AWP166078",
  "TaskName": "retinotopy",
  "TotalReadoutTime": 0.0534586,
  "TxRefAmp": 229.519,
  "dcmmeta_affine": [
    [-2.0, 0.0, 0.0, 100.0],
    [0.0, 1.9318516254425049, -0.5176380276679993, -73.80265045166016],
    [0.0, 0.517638087272644, 1.9318516254425049, -89.45343017578125],
    [0.0, 0.0, 0.0, 1.0]
],
  "dcmmeta_reorient_transform": [
    [0.0, -1.0, 0.0, 99.0],
    [1.0, 0.0, 0.0, 0.0],
    [0.0, 0.0, 1.0, 0.0],
    [0.0, 0.0, 0.0, 1.0]
],
  "dcmmeta_shape": [100, 100, 72, 150],
  "dcmmeta_slice_dim": 2,
  "dcmmeta_version": 0.6,
  "global": {
    "const": {
      "AcquisitionMatrix": [100, 0, 0, 100],
      "AngioFlag": "N",
      "BitsAllocated": 16,
      "BitsStored": 12,
      "BodyPartExamined": "BRAIN",
      "Columns": 900,
      "EchoNumbers": 1,
      "EchoTime": 34.0,
      "EchoTrainLength": 100,
      "FlipAngle": 90.0,
      "HighBit": 11,
      "ImageOrientationPatient": [1.0, 0.0, 0.0, 0.0, 0.9659258278573, -0.2588190392498],
      "ImagePositionPatient": [-900.0, -890.19132498185, 168.84797059094],
      "ImageType": [
        "ORIGINAL",
        "PRIMARY",
        "M",
        "ND",
        "MOSAIC"
],
      "ImagedNucleus": "1H",
      "ImagingFrequency": 123.257753,
      "InPlanePhaseEncodingDirection": "COL",
      "MRAcquisitionType": "2D",
      "MagneticFieldStrength": 3.0,
      "Manufacturer": "SIEMENS",
      "ManufacturerModelName": "Prisma",
      "Modality": "MR",
      "NumberOfAverages": 1.0,
      "NumberOfPhaseEncodingSteps": 100,
      "PercentPhaseFieldOfView": 100.0,
      "PercentSampling": 100.0,
      "PerformedProcedureStepStartTime": "130450.942000",
      "PhotometricInterpretation": "MONOCHROME2",
      "PixelBandwidth": 2380.0,
      "PixelRepresentation": 0,
      "PixelSpacing": [2.0, 2.0],
      "ProtocolName": "bold_100x100_s3_2x2x2_retino_150",
      "RepetitionTime": 2000.0,
      "Rows": 900,
      "SAR": 0.07314783889416,
      "SamplesPerPixel": 1,
      "ScanOptions": "FS",
      "ScanningSequence": "EP",
      "SequenceName": "*epfid2d1_100",
      "SequenceVariant": "SK",
      "SeriesDescription": "bold_100x100_s3_2x2x2_retino_150",
      "SeriesNumber": 12,
      "SeriesTime": "135524.536000",
      "SliceLocation": -67.303847705236,
      "SliceThickness": 2.0,
      "SmallestImagePixelValue": 0,
      "SoftwareVersions": "syngo MR E11",
      "SpacingBetweenSlices": 1.9999999109673,
      "SpecificCharacterSet": "ISO_IR 100",
      "StudyID": "1",
      "StudyTime": "130450.828000",
      "TransmitCoilName": "Body",
      "VariableFlipAngleFlag": "N",
      "WindowCenterWidthExplanation": "Algo1",
      "dBdt": 0.0},
    "slices": {}
  },
  "time": {
    "samples": {
      "AcquisitionNumber": [1, 2, 3, 4, 5, 6, 7, 8, 9, 10, 11, 12, 13, 14, 15, 16, 17, 18, 19, 20, 21, 22, 23, 24, 25, 26, 27, 28, 29, 30, 31, 32, 33, 34, 35, 36, 37, 38, 39, 40, 41, 42, 43, 44, 45, 46, 47, 48, 49, 50, 51, 52, 53, 54, 55, 56, 57, 58, 59, 60, 61, 62, 63, 64, 65, 66, 67, 68, 69, 70, 71, 72, 73, 74, 75, 76, 77, 78, 79, 80, 81, 82, 83, 84, 85, 86, 87, 88, 89, 90, 91, 92, 93, 94, 95, 96, 97, 98, 99, 100, 101, 102, 103, 104, 105, 106, 107, 108, 109, 110, 111, 112, 113, 114, 115, 116, 117, 118, 119, 120, 121, 122, 123, 124, 125, 126, 127, 128, 129, 130, 131, 132, 133, 134, 135, 136, 137, 138, 139, 140, 141, 142, 143, 144, 145, 146, 147, 148, 149, 150],
      "AcquisitionTime": ["135522.122500", "135524.122500", "135526.122500", "135528.122500", "135530.122500", "135532.122500", "135534.122500", "135536.122500", "135538.122500", "135540.122500", "135542.122500", "135544.122500", "135546.122500", "135548.122500", "135550.122500", "135552.122500", "135554.122500", "135556.122500", "135558.122500", "135600.122500", "135602.122500", "135604.122500", "135606.122500", "135608.122500", "135610.122500", "135612.122500", "135614.122500", "135616.122500", "135618.122500", "135620.122500", "135622.122500", "135624.122500", "135626.122500", "135628.122500", "135630.122500", "135632.122500", "135634.122500", "135636.122500", "135638.122500", "135640.122500", "135642.122500", "135644.122500", "135646.122500", "135648.122500", "135650.122500", "135652.122500", "135654.122500", "135656.122500", "135658.122500", "135700.122500", "135702.122500", "135704.122500", "135706.122500", "135708.122500", "135710.122500", "135712.122500", "135714.122500", "135716.122500", "135718.122500", "135720.122500", "135722.122500", "135724.122500", "135726.122500", "135728.122500", "135730.122500", "135732.122500", "135734.122500", "135736.122500", "135738.122500", "135740.122500", "135742.122500", "135744.122500", "135746.122500", "135748.122500", "135750.122500", "135752.122500", "135754.122500", "135756.122500", "135758.122500", "135800.122500", "135802.122500", "135804.122500", "135806.122500", "135808.122500", "135810.122500", "135812.122500", "135814.122500", "135816.122500", "135818.122500", "135820.122500", "135822.122500", "135824.122500", "135826.122500", "135828.122500", "135830.122500", "135832.122500", "135834.122500", "135836.122500", "135838.122500", "135840.122500", "135842.122500", "135844.122500", "135846.122500", "135848.122500", "135850.122500", "135852.122500", "135854.122500", "135856.122500", "135858.122500", "135900.122500", "135902.122500", "135904.122500", "135906.122500", "135908.122500", "135910.122500", "135912.122500", "135914.122500", "135916.122500", "135918.122500", "135920.122500", "135922.122500", "135924.122500", "135926.122500", "135928.122500", "135930.122500", "135932.122500", "135934.122500", "135936.122500", "135938.122500", "135940.122500", "135942.122500", "135944.122500", "135946.122500", "135948.122500", "135950.122500", "135952.122500", "135954.122500", "135956.122500", "135958.122500", "140000.122500", "140002.122500", "140004.122500", "140006.122500", "140008.122500", "140010.122500", "140012.122500", "140014.122500", "140016.122500", "140018.122500", "140020.122500"],
      "ContentTime": ["135524.550000", "135526.035000", "135528.034000", "135530.035000", "135532.035000", "135534.036000", "135536.035000", "135538.036000", "135540.036000", "135542.035000", "135544.035000", "135546.035000", "135548.035000", "135550.035000", "135552.036000", "135554.036000", "135556.035000", "135558.035000", "135600.035000", "135602.034000", "135604.035000", "135606.035000", "135608.036000", "135610.036000", "135612.036000", "135614.036000", "135616.035000", "135618.035000", "135620.034000", "135622.034000", "135624.035000", "135626.035000", "135628.036000", "135630.035000", "135632.035000", "135634.036000", "135636.036000", "135638.035000", "135640.034000", "135642.035000", "135644.035000", "135646.035000", "135648.035000", "135650.035000", "135652.035000", "135654.035000", "135656.034000", "135658.035000", "135700.035000", "135702.036000", "135704.035000", "135706.035000", "135708.036000", "135710.036000", "135712.035000", "135714.035000", "135716.035000", "135718.036000", "135720.036000", "135722.035000", "135724.035000", "135726.035000", "135728.036000", "135730.035000", "135732.034000", "135734.035000", "135736.035000", "135738.035000", "135740.036000", "135742.036000", "135744.035000", "135746.035000", "135748.035000", "135750.035000", "135752.036000", "135754.035000", "135756.036000", "135758.036000", "135800.036000", "135802.035000", "135804.035000", "135806.035000", "135808.035000", "135810.036000", "135812.036000", "135814.035000", "135816.035000", "135818.035000", "135820.036000", "135822.035000", "135824.034000", "135826.036000", "135828.035000", "135830.035000", "135832.036000", "135834.035000", "135836.036000", "135838.036000", "135840.034000", "135842.034000", "135844.035000", "135846.036000", "135848.035000", "135850.036000", "135852.036000", "135854.036000", "135856.036000", "135858.034000", "135900.034000", "135902.035000", "135904.036000", "135906.035000", "135908.035000", "135910.035000", "135912.036000", "135914.036000", "135916.034000", "135918.035000", "135920.036000", "135922.035000", "135924.035000", "135926.036000", "135928.035000", "135930.036000", "135932.034000", "135934.034000", "135936.036000", "135938.035000", "135940.036000", "135942.036000", "135944.035000", "135946.036000", "135948.036000", "135950.035000", "135952.034000", "135954.035000", "135956.035000", "135958.036000", "140000.035000", "140002.035000", "140004.036000", "140006.035000", "140008.034000", "140010.035000", "140012.036000", "140014.035000", "140016.036000", "140018.036000", "140020.036000", "140021.658000"],
      "InstanceCreationTime": ["135524.550000", "135526.035000", "135528.034000", "135530.035000", "135532.035000", "135534.036000", "135536.035000", "135538.036000", "135540.036000", "135542.035000", "135544.035000", "135546.035000", "135548.035000", "135550.035000", "135552.036000", "135554.036000", "135556.035000", "135558.035000", "135600.035000", "135602.034000", "135604.035000", "135606.035000", "135608.036000", "135610.036000", "135612.036000", "135614.036000", "135616.035000", "135618.035000", "135620.034000", "135622.034000", "135624.035000", "135626.035000", "135628.036000", "135630.035000", "135632.035000", "135634.036000", "135636.036000", "135638.035000", "135640.034000", "135642.035000", "135644.035000", "135646.035000", "135648.035000", "135650.035000", "135652.035000", "135654.035000", "135656.034000", "135658.035000", "135700.035000", "135702.036000", "135704.035000", "135706.035000", "135708.036000", "135710.036000", "135712.035000", "135714.035000", "135716.035000", "135718.036000", "135720.036000", "135722.035000", "135724.035000", "135726.035000", "135728.036000", "135730.035000", "135732.034000", "135734.035000", "135736.035000", "135738.035000", "135740.036000", "135742.036000", "135744.035000", "135746.035000", "135748.035000", "135750.035000", "135752.036000", "135754.035000", "135756.036000", "135758.036000", "135800.036000", "135802.035000", "135804.035000", "135806.035000", "135808.035000", "135810.036000", "135812.036000", "135814.035000", "135816.035000", "135818.035000", "135820.036000", "135822.035000", "135824.034000", "135826.036000", "135828.035000", "135830.035000", "135832.036000", "135834.035000", "135836.036000", "135838.036000", "135840.034000", "135842.034000", "135844.035000", "135846.036000", "135848.035000", "135850.036000", "135852.036000", "135854.036000", "135856.036000", "135858.034000", "135900.034000", "135902.035000", "135904.036000", "135906.035000", "135908.035000", "135910.035000", "135912.036000", "135914.036000", "135916.034000", "135918.035000", "135920.036000", "135922.035000", "135924.035000", "135926.036000", "135928.035000", "135930.036000", "135932.034000", "135934.034000", "135936.036000", "135938.035000", "135940.036000", "135942.036000", "135944.035000", "135946.036000", "135948.036000", "135950.035000", "135952.034000", "135954.035000", "135956.035000", "135958.036000", "140000.035000", "140002.035000", "140004.036000", "140006.035000", "140008.034000", "140010.035000", "140012.036000", "140014.035000", "140016.036000", "140018.036000", "140020.036000", "140021.658000"],
      "InstanceNumber": [1, 2, 3, 4, 5, 6, 7, 8, 9, 10, 11, 12, 13, 14, 15, 16, 17, 18, 19, 20, 21, 22, 23, 24, 25, 26, 27, 28, 29, 30, 31, 32, 33, 34, 35, 36, 37, 38, 39, 40, 41, 42, 43, 44, 45, 46, 47, 48, 49, 50, 51, 52, 53, 54, 55, 56, 57, 58, 59, 60, 61, 62, 63, 64, 65, 66, 67, 68, 69, 70, 71, 72, 73, 74, 75, 76, 77, 78, 79, 80, 81, 82, 83, 84, 85, 86, 87, 88, 89, 90, 91, 92, 93, 94, 95, 96, 97, 98, 99, 100, 101, 102, 103, 104, 105, 106, 107, 108, 109, 110, 111, 112, 113, 114, 115, 116, 117, 118, 119, 120, 121, 122, 123, 124, 125, 126, 127, 128, 129, 130, 131, 132, 133, 134, 135, 136, 137, 138, 139, 140, 141, 142, 143, 144, 145, 146, 147, 148, 149, 150],
      "LargestImagePixelValue": [3133, 3067, 3092, 3071, 3071, 3081, 3089, 3072, 3071, 3039, 3049, 3053, 3072, 3063, 3086, 3089, 3098, 3048, 3062, 3046, 3049, 3063, 3041, 3059, 3052, 3057, 3058, 3117, 3027, 3040, 3060, 3005, 3044, 3027, 3067, 3021, 3072, 3084, 3071, 3028, 3022, 3038, 3027, 3024, 3096, 3034, 3073, 3058, 3070, 3100, 3105, 3044, 3111, 3075, 3095, 3107, 3072, 3149, 3081, 3057, 3062, 3076, 3087, 3054, 3086, 3017, 3113, 3073, 3036, 3095, 3086, 3051, 3060, 3069, 3067, 3069, 3115, 3059, 3063, 3095, 3102, 3065, 3091, 3039, 3068, 3095, 3049, 3017, 3045, 3043, 3063, 3139, 3063, 3079, 3137, 3031, 3118, 3085, 3102, 3123, 3074, 3086, 3097, 3042, 3072, 3119, 3114, 3086, 3044, 3064, 3140, 3094, 3092, 3146, 3034, 3112, 3094, 3053, 3094, 3054, 3088, 3114, 3106, 3074, 3135, 3088, 3115, 3121, 3102, 3110, 3094, 3093, 3084, 3073, 3063, 3069, 3084, 3088, 3085, 3065, 3079, 3105, 3036, 3076, 3122, 3078, 3070, 3072, 3088, 3065],
      "WindowCenter": [804.0, 803.0, 803.0, 803.0, 804.0, 804.0, 803.0, 803.0, 804.0, 804.0, 804.0, 804.0, 803.0, 804.0, 804.0, 803.0, 803.0, 804.0, 806.0, 805.0, 804.0, 804.0, 805.0, 806.0, 807.0, 806.0, 804.0, 804.0, 803.0, 803.0, 804.0, 805.0, 806.0, 806.0, 805.0, 803.0, 803.0, 801.0, 802.0, 802.0, 802.0, 802.0, 803.0, 806.0, 804.0, 803.0, 803.0, 803.0, 803.0, 801.0, 801.0, 801.0, 801.0, 801.0, 802.0, 803.0, 804.0, 803.0, 802.0, 802.0, 802.0, 803.0, 803.0, 803.0, 803.0, 805.0, 809.0, 808.0, 805.0, 804.0, 803.0, 804.0, 803.0, 802.0, 802.0, 801.0, 803.0, 805.0, 805.0, 803.0, 801.0, 801.0, 801.0, 800.0, 800.0, 802.0, 802.0, 802.0, 803.0, 802.0, 802.0, 802.0, 801.0, 801.0, 801.0, 800.0, 801.0, 802.0, 804.0, 804.0, 804.0, 804.0, 804.0, 804.0, 803.0, 802.0, 802.0, 803.0, 804.0, 804.0, 802.0, 801.0, 802.0, 802.0, 801.0, 801.0, 801.0, 802.0, 802.0, 802.0, 802.0, 802.0, 802.0, 802.0, 803.0, 803.0, 802.0, 801.0, 801.0, 801.0, 801.0, 802.0, 802.0, 804.0, 803.0, 803.0, 805.0, 806.0, 805.0, 803.0, 802.0, 802.0, 801.0, 802.0, 803.0, 804.0, 804.0, 803.0, 803.0, 802.0],
      "WindowWidth": [1716.0, 1713.0, 1714.0, 1715.0, 1717.0, 1716.0, 1715.0, 1715.0, 1716.0, 1716.0, 1717.0, 1716.0, 1715.0, 1716.0, 1717.0, 1715.0, 1715.0, 1717.0, 1721.0, 1718.0, 1718.0, 1717.0, 1719.0, 1723.0, 1725.0, 1722.0, 1717.0, 1716.0, 1713.0, 1713.0, 1716.0, 1719.0, 1721.0, 1721.0, 1720.0, 1714.0, 1713.0, 1708.0, 1710.0, 1710.0, 1710.0, 1712.0, 1715.0, 1721.0, 1716.0, 1714.0, 1714.0, 1715.0, 1713.0, 1709.0, 1708.0, 1708.0, 1708.0, 1708.0, 1710.0, 1713.0, 1715.0, 1713.0, 1711.0, 1711.0, 1711.0, 1714.0, 1714.0, 1712.0, 1714.0, 1720.0, 1731.0, 1728.0, 1719.0, 1715.0, 1714.0, 1715.0, 1713.0, 1710.0, 1710.0, 1707.0, 1714.0, 1719.0, 1718.0, 1712.0, 1710.0, 1710.0, 1708.0, 1705.0, 1706.0, 1711.0, 1710.0, 1711.0, 1713.0, 1711.0, 1710.0, 1711.0, 1709.0, 1709.0, 1709.0, 1706.0, 1709.0, 1711.0, 1715.0, 1716.0, 1715.0, 1715.0, 1715.0, 1715.0, 1714.0, 1711.0, 1712.0, 1713.0, 1715.0, 1715.0, 1712.0, 1707.0, 1709.0, 1711.0, 1708.0, 1709.0, 1709.0, 1709.0, 1711.0, 1710.0, 1712.0, 1711.0, 1709.0, 1709.0, 1712.0, 1712.0, 1710.0, 1707.0, 1707.0, 1707.0, 1708.0, 1711.0, 1711.0, 1715.0, 1714.0, 1713.0, 1718.0, 1721.0, 1717.0, 1712.0, 1710.0, 1710.0, 1709.0, 1711.0, 1714.0, 1715.0, 1715.0, 1714.0, 1713.0, 1710.0]
    },
    "slices": {}
  }
}