{
  "AcquisitionMatrixPE": 100,
  "AcquisitionNumber": 1,
  "AcquisitionTime": "13:33:34.940000",
  "BandwidthPerPixelPhaseEncode": 18.519,
  "BaseResolution": 100,
  "BodyPartExamined": "BRAIN",
  "ConsistencyInfo": "N4_VE11C_LATEST_20160120",
  "ConversionSoftware": "dcm2niix",
  "ConversionSoftwareVersion": "v1.0.20180622 GCC4.9.2",
  "DerivedVendorReportedEchoSpacing": 0.000539986,
  "DeviceSerialNumber": "166078",
  "DwellTime": 2.1e-06,
  "EchoTime": 0.034,
  "EchoTrainLength": 100,
  "EffectiveEchoSpacing": 0.000539986,
  "FlipAngle": 90,
  "ImageOrientationPatientDICOM": [1, 0, 0, 0, 0.965926, -0.258819],
  "ImageType": [
    "ORIGINAL",
    "PRIMARY",
    "M",
    "ND",
    "MOSAIC"
],
  "InPlanePhaseEncodingDirectionDICOM": "COL",
  "InstitutionAddress": "Street_StreetNo_Bei_Jing_District_CN_ZIP",
  "InstitutionName": "BeiJing_Normal_University",
  "InstitutionalDepartmentName": "Department",
  "MRAcquisitionType": "2D",
  "MagneticFieldStrength": 3,
  "Manufacturer": "Siemens",
  "ManufacturersModelName": "Prisma",
  "Modality": "MR",
  "MultibandAccelerationFactor": 3,
  "PartialFourier": 1,
  "PatientPosition": "HFS",
  "PercentPhaseFOV": 100,
  "PhaseEncodingDirection": "j-",
  "PhaseEncodingSteps": 100,
  "PhaseResolution": 1,
  "PixelBandwidth": 2380,
  "ProcedureStepDescription": "BNU_P2018_64CH_Zhen.ZongLei",
  "ProtocolName": "bold_100x100_s3_2x2x2_retino_150",
  "PulseSequenceDetails": "%SiemensSeq%_ep2d_bold",
  "ReceiveCoilActiveElements": "HC1-7;NC1",
  "ReceiveCoilName": "HeadNeck_64",
  "ReconMatrixPE": 100,
  "RepetitionTime": 2,
  "SAR": 0.0731478,
  "ScanOptions": "FS",
  "ScanningSequence": "EP",
  "SequenceName": "_epfid2d1_100",
  "SequenceVariant": "SK",
  "SeriesDescription": "bold_100x100_s3_2x2x2_retino_150",
  "SeriesNumber": 7,
  "ShimSetting": [-5457, -11469, -1286, 302, -33, -169, -225, 82],
  "SliceThickness": 2,
  "SliceTiming": [1.4825, 0, 0.9875, 0.0825, 1.07, 0.165, 1.1525, 0.2475, 1.235, 0.33, 1.3175, 0.41, 1.4, 0.575, 1.565, 0.6575, 1.6475, 0.74, 1.73, 0.8225, 1.8125, 0.905, 1.895, 0.4925, 1.4825, 0, 0.9875, 0.0825, 1.07, 0.165, 1.1525, 0.2475, 1.235, 0.33, 1.3175, 0.41, 1.4, 0.575, 1.565, 0.6575, 1.6475, 0.74, 1.73, 0.8225, 1.8125, 0.905, 1.895, 0.4925, 1.4825, 0, 0.9875, 0.0825, 1.07, 0.165, 1.1525, 0.2475, 1.235, 0.33, 1.3175, 0.41, 1.4, 0.575, 1.565, 0.6575, 1.6475, 0.74, 1.73, 0.8225, 1.8125, 0.905, 1.895, 0.4925],
  "SoftwareVersions": "syngo_MR_E11",
  "SpacingBetweenSlices": 2,
  "StationName": "AWP166078",
  "TaskName": "retinotopy",
  "TotalReadoutTime": 0.0534586,
  "TxRefAmp": 229.519,
  "dcmmeta_affine": [
    [-2.0, 0.0, 0.0, 100.0],
    [0.0, 1.9318516254425049, -0.5176380276679993, -73.80265045166016],
    [0.0, 0.517638087272644, 1.9318516254425049, -89.45343017578125],
    [0.0, 0.0, 0.0, 1.0]
],
  "dcmmeta_reorient_transform": [
    [0.0, -1.0, 0.0, 99.0],
    [1.0, 0.0, 0.0, 0.0],
    [0.0, 0.0, 1.0, 0.0],
    [0.0, 0.0, 0.0, 1.0]
],
  "dcmmeta_shape": [100, 100, 72, 150],
  "dcmmeta_slice_dim": 2,
  "dcmmeta_version": 0.6,
  "global": {
    "const": {
      "AcquisitionMatrix": [100, 0, 0, 100],
      "AngioFlag": "N",
      "BitsAllocated": 16,
      "BitsStored": 12,
      "BodyPartExamined": "BRAIN",
      "Columns": 900,
      "EchoNumbers": 1,
      "EchoTime": 34.0,
      "EchoTrainLength": 100,
      "FlipAngle": 90.0,
      "HighBit": 11,
      "ImageOrientationPatient": [1.0, 0.0, 0.0, 0.0, 0.9659258278573, -0.2588190392498],
      "ImagePositionPatient": [-900.0, -890.19132498185, 168.84797059094],
      "ImageType": [
        "ORIGINAL",
        "PRIMARY",
        "M",
        "ND",
        "MOSAIC"
],
      "ImagedNucleus": "1H",
      "ImagingFrequency": 123.257754,
      "InPlanePhaseEncodingDirection": "COL",
      "MRAcquisitionType": "2D",
      "MagneticFieldStrength": 3.0,
      "Manufacturer": "SIEMENS",
      "ManufacturerModelName": "Prisma",
      "Modality": "MR",
      "NumberOfAverages": 1.0,
      "NumberOfPhaseEncodingSteps": 100,
      "PercentPhaseFieldOfView": 100.0,
      "PercentSampling": 100.0,
      "PerformedProcedureStepStartTime": "130450.942000",
      "PhotometricInterpretation": "MONOCHROME2",
      "PixelBandwidth": 2380.0,
      "PixelRepresentation": 0,
      "PixelSpacing": [2.0, 2.0],
      "ProtocolName": "bold_100x100_s3_2x2x2_retino_150",
      "RepetitionTime": 2000.0,
      "Rows": 900,
      "SAR": 0.07314783889416,
      "SamplesPerPixel": 1,
      "ScanOptions": "FS",
      "ScanningSequence": "EP",
      "SequenceName": "*epfid2d1_100",
      "SequenceVariant": "SK",
      "SeriesDescription": "bold_100x100_s3_2x2x2_retino_150",
      "SeriesNumber": 7,
      "SeriesTime": "133337.659000",
      "SliceLocation": -67.303847705236,
      "SliceThickness": 2.0,
      "SmallestImagePixelValue": 0,
      "SoftwareVersions": "syngo MR E11",
      "SpacingBetweenSlices": 1.9999999109673,
      "SpecificCharacterSet": "ISO_IR 100",
      "StudyID": "1",
      "StudyTime": "130450.828000",
      "TransmitCoilName": "Body",
      "VariableFlipAngleFlag": "N",
      "WindowCenterWidthExplanation": "Algo1",
      "dBdt": 0.0},
    "slices": {}
  },
  "time": {
    "samples": {
      "AcquisitionNumber": [1, 2, 3, 4, 5, 6, 7, 8, 9, 10, 11, 12, 13, 14, 15, 16, 17, 18, 19, 20, 21, 22, 23, 24, 25, 26, 27, 28, 29, 30, 31, 32, 33, 34, 35, 36, 37, 38, 39, 40, 41, 42, 43, 44, 45, 46, 47, 48, 49, 50, 51, 52, 53, 54, 55, 56, 57, 58, 59, 60, 61, 62, 63, 64, 65, 66, 67, 68, 69, 70, 71, 72, 73, 74, 75, 76, 77, 78, 79, 80, 81, 82, 83, 84, 85, 86, 87, 88, 89, 90, 91, 92, 93, 94, 95, 96, 97, 98, 99, 100, 101, 102, 103, 104, 105, 106, 107, 108, 109, 110, 111, 112, 113, 114, 115, 116, 117, 118, 119, 120, 121, 122, 123, 124, 125, 126, 127, 128, 129, 130, 131, 132, 133, 134, 135, 136, 137, 138, 139, 140, 141, 142, 143, 144, 145, 146, 147, 148, 149, 150],
      "AcquisitionTime": ["133334.940000", "133336.940000", "133338.940000", "133340.940000", "133342.940000", "133344.940000", "133346.940000", "133348.940000", "133350.940000", "133352.940000", "133354.940000", "133356.940000", "133358.940000", "133400.940000", "133402.940000", "133404.940000", "133406.940000", "133408.940000", "133410.940000", "133412.940000", "133414.940000", "133416.940000", "133418.940000", "133420.940000", "133422.940000", "133424.940000", "133426.940000", "133428.940000", "133430.940000", "133432.940000", "133434.940000", "133436.940000", "133438.940000", "133440.940000", "133442.940000", "133444.940000", "133446.940000", "133448.940000", "133450.940000", "133452.940000", "133454.940000", "133456.940000", "133458.940000", "133500.940000", "133502.940000", "133504.940000", "133506.940000", "133508.940000", "133510.940000", "133512.940000", "133514.940000", "133516.940000", "133518.940000", "133520.940000", "133522.940000", "133524.940000", "133526.940000", "133528.940000", "133530.940000", "133532.940000", "133534.940000", "133536.940000", "133538.940000", "133540.940000", "133542.940000", "133544.940000", "133546.940000", "133548.940000", "133550.940000", "133552.940000", "133554.940000", "133556.940000", "133558.940000", "133600.940000", "133602.940000", "133604.940000", "133606.940000", "133608.940000", "133610.940000", "133612.940000", "133614.940000", "133616.940000", "133618.940000", "133620.940000", "133622.940000", "133624.940000", "133626.940000", "133628.940000", "133630.940000", "133632.940000", "133634.940000", "133636.940000", "133638.940000", "133640.940000", "133642.940000", "133644.940000", "133646.940000", "133648.940000", "133650.940000", "133652.940000", "133654.940000", "133656.940000", "133658.940000", "133700.940000", "133702.940000", "133704.940000", "133706.940000", "133708.940000", "133710.940000", "133712.940000", "133714.940000", "133716.940000", "133718.940000", "133720.940000", "133722.940000", "133724.940000", "133726.940000", "133728.940000", "133730.940000", "133732.940000", "133734.940000", "133736.940000", "133738.940000", "133740.940000", "133742.940000", "133744.940000", "133746.940000", "133748.940000", "133750.940000", "133752.940000", "133754.940000", "133756.940000", "133758.940000", "133800.940000", "133802.940000", "133804.940000", "133806.940000", "133808.940000", "133810.940000", "133812.940000", "133814.940000", "133816.940000", "133818.940000", "133820.940000", "133822.940000", "133824.940000", "133826.940000", "133828.940000", "133830.940000", "133832.940000"],
      "ContentTime": ["133337.662000", "133339.157000", "133341.159000", "133343.158000", "133345.158000", "133347.158000", "133349.158000", "133351.159000", "133353.157000", "133355.157000", "133357.159000", "133359.158000", "133401.158000", "133403.158000", "133405.158000", "133407.658000", "133409.159000", "133411.157000", "133413.158000", "133415.158000", "133417.158000", "133419.158000", "133421.158000", "133423.158000", "133425.659000", "133427.157000", "133429.157000", "133431.657000", "133433.158000", "133435.158000", "133437.158000", "133439.658000", "133441.158000", "133443.158000", "133445.158000", "133447.157000", "133449.158000", "133451.158000", "133453.159000", "133455.158000", "133457.159000", "133459.658000", "133501.159000", "133503.158000", "133505.658000", "133507.159000", "133509.159000", "133511.159000", "133513.158000", "133515.658000", "133517.158000", "133519.159000", "133521.158000", "133523.158000", "133525.158000", "133527.158000", "133529.158000", "133531.159000", "133533.158000", "133535.159000", "133537.157000", "133539.157000", "133541.157000", "133543.159000", "133545.159000", "133547.159000", "133549.159000", "133551.158000", "133553.158000", "133555.158000", "133557.158000", "133559.159000", "133601.158000", "133603.158000", "133605.158000", "133607.159000", "133609.158000", "133611.158000", "133613.658000", "133615.157000", "133617.158000", "133619.158000", "133621.159000", "133623.158000", "133625.159000", "133627.158000", "133629.158000", "133631.157000", "133633.658000", "133635.659000", "133637.158000", "133639.658000", "133641.159000", "133643.159000", "133645.658000", "133647.157000", "133649.158000", "133651.158000", "133653.159000", "133655.158000", "133657.158000", "133659.158000", "133701.159000", "133703.158000", "133705.158000", "133707.658000", "133709.158000", "133711.158000", "133713.158000", "133715.158000", "133717.158000", "133719.159000", "133721.159000", "133723.157000", "133725.158000", "133727.158000", "133729.158000", "133731.159000", "133733.158000", "133735.659000", "133737.158000", "133739.158000", "133741.657000", "133743.158000", "133745.159000", "133747.159000", "133749.158000", "133751.158000", "133753.658000", "133755.158000", "133757.158000", "133759.158000", "133801.157000", "133803.158000", "133805.159000", "133807.159000", "133809.158000", "133811.158000", "133813.158000", "133815.658000", "133817.157000", "133819.159000", "133821.158000", "133823.159000", "133825.159000", "133827.159000", "133829.159000", "133831.158000", "133833.658000", "133835.092000"],
      "InstanceCreationTime": ["133337.662000", "133339.157000", "133341.159000", "133343.158000", "133345.158000", "133347.158000", "133349.158000", "133351.159000", "133353.157000", "133355.157000", "133357.159000", "133359.158000", "133401.158000", "133403.158000", "133405.158000", "133407.658000", "133409.159000", "133411.157000", "133413.158000", "133415.158000", "133417.158000", "133419.158000", "133421.158000", "133423.158000", "133425.659000", "133427.157000", "133429.157000", "133431.657000", "133433.158000", "133435.158000", "133437.158000", "133439.658000", "133441.158000", "133443.158000", "133445.158000", "133447.157000", "133449.158000", "133451.158000", "133453.159000", "133455.158000", "133457.159000", "133459.658000", "133501.159000", "133503.158000", "133505.658000", "133507.159000", "133509.159000", "133511.159000", "133513.158000", "133515.658000", "133517.158000", "133519.159000", "133521.158000", "133523.158000", "133525.158000", "133527.158000", "133529.158000", "133531.159000", "133533.158000", "133535.159000", "133537.157000", "133539.157000", "133541.157000", "133543.159000", "133545.159000", "133547.159000", "133549.159000", "133551.158000", "133553.158000", "133555.158000", "133557.158000", "133559.159000", "133601.158000", "133603.158000", "133605.158000", "133607.159000", "133609.158000", "133611.158000", "133613.658000", "133615.157000", "133617.158000", "133619.158000", "133621.159000", "133623.158000", "133625.159000", "133627.158000", "133629.158000", "133631.157000", "133633.658000", "133635.659000", "133637.158000", "133639.658000", "133641.159000", "133643.159000", "133645.658000", "133647.157000", "133649.158000", "133651.158000", "133653.159000", "133655.158000", "133657.158000", "133659.158000", "133701.159000", "133703.158000", "133705.158000", "133707.658000", "133709.158000", "133711.158000", "133713.158000", "133715.158000", "133717.158000", "133719.159000", "133721.159000", "133723.157000", "133725.158000", "133727.158000", "133729.158000", "133731.159000", "133733.158000", "133735.659000", "133737.158000", "133739.158000", "133741.657000", "133743.158000", "133745.159000", "133747.159000", "133749.158000", "133751.158000", "133753.658000", "133755.158000", "133757.158000", "133759.158000", "133801.157000", "133803.158000", "133805.159000", "133807.159000", "133809.158000", "133811.158000", "133813.158000", "133815.658000", "133817.157000", "133819.159000", "133821.158000", "133823.159000", "133825.159000", "133827.159000", "133829.159000", "133831.158000", "133833.658000", "133835.092000"],
      "InstanceNumber": [1, 2, 3, 4, 5, 6, 7, 8, 9, 10, 11, 12, 13, 14, 15, 16, 17, 18, 19, 20, 21, 22, 23, 24, 25, 26, 27, 28, 29, 30, 31, 32, 33, 34, 35, 36, 37, 38, 39, 40, 41, 42, 43, 44, 45, 46, 47, 48, 49, 50, 51, 52, 53, 54, 55, 56, 57, 58, 59, 60, 61, 62, 63, 64, 65, 66, 67, 68, 69, 70, 71, 72, 73, 74, 75, 76, 77, 78, 79, 80, 81, 82, 83, 84, 85, 86, 87, 88, 89, 90, 91, 92, 93, 94, 95, 96, 97, 98, 99, 100, 101, 102, 103, 104, 105, 106, 107, 108, 109, 110, 111, 112, 113, 114, 115, 116, 117, 118, 119, 120, 121, 122, 123, 124, 125, 126, 127, 128, 129, 130, 131, 132, 133, 134, 135, 136, 137, 138, 139, 140, 141, 142, 143, 144, 145, 146, 147, 148, 149, 150],
      "LargestImagePixelValue": [3105, 3085, 3081, 3100, 3062, 3058, 3060, 3091, 3067, 3094, 3061, 3098, 3050, 3067, 3095, 3085, 3057, 3097, 3084, 3074, 3069, 3088, 3075, 3067, 3113, 3076, 3068, 3090, 3110, 3083, 3088, 3097, 3088, 3049, 3074, 3069, 3088, 3098, 3105, 3100, 3081, 3080, 3077, 3104, 3128, 3088, 3086, 3095, 3115, 3097, 3121, 3128, 3084, 3102, 3094, 3105, 3115, 3125, 3101, 3102, 3073, 3082, 3109, 3090, 3107, 3086, 3072, 3087, 3124, 3116, 3090, 3101, 3092, 3098, 3092, 3138, 3090, 3120, 3156, 3118, 3112, 3148, 3087, 3112, 3077, 3100, 3081, 3140, 3114, 3094, 3104, 3107, 3124, 3085, 3103, 3125, 3128, 3102, 3146, 3099, 3141, 3142, 3167, 3137, 3131, 3113, 3139, 3108, 3091, 3111, 3131, 3125, 3110, 3112, 3116, 3121, 3103, 3102, 3104, 3110, 3107, 3100, 3087, 3117, 3103, 3084, 3137, 3155, 3134, 3139, 3117, 3114, 3059, 3108, 3133, 3109, 3096, 3156, 3124, 3087, 3126, 3122, 3137, 3155, 3146, 3200, 3120, 3133, 3138, 3068],
      "WindowCenter": [804.0, 804.0, 805.0, 807.0, 808.0, 807.0, 806.0, 805.0, 804.0, 805.0, 804.0, 804.0, 804.0, 803.0, 804.0, 804.0, 803.0, 803.0, 803.0, 804.0, 804.0, 805.0, 806.0, 805.0, 804.0, 805.0, 805.0, 805.0, 805.0, 806.0, 807.0, 806.0, 805.0, 806.0, 806.0, 804.0, 803.0, 802.0, 802.0, 803.0, 803.0, 804.0, 805.0, 805.0, 804.0, 803.0, 803.0, 803.0, 805.0, 806.0, 805.0, 804.0, 804.0, 804.0, 804.0, 804.0, 805.0, 805.0, 806.0, 808.0, 807.0, 805.0, 804.0, 803.0, 802.0, 804.0, 805.0, 804.0, 804.0, 803.0, 804.0, 806.0, 805.0, 804.0, 803.0, 806.0, 805.0, 804.0, 804.0, 804.0, 806.0, 807.0, 805.0, 803.0, 802.0, 803.0, 804.0, 804.0, 803.0, 802.0, 804.0, 805.0, 805.0, 803.0, 803.0, 802.0, 802.0, 802.0, 803.0, 804.0, 806.0, 806.0, 807.0, 806.0, 807.0, 807.0, 808.0, 807.0, 806.0, 805.0, 803.0, 802.0, 802.0, 805.0, 808.0, 807.0, 804.0, 801.0, 803.0, 805.0, 806.0, 804.0, 802.0, 804.0, 807.0, 806.0, 803.0, 802.0, 804.0, 804.0, 803.0, 803.0, 801.0, 803.0, 807.0, 808.0, 806.0, 804.0, 804.0, 805.0, 806.0, 804.0, 803.0, 802.0, 802.0, 802.0, 802.0, 802.0, 803.0, 802.0],
      "WindowWidth": [1717.0, 1718.0, 1721.0, 1726.0, 1728.0, 1726.0, 1723.0, 1720.0, 1718.0, 1719.0, 1718.0, 1718.0, 1717.0, 1715.0, 1717.0, 1717.0, 1716.0, 1716.0, 1716.0, 1718.0, 1718.0, 1720.0, 1723.0, 1720.0, 1718.0, 1719.0, 1719.0, 1721.0, 1721.0, 1723.0, 1725.0, 1722.0, 1720.0, 1722.0, 1722.0, 1717.0, 1715.0, 1713.0, 1713.0, 1714.0, 1714.0, 1718.0, 1720.0, 1719.0, 1718.0, 1715.0, 1714.0, 1716.0, 1721.0, 1723.0, 1721.0, 1718.0, 1717.0, 1718.0, 1717.0, 1717.0, 1720.0, 1721.0, 1723.0, 1728.0, 1727.0, 1721.0, 1718.0, 1714.0, 1713.0, 1716.0, 1719.0, 1717.0, 1716.0, 1715.0, 1718.0, 1724.0, 1720.0, 1718.0, 1716.0, 1722.0, 1720.0, 1718.0, 1717.0, 1717.0, 1723.0, 1725.0, 1719.0, 1714.0, 1712.0, 1715.0, 1717.0, 1717.0, 1713.0, 1712.0, 1718.0, 1721.0, 1719.0, 1715.0, 1713.0, 1712.0, 1712.0, 1713.0, 1716.0, 1717.0, 1722.0, 1723.0, 1724.0, 1724.0, 1725.0, 1727.0, 1727.0, 1726.0, 1722.0, 1718.0, 1715.0, 1713.0, 1713.0, 1720.0, 1727.0, 1725.0, 1716.0, 1710.0, 1714.0, 1720.0, 1721.0, 1717.0, 1712.0, 1718.0, 1725.0, 1722.0, 1715.0, 1713.0, 1716.0, 1717.0, 1713.0, 1713.0, 1710.0, 1715.0, 1726.0, 1728.0, 1721.0, 1716.0, 1716.0, 1721.0, 1723.0, 1718.0, 1714.0, 1712.0, 1711.0, 1713.0, 1711.0, 1712.0, 1713.0, 1712.0]
    },
    "slices": {}
  }
}