{
  "AcquisitionMatrixPE": 100,
  "AcquisitionNumber": 1,
  "AcquisitionTime": "13:08:54.130000",
  "BandwidthPerPixelPhaseEncode": 18.519,
  "BaseResolution": 100,
  "BodyPartExamined": "BRAIN",
  "ConsistencyInfo": "N4_VE11C_LATEST_20160120",
  "ConversionSoftware": "dcm2niix",
  "ConversionSoftwareVersion": "v1.0.20180622 GCC4.9.2",
  "DerivedVendorReportedEchoSpacing": 0.000539986,
  "DeviceSerialNumber": "166078",
  "DwellTime": 2.1e-06,
  "EchoTime": 0.034,
  "EchoTrainLength": 100,
  "EffectiveEchoSpacing": 0.000539986,
  "FlipAngle": 90,
  "ImageOrientationPatientDICOM": [1, 0, 0, 0, 0.965926, -0.258819],
  "ImageType": [
    "ORIGINAL",
    "PRIMARY",
    "M",
    "ND",
    "MOSAIC"
],
  "InPlanePhaseEncodingDirectionDICOM": "COL",
  "InstitutionAddress": "Street_StreetNo_Bei_Jing_District_CN_ZIP",
  "InstitutionName": "BeiJing_Normal_University",
  "InstitutionalDepartmentName": "Department",
  "MRAcquisitionType": "2D",
  "MagneticFieldStrength": 3,
  "Manufacturer": "Siemens",
  "ManufacturersModelName": "Prisma",
  "Modality": "MR",
  "MultibandAccelerationFactor": 3,
  "PartialFourier": 1,
  "PatientPosition": "HFS",
  "PercentPhaseFOV": 100,
  "PhaseEncodingDirection": "j-",
  "PhaseEncodingSteps": 100,
  "PhaseResolution": 1,
  "PixelBandwidth": 2380,
  "ProcedureStepDescription": "BNU_P2018_64CH_Zhen.ZongLei",
  "ProtocolName": "bold_100x100_s3_2x2x2_retino_150",
  "PulseSequenceDetails": "%SiemensSeq%_ep2d_bold",
  "ReceiveCoilActiveElements": "HC1-7;NC1",
  "ReceiveCoilName": "HeadNeck_64",
  "ReconMatrixPE": 100,
  "RepetitionTime": 2,
  "SAR": 0.0731478,
  "ScanOptions": "FS",
  "ScanningSequence": "EP",
  "SequenceName": "_epfid2d1_100",
  "SequenceVariant": "SK",
  "SeriesDescription": "bold_100x100_s3_2x2x2_retino_150",
  "SeriesNumber": 3,
  "ShimSetting": [-5457, -11469, -1286, 302, -33, -169, -225, 82],
  "SliceThickness": 2,
  "SliceTiming": [1.485, 0, 0.99, 0.0825, 1.0725, 0.165, 1.155, 0.2475, 1.2375, 0.33, 1.32, 0.4125, 1.4025, 0.5775, 1.5675, 0.66, 1.65, 0.7425, 1.7325, 0.825, 1.815, 0.9075, 1.8975, 0.495, 1.485, 0, 0.99, 0.0825, 1.0725, 0.165, 1.155, 0.2475, 1.2375, 0.33, 1.32, 0.4125, 1.4025, 0.5775, 1.5675, 0.66, 1.65, 0.7425, 1.7325, 0.825, 1.815, 0.9075, 1.8975, 0.495, 1.485, 0, 0.99, 0.0825, 1.0725, 0.165, 1.155, 0.2475, 1.2375, 0.33, 1.32, 0.4125, 1.4025, 0.5775, 1.5675, 0.66, 1.65, 0.7425, 1.7325, 0.825, 1.815, 0.9075, 1.8975, 0.495],
  "SoftwareVersions": "syngo_MR_E11",
  "SpacingBetweenSlices": 2,
  "StationName": "AWP166078",
  "TaskName": "retinotopy",
  "TotalReadoutTime": 0.0534586,
  "TxRefAmp": 229.519,
  "dcmmeta_affine": [
    [-2.0, 0.0, 0.0, 100.0],
    [0.0, 1.9318516254425049, -0.5176380276679993, -73.80265045166016],
    [0.0, 0.517638087272644, 1.9318516254425049, -89.45343017578125],
    [0.0, 0.0, 0.0, 1.0]
],
  "dcmmeta_reorient_transform": [
    [0.0, -1.0, 0.0, 99.0],
    [1.0, 0.0, 0.0, 0.0],
    [0.0, 0.0, 1.0, 0.0],
    [0.0, 0.0, 0.0, 1.0]
],
  "dcmmeta_shape": [100, 100, 72, 150],
  "dcmmeta_slice_dim": 2,
  "dcmmeta_version": 0.6,
  "global": {
    "const": {
      "AcquisitionMatrix": [100, 0, 0, 100],
      "AngioFlag": "N",
      "BitsAllocated": 16,
      "BitsStored": 12,
      "BodyPartExamined": "BRAIN",
      "Columns": 900,
      "EchoNumbers": 1,
      "EchoTime": 34.0,
      "EchoTrainLength": 100,
      "FlipAngle": 90.0,
      "HighBit": 11,
      "ImageOrientationPatient": [1.0, 0.0, 0.0, 0.0, 0.9659258278573, -0.2588190392498],
      "ImagePositionPatient": [-900.0, -890.19132498185, 168.84797059094],
      "ImageType": [
        "ORIGINAL",
        "PRIMARY",
        "M",
        "ND",
        "MOSAIC"
],
      "ImagedNucleus": "1H",
      "ImagingFrequency": 123.257748,
      "InPlanePhaseEncodingDirection": "COL",
      "MRAcquisitionType": "2D",
      "MagneticFieldStrength": 3.0,
      "Manufacturer": "SIEMENS",
      "ManufacturerModelName": "Prisma",
      "Modality": "MR",
      "NumberOfAverages": 1.0,
      "NumberOfPhaseEncodingSteps": 100,
      "PercentPhaseFieldOfView": 100.0,
      "PercentSampling": 100.0,
      "PerformedProcedureStepStartTime": "130450.942000",
      "PhotometricInterpretation": "MONOCHROME2",
      "PixelBandwidth": 2380.0,
      "PixelRepresentation": 0,
      "PixelSpacing": [2.0, 2.0],
      "ProtocolName": "bold_100x100_s3_2x2x2_retino_150",
      "RepetitionTime": 2000.0,
      "Rows": 900,
      "SAR": 0.07314783889416,
      "SamplesPerPixel": 1,
      "ScanOptions": "FS",
      "ScanningSequence": "EP",
      "SequenceName": "*epfid2d1_100",
      "SequenceVariant": "SK",
      "SeriesDescription": "bold_100x100_s3_2x2x2_retino_150",
      "SeriesNumber": 3,
      "SeriesTime": "130856.711000",
      "SliceLocation": -67.303847705236,
      "SliceThickness": 2.0,
      "SmallestImagePixelValue": 0,
      "SoftwareVersions": "syngo MR E11",
      "SpacingBetweenSlices": 1.9999999109673,
      "SpecificCharacterSet": "ISO_IR 100",
      "StudyID": "1",
      "StudyTime": "130450.828000",
      "TransmitCoilName": "Body",
      "VariableFlipAngleFlag": "N",
      "WindowCenterWidthExplanation": "Algo1",
      "dBdt": 0.0},
    "slices": {}
  },
  "time": {
    "samples": {
      "AcquisitionNumber": [1, 2, 3, 4, 5, 6, 7, 8, 9, 10, 11, 12, 13, 14, 15, 16, 17, 18, 19, 20, 21, 22, 23, 24, 25, 26, 27, 28, 29, 30, 31, 32, 33, 34, 35, 36, 37, 38, 39, 40, 41, 42, 43, 44, 45, 46, 47, 48, 49, 50, 51, 52, 53, 54, 55, 56, 57, 58, 59, 60, 61, 62, 63, 64, 65, 66, 67, 68, 69, 70, 71, 72, 73, 74, 75, 76, 77, 78, 79, 80, 81, 82, 83, 84, 85, 86, 87, 88, 89, 90, 91, 92, 93, 94, 95, 96, 97, 98, 99, 100, 101, 102, 103, 104, 105, 106, 107, 108, 109, 110, 111, 112, 113, 114, 115, 116, 117, 118, 119, 120, 121, 122, 123, 124, 125, 126, 127, 128, 129, 130, 131, 132, 133, 134, 135, 136, 137, 138, 139, 140, 141, 142, 143, 144, 145, 146, 147, 148, 149, 150],
      "AcquisitionTime": ["130854.130000", "130856.130000", "130858.130000", "130900.130000", "130902.130000", "130904.130000", "130906.130000", "130908.130000", "130910.130000", "130912.130000", "130914.130000", "130916.130000", "130918.130000", "130920.130000", "130922.130000", "130924.130000", "130926.130000", "130928.130000", "130930.130000", "130932.130000", "130934.130000", "130936.130000", "130938.130000", "130940.130000", "130942.130000", "130944.130000", "130946.130000", "130948.130000", "130950.130000", "130952.130000", "130954.130000", "130956.130000", "130958.130000", "131000.130000", "131002.130000", "131004.130000", "131006.130000", "131008.130000", "131010.130000", "131012.130000", "131014.130000", "131016.130000", "131018.130000", "131020.130000", "131022.130000", "131024.130000", "131026.130000", "131028.130000", "131030.130000", "131032.130000", "131034.130000", "131036.130000", "131038.130000", "131040.130000", "131042.130000", "131044.130000", "131046.130000", "131048.130000", "131050.130000", "131052.130000", "131054.130000", "131056.130000", "131058.130000", "131100.130000", "131102.130000", "131104.130000", "131106.130000", "131108.130000", "131110.130000", "131112.130000", "131114.130000", "131116.130000", "131118.130000", "131120.130000", "131122.130000", "131124.130000", "131126.130000", "131128.130000", "131130.130000", "131132.130000", "131134.130000", "131136.130000", "131138.130000", "131140.130000", "131142.130000", "131144.130000", "131146.130000", "131148.130000", "131150.130000", "131152.130000", "131154.130000", "131156.130000", "131158.130000", "131200.130000", "131202.130000", "131204.130000", "131206.130000", "131208.130000", "131210.130000", "131212.130000", "131214.130000", "131216.130000", "131218.130000", "131220.130000", "131222.130000", "131224.130000", "131226.130000", "131228.130000", "131230.130000", "131232.130000", "131234.130000", "131236.130000", "131238.130000", "131240.130000", "131242.130000", "131244.130000", "131246.130000", "131248.130000", "131250.130000", "131252.130000", "131254.130000", "131256.130000", "131258.130000", "131300.130000", "131302.130000", "131304.130000", "131306.130000", "131308.130000", "131310.130000", "131312.130000", "131314.130000", "131316.130000", "131318.130000", "131320.130000", "131322.130000", "131324.130000", "131326.130000", "131328.130000", "131330.130000", "131332.130000", "131334.130000", "131336.130000", "131338.130000", "131340.130000", "131342.130000", "131344.130000", "131346.130000", "131348.130000", "131350.130000", "131352.130000"],
      "ContentTime": ["130856.715000", "130858.210000", "130900.211000", "130902.211000", "130904.210000", "130906.210000", "130908.209000", "130910.210000", "130912.210000", "130914.210000", "130916.211000", "130918.210000", "130920.211000", "130922.210000", "130924.211000", "130926.209000", "130928.211000", "130930.210000", "130932.211000", "130934.211000", "130936.211000", "130938.211000", "130940.210000", "130942.211000", "130944.209000", "130946.210000", "130948.210000", "130950.211000", "130952.210000", "130954.211000", "130956.210000", "130958.211000", "131000.209000", "131002.210000", "131004.211000", "131006.211000", "131008.210000", "131010.211000", "131012.210000", "131014.211000", "131016.210000", "131018.209000", "131020.210000", "131022.211000", "131024.210000", "131026.211000", "131028.210000", "131030.211000", "131032.210000", "131034.211000", "131036.210000", "131038.211000", "131040.210000", "131042.211000", "131044.210000", "131046.210000", "131048.210000", "131050.211000", "131052.210000", "131054.210000", "131056.211000", "131058.210000", "131100.211000", "131102.210000", "131104.211000", "131106.210000", "131108.211000", "131110.209000", "131112.210000", "131114.211000", "131116.211000", "131118.210000", "131120.210000", "131122.211000", "131124.210000", "131126.211000", "131128.209000", "131130.210000", "131132.210000", "131134.211000", "131136.211000", "131138.211000", "131140.210000", "131142.210000", "131144.211000", "131146.210000", "131148.211000", "131150.210000", "131152.210000", "131154.211000", "131156.211000", "131158.211000", "131200.210000", "131202.210000", "131204.209000", "131206.210000", "131208.211000", "131210.211000", "131212.211000", "131214.211000", "131216.210000", "131218.211000", "131220.209000", "131222.210000", "131224.210000", "131226.210000", "131228.211000", "131230.210000", "131232.211000", "131234.210000", "131236.210000", "131238.210000", "131240.209000", "131242.210000", "131244.211000", "131246.211000", "131248.211000", "131250.210000", "131252.210000", "131254.210000", "131256.209000", "131258.211000", "131300.211000", "131302.211000", "131304.210000", "131306.210000", "131308.211000", "131310.211000", "131312.210000", "131314.210000", "131316.210000", "131318.211000", "131320.211000", "131322.211000", "131324.210000", "131326.211000", "131328.211000", "131330.210000", "131332.210000", "131334.210000", "131336.210000", "131338.211000", "131340.211000", "131342.211000", "131344.210000", "131346.211000", "131348.210000", "131350.210000", "131352.211000", "131353.815000"],
      "InstanceCreationTime": ["130856.715000", "130858.210000", "130900.211000", "130902.211000", "130904.210000", "130906.210000", "130908.209000", "130910.210000", "130912.210000", "130914.210000", "130916.211000", "130918.210000", "130920.211000", "130922.210000", "130924.211000", "130926.209000", "130928.211000", "130930.210000", "130932.211000", "130934.211000", "130936.211000", "130938.211000", "130940.210000", "130942.211000", "130944.209000", "130946.210000", "130948.210000", "130950.211000", "130952.210000", "130954.211000", "130956.210000", "130958.211000", "131000.209000", "131002.210000", "131004.211000", "131006.211000", "131008.210000", "131010.211000", "131012.210000", "131014.211000", "131016.210000", "131018.209000", "131020.210000", "131022.211000", "131024.210000", "131026.211000", "131028.210000", "131030.211000", "131032.210000", "131034.211000", "131036.210000", "131038.211000", "131040.210000", "131042.211000", "131044.210000", "131046.210000", "131048.210000", "131050.211000", "131052.210000", "131054.210000", "131056.211000", "131058.210000", "131100.211000", "131102.210000", "131104.211000", "131106.210000", "131108.211000", "131110.209000", "131112.210000", "131114.211000", "131116.211000", "131118.210000", "131120.210000", "131122.211000", "131124.210000", "131126.211000", "131128.209000", "131130.210000", "131132.210000", "131134.211000", "131136.211000", "131138.211000", "131140.210000", "131142.210000", "131144.211000", "131146.210000", "131148.211000", "131150.210000", "131152.210000", "131154.211000", "131156.211000", "131158.211000", "131200.210000", "131202.210000", "131204.209000", "131206.210000", "131208.211000", "131210.211000", "131212.211000", "131214.211000", "131216.210000", "131218.211000", "131220.209000", "131222.210000", "131224.210000", "131226.210000", "131228.211000", "131230.210000", "131232.211000", "131234.210000", "131236.210000", "131238.210000", "131240.209000", "131242.210000", "131244.211000", "131246.211000", "131248.211000", "131250.210000", "131252.210000", "131254.210000", "131256.209000", "131258.211000", "131300.211000", "131302.211000", "131304.210000", "131306.210000", "131308.211000", "131310.211000", "131312.210000", "131314.210000", "131316.210000", "131318.211000", "131320.211000", "131322.211000", "131324.210000", "131326.211000", "131328.211000", "131330.210000", "131332.210000", "131334.210000", "131336.210000", "131338.211000", "131340.211000", "131342.211000", "131344.210000", "131346.211000", "131348.210000", "131350.210000", "131352.211000", "131353.815000"],
      "InstanceNumber": [1, 2, 3, 4, 5, 6, 7, 8, 9, 10, 11, 12, 13, 14, 15, 16, 17, 18, 19, 20, 21, 22, 23, 24, 25, 26, 27, 28, 29, 30, 31, 32, 33, 34, 35, 36, 37, 38, 39, 40, 41, 42, 43, 44, 45, 46, 47, 48, 49, 50, 51, 52, 53, 54, 55, 56, 57, 58, 59, 60, 61, 62, 63, 64, 65, 66, 67, 68, 69, 70, 71, 72, 73, 74, 75, 76, 77, 78, 79, 80, 81, 82, 83, 84, 85, 86, 87, 88, 89, 90, 91, 92, 93, 94, 95, 96, 97, 98, 99, 100, 101, 102, 103, 104, 105, 106, 107, 108, 109, 110, 111, 112, 113, 114, 115, 116, 117, 118, 119, 120, 121, 122, 123, 124, 125, 126, 127, 128, 129, 130, 131, 132, 133, 134, 135, 136, 137, 138, 139, 140, 141, 142, 143, 144, 145, 146, 147, 148, 149, 150],
      "LargestImagePixelValue": [2890, 2887, 2885, 2867, 2898, 2884, 2879, 2878, 2894, 2891, 2897, 2914, 2871, 2880, 2898, 2885, 2858, 2888, 2879, 2878, 2883, 2891, 2862, 2890, 2903, 2868, 2911, 2941, 2884, 2920, 2957, 2900, 2890, 2864, 2870, 2868, 2908, 2905, 2883, 2920, 2879, 2870, 2935, 2883, 2888, 2952, 2903, 2910, 2904, 2871, 2899, 2868, 2915, 2882, 2863, 2859, 2877, 2938, 2879, 2933, 2927, 2878, 2927, 2901, 2891, 2879, 2899, 2930, 2898, 2938, 2866, 2883, 2928, 2911, 2937, 2885, 2876, 2964, 2914, 2950, 2924, 2891, 2950, 2912, 2923, 2925, 2888, 2934, 2909, 2948, 2933, 2937, 2948, 2936, 2980, 2934, 2986, 2954, 2938, 2954, 2899, 2999, 2950, 2929, 2946, 2914, 3031, 2954, 2959, 3002, 2976, 3050, 3008, 3045, 3008, 3037, 2998, 3083, 3017, 3039, 3018, 3042, 3010, 3011, 3015, 3006, 3022, 3034, 3032, 3075, 3044, 3072, 3045, 3064, 3052, 3060, 3081, 3042, 3074, 3032, 3082, 3047, 3080, 3057, 3041, 3063, 3060, 3071, 3093, 3054],
      "WindowCenter": [793.0, 793.0, 792.0, 792.0, 793.0, 793.0, 793.0, 791.0, 790.0, 791.0, 791.0, 791.0, 791.0, 791.0, 792.0, 793.0, 793.0, 793.0, 792.0, 792.0, 792.0, 792.0, 792.0, 793.0, 791.0, 790.0, 791.0, 791.0, 791.0, 792.0, 793.0, 792.0, 792.0, 791.0, 791.0, 791.0, 791.0, 790.0, 790.0, 791.0, 791.0, 791.0, 791.0, 790.0, 790.0, 792.0, 791.0, 791.0, 791.0, 791.0, 790.0, 790.0, 791.0, 792.0, 792.0, 791.0, 791.0, 792.0, 791.0, 793.0, 793.0, 793.0, 793.0, 793.0, 793.0, 793.0, 793.0, 794.0, 794.0, 794.0, 793.0, 793.0, 794.0, 793.0, 794.0, 793.0, 793.0, 794.0, 792.0, 793.0, 792.0, 792.0, 794.0, 793.0, 792.0, 791.0, 790.0, 792.0, 792.0, 794.0, 794.0, 794.0, 794.0, 793.0, 793.0, 792.0, 794.0, 794.0, 794.0, 793.0, 792.0, 793.0, 793.0, 793.0, 793.0, 792.0, 794.0, 795.0, 796.0, 796.0, 795.0, 794.0, 793.0, 795.0, 796.0, 797.0, 796.0, 796.0, 796.0, 796.0, 795.0, 795.0, 794.0, 794.0, 794.0, 793.0, 794.0, 794.0, 795.0, 795.0, 795.0, 796.0, 797.0, 799.0, 798.0, 797.0, 796.0, 795.0, 796.0, 796.0, 796.0, 796.0, 796.0, 796.0, 795.0, 795.0, 795.0, 795.0, 796.0, 796.0],
      "WindowWidth": [1692.0, 1691.0, 1690.0, 1688.0, 1691.0, 1693.0, 1691.0, 1687.0, 1685.0, 1687.0, 1688.0, 1688.0, 1687.0, 1687.0, 1690.0, 1692.0, 1691.0, 1691.0, 1689.0, 1689.0, 1688.0, 1689.0, 1689.0, 1691.0, 1688.0, 1685.0, 1687.0, 1688.0, 1686.0, 1688.0, 1691.0, 1690.0, 1690.0, 1688.0, 1687.0, 1686.0, 1686.0, 1684.0, 1684.0, 1686.0, 1687.0, 1687.0, 1687.0, 1683.0, 1684.0, 1689.0, 1687.0, 1687.0, 1686.0, 1685.0, 1684.0, 1683.0, 1686.0, 1689.0, 1689.0, 1687.0, 1686.0, 1688.0, 1687.0, 1692.0, 1692.0, 1691.0, 1691.0, 1690.0, 1690.0, 1690.0, 1692.0, 1695.0, 1693.0, 1694.0, 1691.0, 1692.0, 1693.0, 1692.0, 1692.0, 1691.0, 1692.0, 1692.0, 1688.0, 1690.0, 1688.0, 1689.0, 1693.0, 1690.0, 1687.0, 1685.0, 1684.0, 1688.0, 1689.0, 1692.0, 1693.0, 1694.0, 1694.0, 1692.0, 1690.0, 1688.0, 1692.0, 1694.0, 1693.0, 1691.0, 1688.0, 1690.0, 1690.0, 1689.0, 1690.0, 1689.0, 1694.0, 1696.0, 1698.0, 1697.0, 1694.0, 1693.0, 1692.0, 1695.0, 1697.0, 1700.0, 1698.0, 1697.0, 1698.0, 1699.0, 1697.0, 1695.0, 1693.0, 1692.0, 1692.0, 1692.0, 1692.0, 1693.0, 1695.0, 1696.0, 1697.0, 1699.0, 1701.0, 1706.0, 1704.0, 1701.0, 1698.0, 1697.0, 1698.0, 1698.0, 1698.0, 1697.0, 1698.0, 1698.0, 1696.0, 1697.0, 1697.0, 1697.0, 1698.0, 1699.0]
    },
    "slices": {}
  }
}