{
  "AcquisitionMatrixPE": 100,
  "AcquisitionNumber": 1,
  "AcquisitionTime": "13:14:52.332500",
  "BandwidthPerPixelPhaseEncode": 18.519,
  "BaseResolution": 100,
  "BodyPartExamined": "BRAIN",
  "ConsistencyInfo": "N4_VE11C_LATEST_20160120",
  "ConversionSoftware": "dcm2niix",
  "ConversionSoftwareVersion": "v1.0.20180622 GCC4.9.2",
  "DerivedVendorReportedEchoSpacing": 0.000539986,
  "DeviceSerialNumber": "166078",
  "DwellTime": 2.1e-06,
  "EchoTime": 0.034,
  "EchoTrainLength": 100,
  "EffectiveEchoSpacing": 0.000539986,
  "FlipAngle": 90,
  "ImageOrientationPatientDICOM": [1, 0, 0, 0, 0.965926, -0.258819],
  "ImageType": [
    "ORIGINAL",
    "PRIMARY",
    "M",
    "ND",
    "MOSAIC"
],
  "InPlanePhaseEncodingDirectionDICOM": "COL",
  "InstitutionAddress": "Street_StreetNo_Bei_Jing_District_CN_ZIP",
  "InstitutionName": "BeiJing_Normal_University",
  "InstitutionalDepartmentName": "Department",
  "MRAcquisitionType": "2D",
  "MagneticFieldStrength": 3,
  "Manufacturer": "Siemens",
  "ManufacturersModelName": "Prisma",
  "Modality": "MR",
  "MultibandAccelerationFactor": 3,
  "PartialFourier": 1,
  "PatientPosition": "HFS",
  "PercentPhaseFOV": 100,
  "PhaseEncodingDirection": "j-",
  "PhaseEncodingSteps": 100,
  "PhaseResolution": 1,
  "PixelBandwidth": 2380,
  "ProcedureStepDescription": "BNU_P2018_64CH_Zhen.ZongLei",
  "ProtocolName": "bold_100x100_s3_2x2x2_retino_150",
  "PulseSequenceDetails": "%SiemensSeq%_ep2d_bold",
  "ReceiveCoilActiveElements": "HC1-7;NC1",
  "ReceiveCoilName": "HeadNeck_64",
  "ReconMatrixPE": 100,
  "RepetitionTime": 2,
  "SAR": 0.0731478,
  "ScanOptions": "FS",
  "ScanningSequence": "EP",
  "SequenceName": "_epfid2d1_100",
  "SequenceVariant": "SK",
  "SeriesDescription": "bold_100x100_s3_2x2x2_retino_150",
  "SeriesNumber": 4,
  "ShimSetting": [-5457, -11469, -1286, 302, -33, -169, -225, 82],
  "SliceThickness": 2,
  "SliceTiming": [1.485, 0, 0.99, 0.0825, 1.0725, 0.165, 1.155, 0.2475, 1.2375, 0.33, 1.32, 0.4125, 1.4025, 0.5775, 1.5675, 0.66, 1.65, 0.7425, 1.7325, 0.825, 1.815, 0.9075, 1.8975, 0.495, 1.485, 0, 0.99, 0.0825, 1.0725, 0.165, 1.155, 0.2475, 1.2375, 0.33, 1.32, 0.4125, 1.4025, 0.5775, 1.5675, 0.66, 1.65, 0.7425, 1.7325, 0.825, 1.815, 0.9075, 1.8975, 0.495, 1.485, 0, 0.99, 0.0825, 1.0725, 0.165, 1.155, 0.2475, 1.2375, 0.33, 1.32, 0.4125, 1.4025, 0.5775, 1.5675, 0.66, 1.65, 0.7425, 1.7325, 0.825, 1.815, 0.9075, 1.8975, 0.495],
  "SoftwareVersions": "syngo_MR_E11",
  "SpacingBetweenSlices": 2,
  "StationName": "AWP166078",
  "TaskName": "retinotopy",
  "TotalReadoutTime": 0.0534586,
  "TxRefAmp": 229.519,
  "dcmmeta_affine": [
    [-2.0, 0.0, 0.0, 100.0],
    [0.0, 1.9318516254425049, -0.5176380276679993, -73.80265045166016],
    [0.0, 0.517638087272644, 1.9318516254425049, -89.45343017578125],
    [0.0, 0.0, 0.0, 1.0]
],
  "dcmmeta_reorient_transform": [
    [0.0, -1.0, 0.0, 99.0],
    [1.0, 0.0, 0.0, 0.0],
    [0.0, 0.0, 1.0, 0.0],
    [0.0, 0.0, 0.0, 1.0]
],
  "dcmmeta_shape": [100, 100, 72, 150],
  "dcmmeta_slice_dim": 2,
  "dcmmeta_version": 0.6,
  "global": {
    "const": {
      "AcquisitionMatrix": [100, 0, 0, 100],
      "AngioFlag": "N",
      "BitsAllocated": 16,
      "BitsStored": 12,
      "BodyPartExamined": "BRAIN",
      "Columns": 900,
      "EchoNumbers": 1,
      "EchoTime": 34.0,
      "EchoTrainLength": 100,
      "FlipAngle": 90.0,
      "HighBit": 11,
      "ImageOrientationPatient": [1.0, 0.0, 0.0, 0.0, 0.9659258278573, -0.2588190392498],
      "ImagePositionPatient": [-900.0, -890.19132498185, 168.84797059094],
      "ImageType": [
        "ORIGINAL",
        "PRIMARY",
        "M",
        "ND",
        "MOSAIC"
],
      "ImagedNucleus": "1H",
      "ImagingFrequency": 123.257752,
      "InPlanePhaseEncodingDirection": "COL",
      "MRAcquisitionType": "2D",
      "MagneticFieldStrength": 3.0,
      "Manufacturer": "SIEMENS",
      "ManufacturerModelName": "Prisma",
      "Modality": "MR",
      "NumberOfAverages": 1.0,
      "NumberOfPhaseEncodingSteps": 100,
      "PercentPhaseFieldOfView": 100.0,
      "PercentSampling": 100.0,
      "PerformedProcedureStepStartTime": "130450.942000",
      "PhotometricInterpretation": "MONOCHROME2",
      "PixelBandwidth": 2380.0,
      "PixelRepresentation": 0,
      "PixelSpacing": [2.0, 2.0],
      "ProtocolName": "bold_100x100_s3_2x2x2_retino_150",
      "RepetitionTime": 2000.0,
      "Rows": 900,
      "SAR": 0.07314783889416,
      "SamplesPerPixel": 1,
      "ScanOptions": "FS",
      "ScanningSequence": "EP",
      "SequenceName": "*epfid2d1_100",
      "SequenceVariant": "SK",
      "SeriesDescription": "bold_100x100_s3_2x2x2_retino_150",
      "SeriesNumber": 4,
      "SeriesTime": "131455.579000",
      "SliceLocation": -67.303847705236,
      "SliceThickness": 2.0,
      "SmallestImagePixelValue": 0,
      "SoftwareVersions": "syngo MR E11",
      "SpacingBetweenSlices": 1.9999999109673,
      "SpecificCharacterSet": "ISO_IR 100",
      "StudyID": "1",
      "StudyTime": "130450.828000",
      "TransmitCoilName": "Body",
      "VariableFlipAngleFlag": "N",
      "WindowCenterWidthExplanation": "Algo1",
      "dBdt": 0.0},
    "slices": {}
  },
  "time": {
    "samples": {
      "AcquisitionNumber": [1, 2, 3, 4, 5, 6, 7, 8, 9, 10, 11, 12, 13, 14, 15, 16, 17, 18, 19, 20, 21, 22, 23, 24, 25, 26, 27, 28, 29, 30, 31, 32, 33, 34, 35, 36, 37, 38, 39, 40, 41, 42, 43, 44, 45, 46, 47, 48, 49, 50, 51, 52, 53, 54, 55, 56, 57, 58, 59, 60, 61, 62, 63, 64, 65, 66, 67, 68, 69, 70, 71, 72, 73, 74, 75, 76, 77, 78, 79, 80, 81, 82, 83, 84, 85, 86, 87, 88, 89, 90, 91, 92, 93, 94, 95, 96, 97, 98, 99, 100, 101, 102, 103, 104, 105, 106, 107, 108, 109, 110, 111, 112, 113, 114, 115, 116, 117, 118, 119, 120, 121, 122, 123, 124, 125, 126, 127, 128, 129, 130, 131, 132, 133, 134, 135, 136, 137, 138, 139, 140, 141, 142, 143, 144, 145, 146, 147, 148, 149, 150],
      "AcquisitionTime": ["131452.332500", "131454.332500", "131456.332500", "131458.332500", "131500.332500", "131502.332500", "131504.332500", "131506.332500", "131508.332500", "131510.332500", "131512.332500", "131514.332500", "131516.332500", "131518.332500", "131520.332500", "131522.332500", "131524.332500", "131526.332500", "131528.332500", "131530.332500", "131532.332500", "131534.332500", "131536.332500", "131538.332500", "131540.332500", "131542.332500", "131544.332500", "131546.332500", "131548.332500", "131550.332500", "131552.332500", "131554.332500", "131556.332500", "131558.332500", "131600.332500", "131602.332500", "131604.332500", "131606.332500", "131608.332500", "131610.332500", "131612.332500", "131614.332500", "131616.332500", "131618.332500", "131620.332500", "131622.332500", "131624.332500", "131626.332500", "131628.332500", "131630.332500", "131632.332500", "131634.332500", "131636.332500", "131638.332500", "131640.332500", "131642.332500", "131644.332500", "131646.332500", "131648.332500", "131650.332500", "131652.332500", "131654.332500", "131656.332500", "131658.332500", "131700.332500", "131702.332500", "131704.332500", "131706.332500", "131708.332500", "131710.332500", "131712.332500", "131714.332500", "131716.332500", "131718.332500", "131720.332500", "131722.332500", "131724.332500", "131726.332500", "131728.332500", "131730.332500", "131732.332500", "131734.332500", "131736.332500", "131738.332500", "131740.332500", "131742.332500", "131744.332500", "131746.332500", "131748.332500", "131750.332500", "131752.332500", "131754.332500", "131756.332500", "131758.332500", "131800.332500", "131802.332500", "131804.332500", "131806.332500", "131808.332500", "131810.332500", "131812.332500", "131814.332500", "131816.332500", "131818.332500", "131820.332500", "131822.332500", "131824.332500", "131826.332500", "131828.332500", "131830.332500", "131832.332500", "131834.332500", "131836.332500", "131838.332500", "131840.332500", "131842.332500", "131844.332500", "131846.332500", "131848.332500", "131850.332500", "131852.332500", "131854.332500", "131856.332500", "131858.332500", "131900.332500", "131902.332500", "131904.332500", "131906.332500", "131908.332500", "131910.332500", "131912.332500", "131914.332500", "131916.332500", "131918.332500", "131920.332500", "131922.332500", "131924.332500", "131926.332500", "131928.332500", "131930.332500", "131932.332500", "131934.332500", "131936.332500", "131938.332500", "131940.332500", "131942.332500", "131944.332500", "131946.332500", "131948.332500", "131950.332500"],
      "ContentTime": ["131455.582000", "131456.564000", "131458.563000", "131500.564000", "131502.564000", "131504.565000", "131506.563000", "131508.563000", "131510.564000", "131512.564000", "131514.564000", "131516.563000", "131518.564000", "131520.564000", "131522.564000", "131524.563000", "131526.564000", "131528.564000", "131530.563000", "131532.564000", "131534.564000", "131536.565000", "131538.564000", "131540.564000", "131542.564000", "131544.563000", "131546.563000", "131548.563000", "131550.564000", "131552.563000", "131554.564000", "131556.564000", "131558.564000", "131600.564000", "131602.563000", "131604.563000", "131606.563000", "131608.564000", "131610.565000", "131612.565000", "131614.565000", "131616.563000", "131618.563000", "131620.563000", "131622.564000", "131624.564000", "131626.564000", "131628.564000", "131630.564000", "131632.564000", "131634.564000", "131636.564000", "131638.564000", "131640.564000", "131642.563000", "131644.563000", "131646.564000", "131648.564000", "131650.564000", "131652.564000", "131654.563000", "131656.564000", "131658.564000", "131700.563000", "131702.564000", "131704.564000", "131706.564000", "131708.563000", "131710.564000", "131712.563000", "131714.563000", "131716.564000", "131718.563000", "131720.564000", "131722.564000", "131724.564000", "131726.563000", "131728.564000", "131730.563000", "131732.563000", "131734.563000", "131736.564000", "131738.564000", "131740.564000", "131742.565000", "131744.564000", "131746.563000", "131748.563000", "131750.563000", "131752.563000", "131754.563000", "131756.564000", "131758.564000", "131800.565000", "131802.564000", "131804.564000", "131806.564000", "131808.564000", "131810.564000", "131812.564000", "131814.564000", "131816.564000", "131818.563000", "131820.563000", "131822.563000", "131824.563000", "131826.564000", "131828.563000", "131830.564000", "131832.564000", "131834.564000", "131836.564000", "131838.563000", "131840.564000", "131842.563000", "131844.564000", "131846.563000", "131848.564000", "131850.564000", "131852.564000", "131854.563000", "131856.564000", "131858.563000", "131900.564000", "131902.563000", "131904.563000", "131906.564000", "131908.564000", "131910.564000", "131912.563000", "131914.564000", "131916.564000", "131918.563000", "131920.563000", "131922.563000", "131924.564000", "131926.565000", "131928.564000", "131930.563000", "131932.563000", "131934.563000", "131936.564000", "131938.564000", "131940.564000", "131942.564000", "131944.564000", "131946.563000", "131948.564000", "131950.564000", "131952.410000"],
      "InstanceCreationTime": ["131455.582000", "131456.564000", "131458.563000", "131500.564000", "131502.564000", "131504.565000", "131506.563000", "131508.563000", "131510.564000", "131512.564000", "131514.564000", "131516.563000", "131518.564000", "131520.564000", "131522.564000", "131524.563000", "131526.564000", "131528.564000", "131530.563000", "131532.564000", "131534.564000", "131536.565000", "131538.564000", "131540.564000", "131542.564000", "131544.563000", "131546.563000", "131548.563000", "131550.564000", "131552.563000", "131554.564000", "131556.564000", "131558.564000", "131600.564000", "131602.563000", "131604.563000", "131606.563000", "131608.564000", "131610.565000", "131612.565000", "131614.565000", "131616.563000", "131618.563000", "131620.563000", "131622.564000", "131624.564000", "131626.564000", "131628.564000", "131630.564000", "131632.564000", "131634.564000", "131636.564000", "131638.564000", "131640.564000", "131642.563000", "131644.563000", "131646.564000", "131648.564000", "131650.564000", "131652.564000", "131654.563000", "131656.564000", "131658.564000", "131700.563000", "131702.564000", "131704.564000", "131706.564000", "131708.563000", "131710.564000", "131712.563000", "131714.563000", "131716.564000", "131718.563000", "131720.564000", "131722.564000", "131724.564000", "131726.563000", "131728.564000", "131730.563000", "131732.563000", "131734.563000", "131736.564000", "131738.564000", "131740.564000", "131742.565000", "131744.564000", "131746.563000", "131748.563000", "131750.563000", "131752.563000", "131754.563000", "131756.564000", "131758.564000", "131800.565000", "131802.564000", "131804.564000", "131806.564000", "131808.564000", "131810.564000", "131812.564000", "131814.564000", "131816.564000", "131818.563000", "131820.563000", "131822.563000", "131824.563000", "131826.564000", "131828.563000", "131830.564000", "131832.564000", "131834.564000", "131836.564000", "131838.563000", "131840.564000", "131842.563000", "131844.564000", "131846.563000", "131848.564000", "131850.564000", "131852.564000", "131854.563000", "131856.564000", "131858.563000", "131900.564000", "131902.563000", "131904.563000", "131906.564000", "131908.564000", "131910.564000", "131912.563000", "131914.564000", "131916.564000", "131918.563000", "131920.563000", "131922.563000", "131924.564000", "131926.565000", "131928.564000", "131930.563000", "131932.563000", "131934.563000", "131936.564000", "131938.564000", "131940.564000", "131942.564000", "131944.564000", "131946.563000", "131948.564000", "131950.564000", "131952.410000"],
      "InstanceNumber": [1, 2, 3, 4, 5, 6, 7, 8, 9, 10, 11, 12, 13, 14, 15, 16, 17, 18, 19, 20, 21, 22, 23, 24, 25, 26, 27, 28, 29, 30, 31, 32, 33, 34, 35, 36, 37, 38, 39, 40, 41, 42, 43, 44, 45, 46, 47, 48, 49, 50, 51, 52, 53, 54, 55, 56, 57, 58, 59, 60, 61, 62, 63, 64, 65, 66, 67, 68, 69, 70, 71, 72, 73, 74, 75, 76, 77, 78, 79, 80, 81, 82, 83, 84, 85, 86, 87, 88, 89, 90, 91, 92, 93, 94, 95, 96, 97, 98, 99, 100, 101, 102, 103, 104, 105, 106, 107, 108, 109, 110, 111, 112, 113, 114, 115, 116, 117, 118, 119, 120, 121, 122, 123, 124, 125, 126, 127, 128, 129, 130, 131, 132, 133, 134, 135, 136, 137, 138, 139, 140, 141, 142, 143, 144, 145, 146, 147, 148, 149, 150],
      "LargestImagePixelValue": [3141, 3094, 3114, 3090, 3084, 3087, 3060, 3102, 3081, 3105, 3119, 3094, 3115, 3090, 3073, 3116, 3100, 3088, 3063, 3074, 3063, 3096, 3110, 3115, 3105, 3109, 3102, 3079, 3113, 3108, 3113, 3089, 3132, 3119, 3130, 3116, 3119, 3108, 3115, 3130, 3144, 3099, 3094, 3119, 3098, 3104, 3131, 3130, 3082, 3097, 3110, 3103, 3133, 3102, 3130, 3095, 3138, 3136, 3128, 3115, 3132, 3124, 3128, 3112, 3130, 3146, 3094, 3110, 3102, 3101, 3123, 3088, 3144, 3108, 3121, 3150, 3122, 3149, 3150, 3156, 3148, 3132, 3130, 3138, 3131, 3113, 3112, 3102, 3094, 3150, 3100, 3136, 3121, 3135, 3096, 3098, 3132, 3112, 3152, 3123, 3106, 3091, 3102, 3131, 3114, 3113, 3139, 3118, 3132, 3115, 3084, 3106, 3104, 3084, 3114, 3112, 3109, 3129, 3077, 3114, 3136, 3122, 3114, 3116, 3148, 3151, 3118, 3139, 3089, 3125, 3111, 3094, 3094, 3092, 3064, 3054, 3093, 3080, 3071, 3150, 3105, 3099, 3131, 3144, 3147, 3106, 3100, 3127, 3103, 3113],
      "WindowCenter": [798.0, 796.0, 796.0, 797.0, 798.0, 797.0, 796.0, 796.0, 796.0, 797.0, 798.0, 799.0, 799.0, 798.0, 798.0, 798.0, 798.0, 799.0, 799.0, 798.0, 797.0, 796.0, 796.0, 796.0, 796.0, 797.0, 797.0, 798.0, 797.0, 797.0, 797.0, 797.0, 799.0, 799.0, 799.0, 798.0, 798.0, 800.0, 799.0, 799.0, 798.0, 797.0, 798.0, 799.0, 800.0, 800.0, 801.0, 801.0, 800.0, 798.0, 797.0, 797.0, 797.0, 797.0, 797.0, 797.0, 798.0, 798.0, 798.0, 798.0, 798.0, 798.0, 798.0, 797.0, 798.0, 799.0, 799.0, 799.0, 800.0, 800.0, 801.0, 800.0, 801.0, 801.0, 801.0, 802.0, 800.0, 799.0, 798.0, 798.0, 799.0, 801.0, 802.0, 801.0, 799.0, 798.0, 798.0, 800.0, 800.0, 799.0, 798.0, 798.0, 800.0, 802.0, 803.0, 802.0, 800.0, 799.0, 798.0, 800.0, 802.0, 802.0, 801.0, 800.0, 799.0, 798.0, 798.0, 798.0, 799.0, 801.0, 801.0, 801.0, 799.0, 799.0, 799.0, 798.0, 798.0, 798.0, 798.0, 799.0, 799.0, 801.0, 802.0, 802.0, 801.0, 801.0, 801.0, 802.0, 801.0, 800.0, 802.0, 803.0, 803.0, 804.0, 803.0, 803.0, 802.0, 801.0, 800.0, 800.0, 799.0, 799.0, 799.0, 800.0, 799.0, 799.0, 800.0, 799.0, 799.0, 801.0],
      "WindowWidth": [1704.0, 1698.0, 1699.0, 1702.0, 1704.0, 1702.0, 1700.0, 1700.0, 1699.0, 1702.0, 1706.0, 1707.0, 1706.0, 1704.0, 1704.0, 1704.0, 1704.0, 1707.0, 1708.0, 1706.0, 1701.0, 1698.0, 1698.0, 1699.0, 1700.0, 1700.0, 1703.0, 1703.0, 1703.0, 1701.0, 1701.0, 1703.0, 1707.0, 1707.0, 1706.0, 1704.0, 1705.0, 1708.0, 1706.0, 1706.0, 1704.0, 1702.0, 1705.0, 1708.0, 1709.0, 1710.0, 1712.0, 1713.0, 1709.0, 1705.0, 1703.0, 1702.0, 1701.0, 1700.0, 1702.0, 1700.0, 1703.0, 1704.0, 1704.0, 1704.0, 1704.0, 1704.0, 1703.0, 1702.0, 1705.0, 1707.0, 1706.0, 1707.0, 1709.0, 1711.0, 1711.0, 1710.0, 1711.0, 1711.0, 1713.0, 1714.0, 1709.0, 1705.0, 1704.0, 1704.0, 1706.0, 1711.0, 1715.0, 1712.0, 1707.0, 1704.0, 1705.0, 1709.0, 1710.0, 1707.0, 1705.0, 1705.0, 1709.0, 1716.0, 1718.0, 1713.0, 1708.0, 1705.0, 1705.0, 1708.0, 1714.0, 1714.0, 1711.0, 1709.0, 1706.0, 1705.0, 1704.0, 1704.0, 1708.0, 1713.0, 1713.0, 1711.0, 1707.0, 1705.0, 1705.0, 1705.0, 1703.0, 1703.0, 1705.0, 1706.0, 1707.0, 1710.0, 1713.0, 1714.0, 1711.0, 1710.0, 1711.0, 1714.0, 1712.0, 1710.0, 1714.0, 1717.0, 1718.0, 1720.0, 1717.0, 1717.0, 1714.0, 1711.0, 1709.0, 1709.0, 1707.0, 1706.0, 1706.0, 1708.0, 1707.0, 1706.0, 1708.0, 1707.0, 1707.0, 1710.0]
    },
    "slices": {}
  }
}