{
 "AcquisitionMatrixPE": 100,
 "AcquisitionNumber": 1,
 "AcquisitionTime": "14:26:10.477500",
 "BandwidthPerPixelPhaseEncode": 18.519,
 "BaseResolution": 100,
 "BodyPartExamined": "BRAIN",
 "ConsistencyInfo": "N4_VE11C_LATEST_20160120",
 "ConversionSoftware": "dcm2niix",
 "ConversionSoftwareVersion": "v1.0.20180622 GCC4.9.2",
 "DerivedVendorReportedEchoSpacing": 0.000539986,
 "DeviceSerialNumber": "166078",
 "DwellTime": 2.1e-06,
 "EchoTime": 0.034,
 "EchoTrainLength": 100,
 "EffectiveEchoSpacing": 0.000539986,
 "FlipAngle": 90,
 "ImageOrientationPatientDICOM": [
  1,
  0,
  0,
  0,
  0.965926,
  -0.258819
 ],
 "ImageType": [
  "ORIGINAL",
  "PRIMARY",
  "M",
  "ND",
  "MOSAIC"
 ],
 "InPlanePhaseEncodingDirectionDICOM": "COL",
 "InstitutionAddress": "Street_StreetNo_Bei_Jing_District_CN_ZIP",
 "InstitutionName": "BeiJing_Normal_University",
 "InstitutionalDepartmentName": "Department",
 "MRAcquisitionType": "2D",
 "MagneticFieldStrength": 3,
 "Manufacturer": "Siemens",
 "ManufacturersModelName": "Prisma",
 "Modality": "MR",
 "MultibandAccelerationFactor": 3,
 "PartialFourier": 1,
 "PatientPosition": "HFS",
 "PercentPhaseFOV": 100,
 "PhaseEncodingDirection": "j-",
 "PhaseEncodingSteps": 100,
 "PhaseResolution": 1,
 "PixelBandwidth": 2380,
 "ProcedureStepDescription": "BNU_P2018_64CH_Zhen.ZongLei",
 "ProtocolName": "bold_100x100_s3_2x2x2_retino_150",
 "PulseSequenceDetails": "%SiemensSeq%_ep2d_bold",
 "ReceiveCoilActiveElements": "HC1-7;NC1",
 "ReceiveCoilName": "HeadNeck_64",
 "ReconMatrixPE": 100,
 "RepetitionTime": 2,
 "SAR": 0.0731478,
 "ScanOptions": "FS",
 "ScanningSequence": "EP",
 "SequenceName": "_epfid2d1_100",
 "SequenceVariant": "SK",
 "SeriesDescription": "bold_100x100_s3_2x2x2_retino_150",
 "SeriesNumber": 17,
 "ShimSetting": [
  -5457,
  -11469,
  -1286,
  302,
  -33,
  -169,
  -225,
  82
 ],
 "SliceThickness": 2,
 "SliceTiming": [
  1.4825,
  0,
  0.9875,
  0.0825,
  1.07,
  0.165,
  1.1525,
  0.2475,
  1.235,
  0.33,
  1.3175,
  0.4125,
  1.4,
  0.5775,
  1.565,
  0.66,
  1.6475,
  0.7425,
  1.73,
  0.8225,
  1.8125,
  0.905,
  1.895,
  0.495,
  1.4825,
  0,
  0.9875,
  0.0825,
  1.07,
  0.165,
  1.1525,
  0.2475,
  1.235,
  0.33,
  1.3175,
  0.4125,
  1.4,
  0.5775,
  1.565,
  0.66,
  1.6475,
  0.7425,
  1.73,
  0.8225,
  1.8125,
  0.905,
  1.895,
  0.495,
  1.4825,
  0,
  0.9875,
  0.0825,
  1.07,
  0.165,
  1.1525,
  0.2475,
  1.235,
  0.33,
  1.3175,
  0.4125,
  1.4,
  0.5775,
  1.565,
  0.66,
  1.6475,
  0.7425,
  1.73,
  0.8225,
  1.8125,
  0.905,
  1.895,
  0.495
 ],
 "SoftwareVersions": "syngo_MR_E11",
 "SpacingBetweenSlices": 2,
 "StationName": "AWP166078",
 "TaskName": "prf",
 "TotalReadoutTime": 0.0534586,
 "TxRefAmp": 229.519,
 "dcmmeta_affine": [
  [
   -2.0,
   0.0,
   0.0,
   100.0
  ],
  [
   0.0,
   1.9318516254425049,
   -0.5176380276679993,
   -73.80265045166016
  ],
  [
   0.0,
   0.517638087272644,
   1.9318516254425049,
   -89.45343017578125
  ],
  [
   0.0,
   0.0,
   0.0,
   1.0
  ]
 ],
 "dcmmeta_reorient_transform": [
  [
   0.0,
   -1.0,
   0.0,
   99.0
  ],
  [
   1.0,
   0.0,
   0.0,
   0.0
  ],
  [
   0.0,
   0.0,
   1.0,
   0.0
  ],
  [
   0.0,
   0.0,
   0.0,
   1.0
  ]
 ],
 "dcmmeta_shape": [
  100,
  100,
  72,
  150
 ],
 "dcmmeta_slice_dim": 2,
 "dcmmeta_version": 0.6,
 "global": {
  "const": {
   "AcquisitionMatrix": [
    100,
    0,
    0,
    100
   ],
   "AngioFlag": "N",
   "BitsAllocated": 16,
   "BitsStored": 12,
   "BodyPartExamined": "BRAIN",
   "Columns": 900,
   "EchoNumbers": 1,
   "EchoTime": 34.0,
   "EchoTrainLength": 100,
   "FlipAngle": 90.0,
   "HighBit": 11,
   "ImageOrientationPatient": [
    1.0,
    0.0,
    0.0,
    0.0,
    0.9659258278573,
    -0.2588190392498
   ],
   "ImagePositionPatient": [
    -900.0,
    -890.19132498185,
    168.84797059094
   ],
   "ImageType": [
    "ORIGINAL",
    "PRIMARY",
    "M",
    "ND",
    "MOSAIC"
   ],
   "ImagedNucleus": "1H",
   "ImagingFrequency": 123.257755,
   "InPlanePhaseEncodingDirection": "COL",
   "MRAcquisitionType": "2D",
   "MagneticFieldStrength": 3.0,
   "Manufacturer": "SIEMENS",
   "ManufacturerModelName": "Prisma",
   "Modality": "MR",
   "NumberOfAverages": 1.0,
   "NumberOfPhaseEncodingSteps": 100,
   "PercentPhaseFieldOfView": 100.0,
   "PercentSampling": 100.0,
   "PerformedProcedureStepStartTime": "130450.942000",
   "PhotometricInterpretation": "MONOCHROME2",
   "PixelBandwidth": 2380.0,
   "PixelRepresentation": 0,
   "PixelSpacing": [
    2.0,
    2.0
   ],
   "ProtocolName": "bold_100x100_s3_2x2x2_retino_150",
   "RepetitionTime": 2000.0,
   "Rows": 900,
   "SAR": 0.07314783889416,
   "SamplesPerPixel": 1,
   "ScanOptions": "FS",
   "ScanningSequence": "EP",
   "SequenceName": "*epfid2d1_100",
   "SequenceVariant": "SK",
   "SeriesDescription": "bold_100x100_s3_2x2x2_retino_150",
   "SeriesNumber": 17,
   "SeriesTime": "142613.661000",
   "SliceLocation": -67.303847705236,
   "SliceThickness": 2.0,
   "SmallestImagePixelValue": 0,
   "SoftwareVersions": "syngo MR E11",
   "SpacingBetweenSlices": 1.9999999109673,
   "SpecificCharacterSet": "ISO_IR 100",
   "StudyID": "1",
   "StudyTime": "130450.828000",
   "TransmitCoilName": "Body",
   "VariableFlipAngleFlag": "N",
   "WindowCenterWidthExplanation": "Algo1",
   "dBdt": 0.0
  },
  "slices": {}
 },
 "time": {
  "samples": {
   "AcquisitionNumber": [
    1,
    2,
    3,
    4,
    5,
    6,
    7,
    8,
    9,
    10,
    11,
    12,
    13,
    14,
    15,
    16,
    17,
    18,
    19,
    20,
    21,
    22,
    23,
    24,
    25,
    26,
    27,
    28,
    29,
    30,
    31,
    32,
    33,
    34,
    35,
    36,
    37,
    38,
    39,
    40,
    41,
    42,
    43,
    44,
    45,
    46,
    47,
    48,
    49,
    50,
    51,
    52,
    53,
    54,
    55,
    56,
    57,
    58,
    59,
    60,
    61,
    62,
    63,
    64,
    65,
    66,
    67,
    68,
    69,
    70,
    71,
    72,
    73,
    74,
    75,
    76,
    77,
    78,
    79,
    80,
    81,
    82,
    83,
    84,
    85,
    86,
    87,
    88,
    89,
    90,
    91,
    92,
    93,
    94,
    95,
    96,
    97,
    98,
    99,
    100,
    101,
    102,
    103,
    104,
    105,
    106,
    107,
    108,
    109,
    110,
    111,
    112,
    113,
    114,
    115,
    116,
    117,
    118,
    119,
    120,
    121,
    122,
    123,
    124,
    125,
    126,
    127,
    128,
    129,
    130,
    131,
    132,
    133,
    134,
    135,
    136,
    137,
    138,
    139,
    140,
    141,
    142,
    143,
    144,
    145,
    146,
    147,
    148,
    149,
    150
   ],
   "AcquisitionTime": [
    "142610.477500",
    "142612.477500",
    "142614.477500",
    "142616.477500",
    "142618.477500",
    "142620.477500",
    "142622.477500",
    "142624.477500",
    "142626.477500",
    "142628.477500",
    "142630.477500",
    "142632.477500",
    "142634.477500",
    "142636.477500",
    "142638.477500",
    "142640.477500",
    "142642.477500",
    "142644.477500",
    "142646.477500",
    "142648.477500",
    "142650.477500",
    "142652.477500",
    "142654.477500",
    "142656.477500",
    "142658.477500",
    "142700.477500",
    "142702.477500",
    "142704.477500",
    "142706.477500",
    "142708.477500",
    "142710.477500",
    "142712.477500",
    "142714.477500",
    "142716.477500",
    "142718.477500",
    "142720.477500",
    "142722.477500",
    "142724.477500",
    "142726.477500",
    "142728.477500",
    "142730.477500",
    "142732.477500",
    "142734.477500",
    "142736.477500",
    "142738.477500",
    "142740.477500",
    "142742.477500",
    "142744.477500",
    "142746.477500",
    "142748.477500",
    "142750.477500",
    "142752.477500",
    "142754.477500",
    "142756.477500",
    "142758.477500",
    "142800.477500",
    "142802.477500",
    "142804.477500",
    "142806.477500",
    "142808.477500",
    "142810.477500",
    "142812.477500",
    "142814.477500",
    "142816.477500",
    "142818.477500",
    "142820.477500",
    "142822.477500",
    "142824.477500",
    "142826.477500",
    "142828.477500",
    "142830.477500",
    "142832.477500",
    "142834.477500",
    "142836.477500",
    "142838.477500",
    "142840.477500",
    "142842.477500",
    "142844.477500",
    "142846.477500",
    "142848.477500",
    "142850.477500",
    "142852.477500",
    "142854.477500",
    "142856.477500",
    "142858.477500",
    "142900.477500",
    "142902.477500",
    "142904.477500",
    "142906.477500",
    "142908.477500",
    "142910.477500",
    "142912.477500",
    "142914.477500",
    "142916.477500",
    "142918.477500",
    "142920.477500",
    "142922.477500",
    "142924.477500",
    "142926.477500",
    "142928.477500",
    "142930.477500",
    "142932.477500",
    "142934.477500",
    "142936.477500",
    "142938.477500",
    "142940.477500",
    "142942.477500",
    "142944.477500",
    "142946.477500",
    "142948.477500",
    "142950.477500",
    "142952.477500",
    "142954.477500",
    "142956.477500",
    "142958.477500",
    "143000.477500",
    "143002.477500",
    "143004.477500",
    "143006.477500",
    "143008.477500",
    "143010.477500",
    "143012.477500",
    "143014.477500",
    "143016.477500",
    "143018.477500",
    "143020.477500",
    "143022.477500",
    "143024.477500",
    "143026.477500",
    "143028.477500",
    "143030.477500",
    "143032.477500",
    "143034.477500",
    "143036.477500",
    "143038.477500",
    "143040.477500",
    "143042.477500",
    "143044.477500",
    "143046.477500",
    "143048.477500",
    "143050.477500",
    "143052.477500",
    "143054.477500",
    "143056.477500",
    "143058.477500",
    "143100.477500",
    "143102.477500",
    "143104.477500",
    "143106.477500",
    "143108.477500"
   ],
   "ContentTime": [
    "142613.665000",
    "142615.161000",
    "142617.160000",
    "142618.660000",
    "142621.161000",
    "142623.160000",
    "142624.661000",
    "142627.160000",
    "142629.160000",
    "142631.160000",
    "142633.160000",
    "142634.660000",
    "142636.661000",
    "142638.660000",
    "142641.160000",
    "142643.160000",
    "142645.160000",
    "142647.161000",
    "142648.660000",
    "142651.161000",
    "142653.160000",
    "142655.160000",
    "142657.160000",
    "142659.160000",
    "142700.661000",
    "142703.161000",
    "142704.661000",
    "142707.160000",
    "142709.160000",
    "142711.160000",
    "142712.661000",
    "142714.660000",
    "142716.660000",
    "142718.661000",
    "142721.160000",
    "142723.160000",
    "142725.161000",
    "142727.160000",
    "142728.661000",
    "142730.661000",
    "142733.159000",
    "142734.661000",
    "142736.661000",
    "142738.660000",
    "142741.161000",
    "142743.162000",
    "142745.161000",
    "142747.161000",
    "142749.160000",
    "142750.659000",
    "142753.160000",
    "142754.661000",
    "142757.160000",
    "142759.160000",
    "142801.160000",
    "142803.160000",
    "142805.161000",
    "142807.160000",
    "142808.659000",
    "142811.161000",
    "142813.160000",
    "142814.661000",
    "142817.161000",
    "142818.660000",
    "142821.160000",
    "142822.661000",
    "142824.660000",
    "142827.161000",
    "142829.161000",
    "142830.661000",
    "142832.660000",
    "142834.661000",
    "142837.161000",
    "142839.161000",
    "142841.161000",
    "142842.660000",
    "142844.661000",
    "142846.660000",
    "142848.660000",
    "142851.161000",
    "142853.160000",
    "142855.160000",
    "142857.160000",
    "142859.160000",
    "142901.160000",
    "142903.160000",
    "142905.161000",
    "142907.160000",
    "142909.161000",
    "142911.161000",
    "142913.160000",
    "142915.160000",
    "142917.160000",
    "142918.660000",
    "142921.161000",
    "142923.160000",
    "142925.161000",
    "142926.660000",
    "142929.160000",
    "142931.161000",
    "142933.160000",
    "142935.161000",
    "142937.160000",
    "142939.161000",
    "142940.660000",
    "142942.660000",
    "142944.660000",
    "142947.160000",
    "142949.161000",
    "142951.160000",
    "142953.160000",
    "142954.661000",
    "142957.161000",
    "142959.160000",
    "143001.161000",
    "143002.661000",
    "143005.160000",
    "143007.160000",
    "143009.161000",
    "143010.659000",
    "143013.161000",
    "143015.160000",
    "143017.160000",
    "143018.660000",
    "143021.160000",
    "143023.161000",
    "143024.661000",
    "143027.160000",
    "143029.160000",
    "143031.161000",
    "143032.660000",
    "143034.661000",
    "143037.166000",
    "143039.160000",
    "143040.660000",
    "143043.161000",
    "143045.161000",
    "143046.661000",
    "143048.661000",
    "143051.160000",
    "143053.161000",
    "143055.160000",
    "143057.161000",
    "143059.161000",
    "143101.160000",
    "143102.660000",
    "143104.660000",
    "143107.160000",
    "143108.661000",
    "143110.628000"
   ],
   "InstanceCreationTime": [
    "142613.665000",
    "142615.161000",
    "142617.160000",
    "142618.660000",
    "142621.161000",
    "142623.160000",
    "142624.661000",
    "142627.160000",
    "142629.160000",
    "142631.160000",
    "142633.160000",
    "142634.660000",
    "142636.661000",
    "142638.660000",
    "142641.160000",
    "142643.160000",
    "142645.160000",
    "142647.161000",
    "142648.660000",
    "142651.161000",
    "142653.160000",
    "142655.160000",
    "142657.160000",
    "142659.160000",
    "142700.661000",
    "142703.161000",
    "142704.661000",
    "142707.160000",
    "142709.160000",
    "142711.160000",
    "142712.661000",
    "142714.660000",
    "142716.660000",
    "142718.661000",
    "142721.160000",
    "142723.160000",
    "142725.161000",
    "142727.160000",
    "142728.661000",
    "142730.661000",
    "142733.159000",
    "142734.661000",
    "142736.661000",
    "142738.660000",
    "142741.161000",
    "142743.162000",
    "142745.161000",
    "142747.161000",
    "142749.160000",
    "142750.659000",
    "142753.160000",
    "142754.661000",
    "142757.160000",
    "142759.160000",
    "142801.160000",
    "142803.160000",
    "142805.161000",
    "142807.160000",
    "142808.659000",
    "142811.161000",
    "142813.160000",
    "142814.661000",
    "142817.161000",
    "142818.660000",
    "142821.160000",
    "142822.661000",
    "142824.660000",
    "142827.161000",
    "142829.161000",
    "142830.661000",
    "142832.660000",
    "142834.661000",
    "142837.161000",
    "142839.161000",
    "142841.161000",
    "142842.660000",
    "142844.661000",
    "142846.660000",
    "142848.660000",
    "142851.161000",
    "142853.160000",
    "142855.160000",
    "142857.160000",
    "142859.160000",
    "142901.160000",
    "142903.160000",
    "142905.161000",
    "142907.160000",
    "142909.161000",
    "142911.161000",
    "142913.160000",
    "142915.160000",
    "142917.160000",
    "142918.660000",
    "142921.161000",
    "142923.160000",
    "142925.161000",
    "142926.660000",
    "142929.160000",
    "142931.161000",
    "142933.160000",
    "142935.161000",
    "142937.160000",
    "142939.161000",
    "142940.660000",
    "142942.660000",
    "142944.660000",
    "142947.160000",
    "142949.161000",
    "142951.160000",
    "142953.160000",
    "142954.661000",
    "142957.161000",
    "142959.160000",
    "143001.161000",
    "143002.661000",
    "143005.160000",
    "143007.160000",
    "143009.161000",
    "143010.659000",
    "143013.161000",
    "143015.160000",
    "143017.160000",
    "143018.660000",
    "143021.160000",
    "143023.161000",
    "143024.661000",
    "143027.160000",
    "143029.160000",
    "143031.161000",
    "143032.660000",
    "143034.661000",
    "143037.166000",
    "143039.160000",
    "143040.660000",
    "143043.161000",
    "143045.161000",
    "143046.661000",
    "143048.661000",
    "143051.160000",
    "143053.161000",
    "143055.160000",
    "143057.161000",
    "143059.161000",
    "143101.160000",
    "143102.660000",
    "143104.660000",
    "143107.160000",
    "143108.661000",
    "143110.628000"
   ],
   "InstanceNumber": [
    1,
    2,
    3,
    4,
    5,
    6,
    7,
    8,
    9,
    10,
    11,
    12,
    13,
    14,
    15,
    16,
    17,
    18,
    19,
    20,
    21,
    22,
    23,
    24,
    25,
    26,
    27,
    28,
    29,
    30,
    31,
    32,
    33,
    34,
    35,
    36,
    37,
    38,
    39,
    40,
    41,
    42,
    43,
    44,
    45,
    46,
    47,
    48,
    49,
    50,
    51,
    52,
    53,
    54,
    55,
    56,
    57,
    58,
    59,
    60,
    61,
    62,
    63,
    64,
    65,
    66,
    67,
    68,
    69,
    70,
    71,
    72,
    73,
    74,
    75,
    76,
    77,
    78,
    79,
    80,
    81,
    82,
    83,
    84,
    85,
    86,
    87,
    88,
    89,
    90,
    91,
    92,
    93,
    94,
    95,
    96,
    97,
    98,
    99,
    100,
    101,
    102,
    103,
    104,
    105,
    106,
    107,
    108,
    109,
    110,
    111,
    112,
    113,
    114,
    115,
    116,
    117,
    118,
    119,
    120,
    121,
    122,
    123,
    124,
    125,
    126,
    127,
    128,
    129,
    130,
    131,
    132,
    133,
    134,
    135,
    136,
    137,
    138,
    139,
    140,
    141,
    142,
    143,
    144,
    145,
    146,
    147,
    148,
    149,
    150
   ],
   "LargestImagePixelValue": [
    3183,
    3178,
    3126,
    3153,
    3125,
    3166,
    3153,
    3094,
    3142,
    3107,
    3140,
    3162,
    3149,
    3123,
    3127,
    3178,
    3131,
    3158,
    3157,
    3118,
    3166,
    3106,
    3152,
    3096,
    3087,
    3152,
    3130,
    3142,
    3148,
    3119,
    3135,
    3121,
    3124,
    3105,
    3112,
    3110,
    3128,
    3094,
    3141,
    3102,
    3128,
    3089,
    3103,
    3133,
    3066,
    3154,
    3119,
    3094,
    3091,
    3099,
    3094,
    3113,
    3089,
    3144,
    3097,
    3117,
    3141,
    3080,
    3148,
    3123,
    3098,
    3159,
    3097,
    3154,
    3126,
    3153,
    3130,
    3127,
    3131,
    3090,
    3155,
    3088,
    3063,
    3151,
    3096,
    3131,
    3120,
    3093,
    3148,
    3087,
    3078,
    3131,
    3098,
    3143,
    3095,
    3091,
    3139,
    3102,
    3113,
    3101,
    3072,
    3107,
    3086,
    3152,
    3101,
    3085,
    3107,
    3089,
    3141,
    3062,
    3170,
    3094,
    3144,
    3071,
    3119,
    3081,
    3126,
    3083,
    3132,
    3079,
    3095,
    3136,
    3097,
    3170,
    3093,
    3066,
    3128,
    3072,
    3133,
    3087,
    3112,
    3086,
    3061,
    3120,
    3077,
    3059,
    3094,
    3081,
    3148,
    3089,
    3119,
    3067,
    3137,
    3065,
    3140,
    3112,
    3098,
    3086,
    3065,
    3129,
    3079,
    3086,
    3098,
    3087,
    3084,
    3081,
    3128,
    3090,
    3124,
    3113
   ],
   "WindowCenter": [
    804.0,
    804.0,
    803.0,
    802.0,
    803.0,
    803.0,
    802.0,
    802.0,
    802.0,
    802.0,
    803.0,
    803.0,
    803.0,
    803.0,
    803.0,
    804.0,
    803.0,
    803.0,
    803.0,
    803.0,
    804.0,
    804.0,
    804.0,
    803.0,
    802.0,
    803.0,
    803.0,
    803.0,
    803.0,
    803.0,
    803.0,
    803.0,
    803.0,
    804.0,
    804.0,
    803.0,
    803.0,
    803.0,
    804.0,
    803.0,
    802.0,
    802.0,
    803.0,
    802.0,
    801.0,
    802.0,
    802.0,
    802.0,
    802.0,
    802.0,
    802.0,
    803.0,
    802.0,
    802.0,
    803.0,
    804.0,
    803.0,
    803.0,
    803.0,
    803.0,
    803.0,
    803.0,
    802.0,
    802.0,
    802.0,
    803.0,
    803.0,
    802.0,
    803.0,
    802.0,
    803.0,
    803.0,
    802.0,
    801.0,
    801.0,
    803.0,
    803.0,
    803.0,
    803.0,
    803.0,
    803.0,
    803.0,
    803.0,
    803.0,
    804.0,
    803.0,
    802.0,
    801.0,
    802.0,
    803.0,
    802.0,
    802.0,
    801.0,
    802.0,
    803.0,
    804.0,
    804.0,
    803.0,
    803.0,
    803.0,
    804.0,
    803.0,
    805.0,
    805.0,
    805.0,
    805.0,
    806.0,
    805.0,
    804.0,
    803.0,
    803.0,
    803.0,
    803.0,
    804.0,
    802.0,
    801.0,
    802.0,
    803.0,
    804.0,
    803.0,
    803.0,
    802.0,
    802.0,
    802.0,
    802.0,
    803.0,
    803.0,
    803.0,
    804.0,
    805.0,
    804.0,
    804.0,
    804.0,
    804.0,
    806.0,
    807.0,
    805.0,
    804.0,
    803.0,
    803.0,
    803.0,
    803.0,
    803.0,
    804.0,
    804.0,
    803.0,
    803.0,
    803.0,
    803.0,
    802.0
   ],
   "WindowWidth": [
    1717.0,
    1715.0,
    1712.0,
    1712.0,
    1713.0,
    1712.0,
    1710.0,
    1709.0,
    1711.0,
    1710.0,
    1712.0,
    1712.0,
    1712.0,
    1712.0,
    1713.0,
    1717.0,
    1715.0,
    1715.0,
    1714.0,
    1713.0,
    1715.0,
    1715.0,
    1715.0,
    1713.0,
    1712.0,
    1713.0,
    1714.0,
    1715.0,
    1715.0,
    1714.0,
    1714.0,
    1713.0,
    1714.0,
    1717.0,
    1716.0,
    1714.0,
    1713.0,
    1713.0,
    1716.0,
    1714.0,
    1712.0,
    1711.0,
    1712.0,
    1711.0,
    1709.0,
    1710.0,
    1711.0,
    1711.0,
    1710.0,
    1710.0,
    1711.0,
    1712.0,
    1710.0,
    1710.0,
    1714.0,
    1715.0,
    1713.0,
    1712.0,
    1713.0,
    1714.0,
    1713.0,
    1712.0,
    1710.0,
    1710.0,
    1711.0,
    1714.0,
    1713.0,
    1711.0,
    1712.0,
    1712.0,
    1714.0,
    1712.0,
    1709.0,
    1709.0,
    1708.0,
    1712.0,
    1713.0,
    1713.0,
    1713.0,
    1712.0,
    1713.0,
    1714.0,
    1713.0,
    1714.0,
    1715.0,
    1713.0,
    1711.0,
    1709.0,
    1711.0,
    1712.0,
    1711.0,
    1710.0,
    1708.0,
    1711.0,
    1714.0,
    1715.0,
    1715.0,
    1713.0,
    1714.0,
    1713.0,
    1715.0,
    1713.0,
    1718.0,
    1719.0,
    1720.0,
    1719.0,
    1721.0,
    1720.0,
    1717.0,
    1714.0,
    1712.0,
    1713.0,
    1713.0,
    1715.0,
    1710.0,
    1709.0,
    1711.0,
    1713.0,
    1715.0,
    1712.0,
    1712.0,
    1710.0,
    1709.0,
    1711.0,
    1711.0,
    1713.0,
    1713.0,
    1714.0,
    1717.0,
    1718.0,
    1717.0,
    1715.0,
    1716.0,
    1717.0,
    1722.0,
    1723.0,
    1718.0,
    1716.0,
    1714.0,
    1714.0,
    1714.0,
    1713.0,
    1714.0,
    1715.0,
    1716.0,
    1714.0,
    1713.0,
    1712.0,
    1712.0,
    1711.0
   ]
  },
  "slices": {}
 }
}