{
  "AcquisitionMatrixPE": 100,
  "AcquisitionNumber": 1,
  "AcquisitionTime": "14:07:7.722500",
  "BandwidthPerPixelPhaseEncode": 18.519,
  "BaseResolution": 100,
  "BodyPartExamined": "BRAIN",
  "ConsistencyInfo": "N4_VE11C_LATEST_20160120",
  "ConversionSoftware": "dcm2niix",
  "ConversionSoftwareVersion": "v1.0.20180622 GCC4.9.2",
  "DerivedVendorReportedEchoSpacing": 0.000539986,
  "DeviceSerialNumber": "166078",
  "DwellTime": 2.1e-06,
  "EchoTime": 0.034,
  "EchoTrainLength": 100,
  "EffectiveEchoSpacing": 0.000539986,
  "FlipAngle": 90,
  "ImageOrientationPatientDICOM": [1, 0, 0, 0, 0.965926, -0.258819],
  "ImageType": [
    "ORIGINAL",
    "PRIMARY",
    "M",
    "ND",
    "MOSAIC"
],
  "InPlanePhaseEncodingDirectionDICOM": "COL",
  "InstitutionAddress": "Street_StreetNo_Bei_Jing_District_CN_ZIP",
  "InstitutionName": "BeiJing_Normal_University",
  "InstitutionalDepartmentName": "Department",
  "MRAcquisitionType": "2D",
  "MagneticFieldStrength": 3,
  "Manufacturer": "Siemens",
  "ManufacturersModelName": "Prisma",
  "Modality": "MR",
  "MultibandAccelerationFactor": 3,
  "PartialFourier": 1,
  "PatientPosition": "HFS",
  "PercentPhaseFOV": 100,
  "PhaseEncodingDirection": "j-",
  "PhaseEncodingSteps": 100,
  "PhaseResolution": 1,
  "PixelBandwidth": 2380,
  "ProcedureStepDescription": "BNU_P2018_64CH_Zhen.ZongLei",
  "ProtocolName": "bold_100x100_s3_2x2x2_retino_150",
  "PulseSequenceDetails": "%SiemensSeq%_ep2d_bold",
  "ReceiveCoilActiveElements": "HC1-7;NC1",
  "ReceiveCoilName": "HeadNeck_64",
  "ReconMatrixPE": 100,
  "RepetitionTime": 2,
  "SAR": 0.0731478,
  "ScanOptions": "FS",
  "ScanningSequence": "EP",
  "SequenceName": "_epfid2d1_100",
  "SequenceVariant": "SK",
  "SeriesDescription": "bold_100x100_s3_2x2x2_retino_150",
  "SeriesNumber": 14,
  "ShimSetting": [-5457, -11469, -1286, 302, -33, -169, -225, 82],
  "SliceThickness": 2,
  "SliceTiming": [1.485, 0, 0.99, 0.0825, 1.0725, 0.165, 1.155, 0.2475, 1.2375, 0.33, 1.32, 0.4125, 1.4025, 0.5775, 1.5675, 0.66, 1.65, 0.7425, 1.7325, 0.825, 1.815, 0.9075, 1.8975, 0.495, 1.485, 0, 0.99, 0.0825, 1.0725, 0.165, 1.155, 0.2475, 1.2375, 0.33, 1.32, 0.4125, 1.4025, 0.5775, 1.5675, 0.66, 1.65, 0.7425, 1.7325, 0.825, 1.815, 0.9075, 1.8975, 0.495, 1.485, 0, 0.99, 0.0825, 1.0725, 0.165, 1.155, 0.2475, 1.2375, 0.33, 1.32, 0.4125, 1.4025, 0.5775, 1.5675, 0.66, 1.65, 0.7425, 1.7325, 0.825, 1.815, 0.9075, 1.8975, 0.495],
  "SoftwareVersions": "syngo_MR_E11",
  "SpacingBetweenSlices": 2,
  "StationName": "AWP166078",
  "TaskName": "retinotopy",
  "TotalReadoutTime": 0.0534586,
  "TxRefAmp": 229.519,
  "dcmmeta_affine": [
    [-2.0, 0.0, 0.0, 100.0],
    [0.0, 1.9318516254425049, -0.5176380276679993, -73.80265045166016],
    [0.0, 0.517638087272644, 1.9318516254425049, -89.45343017578125],
    [0.0, 0.0, 0.0, 1.0]
],
  "dcmmeta_reorient_transform": [
    [0.0, -1.0, 0.0, 99.0],
    [1.0, 0.0, 0.0, 0.0],
    [0.0, 0.0, 1.0, 0.0],
    [0.0, 0.0, 0.0, 1.0]
],
  "dcmmeta_shape": [100, 100, 72, 150],
  "dcmmeta_slice_dim": 2,
  "dcmmeta_version": 0.6,
  "global": {
    "const": {
      "AcquisitionMatrix": [100, 0, 0, 100],
      "AngioFlag": "N",
      "BitsAllocated": 16,
      "BitsStored": 12,
      "BodyPartExamined": "BRAIN",
      "Columns": 900,
      "EchoNumbers": 1,
      "EchoTime": 34.0,
      "EchoTrainLength": 100,
      "FlipAngle": 90.0,
      "HighBit": 11,
      "ImageOrientationPatient": [1.0, 0.0, 0.0, 0.0, 0.9659258278573, -0.2588190392498],
      "ImagePositionPatient": [-900.0, -890.19132498185, 168.84797059094],
      "ImageType": [
        "ORIGINAL",
        "PRIMARY",
        "M",
        "ND",
        "MOSAIC"
],
      "ImagedNucleus": "1H",
      "ImagingFrequency": 123.257756,
      "InPlanePhaseEncodingDirection": "COL",
      "MRAcquisitionType": "2D",
      "MagneticFieldStrength": 3.0,
      "Manufacturer": "SIEMENS",
      "ManufacturerModelName": "Prisma",
      "Modality": "MR",
      "NumberOfAverages": 1.0,
      "NumberOfPhaseEncodingSteps": 100,
      "PercentPhaseFieldOfView": 100.0,
      "PercentSampling": 100.0,
      "PerformedProcedureStepStartTime": "130450.942000",
      "PhotometricInterpretation": "MONOCHROME2",
      "PixelBandwidth": 2380.0,
      "PixelRepresentation": 0,
      "PixelSpacing": [2.0, 2.0],
      "ProtocolName": "bold_100x100_s3_2x2x2_retino_150",
      "RepetitionTime": 2000.0,
      "Rows": 900,
      "SAR": 0.07314783889416,
      "SamplesPerPixel": 1,
      "ScanOptions": "FS",
      "ScanningSequence": "EP",
      "SequenceName": "*epfid2d1_100",
      "SequenceVariant": "SK",
      "SeriesDescription": "bold_100x100_s3_2x2x2_retino_150",
      "SeriesNumber": 14,
      "SeriesTime": "140710.602000",
      "SliceLocation": -67.303847705236,
      "SliceThickness": 2.0,
      "SmallestImagePixelValue": 0,
      "SoftwareVersions": "syngo MR E11",
      "SpacingBetweenSlices": 1.9999999109673,
      "SpecificCharacterSet": "ISO_IR 100",
      "StudyID": "1",
      "StudyTime": "130450.828000",
      "TransmitCoilName": "Body",
      "VariableFlipAngleFlag": "N",
      "WindowCenterWidthExplanation": "Algo1",
      "dBdt": 0.0},
    "slices": {}
  },
  "time": {
    "samples": {
      "AcquisitionNumber": [1, 2, 3, 4, 5, 6, 7, 8, 9, 10, 11, 12, 13, 14, 15, 16, 17, 18, 19, 20, 21, 22, 23, 24, 25, 26, 27, 28, 29, 30, 31, 32, 33, 34, 35, 36, 37, 38, 39, 40, 41, 42, 43, 44, 45, 46, 47, 48, 49, 50, 51, 52, 53, 54, 55, 56, 57, 58, 59, 60, 61, 62, 63, 64, 65, 66, 67, 68, 69, 70, 71, 72, 73, 74, 75, 76, 77, 78, 79, 80, 81, 82, 83, 84, 85, 86, 87, 88, 89, 90, 91, 92, 93, 94, 95, 96, 97, 98, 99, 100, 101, 102, 103, 104, 105, 106, 107, 108, 109, 110, 111, 112, 113, 114, 115, 116, 117, 118, 119, 120, 121, 122, 123, 124, 125, 126, 127, 128, 129, 130, 131, 132, 133, 134, 135, 136, 137, 138, 139, 140, 141, 142, 143, 144, 145, 146, 147, 148, 149, 150],
      "AcquisitionTime": ["140707.722500", "140709.722500", "140711.722500", "140713.722500", "140715.722500", "140717.722500", "140719.722500", "140721.722500", "140723.722500", "140725.722500", "140727.722500", "140729.722500", "140731.722500", "140733.722500", "140735.722500", "140737.722500", "140739.722500", "140741.722500", "140743.722500", "140745.722500", "140747.722500", "140749.722500", "140751.722500", "140753.722500", "140755.722500", "140757.722500", "140759.722500", "140801.722500", "140803.722500", "140805.722500", "140807.722500", "140809.722500", "140811.722500", "140813.722500", "140815.722500", "140817.722500", "140819.722500", "140821.722500", "140823.722500", "140825.722500", "140827.722500", "140829.722500", "140831.722500", "140833.722500", "140835.722500", "140837.722500", "140839.722500", "140841.722500", "140843.722500", "140845.722500", "140847.722500", "140849.722500", "140851.722500", "140853.722500", "140855.722500", "140857.722500", "140859.722500", "140901.722500", "140903.722500", "140905.722500", "140907.722500", "140909.722500", "140911.722500", "140913.722500", "140915.722500", "140917.722500", "140919.722500", "140921.722500", "140923.722500", "140925.722500", "140927.722500", "140929.722500", "140931.722500", "140933.722500", "140935.722500", "140937.722500", "140939.722500", "140941.722500", "140943.722500", "140945.722500", "140947.722500", "140949.722500", "140951.722500", "140953.722500", "140955.722500", "140957.722500", "140959.722500", "141001.722500", "141003.722500", "141005.722500", "141007.722500", "141009.722500", "141011.722500", "141013.722500", "141015.722500", "141017.722500", "141019.722500", "141021.722500", "141023.722500", "141025.722500", "141027.722500", "141029.722500", "141031.722500", "141033.722500", "141035.722500", "141037.722500", "141039.722500", "141041.722500", "141043.722500", "141045.722500", "141047.722500", "141049.722500", "141051.722500", "141053.722500", "141055.722500", "141057.722500", "141059.722500", "141101.722500", "141103.722500", "141105.722500", "141107.722500", "141109.722500", "141111.722500", "141113.722500", "141115.722500", "141117.722500", "141119.722500", "141121.722500", "141123.722500", "141125.722500", "141127.722500", "141129.722500", "141131.722500", "141133.722500", "141135.722500", "141137.722500", "141139.722500", "141141.722500", "141143.722500", "141145.722500", "141147.722500", "141149.722500", "141151.722500", "141153.722500", "141155.722500", "141157.722500", "141159.722500", "141201.722500", "141203.722500", "141205.722500"],
      "ContentTime": ["140710.605000", "140712.100000", "140714.100000", "140716.101000", "140718.101000", "140720.100000", "140722.100000", "140724.099000", "140726.099000", "140728.100000", "140730.101000", "140732.101000", "140734.101000", "140736.101000", "140738.099000", "140740.099000", "140742.099000", "140744.099000", "140746.101000", "140748.101000", "140750.100000", "140752.101000", "140754.101000", "140756.099000", "140758.100000", "140800.100000", "140802.100000", "140804.101000", "140806.101000", "140808.101000", "140810.101000", "140812.100000", "140814.099000", "140816.100000", "140818.100000", "140820.100000", "140822.101000", "140824.101000", "140826.101000", "140828.101000", "140830.100000", "140832.100000", "140834.099000", "140836.099000", "140838.100000", "140840.101000", "140842.100000", "140844.101000", "140846.101000", "140848.099000", "140850.100000", "140852.100000", "140854.099000", "140856.101000", "140858.100000", "140900.100000", "140902.101000", "140904.101000", "140906.100000", "140908.100000", "140910.099000", "140912.100000", "140914.101000", "140916.101000", "140918.101000", "140920.101000", "140922.101000", "140924.100000", "140926.100000", "140928.100000", "140930.101000", "140932.101000", "140934.100000", "140936.101000", "140938.101000", "140940.099000", "140942.100000", "140944.099000", "140946.099000", "140948.100000", "140950.100000", "140952.101000", "140954.101000", "140956.101000", "140958.100000", "141000.100000", "141002.099000", "141004.099000", "141006.100000", "141008.101000", "141010.100000", "141012.101000", "141014.101000", "141016.100000", "141018.100000", "141020.099000", "141022.099000", "141024.100000", "141026.101000", "141028.100000", "141030.101000", "141032.101000", "141034.100000", "141036.100000", "141038.100000", "141040.100000", "141042.100000", "141044.100000", "141046.100000", "141048.101000", "141050.100000", "141052.099000", "141054.099000", "141056.100000", "141058.100000", "141100.100000", "141102.100000", "141104.100000", "141106.100000", "141108.099000", "141110.100000", "141112.100000", "141114.100000", "141116.101000", "141118.101000", "141120.101000", "141122.101000", "141124.101000", "141126.100000", "141128.099000", "141130.100000", "141132.100000", "141134.101000", "141136.101000", "141138.100000", "141140.101000", "141142.101000", "141144.100000", "141146.099000", "141148.099000", "141150.101000", "141152.101000", "141154.100000", "141156.100000", "141158.101000", "141200.100000", "141202.099000", "141204.099000", "141206.099000", "141207.843000"],
      "InstanceCreationTime": ["140710.605000", "140712.100000", "140714.100000", "140716.101000", "140718.101000", "140720.100000", "140722.100000", "140724.099000", "140726.099000", "140728.100000", "140730.101000", "140732.101000", "140734.101000", "140736.101000", "140738.099000", "140740.099000", "140742.099000", "140744.099000", "140746.101000", "140748.101000", "140750.100000", "140752.101000", "140754.101000", "140756.099000", "140758.100000", "140800.100000", "140802.100000", "140804.101000", "140806.101000", "140808.101000", "140810.101000", "140812.100000", "140814.099000", "140816.100000", "140818.100000", "140820.100000", "140822.101000", "140824.101000", "140826.101000", "140828.101000", "140830.100000", "140832.100000", "140834.099000", "140836.099000", "140838.100000", "140840.101000", "140842.100000", "140844.101000", "140846.101000", "140848.099000", "140850.100000", "140852.100000", "140854.099000", "140856.101000", "140858.100000", "140900.100000", "140902.101000", "140904.101000", "140906.100000", "140908.100000", "140910.099000", "140912.100000", "140914.101000", "140916.101000", "140918.101000", "140920.101000", "140922.101000", "140924.100000", "140926.100000", "140928.100000", "140930.101000", "140932.101000", "140934.100000", "140936.101000", "140938.101000", "140940.099000", "140942.100000", "140944.099000", "140946.099000", "140948.100000", "140950.100000", "140952.101000", "140954.101000", "140956.101000", "140958.100000", "141000.100000", "141002.099000", "141004.099000", "141006.100000", "141008.101000", "141010.100000", "141012.101000", "141014.101000", "141016.100000", "141018.100000", "141020.099000", "141022.099000", "141024.100000", "141026.101000", "141028.100000", "141030.101000", "141032.101000", "141034.100000", "141036.100000", "141038.100000", "141040.100000", "141042.100000", "141044.100000", "141046.100000", "141048.101000", "141050.100000", "141052.099000", "141054.099000", "141056.100000", "141058.100000", "141100.100000", "141102.100000", "141104.100000", "141106.100000", "141108.099000", "141110.100000", "141112.100000", "141114.100000", "141116.101000", "141118.101000", "141120.101000", "141122.101000", "141124.101000", "141126.100000", "141128.099000", "141130.100000", "141132.100000", "141134.101000", "141136.101000", "141138.100000", "141140.101000", "141142.101000", "141144.100000", "141146.099000", "141148.099000", "141150.101000", "141152.101000", "141154.100000", "141156.100000", "141158.101000", "141200.100000", "141202.099000", "141204.099000", "141206.099000", "141207.843000"],
      "InstanceNumber": [1, 2, 3, 4, 5, 6, 7, 8, 9, 10, 11, 12, 13, 14, 15, 16, 17, 18, 19, 20, 21, 22, 23, 24, 25, 26, 27, 28, 29, 30, 31, 32, 33, 34, 35, 36, 37, 38, 39, 40, 41, 42, 43, 44, 45, 46, 47, 48, 49, 50, 51, 52, 53, 54, 55, 56, 57, 58, 59, 60, 61, 62, 63, 64, 65, 66, 67, 68, 69, 70, 71, 72, 73, 74, 75, 76, 77, 78, 79, 80, 81, 82, 83, 84, 85, 86, 87, 88, 89, 90, 91, 92, 93, 94, 95, 96, 97, 98, 99, 100, 101, 102, 103, 104, 105, 106, 107, 108, 109, 110, 111, 112, 113, 114, 115, 116, 117, 118, 119, 120, 121, 122, 123, 124, 125, 126, 127, 128, 129, 130, 131, 132, 133, 134, 135, 136, 137, 138, 139, 140, 141, 142, 143, 144, 145, 146, 147, 148, 149, 150],
      "LargestImagePixelValue": [3160, 3121, 3152, 3137, 3112, 3107, 3099, 3096, 3122, 3049, 3111, 3109, 3109, 3110, 3091, 3083, 3078, 3095, 3074, 3081, 3081, 3081, 3082, 3077, 3126, 3089, 3111, 3115, 3096, 3106, 3123, 3087, 3104, 3109, 3067, 3079, 3078, 3098, 3117, 3067, 3109, 3028, 3068, 3082, 3090, 3102, 3117, 3092, 3094, 3118, 3080, 3093, 3102, 3098, 3110, 3059, 3080, 3090, 3069, 3104, 3136, 3048, 3094, 3046, 3084, 3063, 3091, 3073, 3071, 3126, 3144, 3070, 3110, 3078, 3085, 3120, 3075, 3108, 3091, 3071, 3123, 3100, 3114, 3120, 3066, 3078, 3048, 3098, 3079, 3062, 3082, 3071, 3086, 3074, 3094, 3102, 3088, 3086, 3094, 3090, 3061, 3096, 3056, 3101, 3093, 3070, 3102, 3141, 3081, 3086, 3114, 3124, 3140, 3063, 3119, 3110, 3084, 3110, 3120, 3141, 3073, 3100, 3083, 3084, 3121, 3101, 3119, 3063, 3085, 3093, 3136, 3094, 3088, 3078, 3079, 3094, 3053, 3082, 3082, 3072, 3090, 3073, 3067, 3057, 3097, 3105, 3098, 3113, 3121, 3077],
      "WindowCenter": [802.0, 801.0, 801.0, 801.0, 801.0, 801.0, 801.0, 801.0, 802.0, 803.0, 803.0, 801.0, 801.0, 802.0, 803.0, 802.0, 801.0, 800.0, 802.0, 804.0, 804.0, 802.0, 801.0, 800.0, 799.0, 799.0, 800.0, 800.0, 800.0, 801.0, 801.0, 800.0, 800.0, 800.0, 801.0, 802.0, 803.0, 803.0, 802.0, 802.0, 802.0, 802.0, 804.0, 805.0, 804.0, 802.0, 801.0, 801.0, 801.0, 801.0, 801.0, 801.0, 800.0, 801.0, 802.0, 802.0, 801.0, 801.0, 800.0, 800.0, 801.0, 803.0, 804.0, 803.0, 803.0, 802.0, 804.0, 806.0, 805.0, 803.0, 802.0, 801.0, 801.0, 800.0, 800.0, 800.0, 799.0, 800.0, 800.0, 801.0, 801.0, 800.0, 800.0, 799.0, 799.0, 800.0, 800.0, 802.0, 801.0, 801.0, 801.0, 801.0, 802.0, 803.0, 803.0, 804.0, 803.0, 803.0, 806.0, 806.0, 806.0, 804.0, 802.0, 802.0, 802.0, 802.0, 801.0, 800.0, 799.0, 799.0, 799.0, 799.0, 799.0, 799.0, 800.0, 800.0, 800.0, 801.0, 801.0, 800.0, 800.0, 799.0, 799.0, 799.0, 800.0, 802.0, 802.0, 801.0, 800.0, 800.0, 800.0, 800.0, 801.0, 801.0, 803.0, 804.0, 805.0, 804.0, 802.0, 801.0, 801.0, 801.0, 801.0, 801.0, 801.0, 801.0, 801.0, 802.0, 803.0, 801.0],
      "WindowWidth": [1711.0, 1709.0, 1709.0, 1710.0, 1710.0, 1708.0, 1708.0, 1709.0, 1712.0, 1714.0, 1713.0, 1709.0, 1709.0, 1712.0, 1714.0, 1712.0, 1708.0, 1707.0, 1712.0, 1718.0, 1716.0, 1711.0, 1708.0, 1706.0, 1705.0, 1704.0, 1707.0, 1707.0, 1706.0, 1708.0, 1709.0, 1707.0, 1707.0, 1707.0, 1708.0, 1711.0, 1713.0, 1713.0, 1711.0, 1710.0, 1712.0, 1710.0, 1716.0, 1719.0, 1715.0, 1711.0, 1709.0, 1707.0, 1708.0, 1708.0, 1709.0, 1708.0, 1707.0, 1708.0, 1710.0, 1710.0, 1709.0, 1707.0, 1705.0, 1706.0, 1710.0, 1714.0, 1715.0, 1712.0, 1712.0, 1712.0, 1717.0, 1720.0, 1718.0, 1714.0, 1711.0, 1708.0, 1708.0, 1705.0, 1705.0, 1704.0, 1703.0, 1705.0, 1705.0, 1707.0, 1707.0, 1706.0, 1706.0, 1704.0, 1704.0, 1705.0, 1706.0, 1710.0, 1709.0, 1707.0, 1708.0, 1708.0, 1710.0, 1713.0, 1714.0, 1716.0, 1714.0, 1715.0, 1721.0, 1723.0, 1721.0, 1717.0, 1711.0, 1710.0, 1710.0, 1710.0, 1709.0, 1706.0, 1702.0, 1702.0, 1703.0, 1702.0, 1703.0, 1704.0, 1706.0, 1706.0, 1706.0, 1707.0, 1708.0, 1706.0, 1706.0, 1704.0, 1704.0, 1705.0, 1707.0, 1710.0, 1712.0, 1708.0, 1706.0, 1706.0, 1707.0, 1707.0, 1708.0, 1709.0, 1712.0, 1717.0, 1718.0, 1717.0, 1710.0, 1707.0, 1707.0, 1707.0, 1708.0, 1708.0, 1710.0, 1709.0, 1708.0, 1711.0, 1712.0, 1709.0]
    },
    "slices": {}
  }
}