{
  "AcquisitionMatrixPE": 100,
  "AcquisitionNumber": 1,
  "AcquisitionTime": "13:33:1.097500",
  "BandwidthPerPixelPhaseEncode": 18.519,
  "BaseResolution": 100,
  "BodyPartExamined": "BRAIN",
  "ConsistencyInfo": "N4_VE11C_LATEST_20160120",
  "ConversionSoftware": "dcm2niix",
  "ConversionSoftwareVersion": "v1.0.20180622 GCC4.9.2",
  "DerivedVendorReportedEchoSpacing": 0.000539986,
  "DeviceSerialNumber": "166078",
  "DwellTime": 2.1e-06,
  "EchoTime": 0.034,
  "EchoTrainLength": 100,
  "EffectiveEchoSpacing": 0.000539986,
  "FlipAngle": 90,
  "ImageOrientationPatientDICOM": [0.999997, -0.00016969, -0.00242854, -2.63927e-08, 0.997567, -0.0697142],
  "ImageType": [
    "ORIGINAL",
    "PRIMARY",
    "M",
    "ND",
    "MOSAIC"
],
  "InPlanePhaseEncodingDirectionDICOM": "COL",
  "InstitutionAddress": "Street_StreetNo_Bei_Jing_District_CN_ZIP",
  "InstitutionName": "BeiJing_Normal_University",
  "InstitutionalDepartmentName": "Department",
  "MRAcquisitionType": "2D",
  "MagneticFieldStrength": 3,
  "Manufacturer": "Siemens",
  "ManufacturersModelName": "Prisma",
  "Modality": "MR",
  "MultibandAccelerationFactor": 3,
  "PartialFourier": 1,
  "PatientPosition": "HFS",
  "PercentPhaseFOV": 100,
  "PhaseEncodingDirection": "j-",
  "PhaseEncodingSteps": 100,
  "PhaseResolution": 1,
  "PixelBandwidth": 2380,
  "ProcedureStepDescription": "BNU_P2018_64CH_Zhen.ZongLei",
  "ProtocolName": "bold_100x100_s3_2x2x2_static_256",
  "PulseSequenceDetails": "%SiemensSeq%_ep2d_bold",
  "ReceiveCoilActiveElements": "HC1-7;NC1",
  "ReceiveCoilName": "HeadNeck_64",
  "ReconMatrixPE": 100,
  "RepetitionTime": 2,
  "SAR": 0.0732489,
  "ScanOptions": "FS",
  "ScanningSequence": "EP",
  "SequenceName": "_epfid2d1_100",
  "SequenceVariant": "SK",
  "SeriesDescription": "bold_100x100_s3_2x2x2_static_256",
  "SeriesNumber": 6,
  "ShimSetting": [-5444, -11503, -1290, 509, 13, -153, -12, 62],
  "SliceThickness": 2,
  "SliceTiming": [1.485, 0, 0.99, 0.0825, 1.0725, 0.165, 1.155, 0.2475, 1.2375, 0.33, 1.32, 0.4125, 1.4025, 0.5775, 1.5675, 0.66, 1.65, 0.7425, 1.7325, 0.825, 1.815, 0.9075, 1.8975, 0.495, 1.485, 0, 0.99, 0.0825, 1.0725, 0.165, 1.155, 0.2475, 1.2375, 0.33, 1.32, 0.4125, 1.4025, 0.5775, 1.5675, 0.66, 1.65, 0.7425, 1.7325, 0.825, 1.815, 0.9075, 1.8975, 0.495, 1.485, 0, 0.99, 0.0825, 1.0725, 0.165, 1.155, 0.2475, 1.2375, 0.33, 1.32, 0.4125, 1.4025, 0.5775, 1.5675, 0.66, 1.65, 0.7425, 1.7325, 0.825, 1.815, 0.9075, 1.8975, 0.495],
  "SoftwareVersions": "syngo_MR_E11",
  "SpacingBetweenSlices": 2,
  "StationName": "AWP166078",
  "TaskName": "naturalvision",
  "TotalReadoutTime": 0.0534586,
  "TxRefAmp": 209.577,
  "dcmmeta_affine": [
    [-1.9999940395355225, -5.2785381399189646e-08, -0.004868932068347931, 101.43583679199219],
    [0.00033938096021302044, 1.9951339960098267, -0.13942795991897583, -92.0417251586914],
    [-0.0048570893704891205, 0.13942837715148926, 1.9951281547546387, -72.13668060302734],
    [0.0, 0.0, 0.0, 1.0]
],
  "dcmmeta_reorient_transform": [
    [0.0, -1.0, 0.0, 99.0],
    [1.0, 0.0, 0.0, 0.0],
    [0.0, 0.0, 1.0, 0.0],
    [0.0, 0.0, 0.0, 1.0]
],
  "dcmmeta_shape": [100, 100, 72, 256],
  "dcmmeta_slice_dim": 2,
  "dcmmeta_version": 0.6,
  "global": {
    "const": {
      "AcquisitionMatrix": [100, 0, 0, 100],
      "AngioFlag": "N",
      "BitsAllocated": 16,
      "BitsStored": 12,
      "BodyPartExamined": "BRAIN",
      "Columns": 900,
      "EchoNumbers": 1,
      "EchoTime": 34.0,
      "EchoTrainLength": 100,
      "FlipAngle": 90.0,
      "HighBit": 11,
      "ImageOrientationPatient": [0.99999703668354, -0.0001696904791, -0.0024285446837, -2.639269e-08, 0.99756700640291, -0.0697141860481],
      "ImagePositionPatient": [-901.43344312331, -903.39439596927, -0.6190887281293],
      "ImageType": [
        "ORIGINAL",
        "PRIMARY",
        "M",
        "ND",
        "MOSAIC"
],
      "ImagedNucleus": "1H",
      "ImagingFrequency": 123.257775,
      "InPlanePhaseEncodingDirection": "COL",
      "MRAcquisitionType": "2D",
      "MagneticFieldStrength": 3.0,
      "Manufacturer": "SIEMENS",
      "ManufacturerModelName": "Prisma",
      "Modality": "MR",
      "NumberOfAverages": 1.0,
      "NumberOfPhaseEncodingSteps": 100,
      "PercentPhaseFieldOfView": 100.0,
      "PercentSampling": 100.0,
      "PerformedProcedureStepStartTime": "130856.311000",
      "PhotometricInterpretation": "MONOCHROME2",
      "PixelBandwidth": 2380.0,
      "PixelRepresentation": 0,
      "PixelSpacing": [2.0, 2.0],
      "ProtocolName": "bold_100x100_s3_2x2x2_static_256",
      "RepetitionTime": 2000.0,
      "Rows": 900,
      "SAR": 0.07324894248608,
      "SamplesPerPixel": 1,
      "ScanOptions": "FS",
      "ScanningSequence": "EP",
      "SequenceName": "*epfid2d1_100",
      "SequenceVariant": "SK",
      "SeriesDescription": "bold_100x100_s3_2x2x2_static_256",
      "SeriesNumber": 6,
      "SeriesTime": "133303.438000",
      "SliceLocation": -65.791308048181,
      "SliceThickness": 2.0,
      "SmallestImagePixelValue": 0,
      "SoftwareVersions": "syngo MR E11",
      "SpacingBetweenSlices": 2.0000000472335,
      "SpecificCharacterSet": "ISO_IR 100",
      "StudyID": "1",
      "StudyTime": "130856.194000",
      "TransmitCoilName": "Body",
      "VariableFlipAngleFlag": "N",
      "WindowCenterWidthExplanation": "Algo1",
      "dBdt": 0.0},
    "slices": {}
  },
  "time": {
    "samples": {
      "AcquisitionNumber": [1, 2, 3, 4, 5, 6, 7, 8, 9, 10, 11, 12, 13, 14, 15, 16, 17, 18, 19, 20, 21, 22, 23, 24, 25, 26, 27, 28, 29, 30, 31, 32, 33, 34, 35, 36, 37, 38, 39, 40, 41, 42, 43, 44, 45, 46, 47, 48, 49, 50, 51, 52, 53, 54, 55, 56, 57, 58, 59, 60, 61, 62, 63, 64, 65, 66, 67, 68, 69, 70, 71, 72, 73, 74, 75, 76, 77, 78, 79, 80, 81, 82, 83, 84, 85, 86, 87, 88, 89, 90, 91, 92, 93, 94, 95, 96, 97, 98, 99, 100, 101, 102, 103, 104, 105, 106, 107, 108, 109, 110, 111, 112, 113, 114, 115, 116, 117, 118, 119, 120, 121, 122, 123, 124, 125, 126, 127, 128, 129, 130, 131, 132, 133, 134, 135, 136, 137, 138, 139, 140, 141, 142, 143, 144, 145, 146, 147, 148, 149, 150, 151, 152, 153, 154, 155, 156, 157, 158, 159, 160, 161, 162, 163, 164, 165, 166, 167, 168, 169, 170, 171, 172, 173, 174, 175, 176, 177, 178, 179, 180, 181, 182, 183, 184, 185, 186, 187, 188, 189, 190, 191, 192, 193, 194, 195, 196, 197, 198, 199, 200, 201, 202, 203, 204, 205, 206, 207, 208, 209, 210, 211, 212, 213, 214, 215, 216, 217, 218, 219, 220, 221, 222, 223, 224, 225, 226, 227, 228, 229, 230, 231, 232, 233, 234, 235, 236, 237, 238, 239, 240, 241, 242, 243, 244, 245, 246, 247, 248, 249, 250, 251, 252, 253, 254, 255, 256],
      "AcquisitionTime": ["133301.097500", "133303.097500", "133305.097500", "133307.097500", "133309.097500", "133311.097500", "133313.097500", "133315.097500", "133317.097500", "133319.097500", "133321.097500", "133323.097500", "133325.097500", "133327.097500", "133329.097500", "133331.097500", "133333.097500", "133335.097500", "133337.097500", "133339.097500", "133341.097500", "133343.097500", "133345.097500", "133347.097500", "133349.097500", "133351.097500", "133353.097500", "133355.097500", "133357.097500", "133359.097500", "133401.097500", "133403.097500", "133405.097500", "133407.097500", "133409.097500", "133411.097500", "133413.097500", "133415.097500", "133417.097500", "133419.097500", "133421.097500", "133423.097500", "133425.097500", "133427.097500", "133429.097500", "133431.097500", "133433.097500", "133435.097500", "133437.097500", "133439.097500", "133441.097500", "133443.097500", "133445.097500", "133447.097500", "133449.097500", "133451.097500", "133453.097500", "133455.097500", "133457.097500", "133459.097500", "133501.097500", "133503.097500", "133505.097500", "133507.097500", "133509.097500", "133511.097500", "133513.097500", "133515.097500", "133517.097500", "133519.097500", "133521.097500", "133523.097500", "133525.097500", "133527.097500", "133529.097500", "133531.097500", "133533.097500", "133535.097500", "133537.097500", "133539.097500", "133541.097500", "133543.097500", "133545.097500", "133547.097500", "133549.097500", "133551.097500", "133553.097500", "133555.097500", "133557.097500", "133559.097500", "133601.097500", "133603.097500", "133605.097500", "133607.097500", "133609.097500", "133611.097500", "133613.097500", "133615.097500", "133617.097500", "133619.097500", "133621.097500", "133623.097500", "133625.097500", "133627.097500", "133629.097500", "133631.097500", "133633.097500", "133635.097500", "133637.097500", "133639.097500", "133641.097500", "133643.097500", "133645.097500", "133647.097500", "133649.097500", "133651.097500", "133653.097500", "133655.097500", "133657.097500", "133659.097500", "133701.097500", "133703.097500", "133705.097500", "133707.097500", "133709.097500", "133711.097500", "133713.097500", "133715.097500", "133717.097500", "133719.097500", "133721.097500", "133723.097500", "133725.097500", "133727.097500", "133729.097500", "133731.097500", "133733.097500", "133735.097500", "133737.097500", "133739.097500", "133741.097500", "133743.097500", "133745.097500", "133747.097500", "133749.097500", "133751.097500", "133753.097500", "133755.097500", "133757.097500", "133759.097500", "133801.097500", "133803.097500", "133805.097500", "133807.097500", "133809.097500", "133811.097500", "133813.097500", "133815.097500", "133817.097500", "133819.097500", "133821.097500", "133823.097500", "133825.097500", "133827.097500", "133829.097500", "133831.097500", "133833.097500", "133835.097500", "133837.097500", "133839.097500", "133841.097500", "133843.097500", "133845.097500", "133847.097500", "133849.097500", "133851.097500", "133853.097500", "133855.097500", "133857.097500", "133859.097500", "133901.097500", "133903.097500", "133905.097500", "133907.097500", "133909.097500", "133911.097500", "133913.097500", "133915.097500", "133917.097500", "133919.097500", "133921.097500", "133923.097500", "133925.097500", "133927.097500", "133929.097500", "133931.097500", "133933.097500", "133935.097500", "133937.097500", "133939.097500", "133941.097500", "133943.097500", "133945.097500", "133947.097500", "133949.097500", "133951.097500", "133953.097500", "133955.097500", "133957.097500", "133959.097500", "134001.097500", "134003.097500", "134005.097500", "134007.097500", "134009.097500", "134011.097500", "134013.097500", "134015.097500", "134017.097500", "134019.097500", "134021.097500", "134023.097500", "134025.097500", "134027.097500", "134029.097500", "134031.097500", "134033.097500", "134035.097500", "134037.097500", "134039.097500", "134041.097500", "134043.097500", "134045.097500", "134047.097500", "134049.097500", "134051.097500", "134053.097500", "134055.097500", "134057.097500", "134059.097500", "134101.097500", "134103.097500", "134105.097500", "134107.097500", "134109.097500", "134111.097500", "134113.097500", "134115.097500", "134117.097500", "134119.097500", "134121.097500", "134123.097500", "134125.097500", "134127.097500", "134129.097500", "134131.097500"],
      "ContentTime": ["133303.442000", "133304.938000", "133306.938000", "133308.937000", "133310.938000", "133312.938000", "133314.939000", "133316.939000", "133318.938000", "133320.938000", "133322.938000", "133324.937000", "133326.938000", "133328.938000", "133330.938000", "133332.938000", "133334.938000", "133336.937000", "133338.937000", "133340.937000", "133342.937000", "133344.938000", "133346.939000", "133348.939000", "133350.938000", "133352.939000", "133354.937000", "133356.938000", "133358.937000", "133400.938000", "133402.939000", "133404.938000", "133406.939000", "133408.939000", "133410.938000", "133412.938000", "133414.938000", "133416.938000", "133418.937000", "133420.939000", "133422.938000", "133424.939000", "133426.939000", "133428.938000", "133430.937000", "133432.937000", "133434.937000", "133436.938000", "133438.938000", "133440.939000", "133442.938000", "133444.938000", "133446.938000", "133448.938000", "133450.937000", "133452.937000", "133454.938000", "133456.938000", "133458.938000", "133500.939000", "133502.938000", "133504.938000", "133506.937000", "133508.937000", "133510.938000", "133512.939000", "133514.939000", "133516.938000", "133518.939000", "133520.939000", "133522.938000", "133524.937000", "133526.937000", "133528.937000", "133530.938000", "133532.939000", "133534.938000", "133536.938000", "133538.938000", "133540.937000", "133542.937000", "133544.937000", "133546.938000", "133548.938000", "133550.939000", "133552.939000", "133554.939000", "133556.938000", "133558.938000", "133600.937000", "133602.938000", "133604.938000", "133606.938000", "133608.939000", "133610.938000", "133612.938000", "133614.937000", "133616.938000", "133618.937000", "133620.938000", "133622.939000", "133624.939000", "133626.939000", "133628.939000", "133630.938000", "133632.937000", "133634.937000", "133636.937000", "133638.937000", "133640.938000", "133642.938000", "133644.939000", "133646.938000", "133648.937000", "133650.937000", "133652.937000", "133654.938000", "133656.938000", "133658.938000", "133700.939000", "133702.438000", "133704.939000", "133706.937000", "133708.937000", "133710.937000", "133712.938000", "133714.939000", "133716.939000", "133718.939000", "133720.939000", "133722.939000", "133724.938000", "133726.937000", "133728.937000", "133730.938000", "133732.939000", "133734.938000", "133736.939000", "133738.939000", "133740.939000", "133742.938000", "133744.937000", "133746.937000", "133748.938000", "133750.938000", "133752.938000", "133754.939000", "133756.939000", "133758.938000", "133800.937000", "133802.937000", "133804.937000", "133806.937000", "133808.939000", "133810.939000", "133812.938000", "133814.938000", "133816.937000", "133818.938000", "133820.938000", "133822.937000", "133824.939000", "133826.939000", "133828.939000", "133830.939000", "133832.939000", "133834.938000", "133836.938000", "133838.938000", "133840.938000", "133842.938000", "133844.938000", "133846.939000", "133848.939000", "133850.938000", "133852.938000", "133854.938000", "133856.938000", "133858.937000", "133900.939000", "133902.939000", "133904.938000", "133906.939000", "133908.938000", "133910.938000", "133912.937000", "133914.938000", "133916.937000", "133918.939000", "133920.939000", "133922.939000", "133924.939000", "133926.938000", "133928.937000", "133930.938000", "133932.937000", "133934.939000", "133936.939000", "133938.939000", "133940.939000", "133942.939000", "133944.938000", "133946.938000", "133948.938000", "133950.937000", "133952.939000", "133954.939000", "133956.939000", "133958.939000", "134000.939000", "134002.938000", "134004.937000", "134006.938000", "134008.938000", "134010.939000", "134012.938000", "134014.939000", "134016.939000", "134018.938000", "134020.937000", "134022.937000", "134024.937000", "134026.938000", "134028.939000", "134030.939000", "134032.939000", "134034.938000", "134036.938000", "134038.937000", "134040.937000", "134042.938000", "134044.939000", "134046.939000", "134048.939000", "134050.938000", "134052.939000", "134054.937000", "134056.938000", "134058.938000", "134100.938000", "134102.939000", "134104.938000", "134106.938000", "134108.938000", "134110.938000", "134112.938000", "134114.937000", "134116.938000", "134118.938000", "134120.938000", "134122.939000", "134124.939000", "134126.939000", "134128.938000", "134130.938000", "134132.553000"],
      "InstanceCreationTime": ["133303.442000", "133304.938000", "133306.938000", "133308.937000", "133310.938000", "133312.938000", "133314.939000", "133316.939000", "133318.938000", "133320.938000", "133322.938000", "133324.937000", "133326.938000", "133328.938000", "133330.938000", "133332.938000", "133334.938000", "133336.937000", "133338.937000", "133340.937000", "133342.937000", "133344.938000", "133346.939000", "133348.939000", "133350.938000", "133352.939000", "133354.937000", "133356.938000", "133358.937000", "133400.938000", "133402.939000", "133404.938000", "133406.939000", "133408.939000", "133410.938000", "133412.938000", "133414.938000", "133416.938000", "133418.937000", "133420.939000", "133422.938000", "133424.939000", "133426.939000", "133428.938000", "133430.937000", "133432.937000", "133434.937000", "133436.938000", "133438.938000", "133440.939000", "133442.938000", "133444.938000", "133446.938000", "133448.938000", "133450.937000", "133452.937000", "133454.938000", "133456.938000", "133458.938000", "133500.939000", "133502.938000", "133504.938000", "133506.937000", "133508.937000", "133510.938000", "133512.939000", "133514.939000", "133516.938000", "133518.939000", "133520.939000", "133522.938000", "133524.937000", "133526.937000", "133528.937000", "133530.938000", "133532.939000", "133534.938000", "133536.938000", "133538.938000", "133540.937000", "133542.937000", "133544.937000", "133546.938000", "133548.938000", "133550.939000", "133552.939000", "133554.939000", "133556.938000", "133558.938000", "133600.937000", "133602.938000", "133604.938000", "133606.938000", "133608.939000", "133610.938000", "133612.938000", "133614.937000", "133616.938000", "133618.937000", "133620.938000", "133622.939000", "133624.939000", "133626.939000", "133628.939000", "133630.938000", "133632.937000", "133634.937000", "133636.937000", "133638.937000", "133640.938000", "133642.938000", "133644.939000", "133646.938000", "133648.937000", "133650.937000", "133652.937000", "133654.938000", "133656.938000", "133658.938000", "133700.939000", "133702.438000", "133704.939000", "133706.937000", "133708.937000", "133710.937000", "133712.938000", "133714.939000", "133716.939000", "133718.939000", "133720.939000", "133722.939000", "133724.938000", "133726.937000", "133728.937000", "133730.938000", "133732.939000", "133734.938000", "133736.939000", "133738.939000", "133740.939000", "133742.938000", "133744.937000", "133746.937000", "133748.938000", "133750.938000", "133752.938000", "133754.939000", "133756.939000", "133758.938000", "133800.937000", "133802.937000", "133804.937000", "133806.937000", "133808.939000", "133810.939000", "133812.938000", "133814.938000", "133816.937000", "133818.938000", "133820.938000", "133822.937000", "133824.939000", "133826.939000", "133828.939000", "133830.939000", "133832.939000", "133834.938000", "133836.938000", "133838.938000", "133840.938000", "133842.938000", "133844.938000", "133846.939000", "133848.939000", "133850.938000", "133852.938000", "133854.938000", "133856.938000", "133858.937000", "133900.939000", "133902.939000", "133904.938000", "133906.939000", "133908.938000", "133910.938000", "133912.937000", "133914.938000", "133916.937000", "133918.939000", "133920.939000", "133922.939000", "133924.939000", "133926.938000", "133928.937000", "133930.938000", "133932.937000", "133934.939000", "133936.939000", "133938.939000", "133940.939000", "133942.939000", "133944.938000", "133946.938000", "133948.938000", "133950.937000", "133952.939000", "133954.939000", "133956.939000", "133958.939000", "134000.939000", "134002.938000", "134004.937000", "134006.938000", "134008.938000", "134010.939000", "134012.938000", "134014.939000", "134016.939000", "134018.938000", "134020.937000", "134022.937000", "134024.937000", "134026.938000", "134028.939000", "134030.939000", "134032.939000", "134034.938000", "134036.938000", "134038.937000", "134040.937000", "134042.938000", "134044.939000", "134046.939000", "134048.939000", "134050.938000", "134052.939000", "134054.937000", "134056.938000", "134058.938000", "134100.938000", "134102.939000", "134104.938000", "134106.938000", "134108.938000", "134110.938000", "134112.938000", "134114.937000", "134116.938000", "134118.938000", "134120.938000", "134122.939000", "134124.939000", "134126.939000", "134128.938000", "134130.938000", "134132.553000"],
      "InstanceNumber": [1, 2, 3, 4, 5, 6, 7, 8, 9, 10, 11, 12, 13, 14, 15, 16, 17, 18, 19, 20, 21, 22, 23, 24, 25, 26, 27, 28, 29, 30, 31, 32, 33, 34, 35, 36, 37, 38, 39, 40, 41, 42, 43, 44, 45, 46, 47, 48, 49, 50, 51, 52, 53, 54, 55, 56, 57, 58, 59, 60, 61, 62, 63, 64, 65, 66, 67, 68, 69, 70, 71, 72, 73, 74, 75, 76, 77, 78, 79, 80, 81, 82, 83, 84, 85, 86, 87, 88, 89, 90, 91, 92, 93, 94, 95, 96, 97, 98, 99, 100, 101, 102, 103, 104, 105, 106, 107, 108, 109, 110, 111, 112, 113, 114, 115, 116, 117, 118, 119, 120, 121, 122, 123, 124, 125, 126, 127, 128, 129, 130, 131, 132, 133, 134, 135, 136, 137, 138, 139, 140, 141, 142, 143, 144, 145, 146, 147, 148, 149, 150, 151, 152, 153, 154, 155, 156, 157, 158, 159, 160, 161, 162, 163, 164, 165, 166, 167, 168, 169, 170, 171, 172, 173, 174, 175, 176, 177, 178, 179, 180, 181, 182, 183, 184, 185, 186, 187, 188, 189, 190, 191, 192, 193, 194, 195, 196, 197, 198, 199, 200, 201, 202, 203, 204, 205, 206, 207, 208, 209, 210, 211, 212, 213, 214, 215, 216, 217, 218, 219, 220, 221, 222, 223, 224, 225, 226, 227, 228, 229, 230, 231, 232, 233, 234, 235, 236, 237, 238, 239, 240, 241, 242, 243, 244, 245, 246, 247, 248, 249, 250, 251, 252, 253, 254, 255, 256],
      "LargestImagePixelValue": [3243, 3253, 3195, 3131, 3214, 3147, 3153, 3208, 3182, 3133, 3185, 3148, 3166, 3131, 3169, 3199, 3150, 3127, 3160, 3198, 3176, 3170, 3159, 3197, 3164, 3121, 3208, 3203, 3150, 3171, 3162, 3228, 3250, 3223, 3203, 3244, 3263, 3254, 3231, 3199, 3246, 3240, 3248, 3249, 3225, 3235, 3258, 3262, 3232, 3229, 3256, 3268, 3255, 3250, 3236, 3234, 3264, 3259, 3253, 3254, 3233, 3200, 3254, 3269, 3221, 3238, 3234, 3270, 3257, 3177, 3247, 3231, 3241, 3232, 3211, 3240, 3245, 3240, 3217, 3266, 3269, 3237, 3240, 3267, 3273, 3280, 3268, 3248, 3267, 3288, 3253, 3233, 3259, 3253, 3262, 3232, 3271, 3252, 3234, 3247, 3259, 3277, 3235, 3240, 3258, 3267, 3241, 3288, 3253, 3227, 3265, 3262, 3261, 3246, 3258, 3269, 3245, 3240, 3258, 3247, 3275, 3263, 3218, 3260, 3259, 3271, 3261, 3237, 3259, 3268, 3243, 3284, 3240, 3252, 3258, 3257, 3254, 3238, 3248, 3212, 3234, 3260, 3260, 3288, 3257, 3251, 3242, 3247, 3275, 3240, 3233, 3266, 3257, 3247, 3263, 3275, 3241, 3270, 3251, 3244, 3250, 3244, 3256, 3233, 3265, 3256, 3256, 3239, 3249, 3210, 3248, 3251, 3228, 3253, 3255, 3250, 3248, 3273, 3253, 3252, 3252, 3237, 3238, 3245, 3225, 3228, 3212, 3250, 3234, 3247, 3227, 3218, 3225, 3239, 3251, 3225, 3231, 3253, 3215, 3231, 3240, 3211, 3259, 3231, 3222, 3247, 3223, 3264, 3245, 3213, 3223, 3205, 3229, 3202, 3202, 3248, 3208, 3246, 3221, 3221, 3241, 3221, 3241, 3214, 3219, 3250, 3226, 3244, 3255, 3247, 3225, 3233, 3194, 3240, 3215, 3231, 3215, 3258, 3232, 3207, 3237, 3221, 3235, 3230, 3228, 3238, 3225, 3235, 3215, 3226, 3206, 3223, 3202, 3213, 3232, 3222],
      "WindowCenter": [771.0, 770.0, 769.0, 767.0, 768.0, 768.0, 768.0, 768.0, 768.0, 767.0, 768.0, 767.0, 767.0, 767.0, 768.0, 768.0, 767.0, 766.0, 767.0, 767.0, 766.0, 766.0, 766.0, 766.0, 766.0, 765.0, 767.0, 767.0, 766.0, 767.0, 766.0, 765.0, 765.0, 765.0, 766.0, 766.0, 767.0, 767.0, 766.0, 765.0, 765.0, 765.0, 766.0, 766.0, 765.0, 765.0, 765.0, 765.0, 765.0, 765.0, 767.0, 767.0, 766.0, 765.0, 765.0, 765.0, 766.0, 767.0, 767.0, 767.0, 766.0, 765.0, 766.0, 766.0, 765.0, 766.0, 766.0, 767.0, 767.0, 766.0, 767.0, 767.0, 766.0, 766.0, 767.0, 767.0, 766.0, 766.0, 766.0, 767.0, 767.0, 766.0, 766.0, 766.0, 766.0, 766.0, 765.0, 766.0, 767.0, 767.0, 767.0, 766.0, 767.0, 767.0, 767.0, 766.0, 767.0, 767.0, 768.0, 768.0, 767.0, 767.0, 766.0, 767.0, 766.0, 765.0, 765.0, 765.0, 766.0, 767.0, 767.0, 766.0, 767.0, 767.0, 767.0, 766.0, 766.0, 766.0, 766.0, 766.0, 766.0, 766.0, 766.0, 766.0, 767.0, 767.0, 766.0, 766.0, 766.0, 766.0, 766.0, 767.0, 766.0, 767.0, 767.0, 766.0, 766.0, 766.0, 767.0, 767.0, 766.0, 767.0, 767.0, 767.0, 767.0, 767.0, 767.0, 767.0, 767.0, 766.0, 767.0, 767.0, 767.0, 768.0, 768.0, 767.0, 766.0, 766.0, 766.0, 765.0, 766.0, 766.0, 767.0, 766.0, 767.0, 767.0, 767.0, 766.0, 766.0, 766.0, 767.0, 767.0, 768.0, 768.0, 768.0, 768.0, 768.0, 767.0, 767.0, 767.0, 768.0, 767.0, 767.0, 767.0, 767.0, 767.0, 767.0, 767.0, 766.0, 767.0, 767.0, 767.0, 767.0, 768.0, 768.0, 767.0, 767.0, 767.0, 767.0, 767.0, 767.0, 766.0, 767.0, 768.0, 768.0, 768.0, 768.0, 767.0, 767.0, 767.0, 767.0, 766.0, 766.0, 765.0, 766.0, 766.0, 767.0, 768.0, 768.0, 768.0, 768.0, 767.0, 767.0, 767.0, 766.0, 767.0, 768.0, 767.0, 767.0, 766.0, 767.0, 767.0, 767.0, 767.0, 766.0, 765.0, 764.0, 765.0, 766.0, 766.0, 767.0, 767.0, 768.0, 769.0, 769.0, 769.0, 768.0, 768.0, 768.0, 768.0, 769.0, 770.0, 770.0, 771.0, 771.0, 771.0],
      "WindowWidth": [1673.0, 1670.0, 1666.0, 1663.0, 1664.0, 1664.0, 1665.0, 1666.0, 1664.0, 1662.0, 1664.0, 1661.0, 1663.0, 1663.0, 1666.0, 1666.0, 1663.0, 1660.0, 1661.0, 1662.0, 1660.0, 1660.0, 1660.0, 1661.0, 1659.0, 1657.0, 1661.0, 1661.0, 1660.0, 1661.0, 1660.0, 1658.0, 1657.0, 1656.0, 1659.0, 1661.0, 1662.0, 1661.0, 1659.0, 1656.0, 1657.0, 1658.0, 1660.0, 1659.0, 1656.0, 1656.0, 1657.0, 1655.0, 1656.0, 1658.0, 1661.0, 1662.0, 1660.0, 1657.0, 1656.0, 1658.0, 1660.0, 1661.0, 1663.0, 1661.0, 1658.0, 1655.0, 1658.0, 1658.0, 1657.0, 1659.0, 1660.0, 1662.0, 1661.0, 1658.0, 1662.0, 1662.0, 1660.0, 1660.0, 1661.0, 1662.0, 1660.0, 1660.0, 1660.0, 1662.0, 1661.0, 1660.0, 1660.0, 1660.0, 1660.0, 1658.0, 1657.0, 1659.0, 1662.0, 1662.0, 1661.0, 1660.0, 1661.0, 1661.0, 1662.0, 1660.0, 1661.0, 1662.0, 1664.0, 1664.0, 1662.0, 1660.0, 1660.0, 1661.0, 1658.0, 1656.0, 1655.0, 1656.0, 1659.0, 1661.0, 1663.0, 1660.0, 1661.0, 1662.0, 1663.0, 1660.0, 1658.0, 1658.0, 1660.0, 1658.0, 1658.0, 1658.0, 1659.0, 1660.0, 1661.0, 1660.0, 1660.0, 1658.0, 1658.0, 1658.0, 1659.0, 1661.0, 1660.0, 1661.0, 1662.0, 1660.0, 1660.0, 1660.0, 1661.0, 1661.0, 1660.0, 1661.0, 1662.0, 1663.0, 1661.0, 1661.0, 1662.0, 1661.0, 1661.0, 1659.0, 1661.0, 1662.0, 1663.0, 1664.0, 1664.0, 1661.0, 1659.0, 1659.0, 1659.0, 1657.0, 1658.0, 1659.0, 1661.0, 1660.0, 1661.0, 1662.0, 1662.0, 1659.0, 1659.0, 1660.0, 1661.0, 1663.0, 1664.0, 1664.0, 1664.0, 1665.0, 1663.0, 1662.0, 1661.0, 1663.0, 1664.0, 1662.0, 1662.0, 1660.0, 1661.0, 1660.0, 1662.0, 1660.0, 1660.0, 1661.0, 1661.0, 1661.0, 1663.0, 1664.0, 1665.0, 1663.0, 1662.0, 1661.0, 1661.0, 1662.0, 1661.0, 1658.0, 1661.0, 1664.0, 1665.0, 1665.0, 1663.0, 1662.0, 1662.0, 1661.0, 1660.0, 1658.0, 1658.0, 1656.0, 1658.0, 1660.0, 1660.0, 1663.0, 1663.0, 1663.0, 1663.0, 1663.0, 1662.0, 1662.0, 1660.0, 1663.0, 1664.0, 1663.0, 1662.0, 1659.0, 1660.0, 1661.0, 1662.0, 1661.0, 1658.0, 1655.0, 1654.0, 1657.0, 1657.0, 1659.0, 1661.0, 1662.0, 1664.0, 1667.0, 1668.0, 1667.0, 1665.0, 1665.0, 1665.0, 1665.0, 1667.0, 1669.0, 1671.0, 1672.0, 1672.0, 1673.0]
    },
    "slices": {}
  }
}