{
 "AcquisitionMatrixPE": 100,
 "AcquisitionNumber": 1,
 "AcquisitionTime": "14:51:36.800000",
 "BandwidthPerPixelPhaseEncode": 18.519,
 "BaseResolution": 100,
 "BodyPartExamined": "BRAIN",
 "ConsistencyInfo": "N4_VE11C_LATEST_20160120",
 "ConversionSoftware": "dcm2niix",
 "ConversionSoftwareVersion": "v1.0.20180622 GCC4.9.2",
 "DerivedVendorReportedEchoSpacing": 0.000539986,
 "DeviceSerialNumber": "166078",
 "DwellTime": 2.1e-06,
 "EchoTime": 0.034,
 "EchoTrainLength": 100,
 "EffectiveEchoSpacing": 0.000539986,
 "FlipAngle": 90,
 "ImageOrientationPatientDICOM": [
  0.999997,
  -0.00016969,
  -0.00242854,
  -2.63927e-08,
  0.997567,
  -0.0697142
 ],
 "ImageType": [
  "ORIGINAL",
  "PRIMARY",
  "M",
  "ND",
  "MOSAIC"
 ],
 "InPlanePhaseEncodingDirectionDICOM": "COL",
 "InstitutionAddress": "Street_StreetNo_Bei_Jing_District_CN_ZIP",
 "InstitutionName": "BeiJing_Normal_University",
 "InstitutionalDepartmentName": "Department",
 "MRAcquisitionType": "2D",
 "MagneticFieldStrength": 3,
 "Manufacturer": "Siemens",
 "ManufacturersModelName": "Prisma",
 "Modality": "MR",
 "MultibandAccelerationFactor": 3,
 "PartialFourier": 1,
 "PatientPosition": "HFS",
 "PercentPhaseFOV": 100,
 "PhaseEncodingDirection": "j-",
 "PhaseEncodingSteps": 100,
 "PhaseResolution": 1,
 "PixelBandwidth": 2380,
 "ProcedureStepDescription": "BNU_P2018_64CH_Zhen.ZongLei",
 "ProtocolName": "bold_100x100_s3_2x2x2_static_256",
 "PulseSequenceDetails": "%SiemensSeq%_ep2d_bold",
 "ReceiveCoilActiveElements": "HC1-7;NC1",
 "ReceiveCoilName": "HeadNeck_64",
 "ReconMatrixPE": 100,
 "RepetitionTime": 2,
 "SAR": 0.0732489,
 "ScanOptions": "FS",
 "ScanningSequence": "EP",
 "SequenceName": "_epfid2d1_100",
 "SequenceVariant": "SK",
 "SeriesDescription": "bold_100x100_s3_2x2x2_static_256",
 "SeriesNumber": 16,
 "ShimSetting": [
  -5444,
  -11503,
  -1290,
  509,
  13,
  -153,
  -12,
  62
 ],
 "SliceThickness": 2,
 "SliceTiming": [
  1.485,
  0,
  0.99,
  0.0825,
  1.0725,
  0.165,
  1.155,
  0.2475,
  1.2375,
  0.33,
  1.32,
  0.4125,
  1.4025,
  0.5775,
  1.5675,
  0.66,
  1.65,
  0.7425,
  1.7325,
  0.825,
  1.815,
  0.9075,
  1.8975,
  0.495,
  1.485,
  0,
  0.99,
  0.0825,
  1.0725,
  0.165,
  1.155,
  0.2475,
  1.2375,
  0.33,
  1.32,
  0.4125,
  1.4025,
  0.5775,
  1.5675,
  0.66,
  1.65,
  0.7425,
  1.7325,
  0.825,
  1.815,
  0.9075,
  1.8975,
  0.495,
  1.485,
  0,
  0.99,
  0.0825,
  1.0725,
  0.165,
  1.155,
  0.2475,
  1.2375,
  0.33,
  1.32,
  0.4125,
  1.4025,
  0.5775,
  1.5675,
  0.66,
  1.65,
  0.7425,
  1.7325,
  0.825,
  1.815,
  0.9075,
  1.8975,
  0.495
 ],
 "SoftwareVersions": "syngo_MR_E11",
 "SpacingBetweenSlices": 2,
 "StationName": "AWP166078",
 "TaskName": "imagenet",
 "TotalReadoutTime": 0.0534586,
 "TxRefAmp": 209.577,
 "dcmmeta_affine": [
  [
   -1.9999940395355225,
   -5.2785381399189646e-08,
   -0.004868932068347931,
   101.43583679199219
  ],
  [
   0.00033938096021302044,
   1.9951339960098267,
   -0.13942795991897583,
   -92.0417251586914
  ],
  [
   -0.0048570893704891205,
   0.13942837715148926,
   1.9951281547546387,
   -72.13668060302734
  ],
  [
   0.0,
   0.0,
   0.0,
   1.0
  ]
 ],
 "dcmmeta_reorient_transform": [
  [
   0.0,
   -1.0,
   0.0,
   99.0
  ],
  [
   1.0,
   0.0,
   0.0,
   0.0
  ],
  [
   0.0,
   0.0,
   1.0,
   0.0
  ],
  [
   0.0,
   0.0,
   0.0,
   1.0
  ]
 ],
 "dcmmeta_shape": [
  100,
  100,
  72,
  256
 ],
 "dcmmeta_slice_dim": 2,
 "dcmmeta_version": 0.6,
 "global": {
  "const": {
   "AcquisitionMatrix": [
    100,
    0,
    0,
    100
   ],
   "AngioFlag": "N",
   "BitsAllocated": 16,
   "BitsStored": 12,
   "BodyPartExamined": "BRAIN",
   "Columns": 900,
   "EchoNumbers": 1,
   "EchoTime": 34.0,
   "EchoTrainLength": 100,
   "FlipAngle": 90.0,
   "HighBit": 11,
   "ImageOrientationPatient": [
    0.99999703668354,
    -0.0001696904791,
    -0.0024285446837,
    -2.639269e-08,
    0.99756700640291,
    -0.0697141860481
   ],
   "ImagePositionPatient": [
    -901.43344312331,
    -903.39439596927,
    -0.6190887281293
   ],
   "ImageType": [
    "ORIGINAL",
    "PRIMARY",
    "M",
    "ND",
    "MOSAIC"
   ],
   "ImagedNucleus": "1H",
   "ImagingFrequency": 123.25778,
   "InPlanePhaseEncodingDirection": "COL",
   "MRAcquisitionType": "2D",
   "MagneticFieldStrength": 3.0,
   "Manufacturer": "SIEMENS",
   "ManufacturerModelName": "Prisma",
   "Modality": "MR",
   "NumberOfAverages": 1.0,
   "NumberOfPhaseEncodingSteps": 100,
   "PercentPhaseFieldOfView": 100.0,
   "PercentSampling": 100.0,
   "PerformedProcedureStepStartTime": "130856.311000",
   "PhotometricInterpretation": "MONOCHROME2",
   "PixelBandwidth": 2380.0,
   "PixelRepresentation": 0,
   "PixelSpacing": [
    2.0,
    2.0
   ],
   "ProtocolName": "bold_100x100_s3_2x2x2_static_256",
   "RepetitionTime": 2000.0,
   "Rows": 900,
   "SAR": 0.07324894248608,
   "SamplesPerPixel": 1,
   "ScanOptions": "FS",
   "ScanningSequence": "EP",
   "SequenceName": "*epfid2d1_100",
   "SequenceVariant": "SK",
   "SeriesDescription": "bold_100x100_s3_2x2x2_static_256",
   "SeriesNumber": 16,
   "SeriesTime": "145138.935000",
   "SliceLocation": -65.791308048181,
   "SliceThickness": 2.0,
   "SmallestImagePixelValue": 0,
   "SoftwareVersions": "syngo MR E11",
   "SpacingBetweenSlices": 2.0000000472335,
   "SpecificCharacterSet": "ISO_IR 100",
   "StudyID": "1",
   "StudyTime": "130856.194000",
   "TransmitCoilName": "Body",
   "VariableFlipAngleFlag": "N",
   "WindowCenterWidthExplanation": "Algo1",
   "dBdt": 0.0
  },
  "slices": {}
 },
 "time": {
  "samples": {
   "AcquisitionNumber": [
    1,
    2,
    3,
    4,
    5,
    6,
    7,
    8,
    9,
    10,
    11,
    12,
    13,
    14,
    15,
    16,
    17,
    18,
    19,
    20,
    21,
    22,
    23,
    24,
    25,
    26,
    27,
    28,
    29,
    30,
    31,
    32,
    33,
    34,
    35,
    36,
    37,
    38,
    39,
    40,
    41,
    42,
    43,
    44,
    45,
    46,
    47,
    48,
    49,
    50,
    51,
    52,
    53,
    54,
    55,
    56,
    57,
    58,
    59,
    60,
    61,
    62,
    63,
    64,
    65,
    66,
    67,
    68,
    69,
    70,
    71,
    72,
    73,
    74,
    75,
    76,
    77,
    78,
    79,
    80,
    81,
    82,
    83,
    84,
    85,
    86,
    87,
    88,
    89,
    90,
    91,
    92,
    93,
    94,
    95,
    96,
    97,
    98,
    99,
    100,
    101,
    102,
    103,
    104,
    105,
    106,
    107,
    108,
    109,
    110,
    111,
    112,
    113,
    114,
    115,
    116,
    117,
    118,
    119,
    120,
    121,
    122,
    123,
    124,
    125,
    126,
    127,
    128,
    129,
    130,
    131,
    132,
    133,
    134,
    135,
    136,
    137,
    138,
    139,
    140,
    141,
    142,
    143,
    144,
    145,
    146,
    147,
    148,
    149,
    150,
    151,
    152,
    153,
    154,
    155,
    156,
    157,
    158,
    159,
    160,
    161,
    162,
    163,
    164,
    165,
    166,
    167,
    168,
    169,
    170,
    171,
    172,
    173,
    174,
    175,
    176,
    177,
    178,
    179,
    180,
    181,
    182,
    183,
    184,
    185,
    186,
    187,
    188,
    189,
    190,
    191,
    192,
    193,
    194,
    195,
    196,
    197,
    198,
    199,
    200,
    201,
    202,
    203,
    204,
    205,
    206,
    207,
    208,
    209,
    210,
    211,
    212,
    213,
    214,
    215,
    216,
    217,
    218,
    219,
    220,
    221,
    222,
    223,
    224,
    225,
    226,
    227,
    228,
    229,
    230,
    231,
    232,
    233,
    234,
    235,
    236,
    237,
    238,
    239,
    240,
    241,
    242,
    243,
    244,
    245,
    246,
    247,
    248,
    249,
    250,
    251,
    252,
    253,
    254,
    255,
    256
   ],
   "AcquisitionTime": [
    "145136.800000",
    "145138.800000",
    "145140.800000",
    "145142.800000",
    "145144.800000",
    "145146.800000",
    "145148.800000",
    "145150.800000",
    "145152.800000",
    "145154.800000",
    "145156.800000",
    "145158.800000",
    "145200.800000",
    "145202.800000",
    "145204.800000",
    "145206.800000",
    "145208.800000",
    "145210.800000",
    "145212.800000",
    "145214.800000",
    "145216.800000",
    "145218.800000",
    "145220.800000",
    "145222.800000",
    "145224.800000",
    "145226.800000",
    "145228.800000",
    "145230.800000",
    "145232.800000",
    "145234.800000",
    "145236.800000",
    "145238.800000",
    "145240.800000",
    "145242.800000",
    "145244.800000",
    "145246.800000",
    "145248.800000",
    "145250.800000",
    "145252.800000",
    "145254.800000",
    "145256.800000",
    "145258.800000",
    "145300.800000",
    "145302.800000",
    "145304.800000",
    "145306.800000",
    "145308.800000",
    "145310.800000",
    "145312.800000",
    "145314.800000",
    "145316.800000",
    "145318.800000",
    "145320.800000",
    "145322.800000",
    "145324.800000",
    "145326.800000",
    "145328.800000",
    "145330.800000",
    "145332.800000",
    "145334.800000",
    "145336.800000",
    "145338.800000",
    "145340.800000",
    "145342.800000",
    "145344.800000",
    "145346.800000",
    "145348.800000",
    "145350.800000",
    "145352.800000",
    "145354.800000",
    "145356.800000",
    "145358.800000",
    "145400.800000",
    "145402.800000",
    "145404.800000",
    "145406.800000",
    "145408.800000",
    "145410.800000",
    "145412.800000",
    "145414.800000",
    "145416.800000",
    "145418.800000",
    "145420.800000",
    "145422.800000",
    "145424.800000",
    "145426.800000",
    "145428.800000",
    "145430.800000",
    "145432.800000",
    "145434.800000",
    "145436.800000",
    "145438.800000",
    "145440.800000",
    "145442.800000",
    "145444.800000",
    "145446.800000",
    "145448.800000",
    "145450.800000",
    "145452.800000",
    "145454.800000",
    "145456.800000",
    "145458.800000",
    "145500.800000",
    "145502.800000",
    "145504.800000",
    "145506.800000",
    "145508.800000",
    "145510.800000",
    "145512.800000",
    "145514.800000",
    "145516.800000",
    "145518.800000",
    "145520.800000",
    "145522.800000",
    "145524.800000",
    "145526.800000",
    "145528.800000",
    "145530.800000",
    "145532.800000",
    "145534.800000",
    "145536.800000",
    "145538.800000",
    "145540.800000",
    "145542.800000",
    "145544.800000",
    "145546.800000",
    "145548.800000",
    "145550.800000",
    "145552.800000",
    "145554.800000",
    "145556.800000",
    "145558.800000",
    "145600.800000",
    "145602.800000",
    "145604.800000",
    "145606.800000",
    "145608.800000",
    "145610.800000",
    "145612.800000",
    "145614.800000",
    "145616.800000",
    "145618.800000",
    "145620.800000",
    "145622.800000",
    "145624.800000",
    "145626.800000",
    "145628.800000",
    "145630.800000",
    "145632.800000",
    "145634.800000",
    "145636.800000",
    "145638.800000",
    "145640.800000",
    "145642.800000",
    "145644.800000",
    "145646.800000",
    "145648.800000",
    "145650.800000",
    "145652.800000",
    "145654.800000",
    "145656.800000",
    "145658.800000",
    "145700.800000",
    "145702.800000",
    "145704.800000",
    "145706.800000",
    "145708.800000",
    "145710.800000",
    "145712.800000",
    "145714.800000",
    "145716.800000",
    "145718.800000",
    "145720.800000",
    "145722.800000",
    "145724.800000",
    "145726.800000",
    "145728.800000",
    "145730.800000",
    "145732.800000",
    "145734.800000",
    "145736.800000",
    "145738.800000",
    "145740.800000",
    "145742.800000",
    "145744.800000",
    "145746.800000",
    "145748.800000",
    "145750.800000",
    "145752.800000",
    "145754.800000",
    "145756.800000",
    "145758.800000",
    "145800.800000",
    "145802.800000",
    "145804.800000",
    "145806.800000",
    "145808.800000",
    "145810.800000",
    "145812.800000",
    "145814.800000",
    "145816.800000",
    "145818.800000",
    "145820.800000",
    "145822.800000",
    "145824.800000",
    "145826.800000",
    "145828.800000",
    "145830.800000",
    "145832.800000",
    "145834.800000",
    "145836.800000",
    "145838.800000",
    "145840.800000",
    "145842.800000",
    "145844.800000",
    "145846.800000",
    "145848.800000",
    "145850.800000",
    "145852.800000",
    "145854.800000",
    "145856.800000",
    "145858.800000",
    "145900.800000",
    "145902.800000",
    "145904.800000",
    "145906.800000",
    "145908.800000",
    "145910.800000",
    "145912.800000",
    "145914.800000",
    "145916.800000",
    "145918.800000",
    "145920.800000",
    "145922.800000",
    "145924.800000",
    "145926.800000",
    "145928.800000",
    "145930.800000",
    "145932.800000",
    "145934.800000",
    "145936.800000",
    "145938.800000",
    "145940.800000",
    "145942.800000",
    "145944.800000",
    "145946.800000",
    "145948.800000",
    "145950.800000",
    "145952.800000",
    "145954.800000",
    "145956.800000",
    "145958.800000",
    "150000.800000",
    "150002.800000",
    "150004.800000",
    "150006.800000"
   ],
   "ContentTime": [
    "145138.938000",
    "145140.433000",
    "145142.434000",
    "145144.434000",
    "145146.434000",
    "145148.434000",
    "145150.433000",
    "145152.434000",
    "145154.433000",
    "145156.433000",
    "145158.433000",
    "145200.433000",
    "145202.433000",
    "145204.434000",
    "145206.434000",
    "145208.435000",
    "145210.433000",
    "145212.434000",
    "145214.434000",
    "145216.435000",
    "145218.434000",
    "145220.433000",
    "145222.433000",
    "145224.433000",
    "145226.434000",
    "145228.434000",
    "145230.434000",
    "145232.433000",
    "145234.433000",
    "145236.434000",
    "145238.433000",
    "145240.433000",
    "145242.433000",
    "145244.435000",
    "145246.434000",
    "145248.434000",
    "145250.434000",
    "145252.433000",
    "145254.434000",
    "145256.433000",
    "145258.434000",
    "145300.433000",
    "145302.433000",
    "145304.434000",
    "145306.434000",
    "145308.434000",
    "145310.434000",
    "145312.434000",
    "145314.433000",
    "145316.434000",
    "145318.434000",
    "145320.433000",
    "145322.433000",
    "145324.433000",
    "145326.433000",
    "145328.433000",
    "145330.434000",
    "145332.433000",
    "145334.433000",
    "145336.434000",
    "145338.433000",
    "145340.433000",
    "145342.433000",
    "145344.434000",
    "145346.434000",
    "145348.434000",
    "145350.433000",
    "145352.434000",
    "145354.434000",
    "145356.434000",
    "145358.434000",
    "145400.433000",
    "145402.433000",
    "145404.433000",
    "145406.433000",
    "145408.434000",
    "145410.434000",
    "145412.433000",
    "145414.433000",
    "145416.433000",
    "145418.434000",
    "145420.433000",
    "145422.434000",
    "145424.434000",
    "145426.434000",
    "145428.435000",
    "145430.434000",
    "145432.433000",
    "145434.434000",
    "145436.434000",
    "145438.434000",
    "145440.433000",
    "145442.434000",
    "145444.434000",
    "145446.434000",
    "145448.434000",
    "145450.434000",
    "145452.433000",
    "145454.433000",
    "145456.433000",
    "145458.433000",
    "145500.434000",
    "145502.433000",
    "145504.435000",
    "145506.433000",
    "145508.434000",
    "145510.433000",
    "145512.433000",
    "145514.433000",
    "145516.434000",
    "145518.433000",
    "145520.434000",
    "145522.433000",
    "145524.434000",
    "145526.434000",
    "145528.434000",
    "145530.434000",
    "145532.434000",
    "145534.433000",
    "145536.433000",
    "145538.435000",
    "145540.433000",
    "145542.433000",
    "145544.433000",
    "145546.434000",
    "145548.433000",
    "145550.434000",
    "145552.434000",
    "145554.433000",
    "145556.435000",
    "145558.434000",
    "145600.433000",
    "145602.433000",
    "145604.434000",
    "145606.433000",
    "145608.433000",
    "145610.433000",
    "145612.434000",
    "145614.434000",
    "145616.434000",
    "145618.433000",
    "145620.434000",
    "145622.434000",
    "145624.433000",
    "145626.434000",
    "145628.434000",
    "145630.434000",
    "145632.433000",
    "145634.434000",
    "145636.433000",
    "145638.433000",
    "145640.433000",
    "145642.433000",
    "145644.433000",
    "145646.433000",
    "145648.434000",
    "145650.434000",
    "145652.433000",
    "145654.434000",
    "145656.433000",
    "145658.433000",
    "145700.434000",
    "145702.433000",
    "145704.434000",
    "145706.435000",
    "145708.434000",
    "145710.433000",
    "145712.433000",
    "145714.433000",
    "145716.433000",
    "145718.434000",
    "145720.434000",
    "145722.434000",
    "145724.434000",
    "145726.433000",
    "145728.434000",
    "145730.433000",
    "145732.434000",
    "145734.433000",
    "145736.434000",
    "145738.433000",
    "145740.435000",
    "145742.434000",
    "145744.434000",
    "145746.434000",
    "145748.433000",
    "145750.433000",
    "145752.450000",
    "145754.434000",
    "145756.433000",
    "145758.435000",
    "145800.433000",
    "145802.434000",
    "145804.434000",
    "145806.433000",
    "145808.434000",
    "145810.434000",
    "145812.433000",
    "145814.434000",
    "145816.435000",
    "145818.433000",
    "145820.433000",
    "145822.454000",
    "145824.434000",
    "145826.433000",
    "145828.434000",
    "145830.433000",
    "145832.434000",
    "145834.435000",
    "145836.433000",
    "145838.434000",
    "145840.434000",
    "145842.433000",
    "145844.434000",
    "145846.434000",
    "145848.433000",
    "145850.435000",
    "145852.434000",
    "145854.434000",
    "145856.433000",
    "145858.434000",
    "145900.434000",
    "145902.434000",
    "145904.433000",
    "145906.434000",
    "145908.434000",
    "145910.434000",
    "145912.433000",
    "145914.433000",
    "145916.434000",
    "145918.433000",
    "145920.434000",
    "145922.433000",
    "145924.434000",
    "145926.434000",
    "145928.434000",
    "145930.434000",
    "145932.434000",
    "145934.434000",
    "145936.434000",
    "145938.434000",
    "145940.433000",
    "145942.433000",
    "145944.434000",
    "145946.434000",
    "145948.434000",
    "145950.434000",
    "145952.434000",
    "145954.433000",
    "145956.434000",
    "145958.434000",
    "150000.435000",
    "150002.434000",
    "150004.433000",
    "150006.434000",
    "150008.196000"
   ],
   "InstanceCreationTime": [
    "145138.938000",
    "145140.433000",
    "145142.434000",
    "145144.434000",
    "145146.434000",
    "145148.434000",
    "145150.433000",
    "145152.434000",
    "145154.433000",
    "145156.433000",
    "145158.433000",
    "145200.433000",
    "145202.433000",
    "145204.434000",
    "145206.434000",
    "145208.435000",
    "145210.433000",
    "145212.434000",
    "145214.434000",
    "145216.435000",
    "145218.434000",
    "145220.433000",
    "145222.433000",
    "145224.433000",
    "145226.434000",
    "145228.434000",
    "145230.434000",
    "145232.433000",
    "145234.433000",
    "145236.434000",
    "145238.433000",
    "145240.433000",
    "145242.433000",
    "145244.435000",
    "145246.434000",
    "145248.434000",
    "145250.434000",
    "145252.433000",
    "145254.434000",
    "145256.433000",
    "145258.434000",
    "145300.433000",
    "145302.433000",
    "145304.434000",
    "145306.434000",
    "145308.434000",
    "145310.434000",
    "145312.434000",
    "145314.433000",
    "145316.434000",
    "145318.434000",
    "145320.433000",
    "145322.433000",
    "145324.433000",
    "145326.433000",
    "145328.433000",
    "145330.434000",
    "145332.433000",
    "145334.433000",
    "145336.434000",
    "145338.433000",
    "145340.433000",
    "145342.433000",
    "145344.434000",
    "145346.434000",
    "145348.434000",
    "145350.433000",
    "145352.434000",
    "145354.434000",
    "145356.434000",
    "145358.434000",
    "145400.433000",
    "145402.433000",
    "145404.433000",
    "145406.433000",
    "145408.434000",
    "145410.434000",
    "145412.433000",
    "145414.433000",
    "145416.433000",
    "145418.434000",
    "145420.433000",
    "145422.434000",
    "145424.434000",
    "145426.434000",
    "145428.435000",
    "145430.434000",
    "145432.433000",
    "145434.434000",
    "145436.434000",
    "145438.434000",
    "145440.433000",
    "145442.434000",
    "145444.434000",
    "145446.434000",
    "145448.434000",
    "145450.434000",
    "145452.433000",
    "145454.433000",
    "145456.433000",
    "145458.433000",
    "145500.434000",
    "145502.433000",
    "145504.435000",
    "145506.433000",
    "145508.434000",
    "145510.433000",
    "145512.433000",
    "145514.433000",
    "145516.434000",
    "145518.433000",
    "145520.434000",
    "145522.433000",
    "145524.434000",
    "145526.434000",
    "145528.434000",
    "145530.434000",
    "145532.434000",
    "145534.433000",
    "145536.433000",
    "145538.435000",
    "145540.433000",
    "145542.433000",
    "145544.433000",
    "145546.434000",
    "145548.433000",
    "145550.434000",
    "145552.434000",
    "145554.433000",
    "145556.435000",
    "145558.434000",
    "145600.433000",
    "145602.433000",
    "145604.434000",
    "145606.433000",
    "145608.433000",
    "145610.433000",
    "145612.434000",
    "145614.434000",
    "145616.434000",
    "145618.433000",
    "145620.434000",
    "145622.434000",
    "145624.433000",
    "145626.434000",
    "145628.434000",
    "145630.434000",
    "145632.433000",
    "145634.434000",
    "145636.433000",
    "145638.433000",
    "145640.433000",
    "145642.433000",
    "145644.433000",
    "145646.433000",
    "145648.434000",
    "145650.434000",
    "145652.433000",
    "145654.434000",
    "145656.433000",
    "145658.433000",
    "145700.434000",
    "145702.433000",
    "145704.434000",
    "145706.435000",
    "145708.434000",
    "145710.433000",
    "145712.433000",
    "145714.433000",
    "145716.433000",
    "145718.434000",
    "145720.434000",
    "145722.434000",
    "145724.434000",
    "145726.433000",
    "145728.434000",
    "145730.433000",
    "145732.434000",
    "145734.433000",
    "145736.434000",
    "145738.433000",
    "145740.435000",
    "145742.434000",
    "145744.434000",
    "145746.434000",
    "145748.433000",
    "145750.433000",
    "145752.450000",
    "145754.434000",
    "145756.433000",
    "145758.435000",
    "145800.433000",
    "145802.434000",
    "145804.434000",
    "145806.433000",
    "145808.434000",
    "145810.434000",
    "145812.433000",
    "145814.434000",
    "145816.435000",
    "145818.433000",
    "145820.433000",
    "145822.454000",
    "145824.434000",
    "145826.433000",
    "145828.434000",
    "145830.433000",
    "145832.434000",
    "145834.435000",
    "145836.433000",
    "145838.434000",
    "145840.434000",
    "145842.433000",
    "145844.434000",
    "145846.434000",
    "145848.433000",
    "145850.435000",
    "145852.434000",
    "145854.434000",
    "145856.433000",
    "145858.434000",
    "145900.434000",
    "145902.434000",
    "145904.433000",
    "145906.434000",
    "145908.434000",
    "145910.434000",
    "145912.433000",
    "145914.433000",
    "145916.434000",
    "145918.433000",
    "145920.434000",
    "145922.433000",
    "145924.434000",
    "145926.434000",
    "145928.434000",
    "145930.434000",
    "145932.434000",
    "145934.434000",
    "145936.434000",
    "145938.434000",
    "145940.433000",
    "145942.433000",
    "145944.434000",
    "145946.434000",
    "145948.434000",
    "145950.434000",
    "145952.434000",
    "145954.433000",
    "145956.434000",
    "145958.434000",
    "150000.435000",
    "150002.434000",
    "150004.433000",
    "150006.434000",
    "150008.196000"
   ],
   "InstanceNumber": [
    1,
    2,
    3,
    4,
    5,
    6,
    7,
    8,
    9,
    10,
    11,
    12,
    13,
    14,
    15,
    16,
    17,
    18,
    19,
    20,
    21,
    22,
    23,
    24,
    25,
    26,
    27,
    28,
    29,
    30,
    31,
    32,
    33,
    34,
    35,
    36,
    37,
    38,
    39,
    40,
    41,
    42,
    43,
    44,
    45,
    46,
    47,
    48,
    49,
    50,
    51,
    52,
    53,
    54,
    55,
    56,
    57,
    58,
    59,
    60,
    61,
    62,
    63,
    64,
    65,
    66,
    67,
    68,
    69,
    70,
    71,
    72,
    73,
    74,
    75,
    76,
    77,
    78,
    79,
    80,
    81,
    82,
    83,
    84,
    85,
    86,
    87,
    88,
    89,
    90,
    91,
    92,
    93,
    94,
    95,
    96,
    97,
    98,
    99,
    100,
    101,
    102,
    103,
    104,
    105,
    106,
    107,
    108,
    109,
    110,
    111,
    112,
    113,
    114,
    115,
    116,
    117,
    118,
    119,
    120,
    121,
    122,
    123,
    124,
    125,
    126,
    127,
    128,
    129,
    130,
    131,
    132,
    133,
    134,
    135,
    136,
    137,
    138,
    139,
    140,
    141,
    142,
    143,
    144,
    145,
    146,
    147,
    148,
    149,
    150,
    151,
    152,
    153,
    154,
    155,
    156,
    157,
    158,
    159,
    160,
    161,
    162,
    163,
    164,
    165,
    166,
    167,
    168,
    169,
    170,
    171,
    172,
    173,
    174,
    175,
    176,
    177,
    178,
    179,
    180,
    181,
    182,
    183,
    184,
    185,
    186,
    187,
    188,
    189,
    190,
    191,
    192,
    193,
    194,
    195,
    196,
    197,
    198,
    199,
    200,
    201,
    202,
    203,
    204,
    205,
    206,
    207,
    208,
    209,
    210,
    211,
    212,
    213,
    214,
    215,
    216,
    217,
    218,
    219,
    220,
    221,
    222,
    223,
    224,
    225,
    226,
    227,
    228,
    229,
    230,
    231,
    232,
    233,
    234,
    235,
    236,
    237,
    238,
    239,
    240,
    241,
    242,
    243,
    244,
    245,
    246,
    247,
    248,
    249,
    250,
    251,
    252,
    253,
    254,
    255,
    256
   ],
   "LargestImagePixelValue": [
    3342,
    3313,
    3265,
    3278,
    3286,
    3236,
    3264,
    3314,
    3289,
    3280,
    3297,
    3299,
    3374,
    3158,
    3116,
    3150,
    3235,
    3222,
    3192,
    3225,
    3249,
    3191,
    3283,
    3212,
    3235,
    3276,
    3248,
    3234,
    3286,
    3264,
    3220,
    3266,
    3214,
    3241,
    3329,
    3251,
    3249,
    3312,
    3253,
    3262,
    3283,
    3303,
    3290,
    3269,
    3269,
    3300,
    3256,
    3275,
    3299,
    3288,
    3278,
    3251,
    3292,
    3283,
    3293,
    3260,
    3293,
    3322,
    3290,
    3244,
    3313,
    3245,
    3344,
    3273,
    3295,
    3299,
    3251,
    3299,
    3321,
    3343,
    3293,
    3362,
    3315,
    3314,
    3305,
    3299,
    3289,
    3354,
    3278,
    3331,
    3342,
    3313,
    3341,
    3346,
    3305,
    3298,
    3346,
    3323,
    3311,
    3336,
    3332,
    3319,
    3318,
    3311,
    3343,
    3352,
    3292,
    3332,
    3291,
    3310,
    3324,
    3321,
    3320,
    3341,
    3341,
    3326,
    3330,
    3342,
    3307,
    3327,
    3285,
    3322,
    3306,
    3306,
    3327,
    3325,
    3298,
    3302,
    3330,
    3327,
    3321,
    3312,
    3306,
    3305,
    3332,
    3339,
    3315,
    3330,
    3296,
    3345,
    3377,
    3325,
    3290,
    3320,
    3299,
    3339,
    3337,
    3313,
    3353,
    3347,
    3348,
    3330,
    3308,
    3342,
    3316,
    3306,
    3261,
    3289,
    3291,
    3292,
    3299,
    3306,
    3284,
    3317,
    3283,
    3333,
    3285,
    3259,
    3293,
    3297,
    3299,
    3275,
    3290,
    3241,
    3305,
    3247,
    3266,
    3280,
    3264,
    3281,
    3295,
    3255,
    3232,
    3284,
    3260,
    3269,
    3264,
    3253,
    3232,
    3251,
    3304,
    3245,
    3273,
    3292,
    3255,
    3272,
    3281,
    3260,
    3296,
    3294,
    3247,
    3306,
    3309,
    3276,
    3303,
    3312,
    3280,
    3298,
    3275,
    3290,
    3283,
    3240,
    3262,
    3274,
    3247,
    3285,
    3275,
    3298,
    3307,
    3256,
    3251,
    3288,
    3270,
    3278,
    3274,
    3248,
    3281,
    3285,
    3268,
    3267,
    3293,
    3270,
    3300,
    3330,
    3287,
    3265,
    3289,
    3278,
    3264,
    3265,
    3260,
    3290,
    3278,
    3268,
    3268,
    3259,
    3287,
    3296,
    3257,
    3302,
    3264,
    3321,
    3278,
    3213,
    3224,
    3291,
    3281,
    3303,
    3289,
    3271,
    3291,
    3291,
    3257,
    3295,
    3276,
    3281
   ],
   "WindowCenter": [
    775.0,
    774.0,
    772.0,
    773.0,
    774.0,
    774.0,
    773.0,
    772.0,
    772.0,
    773.0,
    773.0,
    773.0,
    774.0,
    772.0,
    771.0,
    771.0,
    770.0,
    770.0,
    770.0,
    771.0,
    771.0,
    771.0,
    771.0,
    771.0,
    771.0,
    772.0,
    772.0,
    772.0,
    772.0,
    771.0,
    771.0,
    773.0,
    772.0,
    772.0,
    772.0,
    771.0,
    771.0,
    772.0,
    772.0,
    772.0,
    772.0,
    772.0,
    772.0,
    771.0,
    771.0,
    771.0,
    770.0,
    770.0,
    771.0,
    772.0,
    772.0,
    771.0,
    770.0,
    770.0,
    770.0,
    770.0,
    770.0,
    771.0,
    771.0,
    771.0,
    771.0,
    769.0,
    771.0,
    771.0,
    773.0,
    772.0,
    771.0,
    771.0,
    770.0,
    773.0,
    773.0,
    773.0,
    772.0,
    772.0,
    771.0,
    771.0,
    771.0,
    772.0,
    771.0,
    771.0,
    771.0,
    771.0,
    772.0,
    773.0,
    772.0,
    771.0,
    772.0,
    772.0,
    772.0,
    772.0,
    772.0,
    772.0,
    772.0,
    772.0,
    773.0,
    773.0,
    773.0,
    773.0,
    772.0,
    772.0,
    772.0,
    772.0,
    772.0,
    772.0,
    771.0,
    771.0,
    771.0,
    772.0,
