{
  "AcquisitionMatrixPE": 100,
  "AcquisitionNumber": 1,
  "AcquisitionTime": "14:32:43.295000",
  "BandwidthPerPixelPhaseEncode": 18.519,
  "BaseResolution": 100,
  "BodyPartExamined": "BRAIN",
  "ConsistencyInfo": "N4_VE11C_LATEST_20160120",
  "ConversionSoftware": "dcm2niix",
  "ConversionSoftwareVersion": "v1.0.20180622 GCC4.9.2",
  "DerivedVendorReportedEchoSpacing": 0.000539986,
  "DeviceSerialNumber": "166078",
  "DwellTime": 2.1e-06,
  "EchoTime": 0.034,
  "EchoTrainLength": 100,
  "EffectiveEchoSpacing": 0.000539986,
  "FlipAngle": 90,
  "ImageOrientationPatientDICOM": [0.999997, -0.00016969, -0.00242854, -2.63927e-08, 0.997567, -0.0697142],
  "ImageType": [
    "ORIGINAL",
    "PRIMARY",
    "M",
    "ND",
    "MOSAIC"
],
  "InPlanePhaseEncodingDirectionDICOM": "COL",
  "InstitutionAddress": "Street_StreetNo_Bei_Jing_District_CN_ZIP",
  "InstitutionName": "BeiJing_Normal_University",
  "InstitutionalDepartmentName": "Department",
  "MRAcquisitionType": "2D",
  "MagneticFieldStrength": 3,
  "Manufacturer": "Siemens",
  "ManufacturersModelName": "Prisma",
  "Modality": "MR",
  "MultibandAccelerationFactor": 3,
  "PartialFourier": 1,
  "PatientPosition": "HFS",
  "PercentPhaseFOV": 100,
  "PhaseEncodingDirection": "j-",
  "PhaseEncodingSteps": 100,
  "PhaseResolution": 1,
  "PixelBandwidth": 2380,
  "ProcedureStepDescription": "BNU_P2018_64CH_Zhen.ZongLei",
  "ProtocolName": "bold_100x100_s3_2x2x2_static_256",
  "PulseSequenceDetails": "%SiemensSeq%_ep2d_bold",
  "ReceiveCoilActiveElements": "HC1-7;NC1",
  "ReceiveCoilName": "HeadNeck_64",
  "ReconMatrixPE": 100,
  "RepetitionTime": 2,
  "SAR": 0.0732489,
  "ScanOptions": "FS",
  "ScanningSequence": "EP",
  "SequenceName": "_epfid2d1_100",
  "SequenceVariant": "SK",
  "SeriesDescription": "bold_100x100_s3_2x2x2_static_256",
  "SeriesNumber": 14,
  "ShimSetting": [-5444, -11503, -1290, 509, 13, -153, -12, 62],
  "SliceThickness": 2,
  "SliceTiming": [1.485, 0, 0.99, 0.0825, 1.0725, 0.165, 1.155, 0.2475, 1.2375, 0.33, 1.32, 0.4125, 1.4025, 0.5775, 1.5675, 0.66, 1.65, 0.7425, 1.7325, 0.825, 1.815, 0.9075, 1.8975, 0.495, 1.485, 0, 0.99, 0.0825, 1.0725, 0.165, 1.155, 0.2475, 1.2375, 0.33, 1.32, 0.4125, 1.4025, 0.5775, 1.5675, 0.66, 1.65, 0.7425, 1.7325, 0.825, 1.815, 0.9075, 1.8975, 0.495, 1.485, 0, 0.99, 0.0825, 1.0725, 0.165, 1.155, 0.2475, 1.2375, 0.33, 1.32, 0.4125, 1.4025, 0.5775, 1.5675, 0.66, 1.65, 0.7425, 1.7325, 0.825, 1.815, 0.9075, 1.8975, 0.495],
  "SoftwareVersions": "syngo_MR_E11",
  "SpacingBetweenSlices": 2,
  "StationName": "AWP166078",
  "TaskName": "naturalvision",
  "TotalReadoutTime": 0.0534586,
  "TxRefAmp": 209.577,
  "dcmmeta_affine": [
    [-1.9999940395355225, -5.2785381399189646e-08, -0.004868932068347931, 101.43583679199219],
    [0.00033938096021302044, 1.9951339960098267, -0.13942795991897583, -92.0417251586914],
    [-0.0048570893704891205, 0.13942837715148926, 1.9951281547546387, -72.13668060302734],
    [0.0, 0.0, 0.0, 1.0]
],
  "dcmmeta_reorient_transform": [
    [0.0, -1.0, 0.0, 99.0],
    [1.0, 0.0, 0.0, 0.0],
    [0.0, 0.0, 1.0, 0.0],
    [0.0, 0.0, 0.0, 1.0]
],
  "dcmmeta_shape": [100, 100, 72, 256],
  "dcmmeta_slice_dim": 2,
  "dcmmeta_version": 0.6,
  "global": {
    "const": {
      "AcquisitionMatrix": [100, 0, 0, 100],
      "AngioFlag": "N",
      "BitsAllocated": 16,
      "BitsStored": 12,
      "BodyPartExamined": "BRAIN",
      "Columns": 900,
      "EchoNumbers": 1,
      "EchoTime": 34.0,
      "EchoTrainLength": 100,
      "FlipAngle": 90.0,
      "HighBit": 11,
      "ImageOrientationPatient": [0.99999703668354, -0.0001696904791, -0.0024285446837, -2.639269e-08, 0.99756700640291, -0.0697141860481],
      "ImagePositionPatient": [-901.43344312331, -903.39439596927, -0.6190887281293],
      "ImageType": [
        "ORIGINAL",
        "PRIMARY",
        "M",
        "ND",
        "MOSAIC"
],
      "ImagedNucleus": "1H",
      "ImagingFrequency": 123.257779,
      "InPlanePhaseEncodingDirection": "COL",
      "MRAcquisitionType": "2D",
      "MagneticFieldStrength": 3.0,
      "Manufacturer": "SIEMENS",
      "ManufacturerModelName": "Prisma",
      "Modality": "MR",
      "NumberOfAverages": 1.0,
      "NumberOfPhaseEncodingSteps": 100,
      "PercentPhaseFieldOfView": 100.0,
      "PercentSampling": 100.0,
      "PerformedProcedureStepStartTime": "130856.311000",
      "PhotometricInterpretation": "MONOCHROME2",
      "PixelBandwidth": 2380.0,
      "PixelRepresentation": 0,
      "PixelSpacing": [2.0, 2.0],
      "ProtocolName": "bold_100x100_s3_2x2x2_static_256",
      "RepetitionTime": 2000.0,
      "Rows": 900,
      "SAR": 0.07324894248608,
      "SamplesPerPixel": 1,
      "ScanOptions": "FS",
      "ScanningSequence": "EP",
      "SequenceName": "*epfid2d1_100",
      "SequenceVariant": "SK",
      "SeriesDescription": "bold_100x100_s3_2x2x2_static_256",
      "SeriesNumber": 14,
      "SeriesTime": "143245.887000",
      "SliceLocation": -65.791308048181,
      "SliceThickness": 2.0,
      "SmallestImagePixelValue": 0,
      "SoftwareVersions": "syngo MR E11",
      "SpacingBetweenSlices": 2.0000000472335,
      "SpecificCharacterSet": "ISO_IR 100",
      "StudyID": "1",
      "StudyTime": "130856.194000",
      "TransmitCoilName": "Body",
      "VariableFlipAngleFlag": "N",
      "WindowCenterWidthExplanation": "Algo1",
      "dBdt": 0.0},
    "slices": {}
  },
  "time": {
    "samples": {
      "AcquisitionNumber": [1, 2, 3, 4, 5, 6, 7, 8, 9, 10, 11, 12, 13, 14, 15, 16, 17, 18, 19, 20, 21, 22, 23, 24, 25, 26, 27, 28, 29, 30, 31, 32, 33, 34, 35, 36, 37, 38, 39, 40, 41, 42, 43, 44, 45, 46, 47, 48, 49, 50, 51, 52, 53, 54, 55, 56, 57, 58, 59, 60, 61, 62, 63, 64, 65, 66, 67, 68, 69, 70, 71, 72, 73, 74, 75, 76, 77, 78, 79, 80, 81, 82, 83, 84, 85, 86, 87, 88, 89, 90, 91, 92, 93, 94, 95, 96, 97, 98, 99, 100, 101, 102, 103, 104, 105, 106, 107, 108, 109, 110, 111, 112, 113, 114, 115, 116, 117, 118, 119, 120, 121, 122, 123, 124, 125, 126, 127, 128, 129, 130, 131, 132, 133, 134, 135, 136, 137, 138, 139, 140, 141, 142, 143, 144, 145, 146, 147, 148, 149, 150, 151, 152, 153, 154, 155, 156, 157, 158, 159, 160, 161, 162, 163, 164, 165, 166, 167, 168, 169, 170, 171, 172, 173, 174, 175, 176, 177, 178, 179, 180, 181, 182, 183, 184, 185, 186, 187, 188, 189, 190, 191, 192, 193, 194, 195, 196, 197, 198, 199, 200, 201, 202, 203, 204, 205, 206, 207, 208, 209, 210, 211, 212, 213, 214, 215, 216, 217, 218, 219, 220, 221, 222, 223, 224, 225, 226, 227, 228, 229, 230, 231, 232, 233, 234, 235, 236, 237, 238, 239, 240, 241, 242, 243, 244, 245, 246, 247, 248, 249, 250, 251, 252, 253, 254, 255, 256],
      "AcquisitionTime": ["143243.295000", "143245.295000", "143247.295000", "143249.295000", "143251.295000", "143253.295000", "143255.295000", "143257.295000", "143259.295000", "143301.295000", "143303.295000", "143305.295000", "143307.295000", "143309.295000", "143311.295000", "143313.295000", "143315.295000", "143317.295000", "143319.295000", "143321.295000", "143323.295000", "143325.295000", "143327.295000", "143329.295000", "143331.295000", "143333.295000", "143335.295000", "143337.295000", "143339.295000", "143341.295000", "143343.295000", "143345.295000", "143347.295000", "143349.295000", "143351.295000", "143353.295000", "143355.295000", "143357.295000", "143359.295000", "143401.295000", "143403.295000", "143405.295000", "143407.295000", "143409.295000", "143411.295000", "143413.295000", "143415.295000", "143417.295000", "143419.295000", "143421.295000", "143423.295000", "143425.295000", "143427.295000", "143429.295000", "143431.295000", "143433.295000", "143435.295000", "143437.295000", "143439.295000", "143441.295000", "143443.295000", "143445.295000", "143447.295000", "143449.295000", "143451.295000", "143453.295000", "143455.295000", "143457.295000", "143459.295000", "143501.295000", "143503.295000", "143505.295000", "143507.295000", "143509.295000", "143511.295000", "143513.295000", "143515.295000", "143517.295000", "143519.295000", "143521.295000", "143523.295000", "143525.295000", "143527.295000", "143529.295000", "143531.295000", "143533.295000", "143535.295000", "143537.295000", "143539.295000", "143541.295000", "143543.295000", "143545.295000", "143547.295000", "143549.295000", "143551.295000", "143553.295000", "143555.295000", "143557.295000", "143559.295000", "143601.295000", "143603.295000", "143605.295000", "143607.295000", "143609.295000", "143611.295000", "143613.295000", "143615.295000", "143617.295000", "143619.295000", "143621.295000", "143623.295000", "143625.295000", "143627.295000", "143629.295000", "143631.295000", "143633.295000", "143635.295000", "143637.295000", "143639.295000", "143641.295000", "143643.295000", "143645.295000", "143647.295000", "143649.295000", "143651.295000", "143653.295000", "143655.295000", "143657.295000", "143659.295000", "143701.295000", "143703.295000", "143705.295000", "143707.295000", "143709.295000", "143711.295000", "143713.295000", "143715.295000", "143717.295000", "143719.295000", "143721.295000", "143723.295000", "143725.295000", "143727.295000", "143729.295000", "143731.295000", "143733.295000", "143735.295000", "143737.295000", "143739.295000", "143741.295000", "143743.295000", "143745.295000", "143747.295000", "143749.295000", "143751.295000", "143753.295000", "143755.295000", "143757.295000", "143759.295000", "143801.295000", "143803.295000", "143805.295000", "143807.295000", "143809.295000", "143811.295000", "143813.295000", "143815.295000", "143817.295000", "143819.295000", "143821.295000", "143823.295000", "143825.295000", "143827.295000", "143829.295000", "143831.295000", "143833.295000", "143835.295000", "143837.295000", "143839.295000", "143841.295000", "143843.295000", "143845.295000", "143847.295000", "143849.295000", "143851.295000", "143853.295000", "143855.295000", "143857.295000", "143859.295000", "143901.295000", "143903.295000", "143905.295000", "143907.295000", "143909.295000", "143911.295000", "143913.295000", "143915.295000", "143917.295000", "143919.295000", "143921.295000", "143923.295000", "143925.295000", "143927.295000", "143929.295000", "143931.295000", "143933.295000", "143935.295000", "143937.295000", "143939.295000", "143941.295000", "143943.295000", "143945.295000", "143947.295000", "143949.295000", "143951.295000", "143953.295000", "143955.295000", "143957.295000", "143959.295000", "144001.295000", "144003.295000", "144005.295000", "144007.295000", "144009.295000", "144011.295000", "144013.295000", "144015.295000", "144017.295000", "144019.295000", "144021.295000", "144023.295000", "144025.295000", "144027.295000", "144029.295000", "144031.295000", "144033.295000", "144035.295000", "144037.295000", "144039.295000", "144041.295000", "144043.295000", "144045.295000", "144047.295000", "144049.295000", "144051.295000", "144053.295000", "144055.295000", "144057.295000", "144059.295000", "144101.295000", "144103.295000", "144105.295000", "144107.295000", "144109.295000", "144111.295000", "144113.295000"],
      "ContentTime": ["143245.891000", "143247.386000", "143249.386000", "143251.386000", "143253.386000", "143255.388000", "143257.386000", "143259.387000", "143301.407000", "143303.386000", "143305.386000", "143307.387000", "143309.387000", "143311.386000", "143313.387000", "143315.387000", "143317.386000", "143319.386000", "143321.387000", "143323.387000", "143325.386000", "143327.386000", "143329.387000", "143331.388000", "143333.386000", "143335.387000", "143337.386000", "143339.387000", "143341.387000", "143343.387000", "143345.387000", "143347.388000", "143349.388000", "143351.386000", "143353.386000", "143355.386000", "143357.386000", "143359.386000", "143401.387000", "143403.387000", "143405.388000", "143407.386000", "143409.386000", "143411.386000", "143413.387000", "143415.406000", "143417.386000", "143419.386000", "143421.386000", "143423.387000", "143425.386000", "143427.387000", "143429.387000", "143431.386000", "143433.386000", "143435.387000", "143437.386000", "143439.407000", "143441.388000", "143443.387000", "143445.386000", "143447.386000", "143449.386000", "143451.387000", "143453.386000", "143455.386000", "143457.387000", "143459.387000", "143501.386000", "143503.386000", "143505.387000", "143507.386000", "143509.386000", "143511.386000", "143513.386000", "143515.387000", "143517.386000", "143519.387000", "143521.386000", "143523.386000", "143525.387000", "143527.386000", "143529.387000", "143531.387000", "143533.388000", "143535.387000", "143537.386000", "143539.386000", "143541.386000", "143543.386000", "143545.386000", "143547.386000", "143549.387000", "143551.387000", "143553.386000", "143555.386000", "143557.386000", "143559.387000", "143601.386000", "143603.386000", "143605.387000", "143607.387000", "143609.387000", "143611.386000", "143613.387000", "143615.386000", "143617.387000", "143619.386000", "143621.386000", "143623.387000", "143625.388000", "143627.387000", "143629.386000", "143631.386000", "143633.387000", "143635.386000", "143637.386000", "143639.386000", "143641.386000", "143643.388000", "143645.386000", "143647.387000", "143649.386000", "143651.386000", "143653.386000", "143655.387000", "143657.387000", "143659.387000", "143701.387000", "143703.386000", "143705.386000", "143707.386000", "143709.387000", "143711.386000", "143713.386000", "143715.386000", "143717.387000", "143719.387000", "143721.386000", "143723.386000", "143725.386000", "143727.387000", "143729.386000", "143731.386000", "143733.386000", "143735.387000", "143737.387000", "143739.387000", "143741.386000", "143743.387000", "143745.386000", "143747.386000", "143749.386000", "143751.387000", "143753.395000", "143755.387000", "143757.387000", "143759.387000", "143801.386000", "143803.386000", "143805.386000", "143807.387000", "143809.387000", "143811.387000", "143813.387000", "143815.387000", "143817.386000", "143819.386000", "143821.387000", "143823.386000", "143825.406000", "143827.387000", "143829.388000", "143831.387000", "143833.386000", "143835.387000", "143837.386000", "143839.386000", "143841.386000", "143843.387000", "143845.387000", "143847.386000", "143849.387000", "143851.386000", "143853.386000", "143855.387000", "143857.386000", "143859.387000", "143901.387000", "143903.388000", "143905.386000", "143907.387000", "143909.386000", "143911.386000", "143913.386000", "143915.387000", "143917.386000", "143919.388000", "143921.387000", "143923.387000", "143925.387000", "143927.387000", "143929.387000", "143931.386000", "143933.386000", "143935.386000", "143937.388000", "143939.387000", "143941.386000", "143943.387000", "143945.387000", "143947.407000", "143949.387000", "143951.386000", "143953.386000", "143955.388000", "143957.387000", "143959.387000", "144001.387000", "144003.386000", "144005.387000", "144007.386000", "144009.387000", "144011.388000", "144013.388000", "144015.387000", "144017.386000", "144019.386000", "144021.387000", "144023.386000", "144025.386000", "144027.386000", "144029.388000", "144031.388000", "144033.387000", "144035.387000", "144037.386000", "144039.386000", "144041.386000", "144043.386000", "144045.387000", "144047.387000", "144049.387000", "144051.386000", "144053.386000", "144055.387000", "144057.387000", "144059.387000", "144101.386000", "144103.386000", "144105.387000", "144107.386000", "144109.386000", "144111.387000", "144113.386000", "144115.143000"],
      "InstanceCreationTime": ["143245.891000", "143247.386000", "143249.386000", "143251.386000", "143253.386000", "143255.388000", "143257.386000", "143259.387000", "143301.407000", "143303.386000", "143305.386000", "143307.387000", "143309.387000", "143311.386000", "143313.387000", "143315.387000", "143317.386000", "143319.386000", "143321.387000", "143323.387000", "143325.386000", "143327.386000", "143329.387000", "143331.388000", "143333.386000", "143335.387000", "143337.386000", "143339.387000", "143341.387000", "143343.387000", "143345.387000", "143347.388000", "143349.388000", "143351.386000", "143353.386000", "143355.386000", "143357.386000", "143359.386000", "143401.387000", "143403.387000", "143405.388000", "143407.386000", "143409.386000", "143411.386000", "143413.387000", "143415.406000", "143417.386000", "143419.386000", "143421.386000", "143423.387000", "143425.386000", "143427.387000", "143429.387000", "143431.386000", "143433.386000", "143435.387000", "143437.386000", "143439.407000", "143441.388000", "143443.387000", "143445.386000", "143447.386000", "143449.386000", "143451.387000", "143453.386000", "143455.386000", "143457.387000", "143459.387000", "143501.386000", "143503.386000", "143505.387000", "143507.386000", "143509.386000", "143511.386000", "143513.386000", "143515.387000", "143517.386000", "143519.387000", "143521.386000", "143523.386000", "143525.387000", "143527.386000", "143529.387000", "143531.387000", "143533.388000", "143535.387000", "143537.386000", "143539.386000", "143541.386000", "143543.386000", "143545.386000", "143547.386000", "143549.387000", "143551.387000", "143553.386000", "143555.386000", "143557.386000", "143559.387000", "143601.386000", "143603.386000", "143605.387000", "143607.387000", "143609.387000", "143611.386000", "143613.387000", "143615.386000", "143617.387000", "143619.386000", "143621.386000", "143623.387000", "143625.388000", "143627.387000", "143629.386000", "143631.386000", "143633.387000", "143635.386000", "143637.386000", "143639.386000", "143641.386000", "143643.388000", "143645.386000", "143647.387000", "143649.386000", "143651.386000", "143653.386000", "143655.387000", "143657.387000", "143659.387000", "143701.387000", "143703.386000", "143705.386000", "143707.386000", "143709.387000", "143711.386000", "143713.386000", "143715.386000", "143717.387000", "143719.387000", "143721.386000", "143723.386000", "143725.386000", "143727.387000", "143729.386000", "143731.386000", "143733.386000", "143735.387000", "143737.387000", "143739.387000", "143741.386000", "143743.387000", "143745.386000", "143747.386000", "143749.386000", "143751.387000", "143753.395000", "143755.387000", "143757.387000", "143759.387000", "143801.386000", "143803.386000", "143805.386000", "143807.387000", "143809.387000", "143811.387000", "143813.387000", "143815.387000", "143817.386000", "143819.386000", "143821.387000", "143823.386000", "143825.406000", "143827.387000", "143829.388000", "143831.387000", "143833.386000", "143835.387000", "143837.386000", "143839.386000", "143841.386000", "143843.387000", "143845.387000", "143847.386000", "143849.387000", "143851.386000", "143853.386000", "143855.387000", "143857.386000", "143859.387000", "143901.387000", "143903.388000", "143905.386000", "143907.387000", "143909.386000", "143911.386000", "143913.386000", "143915.387000", "143917.386000", "143919.388000", "143921.387000", "143923.387000", "143925.387000", "143927.387000", "143929.387000", "143931.386000", "143933.386000", "143935.386000", "143937.388000", "143939.387000", "143941.386000", "143943.387000", "143945.387000", "143947.407000", "143949.387000", "143951.386000", "143953.386000", "143955.388000", "143957.387000", "143959.387000", "144001.387000", "144003.386000", "144005.387000", "144007.386000", "144009.387000", "144011.388000", "144013.388000", "144015.387000", "144017.386000", "144019.386000", "144021.387000", "144023.386000", "144025.386000", "144027.386000", "144029.388000", "144031.388000", "144033.387000", "144035.387000", "144037.386000", "144039.386000", "144041.386000", "144043.386000", "144045.387000", "144047.387000", "144049.387000", "144051.386000", "144053.386000", "144055.387000", "144057.387000", "144059.387000", "144101.386000", "144103.386000", "144105.387000", "144107.386000", "144109.386000", "144111.387000", "144113.386000", "144115.143000"],
      "InstanceNumber": [1, 2, 3, 4, 5, 6, 7, 8, 9, 10, 11, 12, 13, 14, 15, 16, 17, 18, 19, 20, 21, 22, 23, 24, 25, 26, 27, 28, 29, 30, 31, 32, 33, 34, 35, 36, 37, 38, 39, 40, 41, 42, 43, 44, 45, 46, 47, 48, 49, 50, 51, 52, 53, 54, 55, 56, 57, 58, 59, 60, 61, 62, 63, 64, 65, 66, 67, 68, 69, 70, 71, 72, 73, 74, 75, 76, 77, 78, 79, 80, 81, 82, 83, 84, 85, 86, 87, 88, 89, 90, 91, 92, 93, 94, 95, 96, 97, 98, 99, 100, 101, 102, 103, 104, 105, 106, 107, 108, 109, 110, 111, 112, 113, 114, 115, 116, 117, 118, 119, 120, 121, 122, 123, 124, 125, 126, 127, 128, 129, 130, 131, 132, 133, 134, 135, 136, 137, 138, 139, 140, 141, 142, 143, 144, 145, 146, 147, 148, 149, 150, 151, 152, 153, 154, 155, 156, 157, 158, 159, 160, 161, 162, 163, 164, 165, 166, 167, 168, 169, 170, 171, 172, 173, 174, 175, 176, 177, 178, 179, 180, 181, 182, 183, 184, 185, 186, 187, 188, 189, 190, 191, 192, 193, 194, 195, 196, 197, 198, 199, 200, 201, 202, 203, 204, 205, 206, 207, 208, 209, 210, 211, 212, 213, 214, 215, 216, 217, 218, 219, 220, 221, 222, 223, 224, 225, 226, 227, 228, 229, 230, 231, 232, 233, 234, 235, 236, 237, 238, 239, 240, 241, 242, 243, 244, 245, 246, 247, 248, 249, 250, 251, 252, 253, 254, 255, 256],
      "LargestImagePixelValue": [3395, 3312, 3334, 3278, 3322, 3315, 3282, 3318, 3320, 3302, 3338, 3288, 3290, 3319, 3299, 3289, 3328, 3279, 3349, 3347, 3293, 3316, 3335, 3296, 3310, 3309, 3318, 3306, 3335, 3292, 3348, 3290, 3298, 3346, 3298, 3315, 3318, 3277, 3362, 3290, 3319, 3336, 3331, 3342, 3310, 3298, 3317, 3331, 3314, 3341, 3325, 3313, 3351, 3272, 3332, 3332, 3359, 3316, 3355, 3330, 3299, 3334, 3342, 3326, 3353, 3303, 3334, 3315, 3301, 3255, 3344, 3298, 3334, 3245, 3329, 3318, 3280, 3268, 3296, 3318, 3279, 3326, 3327, 3305, 3337, 3305, 3295, 3291, 3286, 3304, 3302, 3280, 3277, 3328, 3294, 3257, 3332, 3295, 3285, 3295, 3307, 3288, 3323, 3315, 3329, 3326, 3295, 3323, 3291, 3271, 3358, 3306, 3325, 3306, 3274, 3325, 3272, 3245, 3336, 3262, 3339, 3317, 3299, 3302, 3304, 3287, 3326, 3270, 3324, 3295, 3291, 3328, 3288, 3288, 3334, 3315, 3238, 3318, 3288, 3305, 3294, 3278, 3317, 3297, 3291, 3332, 3257, 3261, 3292, 3276, 3335, 3365, 3350, 3328, 3309, 3333, 3325, 3308, 3307, 3282, 3298, 3330, 3315, 3330, 3317, 3312, 3315, 3303, 3302, 3309, 3273, 3306, 3269, 3252, 3319, 3284, 3316, 3297, 3270, 3285, 3310, 3302, 3290, 3320, 3346, 3295, 3304, 3312, 3281, 3301, 3319, 3314, 3289, 3309, 3350, 3325, 3300, 3315, 3348, 3263, 3290, 3342, 3268, 3304, 3313, 3284, 3327, 3298, 3279, 3308, 3303, 3297, 3324, 3261, 3294, 3296, 3277, 3319, 3292, 3346, 3324, 3294, 3301, 3272, 3299, 3271, 3327, 3294, 3325, 3338, 3307, 3329, 3307, 3303, 3337, 3314, 3315, 3329, 3275, 3329, 3324, 3263, 3326, 3331, 3292, 3308, 3311, 3330, 3311, 3259, 3295, 3320, 3268, 3328, 3280, 3287],
      "WindowCenter": [775.0, 773.0, 772.0, 772.0, 772.0, 772.0, 771.0, 771.0, 772.0, 772.0, 772.0, 771.0, 772.0, 772.0, 771.0, 771.0, 771.0, 770.0, 770.0, 770.0, 770.0, 770.0, 770.0, 770.0, 771.0, 771.0, 771.0, 770.0, 770.0, 770.0, 771.0, 770.0, 770.0, 770.0, 770.0, 770.0, 770.0, 769.0, 771.0, 771.0, 771.0, 771.0, 770.0, 770.0, 770.0, 770.0, 771.0, 771.0, 771.0, 771.0, 771.0, 772.0, 772.0, 770.0, 769.0, 769.0, 770.0, 771.0, 771.0, 770.0, 770.0, 770.0, 771.0, 770.0, 771.0, 771.0, 772.0, 772.0, 771.0, 770.0, 771.0, 771.0, 772.0, 771.0, 771.0, 771.0, 771.0, 770.0, 771.0, 771.0, 770.0, 771.0, 771.0, 771.0, 771.0, 771.0, 771.0, 771.0, 771.0, 771.0, 771.0, 771.0, 771.0, 771.0, 771.0, 771.0, 772.0, 772.0, 772.0, 772.0, 772.0, 772.0, 771.0, 770.0, 769.0, 770.0, 771.0, 772.0, 771.0, 770.0, 772.0, 772.0, 772.0, 771.0, 771.0, 771.0, 771.0, 770.0, 771.0, 771.0, 772.0, 772.0, 772.0, 772.0, 771.0, 771.0, 771.0, 771.0, 771.0, 771.0, 771.0, 772.0, 772.0, 772.0, 772.0, 772.0, 771.0, 770.0, 770.0, 770.0, 770.0, 771.0, 772.0, 771.0, 771.0, 771.0, 771.0, 771.0, 772.0, 771.0, 770.0, 772.0, 772.0, 771.0, 770.0, 768.0, 767.0, 768.0, 770.0, 770.0, 771.0, 771.0, 771.0, 771.0, 771.0, 771.0, 772.0, 772.0, 773.0, 773.0, 772.0, 772.0, 772.0, 772.0, 772.0, 771.0, 772.0, 772.0, 772.0, 772.0, 773.0, 773.0, 772.0, 772.0, 772.0, 772.0, 771.0, 771.0, 771.0, 771.0, 772.0, 772.0, 771.0, 771.0, 772.0, 771.0, 771.0, 771.0, 772.0, 771.0, 771.0, 771.0, 771.0, 771.0, 772.0, 771.0, 772.0, 772.0, 772.0, 772.0, 773.0, 772.0, 772.0, 771.0, 772.0, 772.0, 771.0, 771.0, 772.0, 773.0, 773.0, 773.0, 773.0, 772.0, 772.0, 770.0, 771.0, 772.0, 773.0, 772.0, 771.0, 771.0, 771.0, 771.0, 771.0, 771.0, 771.0, 771.0, 771.0, 772.0, 772.0, 771.0, 771.0, 771.0, 770.0, 771.0, 772.0, 772.0, 772.0, 771.0, 772.0, 772.0, 771.0, 771.0, 771.0, 772.0],
      "WindowWidth": [1682.0, 1676.0, 1674.0, 1672.0, 1674.0, 1674.0, 1670.0, 1671.0, 1674.0, 1673.0, 1674.0, 1672.0, 1673.0, 1673.0, 1672.0, 1669.0, 1670.0, 1668.0, 1669.0, 1669.0, 1669.0, 1668.0, 1668.0, 1668.0, 1670.0, 1670.0, 1670.0, 1669.0, 1669.0, 1668.0, 1670.0, 1669.0, 1668.0, 1669.0, 1668.0, 1668.0, 1669.0, 1666.0, 1671.0, 1670.0, 1672.0, 1670.0, 1669.0, 1668.0, 1668.0, 1669.0, 1672.0, 1672.0, 1671.0, 1671.0, 1671.0, 1673.0, 1673.0, 1668.0, 1666.0, 1666.0, 1670.0, 1672.0, 1671.0, 1669.0, 1667.0, 1669.0, 1671.0, 1669.0, 1672.0, 1672.0, 1673.0, 1673.0, 1670.0, 1668.0, 1671.0, 1672.0, 1674.0, 1671.0, 1671.0, 1671.0, 1670.0, 1669.0, 1670.0, 1671.0, 1669.0, 1671.0, 1672.0, 1670.0, 1672.0, 1672.0, 1672.0, 1670.0, 1670.0, 1671.0, 1671.0, 1669.0, 1670.0, 1671.0, 1671.0, 1672.0, 1675.0, 1674.0, 1673.0, 1675.0, 1675.0, 1673.0, 1670.0, 1667.0, 1665.0, 1668.0, 1672.0, 1674.0, 1672.0, 1668.0, 1673.0, 1674.0, 1674.0, 1671.0, 1670.0, 1672.0, 1670.0, 1668.0, 1671.0, 1670.0, 1672.0, 1673.0, 1673.0, 1673.0, 1671.0, 1670.0, 1671.0, 1671.0, 1671.0, 1671.0, 1672.0, 1673.0, 1672.0, 1673.0, 1675.0, 1674.0, 1670.0, 1669.0, 1667.0, 1667.0, 1667.0, 1670.0, 1673.0, 1670.0, 1670.0, 1670.0, 1671.0, 1672.0, 1672.0, 1669.0, 1669.0, 1672.0, 1673.0, 1671.0, 1668.0, 1663.0, 1660.0, 1662.0, 1666.0, 1668.0, 1670.0, 1669.0, 1669.0, 1669.0, 1671.0, 1670.0, 1672.0, 1673.0, 1676.0, 1676.0, 1673.0, 1672.0, 1672.0, 1672.0, 1674.0, 1671.0, 1673.0, 1672.0, 1672.0, 1674.0, 1676.0, 1675.0, 1674.0, 1674.0, 1674.0, 1673.0, 1671.0, 1669.0, 1670.0, 1672.0, 1674.0, 1673.0, 1672.0, 1671.0, 1673.0, 1672.0, 1671.0, 1671.0, 1673.0, 1671.0, 1671.0, 1671.0, 1671.0, 1671.0, 1672.0, 1670.0, 1674.0, 1675.0, 1674.0, 1674.0, 1676.0, 1673.0, 1672.0, 1669.0, 1672.0, 1672.0, 1672.0, 1672.0, 1672.0, 1675.0, 1677.0, 1677.0, 1676.0, 1674.0, 1672.0, 1669.0, 1671.0, 1674.0, 1676.0, 1674.0, 1670.0, 1671.0, 1671.0, 1671.0, 1671.0, 1670.0, 1671.0, 1672.0, 1672.0, 1674.0, 1673.0, 1670.0, 1671.0, 1671.0, 1668.0, 1670.0, 1673.0, 1674.0, 1672.0, 1670.0, 1673.0, 1673.0, 1671.0, 1672.0, 1671.0, 1673.0]
    },
    "slices": {}
  }
}