{
 "AcquisitionMatrixPE": 100,
 "AcquisitionNumber": 1,
 "AcquisitionTime": "11:35:20.412500",
 "BandwidthPerPixelPhaseEncode": 18.519,
 "BaseResolution": 100,
 "BodyPartExamined": "BRAIN",
 "ConsistencyInfo": "N4_VE11C_LATEST_20160120",
 "ConversionSoftware": "dcm2niix",
 "ConversionSoftwareVersion": "v1.0.20180622 GCC4.9.2",
 "DerivedVendorReportedEchoSpacing": 0.000539986,
 "DeviceSerialNumber": "166078",
 "DwellTime": 2.1e-06,
 "EchoTime": 0.034,
 "EchoTrainLength": 100,
 "EffectiveEchoSpacing": 0.000539986,
 "FlipAngle": 90,
 "ImageOrientationPatientDICOM": [
  1,
  0,
  0,
  0,
  0.996637,
  -0.0819385
 ],
 "ImageType": [
  "ORIGINAL",
  "PRIMARY",
  "M",
  "ND",
  "MOSAIC"
 ],
 "InPlanePhaseEncodingDirectionDICOM": "COL",
 "InstitutionAddress": "Street_StreetNo_Bei_Jing_District_CN_ZIP",
 "InstitutionName": "BeiJing_Normal_University",
 "InstitutionalDepartmentName": "Department",
 "MRAcquisitionType": "2D",
 "MagneticFieldStrength": 3,
 "Manufacturer": "Siemens",
 "ManufacturersModelName": "Prisma",
 "Modality": "MR",
 "MultibandAccelerationFactor": 3,
 "PartialFourier": 1,
 "PatientPosition": "HFS",
 "PercentPhaseFOV": 100,
 "PhaseEncodingDirection": "j-",
 "PhaseEncodingSteps": 100,
 "PhaseResolution": 1,
 "PixelBandwidth": 2380,
 "ProcedureStepDescription": "BNU_P2018_64CH_Zhen.ZongLei",
 "ProtocolName": "bold_100x100_s3_2x2x2_retino_150",
 "PulseSequenceDetails": "%SiemensSeq%_ep2d_bold",
 "ReceiveCoilActiveElements": "HC1-7;NC1",
 "ReceiveCoilName": "HeadNeck_64",
 "ReconMatrixPE": 100,
 "RepetitionTime": 2,
 "SAR": 0.0713399,
 "ScanOptions": "FS",
 "ScanningSequence": "EP",
 "SequenceName": "_epfid2d1_100",
 "SequenceVariant": "SK",
 "SeriesDescription": "bold_100x100_s3_2x2x2_retino_150",
 "SeriesNumber": 11,
 "ShimSetting": [
  -5464,
  -11491,
  -1271,
  207,
  -67,
  -268,
  -229,
  29
 ],
 "SliceThickness": 2,
 "SliceTiming": [
  1.485,
  0,
  0.99,
  0.0825,
  1.0725,
  0.165,
  1.155,
  0.2475,
  1.2375,
  0.33,
  1.32,
  0.4125,
  1.4025,
  0.5775,
  1.5675,
  0.66,
  1.65,
  0.7425,
  1.7325,
  0.825,
  1.815,
  0.9075,
  1.8975,
  0.495,
  1.485,
  0,
  0.99,
  0.0825,
  1.0725,
  0.165,
  1.155,
  0.2475,
  1.2375,
  0.33,
  1.32,
  0.4125,
  1.4025,
  0.5775,
  1.5675,
  0.66,
  1.65,
  0.7425,
  1.7325,
  0.825,
  1.815,
  0.9075,
  1.8975,
  0.495,
  1.485,
  0,
  0.99,
  0.0825,
  1.0725,
  0.165,
  1.155,
  0.2475,
  1.2375,
  0.33,
  1.32,
  0.4125,
  1.4025,
  0.5775,
  1.5675,
  0.66,
  1.65,
  0.7425,
  1.7325,
  0.825,
  1.815,
  0.9075,
  1.8975,
  0.495
 ],
 "SoftwareVersions": "syngo_MR_E11",
 "SpacingBetweenSlices": 2,
 "StationName": "AWP166078",
 "TaskName": "prf",
 "TotalReadoutTime": 0.0534586,
 "TxRefAmp": 220.93,
 "dcmmeta_affine": [
  [
   -2.0,
   0.0,
   0.0,
   100.67469787597656
  ],
  [
   0.0,
   1.9932748079299927,
   -0.16387702524662018,
   -88.54198455810547
  ],
  [
   0.0,
   0.16387702524662018,
   1.9932748079299927,
   -80.93099212646484
  ],
  [
   0.0,
   0.0,
   0.0,
   1.0
  ]
 ],
 "dcmmeta_reorient_transform": [
  [
   0.0,
   -1.0,
   0.0,
   99.0
  ],
  [
   1.0,
   0.0,
   0.0,
   0.0
  ],
  [
   0.0,
   0.0,
   1.0,
   0.0
  ],
  [
   0.0,
   0.0,
   0.0,
   1.0
  ]
 ],
 "dcmmeta_shape": [
  100,
  100,
  72,
  150
 ],
 "dcmmeta_slice_dim": 2,
 "dcmmeta_version": 0.6,
 "global": {
  "const": {
   "AcquisitionMatrix": [
    100,
    0,
    0,
    100
   ],
   "AngioFlag": "N",
   "BitsAllocated": 16,
   "BitsStored": 12,
   "BodyPartExamined": "BRAIN",
   "Columns": 900,
   "EchoNumbers": 1,
   "EchoTime": 34.0,
   "EchoTrainLength": 100,
   "FlipAngle": 90.0,
   "HighBit": 11,
   "ImageOrientationPatient": [
    1.0,
    0.0,
    0.0,
    0.0,
    0.99663738671133,
    -0.0819385099279
   ],
   "ImagePositionPatient": [
    -900.67469877005,
    -906.10212513675,
    0.84364269976744
   ],
   "ImageType": [
    "ORIGINAL",
    "PRIMARY",
    "M",
    "ND",
    "MOSAIC"
   ],
   "ImagedNucleus": "1H",
   "ImagingFrequency": 123.257771,
   "InPlanePhaseEncodingDirection": "COL",
   "MRAcquisitionType": "2D",
   "MagneticFieldStrength": 3.0,
   "Manufacturer": "SIEMENS",
   "ManufacturerModelName": "Prisma",
   "Modality": "MR",
   "NumberOfAverages": 1.0,
   "NumberOfPhaseEncodingSteps": 100,
   "PercentPhaseFieldOfView": 100.0,
   "PercentSampling": 100.0,
   "PerformedProcedureStepStartTime": "105032.488000",
   "PhotometricInterpretation": "MONOCHROME2",
   "PixelBandwidth": 2380.0,
   "PixelRepresentation": 0,
   "PixelSpacing": [
    2.0,
    2.0
   ],
   "ProtocolName": "bold_100x100_s3_2x2x2_retino_150",
   "RepetitionTime": 2000.0,
   "Rows": 900,
   "SAR": 0.07133989196053,
   "SamplesPerPixel": 1,
   "ScanOptions": "FS",
   "ScanningSequence": "EP",
   "SequenceName": "*epfid2d1_100",
   "SequenceVariant": "SK",
   "SeriesDescription": "bold_100x100_s3_2x2x2_retino_150",
   "SeriesNumber": 11,
   "SeriesTime": "113522.811000",
   "SliceLocation": -73.403852120604,
   "SliceThickness": 2.0,
   "SmallestImagePixelValue": 0,
   "SoftwareVersions": "syngo MR E11",
   "SpacingBetweenSlices": 2.000000075446,
   "SpecificCharacterSet": "ISO_IR 100",
   "StudyID": "1",
   "StudyTime": "105032.385000",
   "TransmitCoilName": "Body",
   "VariableFlipAngleFlag": "N",
   "WindowCenterWidthExplanation": "Algo1",
   "dBdt": 0.0
  },
  "slices": {}
 },
 "time": {
  "samples": {
   "AcquisitionNumber": [
    1,
    2,
    3,
    4,
    5,
    6,
    7,
    8,
    9,
    10,
    11,
    12,
    13,
    14,
    15,
    16,
    17,
    18,
    19,
    20,
    21,
    22,
    23,
    24,
    25,
    26,
    27,
    28,
    29,
    30,
    31,
    32,
    33,
    34,
    35,
    36,
    37,
    38,
    39,
    40,
    41,
    42,
    43,
    44,
    45,
    46,
    47,
    48,
    49,
    50,
    51,
    52,
    53,
    54,
    55,
    56,
    57,
    58,
    59,
    60,
    61,
    62,
    63,
    64,
    65,
    66,
    67,
    68,
    69,
    70,
    71,
    72,
    73,
    74,
    75,
    76,
    77,
    78,
    79,
    80,
    81,
    82,
    83,
    84,
    85,
    86,
    87,
    88,
    89,
    90,
    91,
    92,
    93,
    94,
    95,
    96,
    97,
    98,
    99,
    100,
    101,
    102,
    103,
    104,
    105,
    106,
    107,
    108,
    109,
    110,
    111,
    112,
    113,
    114,
    115,
    116,
    117,
    118,
    119,
    120,
    121,
    122,
    123,
    124,
    125,
    126,
    127,
    128,
    129,
    130,
    131,
    132,
    133,
    134,
    135,
    136,
    137,
    138,
    139,
    140,
    141,
    142,
    143,
    144,
    145,
    146,
    147,
    148,
    149,
    150
   ],
   "AcquisitionTime": [
    "113520.412500",
    "113522.412500",
    "113524.412500",
    "113526.412500",
    "113528.412500",
    "113530.412500",
    "113532.412500",
    "113534.412500",
    "113536.412500",
    "113538.412500",
    "113540.412500",
    "113542.412500",
    "113544.412500",
    "113546.412500",
    "113548.412500",
    "113550.412500",
    "113552.412500",
    "113554.412500",
    "113556.412500",
    "113558.412500",
    "113600.412500",
    "113602.412500",
    "113604.412500",
    "113606.412500",
    "113608.412500",
    "113610.412500",
    "113612.412500",
    "113614.412500",
    "113616.412500",
    "113618.412500",
    "113620.412500",
    "113622.412500",
    "113624.412500",
    "113626.412500",
    "113628.412500",
    "113630.412500",
    "113632.412500",
    "113634.412500",
    "113636.412500",
    "113638.412500",
    "113640.412500",
    "113642.412500",
    "113644.412500",
    "113646.412500",
    "113648.412500",
    "113650.412500",
    "113652.412500",
    "113654.412500",
    "113656.412500",
    "113658.412500",
    "113700.412500",
    "113702.412500",
    "113704.412500",
    "113706.412500",
    "113708.412500",
    "113710.412500",
    "113712.412500",
    "113714.412500",
    "113716.412500",
    "113718.412500",
    "113720.412500",
    "113722.412500",
    "113724.412500",
    "113726.412500",
    "113728.412500",
    "113730.412500",
    "113732.412500",
    "113734.412500",
    "113736.412500",
    "113738.412500",
    "113740.412500",
    "113742.412500",
    "113744.412500",
    "113746.412500",
    "113748.412500",
    "113750.412500",
    "113752.412500",
    "113754.412500",
    "113756.412500",
    "113758.412500",
    "113800.412500",
    "113802.412500",
    "113804.412500",
    "113806.412500",
    "113808.412500",
    "113810.412500",
    "113812.412500",
    "113814.412500",
    "113816.412500",
    "113818.412500",
    "113820.412500",
    "113822.412500",
    "113824.412500",
    "113826.412500",
    "113828.412500",
    "113830.412500",
    "113832.412500",
    "113834.412500",
    "113836.412500",
    "113838.412500",
    "113840.412500",
    "113842.412500",
    "113844.412500",
    "113846.412500",
    "113848.412500",
    "113850.412500",
    "113852.412500",
    "113854.412500",
    "113856.412500",
    "113858.412500",
    "113900.412500",
    "113902.412500",
    "113904.412500",
    "113906.412500",
    "113908.412500",
    "113910.412500",
    "113912.412500",
    "113914.412500",
    "113916.412500",
    "113918.412500",
    "113920.412500",
    "113922.412500",
    "113924.412500",
    "113926.412500",
    "113928.412500",
    "113930.412500",
    "113932.412500",
    "113934.412500",
    "113936.412500",
    "113938.412500",
    "113940.412500",
    "113942.412500",
    "113944.412500",
    "113946.412500",
    "113948.412500",
    "113950.412500",
    "113952.412500",
    "113954.412500",
    "113956.412500",
    "113958.412500",
    "114000.412500",
    "114002.412500",
    "114004.412500",
    "114006.412500",
    "114008.412500",
    "114010.412500",
    "114012.412500",
    "114014.412500",
    "114016.412500",
    "114018.412500"
   ],
   "ContentTime": [
    "113522.815000",
    "113524.311000",
    "113526.311000",
    "113528.311000",
    "113530.311000",
    "113532.310000",
    "113534.309000",
    "113536.309000",
    "113538.309000",
    "113540.310000",
    "113542.310000",
    "113544.311000",
    "113546.311000",
    "113548.309000",
    "113550.309000",
    "113552.310000",
    "113554.310000",
    "113556.309000",
    "113558.310000",
    "113600.310000",
    "113602.310000",
    "113604.810000",
    "113606.309000",
    "113608.310000",
    "113610.309000",
    "113612.310000",
    "113614.310000",
    "113616.310000",
    "113618.310000",
    "113620.311000",
    "113622.310000",
    "113624.309000",
    "113626.309000",
    "113628.309000",
    "113630.309000",
    "113632.310000",
    "113634.311000",
    "113636.311000",
    "113638.311000",
    "113640.310000",
    "113642.309000",
    "113644.310000",
    "113646.809000",
    "113648.309000",
    "113650.311000",
    "113652.311000",
    "113654.311000",
    "113656.311000",
    "113658.310000",
    "113700.310000",
    "113702.309000",
    "113704.310000",
    "113706.311000",
    "113708.310000",
    "113710.310000",
    "113712.310000",
    "113714.310000",
    "113716.310000",
    "113718.310000",
    "113720.309000",
    "113722.810000",
    "113724.310000",
    "113726.311000",
    "113728.311000",
    "113730.311000",
    "113732.310000",
    "113734.309000",
    "113736.309000",
    "113738.309000",
    "113740.309000",
    "113742.310000",
    "113744.310000",
    "113746.310000",
    "113748.310000",
    "113750.311000",
    "113752.309000",
    "113754.310000",
    "113756.310000",
    "113758.310000",
    "113800.311000",
    "113802.311000",
    "113804.811000",
    "113806.310000",
    "113808.310000",
    "113810.309000",
    "113812.310000",
    "113814.310000",
    "113816.311000",
    "113818.311000",
    "113820.311000",
    "113822.311000",
    "113824.310000",
    "113826.310000",
    "113828.809000",
    "113830.310000",
    "113832.310000",
    "113834.310000",
    "113836.311000",
    "113838.311000",
    "113840.311000",
    "113842.310000",
    "113844.309000",
    "113846.310000",
    "113848.309000",
    "113850.309000",
    "113852.311000",
    "113854.311000",
    "113856.311000",
    "113858.310000",
    "113900.310000",
    "113902.309000",
    "113904.309000",
    "113906.310000",
    "113908.310000",
    "113910.310000",
    "113912.311000",
    "113914.311000",
    "113916.310000",
    "113918.310000",
    "113920.309000",
    "113922.309000",
    "113924.309000",
    "113926.310000",
    "113928.310000",
    "113930.310000",
    "113932.310000",
    "113934.310000",
    "113936.309000",
    "113938.309000",
    "113940.310000",
    "113942.310000",
    "113944.310000",
    "113946.311000",
    "113948.311000",
    "113950.310000",
    "113952.310000",
    "113954.310000",
    "113956.309000",
    "113958.309000",
    "114000.309000",
    "114002.311000",
    "114004.310000",
    "114006.310000",
    "114008.311000",
    "114010.311000",
    "114012.310000",
    "114014.310000",
    "114016.309000",
    "114018.810000",
    "114020.235000"
   ],
   "InstanceCreationTime": [
    "113522.815000",
    "113524.311000",
    "113526.311000",
    "113528.311000",
    "113530.311000",
    "113532.310000",
    "113534.309000",
    "113536.309000",
    "113538.309000",
    "113540.310000",
    "113542.310000",
    "113544.311000",
    "113546.311000",
    "113548.309000",
    "113550.309000",
    "113552.310000",
    "113554.310000",
    "113556.309000",
    "113558.310000",
    "113600.310000",
    "113602.310000",
    "113604.810000",
    "113606.309000",
    "113608.310000",
    "113610.309000",
    "113612.310000",
    "113614.310000",
    "113616.310000",
    "113618.310000",
    "113620.311000",
    "113622.310000",
    "113624.309000",
    "113626.309000",
    "113628.309000",
    "113630.309000",
    "113632.310000",
    "113634.311000",
    "113636.311000",
    "113638.311000",
    "113640.310000",
    "113642.309000",
    "113644.310000",
    "113646.809000",
    "113648.309000",
    "113650.311000",
    "113652.311000",
    "113654.311000",
    "113656.311000",
    "113658.310000",
    "113700.310000",
    "113702.309000",
    "113704.310000",
    "113706.311000",
    "113708.310000",
    "113710.310000",
    "113712.310000",
    "113714.310000",
    "113716.310000",
    "113718.310000",
    "113720.309000",
    "113722.810000",
    "113724.310000",
    "113726.311000",
    "113728.311000",
    "113730.311000",
    "113732.310000",
    "113734.309000",
    "113736.309000",
    "113738.309000",
    "113740.309000",
    "113742.310000",
    "113744.310000",
    "113746.310000",
    "113748.310000",
    "113750.311000",
    "113752.309000",
    "113754.310000",
    "113756.310000",
    "113758.310000",
    "113800.311000",
    "113802.311000",
    "113804.811000",
    "113806.310000",
    "113808.310000",
    "113810.309000",
    "113812.310000",
    "113814.310000",
    "113816.311000",
    "113818.311000",
    "113820.311000",
    "113822.311000",
    "113824.310000",
    "113826.310000",
    "113828.809000",
    "113830.310000",
    "113832.310000",
    "113834.310000",
    "113836.311000",
    "113838.311000",
    "113840.311000",
    "113842.310000",
    "113844.309000",
    "113846.310000",
    "113848.309000",
    "113850.309000",
    "113852.311000",
    "113854.311000",
    "113856.311000",
    "113858.310000",
    "113900.310000",
    "113902.309000",
    "113904.309000",
    "113906.310000",
    "113908.310000",
    "113910.310000",
    "113912.311000",
    "113914.311000",
    "113916.310000",
    "113918.310000",
    "113920.309000",
    "113922.309000",
    "113924.309000",
    "113926.310000",
    "113928.310000",
    "113930.310000",
    "113932.310000",
    "113934.310000",
    "113936.309000",
    "113938.309000",
    "113940.310000",
    "113942.310000",
    "113944.310000",
    "113946.311000",
    "113948.311000",
    "113950.310000",
    "113952.310000",
    "113954.310000",
    "113956.309000",
    "113958.309000",
    "114000.309000",
    "114002.311000",
    "114004.310000",
    "114006.310000",
    "114008.311000",
    "114010.311000",
    "114012.310000",
    "114014.310000",
    "114016.309000",
    "114018.810000",
    "114020.235000"
   ],
   "InstanceNumber": [
    1,
    2,
    3,
    4,
    5,
    6,
    7,
    8,
    9,
    10,
    11,
    12,
    13,
    14,
    15,
    16,
    17,
    18,
    19,
    20,
    21,
    22,
    23,
    24,
    25,
    26,
    27,
    28,
    29,
    30,
    31,
    32,
    33,
    34,
    35,
    36,
    37,
    38,
    39,
    40,
    41,
    42,
    43,
    44,
    45,
    46,
    47,
    48,
    49,
    50,
    51,
    52,
    53,
    54,
    55,
    56,
    57,
    58,
    59,
    60,
    61,
    62,
    63,
    64,
    65,
    66,
    67,
    68,
    69,
    70,
    71,
    72,
    73,
    74,
    75,
    76,
    77,
    78,
    79,
    80,
    81,
    82,
    83,
    84,
    85,
    86,
    87,
    88,
    89,
    90,
    91,
    92,
    93,
    94,
    95,
    96,
    97,
    98,
    99,
    100,
    101,
    102,
    103,
    104,
    105,
    106,
    107,
    108,
    109,
    110,
    111,
    112,
    113,
    114,
    115,
    116,
    117,
    118,
    119,
    120,
    121,
    122,
    123,
    124,
    125,
    126,
    127,
    128,
    129,
    130,
    131,
    132,
    133,
    134,
    135,
    136,
    137,
    138,
    139,
    140,
    141,
    142,
    143,
    144,
    145,
    146,
    147,
    148,
    149,
    150
   ],
   "LargestImagePixelValue": [
    4095,
    4095,
    4095,
    4095,
    4084,
    4095,
    4028,
    4044,
    4095,
    4095,
    4095,
    4095,
    4095,
    4095,
    4095,
    4095,
    4095,
    4076,
    4071,
    4057,
    4085,
    4090,
    4095,
    4002,
    4033,
    3977,
    4095,
    4095,
    4095,
    4095,
    4083,
    4095,
    4068,
    4095,
    4065,
    4095,
    4094,
    4095,
    4079,
    4095,
    4095,
    4095,
    4080,
    4093,
    4095,
    4070,
    4095,
    4044,
    4095,
    4094,
    4095,
    4095,
    4095,
    4095,
    4095,
    4095,
    4095,
    4095,
    4095,
    4095,
    4095,
    4095,
    4095,
    4095,
    4095,
    4095,
    4095,
    4095,
    4095,
    4095,
    4087,
    4057,
    4065,
    4089,
    4062,
    4033,
    4095,
    4021,
    4001,
    4001,
    4051,
    3973,
    4018,
    4045,
    4002,
    3981,
    4032,
    3982,
    4031,
    3975,
    4030,
    4012,
    4052,
    3989,
    4013,
    4007,
    3993,
    3964,
    4040,
    4024,
    4038,
    4008,
    4034,
    4042,
    4092,
    4067,
    4095,
    4069,
    4022,
    4095,
    4095,
    4061,
    4095,
    4017,
    4076,
    4038,
    4019,
    4017,
    4021,
    4005,
    4076,
    4012,
    4003,
    3987,
    4007,
    4010,
    3970,
    3998,
    3984,
    3994,
    3968,
    3955,
    4024,
    3949,
    3995,
    3991,
    3970,
    3936,
    3952,
    3953,
    4006,
    3960,
    3975,
    3964,
    3945,
    3969,
    3912,
    3967,
    3941,
    3962
   ],
   "WindowCenter": [
    839.0,
    838.0,
    837.0,
    837.0,
    838.0,
    837.0,
    837.0,
    835.0,
    835.0,
    834.0,
    834.0,
    833.0,
    832.0,
    831.0,
    831.0,
    832.0,
    832.0,
    833.0,
    833.0,
    833.0,
    831.0,
    830.0,
    829.0,
    829.0,
    829.0,
    829.0,
    830.0,
    830.0,
    830.0,
    830.0,
    829.0,
    829.0,
    830.0,
    830.0,
    830.0,
    830.0,
    831.0,
    830.0,
    830.0,
    830.0,
    830.0,
    830.0,
    830.0,
    829.0,
    830.0,
    830.0,
    831.0,
    829.0,
    829.0,
    830.0,
    830.0,
    830.0,
    830.0,
    830.0,
    830.0,
    829.0,
    830.0,
    831.0,
    829.0,
    829.0,
    828.0,
    828.0,
    828.0,
    829.0,
    829.0,
    829.0,
    829.0,
    830.0,
    830.0,
    830.0,
    831.0,
    832.0,
    831.0,
    831.0,
    832.0,
    831.0,
    832.0,
    831.0,
    831.0,
    831.0,
    833.0,
    832.0,
    830.0,
    829.0,
    828.0,
    828.0,
    828.0,
    829.0,
    830.0,
    830.0,
    831.0,
    830.0,
    830.0,
    829.0,
    829.0,
    830.0,
    830.0,
    829.0,
    830.0,
    831.0,
    831.0,
    830.0,
    830.0,
    829.0,
    831.0,
    831.0,
    831.0,
    832.0,
    831.0,
    830.0,
    830.0,
    830.0,
    831.0,
    831.0,
    832.0,
    834.0,
    834.0,
    834.0,
    833.0,
    833.0,
    832.0,
    833.0,
    832.0,
    833.0,
    832.0,
    831.0,
    831.0,
    831.0,
    831.0,
    832.0,
    831.0,
    832.0,
    832.0,
    831.0,
    831.0,
    831.0,
    831.0,
    831.0,
    831.0,
    831.0,
    830.0,
    830.0,
    830.0,
    831.0,
    832.0,
    832.0,
    830.0,
    830.0,
    831.0,
    832.0
   ],
   "WindowWidth": [
    1837.0,
    1836.0,
    1832.0,
    1834.0,
    1835.0,
    1834.0,
    1831.0,
    1827.0,
    1827.0,
    1823.0,
    1825.0,
    1822.0,
    1818.0,
    1815.0,
    1815.0,
    1818.0,
    1821.0,
    1823.0,
    1824.0,
    1821.0,
    1817.0,
    1814.0,
    1812.0,
    1812.0,
    1812.0,
    1810.0,
    1813.0,
    1814.0,
    1815.0,
    1813.0,
    1813.0,
    1812.0,
    1814.0,
    1814.0,
    1813.0,
    1814.0,
    1816.0,
    1815.0,
    1814.0,
    1815.0,
    1814.0,
    1814.0,
    1813.0,
    1811.0,
    1813.0,
    1813.0,
    1816.0,
    1811.0,
    1813.0,
    1813.0,
    1814.0,
    1815.0,
    1814.0,
    1815.0,
    1813.0,
    1812.0,
    1813.0,
    1816.0,
    1811.0,
    1810.0,
    1809.0,
    1809.0,
    1810.0,
    1810.0,
    1811.0,
    1813.0,
    1813.0,
    1814.0,
    1814.0,
    1815.0,
    1817.0,
    1818.0,
    1818.0,
    1817.0,
    1819.0,
    1818.0,
    1819.0,
    1816.0,
    1815.0,
    1818.0,
    1821.0,
    1818.0,
    1814.0,
    1811.0,
    1809.0,
    1808.0,
    1809.0,
    1810.0,
    1814.0,
    1815.0,
    1817.0,
    1815.0,
    1815.0,
    1811.0,
    1812.0,
    1813.0,
    1814.0,
    1812.0,
    1814.0,
    1816.0,
    1816.0,
    1814.0,
    1813.0,
    1812.0,
    1817.0,
    1818.0,
    1818.0,
    1819.0,
    1816.0,
    1814.0,
    1814.0,
    1813.0,
    1815.0,
    1815.0,
    1820.0,
    1823.0,
    1824.0,
    1824.0,
    1822.0,
    1822.0,
    1819.0,
    1820.0,
    1819.0,
    1820.0,
    1817.0,
    1817.0,
    1814.0,
    1816.0,
    1816.0,
    1817.0,
    1816.0,
    1819.0,
    1819.0,
    1815.0,
    1814.0,
    1815.0,
    1816.0,
    1816.0,
    1816.0,
    1815.0,
    1813.0,
    1813.0,
    1811.0,
    1815.0,
    1818.0,
    1818.0,
    1813.0,
    1811.0,
    1815.0,
    1817.0
   ]
  },
  "slices": {}
 }
}