{
 "AcquisitionMatrixPE": 100,
 "AcquisitionNumber": 1,
 "AcquisitionTime": "09:22:14.485000",
 "BandwidthPerPixelPhaseEncode": 18.519,
 "BaseResolution": 100,
 "BodyPartExamined": "BRAIN",
 "ConsistencyInfo": "N4_VE11C_LATEST_20160120",
 "ConversionSoftware": "dcm2niix",
 "ConversionSoftwareVersion": "v1.0.20180622 GCC4.9.2",
 "DerivedVendorReportedEchoSpacing": 0.000539986,
 "DeviceSerialNumber": "166078",
 "DwellTime": 2.1e-06,
 "EchoTime": 0.034,
 "EchoTrainLength": 100,
 "EffectiveEchoSpacing": 0.000539986,
 "FlipAngle": 90,
 "ImageOrientationPatientDICOM": [
  1,
  0,
  0,
  0,
  0.994338,
  -0.106264
 ],
 "ImageType": [
  "ORIGINAL",
  "PRIMARY",
  "M",
  "ND",
  "MOSAIC"
 ],
 "InPlanePhaseEncodingDirectionDICOM": "COL",
 "InstitutionAddress": "Street_StreetNo_Bei_Jing_District_CN_ZIP",
 "InstitutionName": "BeiJing_Normal_University",
 "InstitutionalDepartmentName": "Department",
 "MRAcquisitionType": "2D",
 "MagneticFieldStrength": 3,
 "Manufacturer": "Siemens",
 "ManufacturersModelName": "Prisma",
 "Modality": "MR",
 "MultibandAccelerationFactor": 3,
 "PartialFourier": 1,
 "PatientPosition": "HFS",
 "PercentPhaseFOV": 100,
 "PhaseEncodingDirection": "j-",
 "PhaseEncodingSteps": 100,
 "PhaseResolution": 1,
 "PixelBandwidth": 2380,
 "ProcedureStepDescription": "BNU_P2018_64CH_Zhen.ZongLei",
 "ProtocolName": "bold_100x100_s3_2x2x2_static_256",
 "PulseSequenceDetails": "%SiemensSeq%_ep2d_bold",
 "ReceiveCoilActiveElements": "HC1-7;NC1",
 "ReceiveCoilName": "HeadNeck_64",
 "ReconMatrixPE": 100,
 "RepetitionTime": 2,
 "SAR": 0.0628815,
 "ScanOptions": "FS",
 "ScanningSequence": "EP",
 "SequenceName": "_epfid2d1_100",
 "SequenceVariant": "SK",
 "SeriesDescription": "bold_100x100_s3_2x2x2_static_256",
 "SeriesNumber": 4,
 "ShimSetting": [
  -5474,
  -11488,
  -1252,
  433,
  -26,
  -116,
  -135,
  81
 ],
 "SliceThickness": 2,
 "SliceTiming": [
  1.485,
  0,
  0.99,
  0.0825,
  1.0725,
  0.165,
  1.155,
  0.2475,
  1.2375,
  0.33,
  1.32,
  0.4125,
  1.4025,
  0.5775,
  1.5675,
  0.66,
  1.65,
  0.7425,
  1.7325,
  0.825,
  1.815,
  0.9075,
  1.8975,
  0.495,
  1.485,
  0,
  0.99,
  0.0825,
  1.0725,
  0.165,
  1.155,
  0.2475,
  1.2375,
  0.33,
  1.32,
  0.4125,
  1.4025,
  0.5775,
  1.5675,
  0.66,
  1.65,
  0.7425,
  1.7325,
  0.825,
  1.815,
  0.9075,
  1.8975,
  0.495,
  1.485,
  0,
  0.99,
  0.0825,
  1.0725,
  0.165,
  1.155,
  0.2475,
  1.2375,
  0.33,
  1.32,
  0.4125,
  1.4025,
  0.5775,
  1.5675,
  0.66,
  1.65,
  0.7425,
  1.7325,
  0.825,
  1.815,
  0.9075,
  1.8975,
  0.495
 ],
 "SoftwareVersions": "syngo_MR_E11",
 "SpacingBetweenSlices": 2,
 "StationName": "AWP166078",
 "TaskName": "imagenet",
 "TotalReadoutTime": 0.0534586,
 "TxRefAmp": 203.771,
 "dcmmeta_affine": [
  [
   -2.0,
   0.0,
   0.0,
   100.0
  ],
  [
   0.0,
   1.988675832748413,
   -0.21252812445163727,
   -84.83531188964844
  ],
  [
   0.0,
   0.21252813935279846,
   1.988675832748413,
   -72.37572479248047
  ],
  [
   0.0,
   0.0,
   0.0,
   1.0
  ]
 ],
 "dcmmeta_reorient_transform": [
  [
   0.0,
   -1.0,
   0.0,
   99.0
  ],
  [
   1.0,
   0.0,
   0.0,
   0.0
  ],
  [
   0.0,
   0.0,
   1.0,
   0.0
  ],
  [
   0.0,
   0.0,
   0.0,
   1.0
  ]
 ],
 "dcmmeta_shape": [
  100,
  100,
  72,
  256
 ],
 "dcmmeta_slice_dim": 2,
 "dcmmeta_version": 0.6,
 "global": {
  "const": {
   "AcquisitionMatrix": [
    100,
    0,
    0,
    100
   ],
   "AngioFlag": "N",
   "BitsAllocated": 16,
   "BitsStored": 12,
   "BodyPartExamined": "BRAIN",
   "Columns": 900,
   "EchoNumbers": 1,
   "EchoTime": 34.0,
   "EchoTrainLength": 100,
   "FlipAngle": 90.0,
   "HighBit": 11,
   "ImageOrientationPatient": [
    1.0,
    0.0,
    0.0,
    0.0,
    0.99433794468309,
    -0.1062640661908
   ],
   "ImagePositionPatient": [
    -900.0,
    -907.51395913659,
    33.675810359092
   ],
   "ImageType": [
    "ORIGINAL",
    "PRIMARY",
    "M",
    "ND",
    "MOSAIC"
   ],
   "ImagedNucleus": "1H",
   "ImagingFrequency": 123.257752,
   "InPlanePhaseEncodingDirection": "COL",
   "MRAcquisitionType": "2D",
   "MagneticFieldStrength": 3.0,
   "Manufacturer": "SIEMENS",
   "ManufacturerModelName": "Prisma",
   "Modality": "MR",
   "NumberOfAverages": 1.0,
   "NumberOfPhaseEncodingSteps": 100,
   "PercentPhaseFieldOfView": 100.0,
   "PercentSampling": 100.0,
   "PerformedProcedureStepStartTime": "090547.909000",
   "PhotometricInterpretation": "MONOCHROME2",
   "PixelBandwidth": 2380.0,
   "PixelRepresentation": 0,
   "PixelSpacing": [
    2.0,
    2.0
   ],
   "ProtocolName": "bold_100x100_s3_2x2x2_static_256",
   "RepetitionTime": 2000.0,
   "Rows": 900,
   "SAR": 0.06288150204988,
   "SamplesPerPixel": 1,
   "ScanOptions": "FS",
   "ScanningSequence": "EP",
   "SequenceName": "*epfid2d1_100",
   "SequenceVariant": "SK",
   "SeriesDescription": "bold_100x100_s3_2x2x2_static_256",
   "SeriesNumber": 4,
   "SeriesTime": "092217.175000",
   "SliceLocation": -62.950987364788,
   "SliceThickness": 2.0,
   "SmallestImagePixelValue": 0,
   "SoftwareVersions": "syngo MR E11",
   "SpacingBetweenSlices": 1.9999999943947,
   "SpecificCharacterSet": "ISO_IR 100",
   "StudyID": "1",
   "StudyTime": "090547.818000",
   "TransmitCoilName": "Body",
   "VariableFlipAngleFlag": "N",
   "WindowCenterWidthExplanation": "Algo1",
   "dBdt": 0.0
  },
  "slices": {}
 },
 "time": {
  "samples": {
   "AcquisitionNumber": [
    1,
    2,
    3,
    4,
    5,
    6,
    7,
    8,
    9,
    10,
    11,
    12,
    13,
    14,
    15,
    16,
    17,
    18,
    19,
    20,
    21,
    22,
    23,
    24,
    25,
    26,
    27,
    28,
    29,
    30,
    31,
    32,
    33,
    34,
    35,
    36,
    37,
    38,
    39,
    40,
    41,
    42,
    43,
    44,
    45,
    46,
    47,
    48,
    49,
    50,
    51,
    52,
    53,
    54,
    55,
    56,
    57,
    58,
    59,
    60,
    61,
    62,
    63,
    64,
    65,
    66,
    67,
    68,
    69,
    70,
    71,
    72,
    73,
    74,
    75,
    76,
    77,
    78,
    79,
    80,
    81,
    82,
    83,
    84,
    85,
    86,
    87,
    88,
    89,
    90,
    91,
    92,
    93,
    94,
    95,
    96,
    97,
    98,
    99,
    100,
    101,
    102,
    103,
    104,
    105,
    106,
    107,
    108,
    109,
    110,
    111,
    112,
    113,
    114,
    115,
    116,
    117,
    118,
    119,
    120,
    121,
    122,
    123,
    124,
    125,
    126,
    127,
    128,
    129,
    130,
    131,
    132,
    133,
    134,
    135,
    136,
    137,
    138,
    139,
    140,
    141,
    142,
    143,
    144,
    145,
    146,
    147,
    148,
    149,
    150,
    151,
    152,
    153,
    154,
    155,
    156,
    157,
    158,
    159,
    160,
    161,
    162,
    163,
    164,
    165,
    166,
    167,
    168,
    169,
    170,
    171,
    172,
    173,
    174,
    175,
    176,
    177,
    178,
    179,
    180,
    181,
    182,
    183,
    184,
    185,
    186,
    187,
    188,
    189,
    190,
    191,
    192,
    193,
    194,
    195,
    196,
    197,
    198,
    199,
    200,
    201,
    202,
    203,
    204,
    205,
    206,
    207,
    208,
    209,
    210,
    211,
    212,
    213,
    214,
    215,
    216,
    217,
    218,
    219,
    220,
    221,
    222,
    223,
    224,
    225,
    226,
    227,
    228,
    229,
    230,
    231,
    232,
    233,
    234,
    235,
    236,
    237,
    238,
    239,
    240,
    241,
    242,
    243,
    244,
    245,
    246,
    247,
    248,
    249,
    250,
    251,
    252,
    253,
    254,
    255,
    256
   ],
   "AcquisitionTime": [
    "092214.485000",
    "092216.485000",
    "092218.485000",
    "092220.485000",
    "092222.485000",
    "092224.485000",
    "092226.485000",
    "092228.485000",
    "092230.485000",
    "092232.485000",
    "092234.485000",
    "092236.485000",
    "092238.485000",
    "092240.485000",
    "092242.485000",
    "092244.485000",
    "092246.485000",
    "092248.485000",
    "092250.485000",
    "092252.485000",
    "092254.485000",
    "092256.485000",
    "092258.485000",
    "092300.485000",
    "092302.485000",
    "092304.485000",
    "092306.485000",
    "092308.485000",
    "092310.485000",
    "092312.485000",
    "092314.485000",
    "092316.485000",
    "092318.485000",
    "092320.485000",
    "092322.485000",
    "092324.485000",
    "092326.485000",
    "092328.485000",
    "092330.485000",
    "092332.485000",
    "092334.485000",
    "092336.485000",
    "092338.485000",
    "092340.485000",
    "092342.485000",
    "092344.485000",
    "092346.485000",
    "092348.485000",
    "092350.485000",
    "092352.485000",
    "092354.485000",
    "092356.485000",
    "092358.485000",
    "092400.485000",
    "092402.485000",
    "092404.485000",
    "092406.485000",
    "092408.485000",
    "092410.485000",
    "092412.485000",
    "092414.485000",
    "092416.485000",
    "092418.485000",
    "092420.485000",
    "092422.485000",
    "092424.485000",
    "092426.485000",
    "092428.485000",
    "092430.485000",
    "092432.485000",
    "092434.485000",
    "092436.485000",
    "092438.485000",
    "092440.485000",
    "092442.485000",
    "092444.485000",
    "092446.485000",
    "092448.485000",
    "092450.485000",
    "092452.485000",
    "092454.485000",
    "092456.485000",
    "092458.485000",
    "092500.485000",
    "092502.485000",
    "092504.485000",
    "092506.485000",
    "092508.485000",
    "092510.485000",
    "092512.485000",
    "092514.485000",
    "092516.485000",
    "092518.485000",
    "092520.485000",
    "092522.485000",
    "092524.485000",
    "092526.485000",
    "092528.485000",
    "092530.485000",
    "092532.485000",
    "092534.485000",
    "092536.485000",
    "092538.485000",
    "092540.485000",
    "092542.485000",
    "092544.485000",
    "092546.485000",
    "092548.485000",
    "092550.485000",
    "092552.485000",
    "092554.485000",
    "092556.485000",
    "092558.485000",
    "092600.485000",
    "092602.485000",
    "092604.485000",
    "092606.485000",
    "092608.485000",
    "092610.485000",
    "092612.485000",
    "092614.485000",
    "092616.485000",
    "092618.485000",
    "092620.485000",
    "092622.485000",
    "092624.485000",
    "092626.485000",
    "092628.485000",
    "092630.485000",
    "092632.485000",
    "092634.485000",
    "092636.485000",
    "092638.485000",
    "092640.485000",
    "092642.485000",
    "092644.485000",
    "092646.485000",
    "092648.485000",
    "092650.485000",
    "092652.485000",
    "092654.485000",
    "092656.485000",
    "092658.485000",
    "092700.485000",
    "092702.485000",
    "092704.485000",
    "092706.485000",
    "092708.485000",
    "092710.485000",
    "092712.485000",
    "092714.485000",
    "092716.485000",
    "092718.485000",
    "092720.485000",
    "092722.485000",
    "092724.485000",
    "092726.485000",
    "092728.485000",
    "092730.485000",
    "092732.485000",
    "092734.485000",
    "092736.485000",
    "092738.485000",
    "092740.485000",
    "092742.485000",
    "092744.485000",
    "092746.485000",
    "092748.485000",
    "092750.485000",
    "092752.485000",
    "092754.485000",
    "092756.485000",
    "092758.485000",
    "092800.485000",
    "092802.485000",
    "092804.485000",
    "092806.485000",
    "092808.485000",
    "092810.485000",
    "092812.485000",
    "092814.485000",
    "092816.485000",
    "092818.485000",
    "092820.485000",
    "092822.485000",
    "092824.485000",
    "092826.485000",
    "092828.485000",
    "092830.485000",
    "092832.485000",
    "092834.485000",
    "092836.485000",
    "092838.485000",
    "092840.485000",
    "092842.485000",
    "092844.485000",
    "092846.485000",
    "092848.485000",
    "092850.485000",
    "092852.485000",
    "092854.485000",
    "092856.485000",
    "092858.485000",
    "092900.485000",
    "092902.485000",
    "092904.485000",
    "092906.485000",
    "092908.485000",
    "092910.485000",
    "092912.485000",
    "092914.485000",
    "092916.485000",
    "092918.485000",
    "092920.485000",
    "092922.485000",
    "092924.485000",
    "092926.485000",
    "092928.485000",
    "092930.485000",
    "092932.485000",
    "092934.485000",
    "092936.485000",
    "092938.485000",
    "092940.485000",
    "092942.485000",
    "092944.485000",
    "092946.485000",
    "092948.485000",
    "092950.485000",
    "092952.485000",
    "092954.485000",
    "092956.485000",
    "092958.485000",
    "093000.485000",
    "093002.485000",
    "093004.485000",
    "093006.485000",
    "093008.485000",
    "093010.485000",
    "093012.485000",
    "093014.485000",
    "093016.485000",
    "093018.485000",
    "093020.485000",
    "093022.485000",
    "093024.485000",
    "093026.485000",
    "093028.485000",
    "093030.485000",
    "093032.485000",
    "093034.485000",
    "093036.485000",
    "093038.485000",
    "093040.485000",
    "093042.485000",
    "093044.485000"
   ],
   "ContentTime": [
    "092217.178000",
    "092219.153000",
    "092220.653000",
    "092222.651000",
    "092224.651000",
    "092226.651000",
    "092229.152000",
    "092230.653000",
    "092232.652000",
    "092234.652000",
    "092236.653000",
    "092238.651000",
    "092240.651000",
    "092242.651000",
    "092244.651000",
    "092246.653000",
    "092249.152000",
    "092251.152000",
    "092253.152000",
    "092254.653000",
    "092256.652000",
    "092259.152000",
    "092301.151000",
    "092302.651000",
    "092304.652000",
    "092306.653000",
    "092308.653000",
    "092310.652000",
    "092312.652000",
    "092315.151000",
    "092316.651000",
    "092318.651000",
    "092320.652000",
    "092322.652000",
    "092324.652000",
    "092326.653000",
    "092328.652000",
    "092330.652000",
    "092332.652000",
    "092334.651000",
    "092336.651000",
    "092339.153000",
    "092340.652000",
    "092342.652000",
    "092345.152000",
    "092347.152000",
    "092348.651000",
    "092350.652000",
    "092352.651000",
    "092354.652000",
    "092356.652000",
    "092358.653000",
    "092400.653000",
    "092402.652000",
    "092405.152000",
    "092406.652000",
    "092409.152000",
    "092410.651000",
    "092412.651000",
    "092414.653000",
    "092416.653000",
    "092418.652000",
    "092421.152000",
    "092422.652000",
    "092424.651000",
    "092426.652000",
    "092428.651000",
    "092430.653000",
    "092432.653000",
    "092434.653000",
    "092436.652000",
    "092438.652000",
    "092440.653000",
    "092443.151000",
    "092445.151000",
    "092446.651000",
    "092448.653000",
    "092451.152000",
    "092452.653000",
    "092454.653000",
    "092457.152000",
    "092458.652000",
    "092500.651000",
    "092502.651000",
    "092504.651000",
    "092506.652000",
    "092508.653000",
    "092510.653000",
    "092512.652000",
    "092514.652000",
    "092516.651000",
    "092518.652000",
    "092520.652000",
    "092522.652000",
    "092524.652000",
    "092526.652000",
    "092528.652000",
    "092530.653000",
    "092533.153000",
    "092534.651000",
    "092536.651000",
    "092538.651000",
    "092540.652000",
    "092543.153000",
    "092545.153000",
    "092546.652000",
    "092548.652000",
    "092550.652000",
    "092552.651000",
    "092554.651000",
    "092556.651000",
    "092558.652000",
    "092600.652000",
    "092603.153000",
    "092604.652000",
    "092606.652000",
    "092608.651000",
    "092610.651000",
    "092613.151000",
    "092615.151000",
    "092616.654000",
    "092618.652000",
    "092620.652000",
    "092623.152000",
    "092624.653000",
    "092626.652000",
    "092629.152000",
    "092631.151000",
    "092632.652000",
    "092635.153000",
    "092636.652000",
    "092639.152000",
    "092640.653000",
    "092642.653000",
    "092644.651000",
    "092646.651000",
    "092648.651000",
    "092651.152000",
    "092652.652000",
    "092654.652000",
    "092656.652000",
    "092659.152000",
    "092700.652000",
    "092702.652000",
    "092704.652000",
    "092707.152000",
    "092708.652000",
    "092710.652000",
    "092712.653000",
    "092714.653000",
    "092716.653000",
    "092718.651000",
    "092721.152000",
    "092722.651000",
    "092724.652000",
    "092726.652000",
    "092729.152000",
    "092730.652000",
    "092733.152000",
    "092734.652000",
    "092737.152000",
    "092738.651000",
    "092740.651000",
    "092742.651000",
    "092744.652000",
    "092747.152000",
    "092748.653000",
    "092750.653000",
    "092752.652000",
    "092754.651000",
    "092756.651000",
    "092758.651000",
    "092800.652000",
    "092802.653000",
    "092804.653000",
    "092806.653000",
    "092809.168000",
    "092811.152000",
    "092812.652000",
    "092814.651000",
    "092816.652000",
    "092818.652000",
    "092820.653000",
    "092822.653000",
    "092824.653000",
    "092826.652000",
    "092828.651000",
    "092830.652000",
    "092832.651000",
    "092834.652000",
    "092836.653000",
    "092839.152000",
    "092840.653000",
    "092842.653000",
    "092844.652000",
    "092846.651000",
    "092849.152000",
    "092850.651000",
    "092852.652000",
    "092854.652000",
    "092856.652000",
    "092858.652000",
    "092900.652000",
    "092902.653000",
    "092904.651000",
    "092906.651000",
    "092909.152000",
    "092910.653000",
    "092912.652000",
    "092915.152000",
    "092916.652000",
    "092919.152000",
    "092920.653000",
    "092922.652000",
    "092924.652000",
    "092926.652000",
    "092928.653000",
    "092930.652000",
    "092932.653000",
    "092934.652000",
    "092936.653000",
    "092938.651000",
    "092940.651000",
    "092942.651000",
    "092944.651000",
    "092947.153000",
    "092948.653000",
    "092951.153000",
    "092952.653000",
    "092954.652000",
    "092956.651000",
    "092959.152000",
    "093000.652000",
    "093002.652000",
    "093004.652000",
    "093006.653000",
    "093008.653000",
    "093011.153000",
    "093012.652000",
    "093015.151000",
    "093016.651000",
    "093018.652000",
    "093020.653000",
    "093022.652000",
    "093024.652000",
    "093026.653000",
    "093029.153000",
    "093030.651000",
    "093032.652000",
    "093034.651000",
    "093036.651000",
    "093039.152000",
    "093040.653000",
    "093042.652000",
    "093044.653000",
    "093046.559000"
   ],
   "InstanceCreationTime": [
    "092217.178000",
    "092219.153000",
    "092220.653000",
    "092222.651000",
    "092224.651000",
    "092226.651000",
    "092229.152000",
    "092230.653000",
    "092232.652000",
    "092234.652000",
    "092236.653000",
    "092238.651000",
    "092240.651000",
    "092242.651000",
    "092244.651000",
    "092246.653000",
    "092249.152000",
    "092251.152000",
    "092253.152000",
    "092254.653000",
    "092256.652000",
    "092259.152000",
    "092301.151000",
    "092302.651000",
    "092304.652000",
    "092306.653000",
    "092308.653000",
    "092310.652000",
    "092312.652000",
    "092315.151000",
    "092316.651000",
    "092318.651000",
    "092320.652000",
    "092322.652000",
    "092324.652000",
    "092326.653000",
    "092328.652000",
    "092330.652000",
    "092332.652000",
    "092334.651000",
    "092336.651000",
    "092339.153000",
    "092340.652000",
    "092342.652000",
    "092345.152000",
    "092347.152000",
    "092348.651000",
    "092350.652000",
    "092352.651000",
    "092354.652000",
    "092356.652000",
    "092358.653000",
    "092400.653000",
    "092402.652000",
    "092405.152000",
    "092406.652000",
    "092409.152000",
    "092410.651000",
    "092412.651000",
    "092414.653000",
    "092416.653000",
    "092418.652000",
    "092421.152000",
    "092422.652000",
    "092424.651000",
    "092426.652000",
    "092428.651000",
    "092430.653000",
    "092432.653000",
    "092434.653000",
    "092436.652000",
    "092438.652000",
    "092440.653000",
    "092443.151000",
    "092445.151000",
    "092446.651000",
    "092448.653000",
    "092451.152000",
    "092452.653000",
    "092454.653000",
    "092457.152000",
    "092458.652000",
    "092500.651000",
    "092502.651000",
    "092504.651000",
    "092506.652000",
    "092508.653000",
    "092510.653000",
    "092512.652000",
    "092514.652000",
    "092516.651000",
    "092518.652000",
    "092520.652000",
    "092522.652000",
    "092524.652000",
    "092526.652000",
    "092528.652000",
    "092530.653000",
    "092533.153000",
    "092534.651000",
    "092536.651000",
    "092538.651000",
    "092540.652000",
    "092543.153000",
    "092545.153000",
    "092546.652000",
    "092548.652000",
    "092550.652000",
    "092552.651000",
    "092554.651000",
    "092556.651000",
    "092558.652000",
    "092600.652000",
    "092603.153000",
    "092604.652000",
    "092606.652000",
    "092608.651000",
    "092610.651000",
    "092613.151000",
    "092615.151000",
    "092616.654000",
    "092618.652000",
    "092620.652000",
    "092623.152000",
    "092624.653000",
    "092626.652000",
    "092629.152000",
    "092631.151000",
    "092632.652000",
    "092635.153000",
    "092636.652000",
    "092639.152000",
    "092640.653000",
    "092642.653000",
    "092644.651000",
    "092646.651000",
    "092648.651000",
    "092651.152000",
    "092652.652000",
    "092654.652000",
    "092656.652000",
    "092659.152000",
    "092700.652000",
    "092702.652000",
    "092704.652000",
    "092707.152000",
    "092708.652000",
    "092710.652000",
    "092712.653000",
    "092714.653000",
    "092716.653000",
    "092718.651000",
    "092721.152000",
    "092722.651000",
    "092724.652000",
    "092726.652000",
    "092729.152000",
    "092730.652000",
    "092733.152000",
    "092734.652000",
    "092737.152000",
    "092738.651000",
    "092740.651000",
    "092742.651000",
    "092744.652000",
    "092747.152000",
    "092748.653000",
    "092750.653000",
    "092752.652000",
    "092754.651000",
    "092756.651000",
    "092758.651000",
    "092800.652000",
    "092802.653000",
    "092804.653000",
    "092806.653000",
    "092809.168000",
    "092811.152000",
    "092812.652000",
    "092814.651000",
    "092816.652000",
    "092818.652000",
    "092820.653000",
    "092822.653000",
    "092824.653000",
    "092826.652000",
    "092828.651000",
    "092830.652000",
    "092832.651000",
    "092834.652000",
    "092836.653000",
    "092839.152000",
    "092840.653000",
    "092842.653000",
    "092844.652000",
    "092846.651000",
    "092849.152000",
    "092850.651000",
    "092852.652000",
    "092854.652000",
    "092856.652000",
    "092858.652000",
    "092900.652000",
    "092902.653000",
    "092904.651000",
    "092906.651000",
    "092909.152000",
    "092910.653000",
    "092912.652000",
    "092915.152000",
    "092916.652000",
    "092919.152000",
    "092920.653000",
    "092922.652000",
    "092924.652000",
    "092926.652000",
    "092928.653000",
    "092930.652000",
    "092932.653000",
    "092934.652000",
    "092936.653000",
    "092938.651000",
    "092940.651000",
    "092942.651000",
    "092944.651000",
    "092947.153000",
    "092948.653000",
    "092951.153000",
    "092952.653000",
    "092954.652000",
    "092956.651000",
    "092959.152000",
    "093000.652000",
    "093002.652000",
    "093004.652000",
    "093006.653000",
    "093008.653000",
    "093011.153000",
    "093012.652000",
    "093015.151000",
    "093016.651000",
    "093018.652000",
    "093020.653000",
    "093022.652000",
    "093024.652000",
    "093026.653000",
    "093029.153000",
    "093030.651000",
    "093032.652000",
    "093034.651000",
    "093036.651000",
    "093039.152000",
    "093040.653000",
    "093042.652000",
    "093044.653000",
    "093046.559000"
   ],
   "InstanceNumber": [
    1,
    2,
    3,
    4,
    5,
    6,
    7,
    8,
    9,
    10,
    11,
    12,
    13,
    14,
    15,
    16,
    17,
    18,
    19,
    20,
    21,
    22,
    23,
    24,
    25,
    26,
    27,
    28,
    29,
    30,
    31,
    32,
    33,
    34,
    35,
    36,
    37,
    38,
    39,
    40,
    41,
    42,
    43,
    44,
    45,
    46,
    47,
    48,
    49,
    50,
    51,
    52,
    53,
    54,
    55,
    56,
    57,
    58,
    59,
    60,
    61,
    62,
    63,
    64,
    65,
    66,
    67,
    68,
    69,
    70,
    71,
    72,
    73,
    74,
    75,
    76,
    77,
    78,
    79,
    80,
    81,
    82,
    83,
    84,
    85,
    86,
    87,
    88,
    89,
    90,
    91,
    92,
    93,
    94,
    95,
    96,
    97,
    98,
    99,
    100,
    101,
    102,
    103,
    104,
    105,
    106,
    107,
    108,
    109,
    110,
    111,
    112,
    113,
    114,
    115,
    116,
    117,
    118,
    119,
    120,
    121,
    122,
    123,
    124,
    125,
    126,
    127,
    128,
    129,
    130,
    131,
    132,
    133,
    134,
    135,
    136,
    137,
    138,
    139,
    140,
    141,
    142,
    143,
    144,
    145,
    146,
    147,
    148,
    149,
    150,
    151,
    152,
    153,
    154,
    155,
    156,
    157,
    158,
    159,
    160,
    161,
    162,
    163,
    164,
    165,
    166,
    167,
    168,
    169,
    170,
    171,
    172,
    173,
    174,
    175,
    176,
    177,
    178,
    179,
    180,
    181,
    182,
    183,
    184,
    185,
    186,
    187,
    188,
    189,
    190,
    191,
    192,
    193,
    194,
    195,
    196,
    197,
    198,
    199,
    200,
    201,
    202,
    203,
    204,
    205,
    206,
    207,
    208,
    209,
    210,
    211,
    212,
    213,
    214,
    215,
    216,
    217,
    218,
    219,
    220,
    221,
    222,
    223,
    224,
    225,
    226,
    227,
    228,
    229,
    230,
    231,
    232,
    233,
    234,
    235,
    236,
    237,
    238,
    239,
    240,
    241,
    242,
    243,
    244,
    245,
    246,
    247,
    248,
    249,
    250,
    251,
    252,
    253,
    254,
    255,
    256
   ],
   "LargestImagePixelValue": [
    3841,
    3807,
    3819,
    3763,
    3761,
    3756,
    3707,
    3709,
    3764,
    3764,
    3763,
    3735,
    3693,
    3730,
    3696,
    3716,
    3734,
    3738,
    3735,
    3706,
    3729,
    3720,
    3726,
    3748,
    3742,
    3746,
    3787,
    3787,
    3776,
    3749,
    3708,
    3710,
    3765,
    3798,
    3811,
    3813,
    3818,
    3808,
    3793,
    3768,
    3739,
    3752,
    3759,
    3791,
    3785,
    3760,
    3766,
    3740,
    3772,
    3766,
    3797,
    3799,
    3808,
    3802,
    3785,
    3764,
    3785,
    3777,
    3746,
    3737,
    3748,
    3762,
    3794,
    3786,
    3754,
    3725,
    3709,
    3735,
    3761,
    3758,
    3790,
    3779,
    3774,
    3729,
    3713,
    3753,
    3798,
    3742,
    3724,
    3664,
    3700,
    3738,
    3785,
    3781,
    3782,
    3737,
    3749,
    3737,
    3735,
    3762,
    3744,
    3739,
    3734,
    3728,
    3721,
    3739,
    3741,
    3747,
    3768,
    3793,
    3759,
    3705,
    3766,
    3751,
    3783,
    3803,
    3753,
    3730,
    3780,
    3750,
    3759,
    3740,
    3740,
    3776,
    3794,
    3787,
    3776,
    3744,
    3753,
    3735,
    3739,
    3756,
    3799,
    3803,
    3811,
    3772,
    3762,
    3778,
    3756,
    3752,
    3759,
    3721,
    3734,
    3775,
    3776,
    3801,
    3790,
    3814,
    3798,
    3755,
    3696,
    3721,
    3720,
    3725,
    3711,
    3747,
    3744,
    3753,
    3766,
    3795,
    3800,
    3820,
    3821,
    3848,
    3878,
    3838,
    3861,
    3832,
    3807,
    3782,
    3761,
    3772,
    3762,
    3755,
    3715,
    3681,
    3709,
    3730,
    3757,
    3734,
    3753,
    3756,
    3734,
    3737,
    3753,
    3777,
    3766,
    3791,
    3778,
    3753,
    3749,
    3776,
    3773,
    3797,
    3799,
    3850,
    3801,
    3801,
    3775,
    3799,
    3772,
    3785,
    3773,
    3765,
    3748,
    3736,
    3692,
    3721,
    3742,
    3766,
    3773,
    3749,
    3728,
    3738,
    3732,
    3764,
    3753,
    3759,
    3736,
    3724,
    3737,
    3720,
    3768,
    3753,
    3729,
    3759,
    3808,
    3811,
    3819,
    3787,
    3796,
    3762,
    3772,
    3757,
    3788,
    3806,
    3818,
    3797,
    3740,
    3704,
    3728,
    3740,
    3689,
    3720,
    3717,
    3750,
    3790,
    3777,
    3777,
    3805,
    3789,
    3774,
    3727,
    3756,
    3740,
    3718,
    3670,
    3679,
    3738,
    3793,
    3837,
    3799,
    3783,
    3787,
    3755,
    3777
   ],
   "WindowCenter": [
    805.0,
    804.0,
    805.0,
    805.0,
    805.0,
    804.0,
    804.0,
    804.0,
    805.0,
    805.0,
    805.0,
    807.0,
    807.0,
    808.0,
    807.0,
    807.0,
    807.0,
    807.0,
    808.0,
    806.0,
    805.0,
    806.0,
    807.0,
    807.0,
    806.0,
    806.0,
    806.0,
    805.0,
    805.0,
    805.0,
    805.0,
    806.0,
    806.0,
    805.0,
    806.0,
    806.0,
    807.0,
    807.0,
    807.0,
    807.0,
    807.0,
    808.0,
    808.0,
    808.0,
    807.0,
    806.0,
    806.0,
    806.0,
    807.0,
    807.0,
    808.0,
    807.0,
    807.0,
    807.0,
    808.0,
    808.0,
    807.0,
    806.0,
    806.0,
    806.0,
    806.0,
    805.0,
    805.0,
    805.0,
    806.0,
    805.0,
    805.0,
    805.0,
    804.0,
    805.0,
    806.0,
    806.0,
    806.0,
    806.0,
    805.0,
    806.0,
    806.0,
    806.0,
    805.0,
    804.0,
    804.0,
    805.0,
    805.0,
    805.0,
    806.0,
    806.0,
    805.0,
    805.0,
    806.0,
    806.0,
    807.0,
    807.0,
    805.0,
    805.0,
    805.0,
    805.0,
    806.0,
    806.0,
    807.0,
    807.0,
    805.0,
    804.0,
    804.0,
    805.0,
    805.0,
    806.0,
    805.0,
    805.0,
    804.0,
    805.0,
    806.0,
    806.0,
    805.0,
    805.0,
    806.0,
    807.0,
    807.0,
    807.0,
    806.0,
    805.0,
    805.0,
    806.0,
    807.0,
    808.0,
    808.0,
    808.0,
    807.0,
