{
  "AcquisitionMatrixPE": 100,
  "AcquisitionNumber": 1,
  "AcquisitionTime": "10:32:29.117500",
  "BandwidthPerPixelPhaseEncode": 18.519,
  "BaseResolution": 100,
  "BodyPartExamined": "BRAIN",
  "ConsistencyInfo": "N4_VE11C_LATEST_20160120",
  "ConversionSoftware": "dcm2niix",
  "ConversionSoftwareVersion": "v1.0.20180622 GCC4.9.2",
  "DerivedVendorReportedEchoSpacing": 0.000539986,
  "DeviceSerialNumber": "166078",
  "DwellTime": 2.1e-06,
  "EchoTime": 0.034,
  "EchoTrainLength": 100,
  "EffectiveEchoSpacing": 0.000539986,
  "FlipAngle": 90,
  "ImageOrientationPatientDICOM": [0.999999, -0.000346191, -0.00130108, 6.04834e-09, 0.966377, -0.25713],
  "ImageType": [
    "ORIGINAL",
    "PRIMARY",
    "M",
    "ND",
    "MOSAIC"
],
  "InPlanePhaseEncodingDirectionDICOM": "COL",
  "InstitutionAddress": "Street_StreetNo_Bei_Jing_District_CN_ZIP",
  "InstitutionName": "BeiJing_Normal_University",
  "InstitutionalDepartmentName": "Department",
  "MRAcquisitionType": "2D",
  "MagneticFieldStrength": 3,
  "Manufacturer": "Siemens",
  "ManufacturersModelName": "Prisma",
  "Modality": "MR",
  "MultibandAccelerationFactor": 3,
  "PartialFourier": 1,
  "PatientPosition": "HFS",
  "PercentPhaseFOV": 100,
  "PhaseEncodingDirection": "j-",
  "PhaseEncodingSteps": 100,
  "PhaseResolution": 1,
  "PixelBandwidth": 2380,
  "ProcedureStepDescription": "BNU_P2018_64CH_Zhen.ZongLei",
  "ProtocolName": "bold_100x100_s3_2x2x2_static_256",
  "PulseSequenceDetails": "%SiemensSeq%_ep2d_bold",
  "ReceiveCoilActiveElements": "HC1-7;NC1",
  "ReceiveCoilName": "HeadNeck_64",
  "ReconMatrixPE": 100,
  "RepetitionTime": 2,
  "SAR": 0.0822452,
  "ScanOptions": "FS",
  "ScanningSequence": "EP",
  "SequenceName": "_epfid2d1_100",
  "SequenceVariant": "SK",
  "SeriesDescription": "bold_100x100_s3_2x2x2_static_256",
  "SeriesNumber": 13,
  "ShimSetting": [-5471, -11489, -1302, 484, -15, -192, -171, 97],
  "SliceThickness": 2,
  "SliceTiming": [1.485, 0, 0.99, 0.0825, 1.0725, 0.165, 1.155, 0.2475, 1.2375, 0.33, 1.32, 0.4125, 1.4025, 0.5775, 1.5675, 0.66, 1.65, 0.7425, 1.7325, 0.825, 1.815, 0.9075, 1.8975, 0.495, 1.485, 0, 0.99, 0.0825, 1.0725, 0.165, 1.155, 0.2475, 1.2375, 0.33, 1.32, 0.4125, 1.4025, 0.5775, 1.5675, 0.66, 1.65, 0.7425, 1.7325, 0.825, 1.815, 0.9075, 1.8975, 0.495, 1.485, 0, 0.99, 0.0825, 1.0725, 0.165, 1.155, 0.2475, 1.2375, 0.33, 1.32, 0.4125, 1.4025, 0.5775, 1.5675, 0.66, 1.65, 0.7425, 1.7325, 0.825, 1.815, 0.9075, 1.8975, 0.495],
  "SoftwareVersions": "syngo_MR_E11",
  "SpacingBetweenSlices": 2,
  "StationName": "AWP166078",
  "TaskName": "naturalvision",
  "TotalReadoutTime": 0.0534586,
  "TxRefAmp": 233.801,
  "dcmmeta_affine": [
    [-1.9999982118606567, 1.2096689872009847e-08, -0.00269269198179245, 102.7587661743164],
    [0.0006923822220414877, 1.9327539205551147, -0.5142585635185242, -76.64244842529297],
    [-0.002602152293547988, 0.5142590403556824, 1.932752251625061, -110.37429809570312],
    [0.0, 0.0, 0.0, 1.0]
],
  "dcmmeta_reorient_transform": [
    [0.0, -1.0, 0.0, 99.0],
    [1.0, 0.0, 0.0, 0.0],
    [0.0, 0.0, 1.0, 0.0],
    [0.0, 0.0, 0.0, 1.0]
],
  "dcmmeta_shape": [100, 100, 72, 256],
  "dcmmeta_slice_dim": 2,
  "dcmmeta_version": 0.6,
  "global": {
    "const": {
      "AcquisitionMatrix": [100, 0, 0, 100],
      "AngioFlag": "N",
      "BitsAllocated": 16,
      "BitsStored": 12,
      "BodyPartExamined": "BRAIN",
      "Columns": 900,
      "EchoNumbers": 1,
      "EchoTime": 34.0,
      "EchoTrainLength": 100,
      "FlipAngle": 90.0,
      "HighBit": 11,
      "ImageOrientationPatient": [0.99999909367593, -0.000346191114, -0.0013010761072, 6.048345e-09, 0.96637695221066, -0.257129512573],
      "ImagePositionPatient": [-902.75804604839, -887.52479382795, 147.28181997335],
      "ImageType": [
        "ORIGINAL",
        "PRIMARY",
        "M",
        "ND",
        "MOSAIC"
],
      "ImagedNucleus": "1H",
      "ImagingFrequency": 123.257796,
      "InPlanePhaseEncodingDirection": "COL",
      "MRAcquisitionType": "2D",
      "MagneticFieldStrength": 3.0,
      "Manufacturer": "SIEMENS",
      "ManufacturerModelName": "Prisma",
      "Modality": "MR",
      "NumberOfAverages": 1.0,
      "NumberOfPhaseEncodingSteps": 100,
      "PercentPhaseFieldOfView": 100.0,
      "PercentSampling": 100.0,
      "PerformedProcedureStepStartTime": "090340.699000",
      "PhotometricInterpretation": "MONOCHROME2",
      "PixelBandwidth": 2380.0,
      "PixelRepresentation": 0,
      "PixelSpacing": [2.0, 2.0],
      "ProtocolName": "bold_100x100_s3_2x2x2_static_256",
      "RepetitionTime": 2000.0,
      "Rows": 900,
      "SAR": 0.08224520691132,
      "SamplesPerPixel": 1,
      "ScanOptions": "FS",
      "ScanningSequence": "EP",
      "SequenceName": "*epfid2d1_100",
      "SequenceVariant": "SK",
      "SeriesDescription": "bold_100x100_s3_2x2x2_static_256",
      "SeriesNumber": 13,
      "SeriesTime": "103232.138000",
      "SliceLocation": -87.094408097982,
      "SliceThickness": 2.0,
      "SmallestImagePixelValue": 0,
      "SoftwareVersions": "syngo MR E11",
      "SpacingBetweenSlices": 2.0000000449449,
      "SpecificCharacterSet": "ISO_IR 100",
      "StudyID": "1",
      "StudyTime": "090340.649000",
      "TransmitCoilName": "Body",
      "VariableFlipAngleFlag": "N",
      "WindowCenterWidthExplanation": "Algo1",
      "dBdt": 0.0},
    "slices": {}
  },
  "time": {
    "samples": {
      "AcquisitionNumber": [1, 2, 3, 4, 5, 6, 7, 8, 9, 10, 11, 12, 13, 14, 15, 16, 17, 18, 19, 20, 21, 22, 23, 24, 25, 26, 27, 28, 29, 30, 31, 32, 33, 34, 35, 36, 37, 38, 39, 40, 41, 42, 43, 44, 45, 46, 47, 48, 49, 50, 51, 52, 53, 54, 55, 56, 57, 58, 59, 60, 61, 62, 63, 64, 65, 66, 67, 68, 69, 70, 71, 72, 73, 74, 75, 76, 77, 78, 79, 80, 81, 82, 83, 84, 85, 86, 87, 88, 89, 90, 91, 92, 93, 94, 95, 96, 97, 98, 99, 100, 101, 102, 103, 104, 105, 106, 107, 108, 109, 110, 111, 112, 113, 114, 115, 116, 117, 118, 119, 120, 121, 122, 123, 124, 125, 126, 127, 128, 129, 130, 131, 132, 133, 134, 135, 136, 137, 138, 139, 140, 141, 142, 143, 144, 145, 146, 147, 148, 149, 150, 151, 152, 153, 154, 155, 156, 157, 158, 159, 160, 161, 162, 163, 164, 165, 166, 167, 168, 169, 170, 171, 172, 173, 174, 175, 176, 177, 178, 179, 180, 181, 182, 183, 184, 185, 186, 187, 188, 189, 190, 191, 192, 193, 194, 195, 196, 197, 198, 199, 200, 201, 202, 203, 204, 205, 206, 207, 208, 209, 210, 211, 212, 213, 214, 215, 216, 217, 218, 219, 220, 221, 222, 223, 224, 225, 226, 227, 228, 229, 230, 231, 232, 233, 234, 235, 236, 237, 238, 239, 240, 241, 242, 243, 244, 245, 246, 247, 248, 249, 250, 251, 252, 253, 254, 255, 256],
      "AcquisitionTime": ["103229.117500", "103231.117500", "103233.117500", "103235.117500", "103237.117500", "103239.117500", "103241.117500", "103243.117500", "103245.117500", "103247.117500", "103249.117500", "103251.117500", "103253.117500", "103255.117500", "103257.117500", "103259.117500", "103301.117500", "103303.117500", "103305.117500", "103307.117500", "103309.117500", "103311.117500", "103313.117500", "103315.117500", "103317.117500", "103319.117500", "103321.117500", "103323.117500", "103325.117500", "103327.117500", "103329.117500", "103331.117500", "103333.117500", "103335.117500", "103337.117500", "103339.117500", "103341.117500", "103343.117500", "103345.117500", "103347.117500", "103349.117500", "103351.117500", "103353.117500", "103355.117500", "103357.117500", "103359.117500", "103401.117500", "103403.117500", "103405.117500", "103407.117500", "103409.117500", "103411.117500", "103413.117500", "103415.117500", "103417.117500", "103419.117500", "103421.117500", "103423.117500", "103425.117500", "103427.117500", "103429.117500", "103431.117500", "103433.117500", "103435.117500", "103437.117500", "103439.117500", "103441.117500", "103443.117500", "103445.117500", "103447.117500", "103449.117500", "103451.117500", "103453.117500", "103455.117500", "103457.117500", "103459.117500", "103501.117500", "103503.117500", "103505.117500", "103507.117500", "103509.117500", "103511.117500", "103513.117500", "103515.117500", "103517.117500", "103519.117500", "103521.117500", "103523.117500", "103525.117500", "103527.117500", "103529.117500", "103531.117500", "103533.117500", "103535.117500", "103537.117500", "103539.117500", "103541.117500", "103543.117500", "103545.117500", "103547.117500", "103549.117500", "103551.117500", "103553.117500", "103555.117500", "103557.117500", "103559.117500", "103601.117500", "103603.117500", "103605.117500", "103607.117500", "103609.117500", "103611.117500", "103613.117500", "103615.117500", "103617.117500", "103619.117500", "103621.117500", "103623.117500", "103625.117500", "103627.117500", "103629.117500", "103631.117500", "103633.117500", "103635.117500", "103637.117500", "103639.117500", "103641.117500", "103643.117500", "103645.117500", "103647.117500", "103649.117500", "103651.117500", "103653.117500", "103655.117500", "103657.117500", "103659.117500", "103701.117500", "103703.117500", "103705.117500", "103707.117500", "103709.117500", "103711.117500", "103713.117500", "103715.117500", "103717.117500", "103719.117500", "103721.117500", "103723.117500", "103725.117500", "103727.117500", "103729.117500", "103731.117500", "103733.117500", "103735.117500", "103737.117500", "103739.117500", "103741.117500", "103743.117500", "103745.117500", "103747.117500", "103749.117500", "103751.117500", "103753.117500", "103755.117500", "103757.117500", "103759.117500", "103801.117500", "103803.117500", "103805.117500", "103807.117500", "103809.117500", "103811.117500", "103813.117500", "103815.117500", "103817.117500", "103819.117500", "103821.117500", "103823.117500", "103825.117500", "103827.117500", "103829.117500", "103831.117500", "103833.117500", "103835.117500", "103837.117500", "103839.117500", "103841.117500", "103843.117500", "103845.117500", "103847.117500", "103849.117500", "103851.117500", "103853.117500", "103855.117500", "103857.117500", "103859.117500", "103901.117500", "103903.117500", "103905.117500", "103907.117500", "103909.117500", "103911.117500", "103913.117500", "103915.117500", "103917.117500", "103919.117500", "103921.117500", "103923.117500", "103925.117500", "103927.117500", "103929.117500", "103931.117500", "103933.117500", "103935.117500", "103937.117500", "103939.117500", "103941.117500", "103943.117500", "103945.117500", "103947.117500", "103949.117500", "103951.117500", "103953.117500", "103955.117500", "103957.117500", "103959.117500", "104001.117500", "104003.117500", "104005.117500", "104007.117500", "104009.117500", "104011.117500", "104013.117500", "104015.117500", "104017.117500", "104019.117500", "104021.117500", "104023.117500", "104025.117500", "104027.117500", "104029.117500", "104031.117500", "104033.117500", "104035.117500", "104037.117500", "104039.117500", "104041.117500", "104043.117500", "104045.117500", "104047.117500", "104049.117500", "104051.117500", "104053.117500", "104055.117500", "104057.117500", "104059.117500"],
      "ContentTime": ["103232.142000", "103233.638000", "103235.639000", "103237.639000", "103239.639000", "103241.638000", "103243.639000", "103245.638000", "103247.638000", "103249.638000", "103251.637000", "103253.639000", "103255.639000", "103257.638000", "103259.638000", "103301.638000", "103303.638000", "103305.638000", "103307.637000", "103309.638000", "103311.639000", "103313.638000", "103315.638000", "103317.639000", "103319.638000", "103321.638000", "103323.638000", "103325.638000", "103327.638000", "103329.638000", "103331.639000", "103333.638000", "103335.639000", "103337.638000", "103339.637000", "103341.638000", "103343.637000", "103345.639000", "103347.638000", "103349.638000", "103351.639000", "103353.639000", "103355.638000", "103357.638000", "103359.638000", "103401.638000", "103403.639000", "103405.638000", "103407.639000", "103409.639000", "103411.638000", "103413.637000", "103415.638000", "103417.637000", "103419.637000", "103421.639000", "103423.638000", "103425.639000", "103427.638000", "103429.638000", "103431.637000", "103433.637000", "103435.638000", "103437.638000", "103439.638000", "103441.638000", "103443.638000", "103445.638000", "103447.638000", "103449.638000", "103451.638000", "103453.638000", "103455.638000", "103457.639000", "103459.639000", "103501.638000", "103503.639000", "103505.637000", "103507.638000", "103509.638000", "103511.637000", "103513.639000", "103515.639000", "103517.639000", "103519.638000", "103521.638000", "103523.638000", "103525.637000", "103527.637000", "103529.638000", "103531.638000", "103533.638000", "103535.639000", "103537.638000", "103539.637000", "103541.638000", "103543.637000", "103545.638000", "103547.639000", "103549.639000", "103551.639000", "103553.638000", "103555.638000", "103557.638000", "103559.637000", "103601.638000", "103603.638000", "103605.639000", "103607.639000", "103609.639000", "103611.639000", "103613.639000", "103615.637000", "103617.638000", "103619.638000", "103621.637000", "103623.638000", "103625.638000", "103627.639000", "103629.639000", "103631.637000", "103633.638000", "103635.638000", "103637.638000", "103639.638000", "103641.639000", "103643.638000", "103645.639000", "103647.639000", "103649.637000", "103651.637000", "103653.638000", "103655.638000", "103657.638000", "103659.639000", "103701.639000", "103703.638000", "103705.639000", "103707.638000", "103709.638000", "103711.637000", "103713.637000", "103715.639000", "103717.638000", "103719.638000", "103721.638000", "103723.638000", "103725.638000", "103727.638000", "103729.638000", "103731.637000", "103733.639000", "103735.638000", "103737.639000", "103739.638000", "103741.638000", "103743.637000", "103745.638000", "103747.637000", "103749.638000", "103751.639000", "103753.639000", "103755.639000", "103757.638000", "103759.637000", "103801.638000", "103803.638000", "103805.638000", "103807.639000", "103809.638000", "103811.639000", "103813.639000", "103815.639000", "103817.637000", "103819.637000", "103821.638000", "103823.638000", "103825.638000", "103827.639000", "103829.639000", "103831.639000", "103833.639000", "103835.637000", "103837.637000", "103839.638000", "103841.637000", "103843.639000", "103845.639000", "103847.639000", "103849.639000", "103851.638000", "103853.638000", "103855.637000", "103857.638000", "103859.638000", "103901.639000", "103903.639000", "103905.638000", "103907.639000", "103909.637000", "103911.637000", "103913.638000", "103915.638000", "103917.639000", "103919.639000", "103921.639000", "103923.638000", "103925.639000", "103927.638000", "103929.637000", "103931.638000", "103933.638000", "103935.639000", "103937.638000", "103939.639000", "103941.639000", "103943.639000", "103945.638000", "103947.638000", "103949.638000", "103951.648000", "103953.639000", "103955.639000", "103957.638000", "103959.639000", "104001.638000", "104003.637000", "104005.637000", "104007.638000", "104009.639000", "104011.639000", "104013.638000", "104015.639000", "104017.639000", "104019.637000", "104021.638000", "104023.638000", "104025.638000", "104027.639000", "104029.639000", "104031.639000", "104033.638000", "104035.639000", "104037.638000", "104039.638000", "104041.637000", "104043.637000", "104045.639000", "104047.639000", "104049.639000", "104051.639000", "104053.638000", "104055.637000", "104057.638000", "104059.638000", "104101.226000"],
      "InstanceCreationTime": ["103232.142000", "103233.638000", "103235.639000", "103237.639000", "103239.639000", "103241.638000", "103243.639000", "103245.638000", "103247.638000", "103249.638000", "103251.637000", "103253.639000", "103255.639000", "103257.638000", "103259.638000", "103301.638000", "103303.638000", "103305.638000", "103307.637000", "103309.638000", "103311.639000", "103313.638000", "103315.638000", "103317.639000", "103319.638000", "103321.638000", "103323.638000", "103325.638000", "103327.638000", "103329.638000", "103331.639000", "103333.638000", "103335.639000", "103337.638000", "103339.637000", "103341.638000", "103343.637000", "103345.639000", "103347.638000", "103349.638000", "103351.639000", "103353.639000", "103355.638000", "103357.638000", "103359.638000", "103401.638000", "103403.639000", "103405.638000", "103407.639000", "103409.639000", "103411.638000", "103413.637000", "103415.638000", "103417.637000", "103419.637000", "103421.639000", "103423.638000", "103425.639000", "103427.638000", "103429.638000", "103431.637000", "103433.637000", "103435.638000", "103437.638000", "103439.638000", "103441.638000", "103443.638000", "103445.638000", "103447.638000", "103449.638000", "103451.638000", "103453.638000", "103455.638000", "103457.639000", "103459.639000", "103501.638000", "103503.639000", "103505.637000", "103507.638000", "103509.638000", "103511.637000", "103513.639000", "103515.639000", "103517.639000", "103519.638000", "103521.638000", "103523.638000", "103525.637000", "103527.637000", "103529.638000", "103531.638000", "103533.638000", "103535.639000", "103537.638000", "103539.637000", "103541.638000", "103543.637000", "103545.638000", "103547.639000", "103549.639000", "103551.639000", "103553.638000", "103555.638000", "103557.638000", "103559.637000", "103601.638000", "103603.638000", "103605.639000", "103607.639000", "103609.639000", "103611.639000", "103613.639000", "103615.637000", "103617.638000", "103619.638000", "103621.637000", "103623.638000", "103625.638000", "103627.639000", "103629.639000", "103631.637000", "103633.638000", "103635.638000", "103637.638000", "103639.638000", "103641.639000", "103643.638000", "103645.639000", "103647.639000", "103649.637000", "103651.637000", "103653.638000", "103655.638000", "103657.638000", "103659.639000", "103701.639000", "103703.638000", "103705.639000", "103707.638000", "103709.638000", "103711.637000", "103713.637000", "103715.639000", "103717.638000", "103719.638000", "103721.638000", "103723.638000", "103725.638000", "103727.638000", "103729.638000", "103731.637000", "103733.639000", "103735.638000", "103737.639000", "103739.638000", "103741.638000", "103743.637000", "103745.638000", "103747.637000", "103749.638000", "103751.639000", "103753.639000", "103755.639000", "103757.638000", "103759.637000", "103801.638000", "103803.638000", "103805.638000", "103807.639000", "103809.638000", "103811.639000", "103813.639000", "103815.639000", "103817.637000", "103819.637000", "103821.638000", "103823.638000", "103825.638000", "103827.639000", "103829.639000", "103831.639000", "103833.639000", "103835.637000", "103837.637000", "103839.638000", "103841.637000", "103843.639000", "103845.639000", "103847.639000", "103849.639000", "103851.638000", "103853.638000", "103855.637000", "103857.638000", "103859.638000", "103901.639000", "103903.639000", "103905.638000", "103907.639000", "103909.637000", "103911.637000", "103913.638000", "103915.638000", "103917.639000", "103919.639000", "103921.639000", "103923.638000", "103925.639000", "103927.638000", "103929.637000", "103931.638000", "103933.638000", "103935.639000", "103937.638000", "103939.639000", "103941.639000", "103943.639000", "103945.638000", "103947.638000", "103949.638000", "103951.648000", "103953.639000", "103955.639000", "103957.638000", "103959.639000", "104001.638000", "104003.637000", "104005.637000", "104007.638000", "104009.639000", "104011.639000", "104013.638000", "104015.639000", "104017.639000", "104019.637000", "104021.638000", "104023.638000", "104025.638000", "104027.639000", "104029.639000", "104031.639000", "104033.638000", "104035.639000", "104037.638000", "104039.638000", "104041.637000", "104043.637000", "104045.639000", "104047.639000", "104049.639000", "104051.639000", "104053.638000", "104055.637000", "104057.638000", "104059.638000", "104101.226000"],
      "InstanceNumber": [1, 2, 3, 4, 5, 6, 7, 8, 9, 10, 11, 12, 13, 14, 15, 16, 17, 18, 19, 20, 21, 22, 23, 24, 25, 26, 27, 28, 29, 30, 31, 32, 33, 34, 35, 36, 37, 38, 39, 40, 41, 42, 43, 44, 45, 46, 47, 48, 49, 50, 51, 52, 53, 54, 55, 56, 57, 58, 59, 60, 61, 62, 63, 64, 65, 66, 67, 68, 69, 70, 71, 72, 73, 74, 75, 76, 77, 78, 79, 80, 81, 82, 83, 84, 85, 86, 87, 88, 89, 90, 91, 92, 93, 94, 95, 96, 97, 98, 99, 100, 101, 102, 103, 104, 105, 106, 107, 108, 109, 110, 111, 112, 113, 114, 115, 116, 117, 118, 119, 120, 121, 122, 123, 124, 125, 126, 127, 128, 129, 130, 131, 132, 133, 134, 135, 136, 137, 138, 139, 140, 141, 142, 143, 144, 145, 146, 147, 148, 149, 150, 151, 152, 153, 154, 155, 156, 157, 158, 159, 160, 161, 162, 163, 164, 165, 166, 167, 168, 169, 170, 171, 172, 173, 174, 175, 176, 177, 178, 179, 180, 181, 182, 183, 184, 185, 186, 187, 188, 189, 190, 191, 192, 193, 194, 195, 196, 197, 198, 199, 200, 201, 202, 203, 204, 205, 206, 207, 208, 209, 210, 211, 212, 213, 214, 215, 216, 217, 218, 219, 220, 221, 222, 223, 224, 225, 226, 227, 228, 229, 230, 231, 232, 233, 234, 235, 236, 237, 238, 239, 240, 241, 242, 243, 244, 245, 246, 247, 248, 249, 250, 251, 252, 253, 254, 255, 256],
      "LargestImagePixelValue": [2838, 2816, 2806, 2776, 2808, 2791, 2798, 2794, 2779, 2791, 2772, 2796, 2783, 2823, 2845, 2800, 2840, 2792, 2789, 2781, 2791, 2795, 2777, 2766, 2763, 2786, 2794, 2786, 2812, 2798, 2839, 2812, 2798, 2803, 2795, 2797, 2767, 2806, 2808, 2803, 2763, 2807, 2812, 2770, 2788, 2823, 2779, 2801, 2784, 2765, 2817, 2793, 2839, 2790, 2786, 2820, 2812, 2841, 2783, 2797, 2804, 2790, 2785, 2759, 2785, 2838, 2844, 2809, 2782, 2835, 2766, 2780, 2827, 2795, 2794, 2798, 2831, 2776, 2823, 2813, 2834, 2835, 2839, 2788, 2837, 2836, 2792, 2799, 2832, 2794, 2808, 2816, 2822, 2790, 2823, 2780, 2804, 2828, 2829, 2804, 2805, 2800, 2794, 2786, 2816, 2791, 2803, 2803, 2785, 2808, 2771, 2780, 2792, 2780, 2786, 2786, 2796, 2788, 2782, 2778, 2765, 2781, 2775, 2784, 2795, 2780, 2777, 2782, 2820, 2789, 2792, 2792, 2792, 2787, 2787, 2773, 2780, 2780, 2779, 2782, 2810, 2797, 2795, 2805, 2796, 2810, 2778, 2802, 2780, 2786, 2785, 2765, 2826, 2819, 2806, 2807, 2811, 2802, 2815, 2812, 2803, 2801, 2832, 2789, 2840, 2823, 2815, 2789, 2823, 2807, 2810, 2822, 2844, 2813, 2852, 2811, 2817, 2814, 2845, 2847, 2824, 2803, 2801, 2822, 2802, 2834, 2813, 2823, 2846, 2821, 2816, 2801, 2837, 2849, 2855, 2837, 2875, 2829, 2835, 2871, 2847, 2837, 2878, 2859, 2846, 2830, 2845, 2859, 2852, 2862, 2875, 2849, 2878, 2861, 2869, 2857, 2878, 2856, 2876, 2882, 2887, 2879, 2892, 2878, 2913, 2906, 2867, 2836, 2888, 2893, 2886, 2880, 2893, 2890, 2869, 2878, 2909, 2868, 2877, 2879, 2880, 2898, 2877, 2926, 2883, 2858, 2869, 2888, 2872, 2887, 2909, 2886, 2885, 2884, 2925, 2908],
      "WindowCenter": [764.0, 762.0, 760.0, 760.0, 762.0, 763.0, 762.0, 762.0, 762.0, 762.0, 762.0, 762.0, 761.0, 761.0, 761.0, 761.0, 760.0, 760.0, 760.0, 760.0, 759.0, 758.0, 759.0, 759.0, 759.0, 759.0, 759.0, 759.0, 758.0, 758.0, 759.0, 759.0, 759.0, 760.0, 761.0, 761.0, 761.0, 761.0, 761.0, 761.0, 760.0, 760.0, 760.0, 760.0, 760.0, 761.0, 759.0, 759.0, 759.0, 759.0, 759.0, 758.0, 759.0, 759.0, 758.0, 758.0, 760.0, 760.0, 759.0, 759.0, 759.0, 760.0, 760.0, 760.0, 759.0, 759.0, 760.0, 758.0, 756.0, 757.0, 757.0, 758.0, 760.0, 760.0, 759.0, 758.0, 759.0, 759.0, 760.0, 759.0, 760.0, 759.0, 760.0, 758.0, 760.0, 760.0, 760.0, 760.0, 760.0, 759.0, 759.0, 759.0, 759.0, 759.0, 761.0, 761.0, 760.0, 759.0, 758.0, 758.0, 758.0, 758.0, 758.0, 759.0, 759.0, 759.0, 759.0, 759.0, 759.0, 759.0, 758.0, 758.0, 758.0, 758.0, 758.0, 758.0, 759.0, 760.0, 759.0, 759.0, 758.0, 758.0, 759.0, 758.0, 758.0, 758.0, 758.0, 758.0, 758.0, 758.0, 759.0, 759.0, 759.0, 759.0, 760.0, 759.0, 759.0, 759.0, 760.0, 759.0, 758.0, 757.0, 758.0, 759.0, 759.0, 758.0, 758.0, 759.0, 760.0, 760.0, 759.0, 758.0, 760.0, 760.0, 760.0, 760.0, 759.0, 759.0, 760.0, 760.0, 760.0, 760.0, 760.0, 760.0, 760.0, 760.0, 760.0, 759.0, 760.0, 759.0, 760.0, 759.0, 760.0, 760.0, 760.0, 759.0, 759.0, 759.0, 760.0, 760.0, 760.0, 759.0, 759.0, 759.0, 759.0, 759.0, 759.0, 758.0, 757.0, 759.0, 760.0, 758.0, 758.0, 758.0, 759.0, 760.0, 761.0, 760.0, 760.0, 760.0, 759.0, 760.0, 761.0, 760.0, 760.0, 760.0, 760.0, 760.0, 760.0, 759.0, 759.0, 759.0, 759.0, 759.0, 760.0, 760.0, 761.0, 762.0, 762.0, 760.0, 761.0, 761.0, 760.0, 759.0, 759.0, 760.0, 761.0, 761.0, 761.0, 761.0, 760.0, 760.0, 760.0, 760.0, 760.0, 759.0, 760.0, 760.0, 760.0, 759.0, 759.0, 759.0, 759.0, 760.0, 759.0, 759.0, 760.0, 760.0, 760.0, 760.0, 760.0, 760.0, 760.0, 760.0, 760.0, 760.0],
      "WindowWidth": [1629.0, 1624.0, 1620.0, 1621.0, 1625.0, 1626.0, 1625.0, 1624.0, 1625.0, 1625.0, 1625.0, 1625.0, 1623.0, 1623.0, 1624.0, 1622.0, 1621.0, 1620.0, 1620.0, 1620.0, 1617.0, 1616.0, 1617.0, 1618.0, 1618.0, 1617.0, 1618.0, 1617.0, 1616.0, 1615.0, 1618.0, 1618.0, 1618.0, 1620.0, 1622.0, 1622.0, 1623.0, 1623.0, 1623.0, 1622.0, 1621.0, 1621.0, 1621.0, 1621.0, 1621.0, 1622.0, 1619.0, 1618.0, 1618.0, 1618.0, 1617.0, 1615.0, 1619.0, 1618.0, 1615.0, 1616.0, 1620.0, 1620.0, 1617.0, 1616.0, 1619.0, 1619.0, 1620.0, 1619.0, 1617.0, 1618.0, 1620.0, 1616.0, 1611.0, 1611.0, 1613.0, 1615.0, 1620.0, 1620.0, 1617.0, 1616.0, 1618.0, 1618.0, 1620.0, 1619.0, 1619.0, 1619.0, 1620.0, 1617.0, 1619.0, 1620.0, 1621.0, 1619.0, 1620.0, 1619.0, 1619.0, 1618.0, 1618.0, 1618.0, 1622.0, 1624.0, 1620.0, 1617.0, 1617.0, 1615.0, 1615.0, 1615.0, 1615.0, 1617.0, 1618.0, 1618.0, 1618.0, 1618.0, 1618.0, 1617.0, 1615.0, 1615.0, 1615.0, 1616.0, 1615.0, 1616.0, 1618.0, 1620.0, 1619.0, 1618.0, 1615.0, 1616.0, 1617.0, 1617.0, 1616.0, 1615.0, 1616.0, 1615.0, 1615.0, 1614.0, 1618.0, 1619.0, 1618.0, 1619.0, 1620.0, 1619.0, 1618.0, 1618.0, 1621.0, 1618.0, 1616.0, 1613.0, 1615.0, 1617.0, 1618.0, 1616.0, 1614.0, 1617.0, 1620.0, 1620.0, 1618.0, 1616.0, 1619.0, 1620.0, 1620.0, 1619.0, 1619.0, 1618.0, 1620.0, 1621.0, 1620.0, 1619.0, 1621.0, 1620.0, 1620.0, 1619.0, 1620.0, 1619.0, 1619.0, 1619.0, 1619.0, 1618.0, 1620.0, 1619.0, 1620.0, 1617.0, 1617.0, 1617.0, 1621.0, 1620.0, 1620.0, 1619.0, 1617.0, 1617.0, 1618.0, 1618.0, 1617.0, 1615.0, 1613.0, 1617.0, 1619.0, 1616.0, 1614.0, 1616.0, 1619.0, 1620.0, 1623.0, 1621.0, 1621.0, 1620.0, 1619.0, 1621.0, 1622.0, 1620.0, 1619.0, 1619.0, 1619.0, 1620.0, 1619.0, 1618.0, 1618.0, 1617.0, 1617.0, 1618.0, 1619.0, 1620.0, 1623.0, 1624.0, 1624.0, 1621.0, 1622.0, 1621.0, 1620.0, 1617.0, 1617.0, 1619.0, 1623.0, 1622.0, 1621.0, 1621.0, 1620.0, 1619.0, 1620.0, 1619.0, 1619.0, 1618.0, 1618.0, 1619.0, 1620.0, 1617.0, 1617.0, 1617.0, 1618.0, 1619.0, 1618.0, 1618.0, 1619.0, 1620.0, 1619.0, 1620.0, 1620.0, 1620.0, 1619.0, 1619.0, 1621.0, 1621.0]
    },
    "slices": {}
  }
}