{
 "AcquisitionMatrixPE": 100,
 "AcquisitionNumber": 1,
 "AcquisitionTime": "09:39:53.932500",
 "BandwidthPerPixelPhaseEncode": 18.519,
 "BaseResolution": 100,
 "BodyPartExamined": "BRAIN",
 "ConsistencyInfo": "N4_VE11C_LATEST_20160120",
 "ConversionSoftware": "dcm2niix",
 "ConversionSoftwareVersion": "v1.0.20180622 GCC4.9.2",
 "DerivedVendorReportedEchoSpacing": 0.000539986,
 "DeviceSerialNumber": "166078",
 "DwellTime": 2.1e-06,
 "EchoTime": 0.034,
 "EchoTrainLength": 100,
 "EffectiveEchoSpacing": 0.000539986,
 "FlipAngle": 90,
 "ImageOrientationPatientDICOM": [
  0.999999,
  -0.000346191,
  -0.00130108,
  6.04834e-09,
  0.966377,
  -0.25713
 ],
 "ImageType": [
  "ORIGINAL",
  "PRIMARY",
  "M",
  "ND",
  "MOSAIC"
 ],
 "InPlanePhaseEncodingDirectionDICOM": "COL",
 "InstitutionAddress": "Street_StreetNo_Bei_Jing_District_CN_ZIP",
 "InstitutionName": "BeiJing_Normal_University",
 "InstitutionalDepartmentName": "Department",
 "MRAcquisitionType": "2D",
 "MagneticFieldStrength": 3,
 "Manufacturer": "Siemens",
 "ManufacturersModelName": "Prisma",
 "Modality": "MR",
 "MultibandAccelerationFactor": 3,
 "PartialFourier": 1,
 "PatientPosition": "HFS",
 "PercentPhaseFOV": 100,
 "PhaseEncodingDirection": "j-",
 "PhaseEncodingSteps": 100,
 "PhaseResolution": 1,
 "PixelBandwidth": 2380,
 "ProcedureStepDescription": "BNU_P2018_64CH_Zhen.ZongLei",
 "ProtocolName": "bold_100x100_s3_2x2x2_static_256",
 "PulseSequenceDetails": "%SiemensSeq%_ep2d_bold",
 "ReceiveCoilActiveElements": "HC1-7;NC1",
 "ReceiveCoilName": "HeadNeck_64",
 "ReconMatrixPE": 100,
 "RepetitionTime": 2,
 "SAR": 0.0822452,
 "ScanOptions": "FS",
 "ScanningSequence": "EP",
 "SequenceName": "_epfid2d1_100",
 "SequenceVariant": "SK",
 "SeriesDescription": "bold_100x100_s3_2x2x2_static_256",
 "SeriesNumber": 6,
 "ShimSetting": [
  -5471,
  -11489,
  -1302,
  484,
  -15,
  -192,
  -171,
  97
 ],
 "SliceThickness": 2,
 "SliceTiming": [
  1.485,
  0,
  0.99,
  0.0825,
  1.0725,
  0.165,
  1.155,
  0.2475,
  1.2375,
  0.33,
  1.32,
  0.4125,
  1.4025,
  0.5775,
  1.5675,
  0.66,
  1.65,
  0.7425,
  1.7325,
  0.825,
  1.815,
  0.9075,
  1.8975,
  0.495,
  1.485,
  0,
  0.99,
  0.0825,
  1.0725,
  0.165,
  1.155,
  0.2475,
  1.2375,
  0.33,
  1.32,
  0.4125,
  1.4025,
  0.5775,
  1.5675,
  0.66,
  1.65,
  0.7425,
  1.7325,
  0.825,
  1.815,
  0.9075,
  1.8975,
  0.495,
  1.485,
  0,
  0.99,
  0.0825,
  1.0725,
  0.165,
  1.155,
  0.2475,
  1.2375,
  0.33,
  1.32,
  0.4125,
  1.4025,
  0.5775,
  1.5675,
  0.66,
  1.65,
  0.7425,
  1.7325,
  0.825,
  1.815,
  0.9075,
  1.8975,
  0.495
 ],
 "SoftwareVersions": "syngo_MR_E11",
 "SpacingBetweenSlices": 2,
 "StationName": "AWP166078",
 "TaskName": "imagenet",
 "TotalReadoutTime": 0.0534586,
 "TxRefAmp": 233.801,
 "dcmmeta_affine": [
  [
   -1.9999982118606567,
   1.2096689872009847e-08,
   -0.00269269198179245,
   102.7587661743164
  ],
  [
   0.0006923822220414877,
   1.9327539205551147,
   -0.5142585635185242,
   -76.64244842529297
  ],
  [
   -0.002602152293547988,
   0.5142590403556824,
   1.932752251625061,
   -110.37429809570312
  ],
  [
   0.0,
   0.0,
   0.0,
   1.0
  ]
 ],
 "dcmmeta_reorient_transform": [
  [
   0.0,
   -1.0,
   0.0,
   99.0
  ],
  [
   1.0,
   0.0,
   0.0,
   0.0
  ],
  [
   0.0,
   0.0,
   1.0,
   0.0
  ],
  [
   0.0,
   0.0,
   0.0,
   1.0
  ]
 ],
 "dcmmeta_shape": [
  100,
  100,
  72,
  256
 ],
 "dcmmeta_slice_dim": 2,
 "dcmmeta_version": 0.6,
 "global": {
  "const": {
   "AcquisitionMatrix": [
    100,
    0,
    0,
    100
   ],
   "AngioFlag": "N",
   "BitsAllocated": 16,
   "BitsStored": 12,
   "BodyPartExamined": "BRAIN",
   "Columns": 900,
   "EchoNumbers": 1,
   "EchoTime": 34.0,
   "EchoTrainLength": 100,
   "FlipAngle": 90.0,
   "HighBit": 11,
   "ImageOrientationPatient": [
    0.99999909367593,
    -0.000346191114,
    -0.0013010761072,
    6.048345e-09,
    0.96637695221066,
    -0.257129512573
   ],
   "ImagePositionPatient": [
    -902.75804604839,
    -887.52479382795,
    147.28181997335
   ],
   "ImageType": [
    "ORIGINAL",
    "PRIMARY",
    "M",
    "ND",
    "MOSAIC"
   ],
   "ImagedNucleus": "1H",
   "ImagingFrequency": 123.257785,
   "InPlanePhaseEncodingDirection": "COL",
   "MRAcquisitionType": "2D",
   "MagneticFieldStrength": 3.0,
   "Manufacturer": "SIEMENS",
   "ManufacturerModelName": "Prisma",
   "Modality": "MR",
   "NumberOfAverages": 1.0,
   "NumberOfPhaseEncodingSteps": 100,
   "PercentPhaseFieldOfView": 100.0,
   "PercentSampling": 100.0,
   "PerformedProcedureStepStartTime": "090340.699000",
   "PhotometricInterpretation": "MONOCHROME2",
   "PixelBandwidth": 2380.0,
   "PixelRepresentation": 0,
   "PixelSpacing": [
    2.0,
    2.0
   ],
   "ProtocolName": "bold_100x100_s3_2x2x2_static_256",
   "RepetitionTime": 2000.0,
   "Rows": 900,
   "SAR": 0.08224520691132,
   "SamplesPerPixel": 1,
   "ScanOptions": "FS",
   "ScanningSequence": "EP",
   "SequenceName": "*epfid2d1_100",
   "SequenceVariant": "SK",
   "SeriesDescription": "bold_100x100_s3_2x2x2_static_256",
   "SeriesNumber": 6,
   "SeriesTime": "093956.561000",
   "SliceLocation": -87.094408097982,
   "SliceThickness": 2.0,
   "SmallestImagePixelValue": 0,
   "SoftwareVersions": "syngo MR E11",
   "SpacingBetweenSlices": 2.0000000449449,
   "SpecificCharacterSet": "ISO_IR 100",
   "StudyID": "1",
   "StudyTime": "090340.649000",
   "TransmitCoilName": "Body",
   "VariableFlipAngleFlag": "N",
   "WindowCenterWidthExplanation": "Algo1",
   "dBdt": 0.0
  },
  "slices": {}
 },
 "time": {
  "samples": {
   "AcquisitionNumber": [
    1,
    2,
    3,
    4,
    5,
    6,
    7,
    8,
    9,
    10,
    11,
    12,
    13,
    14,
    15,
    16,
    17,
    18,
    19,
    20,
    21,
    22,
    23,
    24,
    25,
    26,
    27,
    28,
    29,
    30,
    31,
    32,
    33,
    34,
    35,
    36,
    37,
    38,
    39,
    40,
    41,
    42,
    43,
    44,
    45,
    46,
    47,
    48,
    49,
    50,
    51,
    52,
    53,
    54,
    55,
    56,
    57,
    58,
    59,
    60,
    61,
    62,
    63,
    64,
    65,
    66,
    67,
    68,
    69,
    70,
    71,
    72,
    73,
    74,
    75,
    76,
    77,
    78,
    79,
    80,
    81,
    82,
    83,
    84,
    85,
    86,
    87,
    88,
    89,
    90,
    91,
    92,
    93,
    94,
    95,
    96,
    97,
    98,
    99,
    100,
    101,
    102,
    103,
    104,
    105,
    106,
    107,
    108,
    109,
    110,
    111,
    112,
    113,
    114,
    115,
    116,
    117,
    118,
    119,
    120,
    121,
    122,
    123,
    124,
    125,
    126,
    127,
    128,
    129,
    130,
    131,
    132,
    133,
    134,
    135,
    136,
    137,
    138,
    139,
    140,
    141,
    142,
    143,
    144,
    145,
    146,
    147,
    148,
    149,
    150,
    151,
    152,
    153,
    154,
    155,
    156,
    157,
    158,
    159,
    160,
    161,
    162,
    163,
    164,
    165,
    166,
    167,
    168,
    169,
    170,
    171,
    172,
    173,
    174,
    175,
    176,
    177,
    178,
    179,
    180,
    181,
    182,
    183,
    184,
    185,
    186,
    187,
    188,
    189,
    190,
    191,
    192,
    193,
    194,
    195,
    196,
    197,
    198,
    199,
    200,
    201,
    202,
    203,
    204,
    205,
    206,
    207,
    208,
    209,
    210,
    211,
    212,
    213,
    214,
    215,
    216,
    217,
    218,
    219,
    220,
    221,
    222,
    223,
    224,
    225,
    226,
    227,
    228,
    229,
    230,
    231,
    232,
    233,
    234,
    235,
    236,
    237,
    238,
    239,
    240,
    241,
    242,
    243,
    244,
    245,
    246,
    247,
    248,
    249,
    250,
    251,
    252,
    253,
    254,
    255,
    256
   ],
   "AcquisitionTime": [
    "093953.932500",
    "093955.932500",
    "093957.932500",
    "093959.932500",
    "094001.932500",
    "094003.932500",
    "094005.932500",
    "094007.932500",
    "094009.932500",
    "094011.932500",
    "094013.932500",
    "094015.932500",
    "094017.932500",
    "094019.932500",
    "094021.932500",
    "094023.932500",
    "094025.932500",
    "094027.932500",
    "094029.932500",
    "094031.932500",
    "094033.932500",
    "094035.932500",
    "094037.932500",
    "094039.932500",
    "094041.932500",
    "094043.932500",
    "094045.932500",
    "094047.932500",
    "094049.932500",
    "094051.932500",
    "094053.932500",
    "094055.932500",
    "094057.932500",
    "094059.932500",
    "094101.932500",
    "094103.932500",
    "094105.932500",
    "094107.932500",
    "094109.932500",
    "094111.932500",
    "094113.932500",
    "094115.932500",
    "094117.932500",
    "094119.932500",
    "094121.932500",
    "094123.932500",
    "094125.932500",
    "094127.932500",
    "094129.932500",
    "094131.932500",
    "094133.932500",
    "094135.932500",
    "094137.932500",
    "094139.932500",
    "094141.932500",
    "094143.932500",
    "094145.932500",
    "094147.932500",
    "094149.932500",
    "094151.932500",
    "094153.932500",
    "094155.932500",
    "094157.932500",
    "094159.932500",
    "094201.932500",
    "094203.932500",
    "094205.932500",
    "094207.932500",
    "094209.932500",
    "094211.932500",
    "094213.932500",
    "094215.932500",
    "094217.932500",
    "094219.932500",
    "094221.932500",
    "094223.932500",
    "094225.932500",
    "094227.932500",
    "094229.932500",
    "094231.932500",
    "094233.932500",
    "094235.932500",
    "094237.932500",
    "094239.932500",
    "094241.932500",
    "094243.932500",
    "094245.932500",
    "094247.932500",
    "094249.932500",
    "094251.932500",
    "094253.932500",
    "094255.932500",
    "094257.932500",
    "094259.932500",
    "094301.932500",
    "094303.932500",
    "094305.932500",
    "094307.932500",
    "094309.932500",
    "094311.932500",
    "094313.932500",
    "094315.932500",
    "094317.932500",
    "094319.932500",
    "094321.932500",
    "094323.932500",
    "094325.932500",
    "094327.932500",
    "094329.932500",
    "094331.932500",
    "094333.932500",
    "094335.932500",
    "094337.932500",
    "094339.932500",
    "094341.932500",
    "094343.932500",
    "094345.932500",
    "094347.932500",
    "094349.932500",
    "094351.932500",
    "094353.932500",
    "094355.932500",
    "094357.932500",
    "094359.932500",
    "094401.932500",
    "094403.932500",
    "094405.932500",
    "094407.932500",
    "094409.932500",
    "094411.932500",
    "094413.932500",
    "094415.932500",
    "094417.932500",
    "094419.932500",
    "094421.932500",
    "094423.932500",
    "094425.932500",
    "094427.932500",
    "094429.932500",
    "094431.932500",
    "094433.932500",
    "094435.932500",
    "094437.932500",
    "094439.932500",
    "094441.932500",
    "094443.932500",
    "094445.932500",
    "094447.932500",
    "094449.932500",
    "094451.932500",
    "094453.932500",
    "094455.932500",
    "094457.932500",
    "094459.932500",
    "094501.932500",
    "094503.932500",
    "094505.932500",
    "094507.932500",
    "094509.932500",
    "094511.932500",
    "094513.932500",
    "094515.932500",
    "094517.932500",
    "094519.932500",
    "094521.932500",
    "094523.932500",
    "094525.932500",
    "094527.932500",
    "094529.932500",
    "094531.932500",
    "094533.932500",
    "094535.932500",
    "094537.932500",
    "094539.932500",
    "094541.932500",
    "094543.932500",
    "094545.932500",
    "094547.932500",
    "094549.932500",
    "094551.932500",
    "094553.932500",
    "094555.932500",
    "094557.932500",
    "094559.932500",
    "094601.932500",
    "094603.932500",
    "094605.932500",
    "094607.932500",
    "094609.932500",
    "094611.932500",
    "094613.932500",
    "094615.932500",
    "094617.932500",
    "094619.932500",
    "094621.932500",
    "094623.932500",
    "094625.932500",
    "094627.932500",
    "094629.932500",
    "094631.932500",
    "094633.932500",
    "094635.932500",
    "094637.932500",
    "094639.932500",
    "094641.932500",
    "094643.932500",
    "094645.932500",
    "094647.932500",
    "094649.932500",
    "094651.932500",
    "094653.932500",
    "094655.932500",
    "094657.932500",
    "094659.932500",
    "094701.932500",
    "094703.932500",
    "094705.932500",
    "094707.932500",
    "094709.932500",
    "094711.932500",
    "094713.932500",
    "094715.932500",
    "094717.932500",
    "094719.932500",
    "094721.932500",
    "094723.932500",
    "094725.932500",
    "094727.932500",
    "094729.932500",
    "094731.932500",
    "094733.932500",
    "094735.932500",
    "094737.932500",
    "094739.932500",
    "094741.932500",
    "094743.932500",
    "094745.932500",
    "094747.932500",
    "094749.932500",
    "094751.932500",
    "094753.932500",
    "094755.932500",
    "094757.932500",
    "094759.932500",
    "094801.932500",
    "094803.932500",
    "094805.932500",
    "094807.932500",
    "094809.932500",
    "094811.932500",
    "094813.932500",
    "094815.932500",
    "094817.932500",
    "094819.932500",
    "094821.932500",
    "094823.932500"
   ],
   "ContentTime": [
    "093956.565000",
    "093958.061000",
    "094000.060000",
    "094002.060000",
    "094004.060000",
    "094006.060000",
    "094008.062000",
    "094010.060000",
    "094012.061000",
    "094014.061000",
    "094016.060000",
    "094018.060000",
    "094020.061000",
    "094022.061000",
    "094024.060000",
    "094026.062000",
    "094028.560000",
    "094030.061000",
    "094032.061000",
    "094034.060000",
    "094036.060000",
    "094038.061000",
    "094040.061000",
    "094042.060000",
    "094044.061000",
    "094046.061000",
    "094048.060000",
    "094050.060000",
    "094052.060000",
    "094054.061000",
    "094056.060000",
    "094058.060000",
    "094100.060000",
    "094102.062000",
    "094104.060000",
    "094106.060000",
    "094108.082000",
    "094110.560000",
    "094112.060000",
    "094114.060000",
    "094116.061000",
    "094118.061000",
    "094120.060000",
    "094122.060000",
    "094124.060000",
    "094126.060000",
    "094128.061000",
    "094130.061000",
    "094132.060000",
    "094134.060000",
    "094136.062000",
    "094138.060000",
    "094140.060000",
    "094142.061000",
    "094144.061000",
    "094146.061000",
    "094148.060000",
    "094150.060000",
    "094152.061000",
    "094154.061000",
    "094156.061000",
    "094158.060000",
    "094200.060000",
    "094202.060000",
    "094204.061000",
    "094206.061000",
    "094208.061000",
    "094210.061000",
    "094212.062000",
    "094214.060000",
    "094216.060000",
    "094218.060000",
    "094220.061000",
    "094222.060000",
    "094224.060000",
    "094226.060000",
    "094228.062000",
    "094230.061000",
    "094232.060000",
    "094234.060000",
    "094236.061000",
    "094238.060000",
    "094240.561000",
    "094242.061000",
    "094244.060000",
    "094246.061000",
    "094248.060000",
    "094250.061000",
    "094252.061000",
    "094254.060000",
    "094256.061000",
    "094258.060000",
    "094300.061000",
    "094302.061000",
    "094304.061000",
    "094306.061000",
    "094308.060000",
    "094310.060000",
    "094312.061000",
    "094314.061000",
    "094316.060000",
    "094318.061000",
    "094320.061000",
    "094322.062000",
    "094324.060000",
    "094326.060000",
    "094328.060000",
    "094330.060000",
    "094332.060000",
    "094334.060000",
    "094336.060000",
    "094338.062000",
    "094340.061000",
    "094342.060000",
    "094344.060000",
    "094346.060000",
    "094348.061000",
    "094350.060000",
    "094352.061000",
    "094354.060000",
    "094356.062000",
    "094358.061000",
    "094400.060000",
    "094402.060000",
    "094404.060000",
    "094406.061000",
    "094408.060000",
    "094410.061000",
    "094412.061000",
    "094414.062000",
    "094416.061000",
    "094418.060000",
    "094420.060000",
    "094422.060000",
    "094424.060000",
    "094426.061000",
    "094428.060000",
    "094430.061000",
    "094432.062000",
    "094434.061000",
    "094436.060000",
    "094438.061000",
    "094440.061000",
    "094442.061000",
    "094444.061000",
    "094446.061000",
    "094448.062000",
    "094450.061000",
    "094452.061000",
    "094454.061000",
    "094456.060000",
    "094458.061000",
    "094500.060000",
    "094502.060000",
    "094504.061000",
    "094506.062000",
    "094508.061000",
    "094510.561000",
    "094512.561000",
    "094514.061000",
    "094516.060000",
    "094518.060000",
    "094520.060000",
    "094522.060000",
    "094524.062000",
    "094526.061000",
    "094528.061000",
    "094530.061000",
    "094532.061000",
    "094534.061000",
    "094536.060000",
    "094538.060000",
    "094540.062000",
    "094542.061000",
    "094544.061000",
    "094546.061000",
    "094548.061000",
    "094550.061000",
    "094552.061000",
    "094554.060000",
    "094556.060000",
    "094558.062000",
    "094600.561000",
    "094602.060000",
    "094604.060000",
    "094606.061000",
    "094608.060000",
    "094610.060000",
    "094612.061000",
    "094614.060000",
    "094616.061000",
    "094618.061000",
    "094620.060000",
    "094622.061000",
    "094624.061000",
    "094626.061000",
    "094628.060000",
    "094630.061000",
    "094632.060000",
    "094634.061000",
    "094636.061000",
    "094638.061000",
    "094640.060000",
    "094642.061000",
    "094644.060000",
    "094646.061000",
    "094648.060000",
    "094650.061000",
    "094652.062000",
    "094654.060000",
    "094656.061000",
    "094658.061000",
    "094700.061000",
    "094702.061000",
    "094704.061000",
    "094706.061000",
    "094708.061000",
    "094710.061000",
    "094712.061000",
    "094714.061000",
    "094716.061000",
    "094718.061000",
    "094720.061000",
    "094722.061000",
    "094724.061000",
    "094726.062000",
    "094728.061000",
    "094730.060000",
    "094732.061000",
    "094734.061000",
    "094736.061000",
    "094738.079000",
    "094740.060000",
    "094742.061000",
    "094744.062000",
    "094746.061000",
    "094748.061000",
    "094750.061000",
    "094752.061000",
    "094754.061000",
    "094756.060000",
    "094758.061000",
    "094800.062000",
    "094802.561000",
    "094804.061000",
    "094806.061000",
    "094808.061000",
    "094810.061000",
    "094812.061000",
    "094814.061000",
    "094816.061000",
    "094818.062000",
    "094820.060000",
    "094822.061000",
    "094824.060000",
    "094825.934000"
   ],
   "InstanceCreationTime": [
    "093956.565000",
    "093958.061000",
    "094000.060000",
    "094002.060000",
    "094004.060000",
    "094006.060000",
    "094008.062000",
    "094010.060000",
    "094012.061000",
    "094014.061000",
    "094016.060000",
    "094018.060000",
    "094020.061000",
    "094022.061000",
    "094024.060000",
    "094026.062000",
    "094028.560000",
    "094030.061000",
    "094032.061000",
    "094034.060000",
    "094036.060000",
    "094038.061000",
    "094040.061000",
    "094042.060000",
    "094044.061000",
    "094046.061000",
    "094048.060000",
    "094050.060000",
    "094052.060000",
    "094054.061000",
    "094056.060000",
    "094058.060000",
    "094100.060000",
    "094102.062000",
    "094104.060000",
    "094106.060000",
    "094108.082000",
    "094110.560000",
    "094112.060000",
    "094114.060000",
    "094116.061000",
    "094118.061000",
    "094120.060000",
    "094122.060000",
    "094124.060000",
    "094126.060000",
    "094128.061000",
    "094130.061000",
    "094132.060000",
    "094134.060000",
    "094136.062000",
    "094138.060000",
    "094140.060000",
    "094142.061000",
    "094144.061000",
    "094146.061000",
    "094148.060000",
    "094150.060000",
    "094152.061000",
    "094154.061000",
    "094156.061000",
    "094158.060000",
    "094200.060000",
    "094202.060000",
    "094204.061000",
    "094206.061000",
    "094208.061000",
    "094210.061000",
    "094212.062000",
    "094214.060000",
    "094216.060000",
    "094218.060000",
    "094220.061000",
    "094222.060000",
    "094224.060000",
    "094226.060000",
    "094228.062000",
    "094230.061000",
    "094232.060000",
    "094234.060000",
    "094236.061000",
    "094238.060000",
    "094240.561000",
    "094242.061000",
    "094244.060000",
    "094246.061000",
    "094248.060000",
    "094250.061000",
    "094252.061000",
    "094254.060000",
    "094256.061000",
    "094258.060000",
    "094300.061000",
    "094302.061000",
    "094304.061000",
    "094306.061000",
    "094308.060000",
    "094310.060000",
    "094312.061000",
    "094314.061000",
    "094316.060000",
    "094318.061000",
    "094320.061000",
    "094322.062000",
    "094324.060000",
    "094326.060000",
    "094328.060000",
    "094330.060000",
    "094332.060000",
    "094334.060000",
    "094336.060000",
    "094338.062000",
    "094340.061000",
    "094342.060000",
    "094344.060000",
    "094346.060000",
    "094348.061000",
    "094350.060000",
    "094352.061000",
    "094354.060000",
    "094356.062000",
    "094358.061000",
    "094400.060000",
    "094402.060000",
    "094404.060000",
    "094406.061000",
    "094408.060000",
    "094410.061000",
    "094412.061000",
    "094414.062000",
    "094416.061000",
    "094418.060000",
    "094420.060000",
    "094422.060000",
    "094424.060000",
    "094426.061000",
    "094428.060000",
    "094430.061000",
    "094432.062000",
    "094434.061000",
    "094436.060000",
    "094438.061000",
    "094440.061000",
    "094442.061000",
    "094444.061000",
    "094446.061000",
    "094448.062000",
    "094450.061000",
    "094452.061000",
    "094454.061000",
    "094456.060000",
    "094458.061000",
    "094500.060000",
    "094502.060000",
    "094504.061000",
    "094506.062000",
    "094508.061000",
    "094510.561000",
    "094512.561000",
    "094514.061000",
    "094516.060000",
    "094518.060000",
    "094520.060000",
    "094522.060000",
    "094524.062000",
    "094526.061000",
    "094528.061000",
    "094530.061000",
    "094532.061000",
    "094534.061000",
    "094536.060000",
    "094538.060000",
    "094540.062000",
    "094542.061000",
    "094544.061000",
    "094546.061000",
    "094548.061000",
    "094550.061000",
    "094552.061000",
    "094554.060000",
    "094556.060000",
    "094558.062000",
    "094600.561000",
    "094602.060000",
    "094604.060000",
    "094606.061000",
    "094608.060000",
    "094610.060000",
    "094612.061000",
    "094614.060000",
    "094616.061000",
    "094618.061000",
    "094620.060000",
    "094622.061000",
    "094624.061000",
    "094626.061000",
    "094628.060000",
    "094630.061000",
    "094632.060000",
    "094634.061000",
    "094636.061000",
    "094638.061000",
    "094640.060000",
    "094642.061000",
    "094644.060000",
    "094646.061000",
    "094648.060000",
    "094650.061000",
    "094652.062000",
    "094654.060000",
    "094656.061000",
    "094658.061000",
    "094700.061000",
    "094702.061000",
    "094704.061000",
    "094706.061000",
    "094708.061000",
    "094710.061000",
    "094712.061000",
    "094714.061000",
    "094716.061000",
    "094718.061000",
    "094720.061000",
    "094722.061000",
    "094724.061000",
    "094726.062000",
    "094728.061000",
    "094730.060000",
    "094732.061000",
    "094734.061000",
    "094736.061000",
    "094738.079000",
    "094740.060000",
    "094742.061000",
    "094744.062000",
    "094746.061000",
    "094748.061000",
    "094750.061000",
    "094752.061000",
    "094754.061000",
    "094756.060000",
    "094758.061000",
    "094800.062000",
    "094802.561000",
    "094804.061000",
    "094806.061000",
    "094808.061000",
    "094810.061000",
    "094812.061000",
    "094814.061000",
    "094816.061000",
    "094818.062000",
    "094820.060000",
    "094822.061000",
    "094824.060000",
    "094825.934000"
   ],
   "InstanceNumber": [
    1,
    2,
    3,
    4,
    5,
    6,
    7,
    8,
    9,
    10,
    11,
    12,
    13,
    14,
    15,
    16,
    17,
    18,
    19,
    20,
    21,
    22,
    23,
    24,
    25,
    26,
    27,
    28,
    29,
    30,
    31,
    32,
    33,
    34,
    35,
    36,
    37,
    38,
    39,
    40,
    41,
    42,
    43,
    44,
    45,
    46,
    47,
    48,
    49,
    50,
    51,
    52,
    53,
    54,
    55,
    56,
    57,
    58,
    59,
    60,
    61,
    62,
    63,
    64,
    65,
    66,
    67,
    68,
    69,
    70,
    71,
    72,
    73,
    74,
    75,
    76,
    77,
    78,
    79,
    80,
    81,
    82,
    83,
    84,
    85,
    86,
    87,
    88,
    89,
    90,
    91,
    92,
    93,
    94,
    95,
    96,
    97,
    98,
    99,
    100,
    101,
    102,
    103,
    104,
    105,
    106,
    107,
    108,
    109,
    110,
    111,
    112,
    113,
    114,
    115,
    116,
    117,
    118,
    119,
    120,
    121,
    122,
    123,
    124,
    125,
    126,
    127,
    128,
    129,
    130,
    131,
    132,
    133,
    134,
    135,
    136,
    137,
    138,
    139,
    140,
    141,
    142,
    143,
    144,
    145,
    146,
    147,
    148,
    149,
    150,
    151,
    152,
    153,
    154,
    155,
    156,
    157,
    158,
    159,
    160,
    161,
    162,
    163,
    164,
    165,
    166,
    167,
    168,
    169,
    170,
    171,
    172,
    173,
    174,
    175,
    176,
    177,
    178,
    179,
    180,
    181,
    182,
    183,
    184,
    185,
    186,
    187,
    188,
    189,
    190,
    191,
    192,
    193,
    194,
    195,
    196,
    197,
    198,
    199,
    200,
    201,
    202,
    203,
    204,
    205,
    206,
    207,
    208,
    209,
    210,
    211,
    212,
    213,
    214,
    215,
    216,
    217,
    218,
    219,
    220,
    221,
    222,
    223,
    224,
    225,
    226,
    227,
    228,
    229,
    230,
    231,
    232,
    233,
    234,
    235,
    236,
    237,
    238,
    239,
    240,
    241,
    242,
    243,
    244,
    245,
    246,
    247,
    248,
    249,
    250,
    251,
    252,
    253,
    254,
    255,
    256
   ],
   "LargestImagePixelValue": [
    3184,
    3142,
    3124,
    3108,
    3117,
    3118,
    3103,
    3121,
    3094,
    3089,
    3137,
    3141,
    3086,
    3125,
    3131,
    3138,
    3097,
    3113,
    3143,
    3108,
    3092,
    3101,
    3103,
    3097,
    3118,
    3110,
    3106,
    3083,
    3093,
    3095,
    3112,
    3135,
    3070,
    3088,
    3112,
    3062,
    3071,
    3076,
    3109,
    3122,
    3088,
    3081,
    3077,
    3069,
    3068,
    3067,
    3088,
    3074,
    3096,
    3079,
    3101,
    3086,
    3091,
    3113,
    3124,
    3111,
    3050,
    3063,
    3070,
    3066,
    3076,
    3051,
    3083,
    3087,
    3077,
    3073,
    3103,
    3100,
    3099,
    3067,
    3067,
    3110,
    3072,
    3114,
    3102,
    3062,
    3103,
    3075,
    3067,
    3070,
    3031,
    3068,
    3102,
    3070,
    3067,
    3108,
    3062,
    3081,
    3075,
    3103,
    3112,
    3086,
    3037,
    3057,
    3039,
    3076,
    3066,
    3046,
    3026,
    3035,
    3065,
    3080,
    3079,
    3077,
    3062,
    3094,
    3070,
    3122,
    3075,
    3126,
    3085,
    3095,
    3103,
    3097,
    3124,
    3077,
    3031,
    3075,
    3120,
    3067,
    3094,
    3067,
    3116,
    3090,
    3100,
    3097,
    3137,
    3124,
    3062,
    3073,
    3098,
    3105,
    3124,
    3098,
    3110,
    3098,
    3075,
    3076,
    3105,
    3079,
    3081,
    3077,
    3078,
    3078,
    3126,
    3097,
    3119,
    3107,
    3098,
    3076,
    3066,
    3067,
    3033,
    3039,
    3073,
    3099,
    3067,
    3095,
    3080,
    3095,
    3082,
    3068,
    3107,
    3065,
    3066,
    3096,
    3084,
    3102,
    3137,
    3066,
    3088,
    3078,
    3106,
    3078,
    3088,
    3070,
    3024,
    3045,
    3083,
    3198,
    3101,
    3064,
    3076,
    3074,
    3102,
    3078,
    3136,
    3128,
    3099,
    3048,
    3058,
    3097,
    3069,
    3070,
    3063,
    3068,
    3075,
    3091,
    3055,
    3017,
    2987,
    3013,
    3035,
    3021,
    3057,
    3090,
    3053,
    3030,
    3056,
    3023,
    3054,
    2994,
    2983,
    2989,
    3032,
    3024,
    3041,
    3033,
    3026,
    3016,
    3026,
    3029,
    3009,
    2993,
    3006,
    2978,
    2978,
    2985,
    2971,
    2970,
    3014,
    3002,
    3015,
    3027,
    3055,
    3015,
    2976,
    2967,
    3042,
    3027,
    3014,
    3023,
    3026,
    3086,
    3004,
    2998,
    3027,
    2995,
    2952,
    2974,
    2993,
    3011,
    3008,
    2993,
    2991,
    3020
   ],
   "WindowCenter": [
    765.0,
    764.0,
    763.0,
    763.0,
    764.0,
    765.0,
    765.0,
    764.0,
    765.0,
    764.0,
    765.0,
    765.0,
    765.0,
    765.0,
    765.0,
    764.0,
    765.0,
    764.0,
    764.0,
    763.0,
    763.0,
    763.0,
    764.0,
    763.0,
    763.0,
    763.0,
    762.0,
    761.0,
    762.0,
    762.0,
    763.0,
    762.0,
    761.0,
    761.0,
    762.0,
    761.0,
    762.0,
    762.0,
    763.0,
    763.0,
    762.0,
    762.0,
    762.0,
    762.0,
    763.0,
    763.0,
    763.0,
    763.0,
    765.0,
    764.0,
    763.0,
    762.0,
    763.0,
    763.0,
    763.0,
    763.0,
    763.0,
    763.0,
    764.0,
    763.0,
    763.0,
    762.0,
    763.0,
    762.0,
    762.0,
    761.0,
    763.0,
    763.0,
    763.0,
    762.0,
    763.0,
    764.0,
    763.0,
    763.0,
    762.0,
    763.0,
    764.0,
    763.0,
    762.0,
    762.0,
    762.0,
    763.0,
    763.0,
    762.0,
    762.0,
    762.0,
    762.0,
    762.0,
    763.0,
    763.0,
    763.0,
    762.0,
    762.0,
    763.0,
    763.0,
    763.0,
    764.0,
    763.0,
    762.0,
    761.0,
    762.0,
    763.0,
    763.0,
    763.0,
    762.0,
    763.0,
    764.0,
    764.0,
    764.0,
