{
  "AcquisitionMatrixPE": 100,
  "AcquisitionNumber": 1,
  "AcquisitionTime": "09:29:52.000000",
  "BandwidthPerPixelPhaseEncode": 18.519,
  "BaseResolution": 100,
  "BodyPartExamined": "BRAIN",
  "ConsistencyInfo": "N4_VE11C_LATEST_20160120",
  "ConversionSoftware": "dcm2niix",
  "ConversionSoftwareVersion": "v1.0.20180622 GCC4.9.2",
  "DerivedVendorReportedEchoSpacing": 0.000539986,
  "DeviceSerialNumber": "166078",
  "DwellTime": 2.1e-06,
  "EchoTime": 0.034,
  "EchoTrainLength": 100,
  "EffectiveEchoSpacing": 0.000539986,
  "FlipAngle": 90,
  "ImageOrientationPatientDICOM": [0.999999, -0.000346191, -0.00130108, 6.04834e-09, 0.966377, -0.25713],
  "ImageType": [
    "ORIGINAL",
    "PRIMARY",
    "M",
    "ND",
    "MOSAIC"
],
  "InPlanePhaseEncodingDirectionDICOM": "COL",
  "InstitutionAddress": "Street_StreetNo_Bei_Jing_District_CN_ZIP",
  "InstitutionName": "BeiJing_Normal_University",
  "InstitutionalDepartmentName": "Department",
  "MRAcquisitionType": "2D",
  "MagneticFieldStrength": 3,
  "Manufacturer": "Siemens",
  "ManufacturersModelName": "Prisma",
  "Modality": "MR",
  "MultibandAccelerationFactor": 3,
  "PartialFourier": 1,
  "PatientPosition": "HFS",
  "PercentPhaseFOV": 100,
  "PhaseEncodingDirection": "j-",
  "PhaseEncodingSteps": 100,
  "PhaseResolution": 1,
  "PixelBandwidth": 2380,
  "ProcedureStepDescription": "BNU_P2018_64CH_Zhen.ZongLei",
  "ProtocolName": "bold_100x100_s3_2x2x2_static_256",
  "PulseSequenceDetails": "%SiemensSeq%_ep2d_bold",
  "ReceiveCoilActiveElements": "HC1-7;NC1",
  "ReceiveCoilName": "HeadNeck_64",
  "ReconMatrixPE": 100,
  "RepetitionTime": 2,
  "SAR": 0.0822452,
  "ScanOptions": "FS",
  "ScanningSequence": "EP",
  "SequenceName": "_epfid2d1_100",
  "SequenceVariant": "SK",
  "SeriesDescription": "bold_100x100_s3_2x2x2_static_256",
  "SeriesNumber": 5,
  "ShimSetting": [-5471, -11489, -1302, 484, -15, -192, -171, 97],
  "SliceThickness": 2,
  "SliceTiming": [1.485, 0, 0.99, 0.0825, 1.0725, 0.165, 1.155, 0.2475, 1.2375, 0.33, 1.32, 0.4125, 1.4025, 0.5775, 1.5675, 0.66, 1.65, 0.7425, 1.7325, 0.825, 1.815, 0.9075, 1.895, 0.495, 1.485, 0, 0.99, 0.0825, 1.0725, 0.165, 1.155, 0.2475, 1.2375, 0.33, 1.32, 0.4125, 1.4025, 0.5775, 1.5675, 0.66, 1.65, 0.7425, 1.7325, 0.825, 1.815, 0.9075, 1.895, 0.495, 1.485, 0, 0.99, 0.0825, 1.0725, 0.165, 1.155, 0.2475, 1.2375, 0.33, 1.32, 0.4125, 1.4025, 0.5775, 1.5675, 0.66, 1.65, 0.7425, 1.7325, 0.825, 1.815, 0.9075, 1.895, 0.495],
  "SoftwareVersions": "syngo_MR_E11",
  "SpacingBetweenSlices": 2,
  "StationName": "AWP166078",
  "TaskName": "naturalvision",
  "TotalReadoutTime": 0.0534586,
  "TxRefAmp": 233.801,
  "dcmmeta_affine": [
    [-1.9999982118606567, 1.2096689872009847e-08, -0.00269269198179245, 102.7587661743164],
    [0.0006923822220414877, 1.9327539205551147, -0.5142585635185242, -76.64244842529297],
    [-0.002602152293547988, 0.5142590403556824, 1.932752251625061, -110.37429809570312],
    [0.0, 0.0, 0.0, 1.0]
],
  "dcmmeta_reorient_transform": [
    [0.0, -1.0, 0.0, 99.0],
    [1.0, 0.0, 0.0, 0.0],
    [0.0, 0.0, 1.0, 0.0],
    [0.0, 0.0, 0.0, 1.0]
],
  "dcmmeta_shape": [100, 100, 72, 256],
  "dcmmeta_slice_dim": 2,
  "dcmmeta_version": 0.6,
  "global": {
    "const": {
      "AcquisitionMatrix": [100, 0, 0, 100],
      "AngioFlag": "N",
      "BitsAllocated": 16,
      "BitsStored": 12,
      "BodyPartExamined": "BRAIN",
      "Columns": 900,
      "EchoNumbers": 1,
      "EchoTime": 34.0,
      "EchoTrainLength": 100,
      "FlipAngle": 90.0,
      "HighBit": 11,
      "ImageOrientationPatient": [0.99999909367593, -0.000346191114, -0.0013010761072, 6.048345e-09, 0.96637695221066, -0.257129512573],
      "ImagePositionPatient": [-902.75804604839, -887.52479382795, 147.28181997335],
      "ImageType": [
        "ORIGINAL",
        "PRIMARY",
        "M",
        "ND",
        "MOSAIC"
],
      "ImagedNucleus": "1H",
      "ImagingFrequency": 123.25778,
      "InPlanePhaseEncodingDirection": "COL",
      "MRAcquisitionType": "2D",
      "MagneticFieldStrength": 3.0,
      "Manufacturer": "SIEMENS",
      "ManufacturerModelName": "Prisma",
      "Modality": "MR",
      "NumberOfAverages": 1.0,
      "NumberOfPhaseEncodingSteps": 100,
      "PercentPhaseFieldOfView": 100.0,
      "PercentSampling": 100.0,
      "PerformedProcedureStepStartTime": "090340.699000",
      "PhotometricInterpretation": "MONOCHROME2",
      "PixelBandwidth": 2380.0,
      "PixelRepresentation": 0,
      "PixelSpacing": [2.0, 2.0],
      "ProtocolName": "bold_100x100_s3_2x2x2_static_256",
      "RepetitionTime": 2000.0,
      "Rows": 900,
      "SAR": 0.08224520691132,
      "SamplesPerPixel": 1,
      "ScanOptions": "FS",
      "ScanningSequence": "EP",
      "SequenceName": "*epfid2d1_100",
      "SequenceVariant": "SK",
      "SeriesDescription": "bold_100x100_s3_2x2x2_static_256",
      "SeriesNumber": 5,
      "SeriesTime": "092954.284000",
      "SliceLocation": -87.094408097982,
      "SliceThickness": 2.0,
      "SmallestImagePixelValue": 0,
      "SoftwareVersions": "syngo MR E11",
      "SpacingBetweenSlices": 2.0000000449449,
      "SpecificCharacterSet": "ISO_IR 100",
      "StudyID": "1",
      "StudyTime": "090340.649000",
      "TransmitCoilName": "Body",
      "VariableFlipAngleFlag": "N",
      "WindowCenterWidthExplanation": "Algo1",
      "dBdt": 0.0},
    "slices": {}
  },
  "time": {
    "samples": {
      "AcquisitionNumber": [1, 2, 3, 4, 5, 6, 7, 8, 9, 10, 11, 12, 13, 14, 15, 16, 17, 18, 19, 20, 21, 22, 23, 24, 25, 26, 27, 28, 29, 30, 31, 32, 33, 34, 35, 36, 37, 38, 39, 40, 41, 42, 43, 44, 45, 46, 47, 48, 49, 50, 51, 52, 53, 54, 55, 56, 57, 58, 59, 60, 61, 62, 63, 64, 65, 66, 67, 68, 69, 70, 71, 72, 73, 74, 75, 76, 77, 78, 79, 80, 81, 82, 83, 84, 85, 86, 87, 88, 89, 90, 91, 92, 93, 94, 95, 96, 97, 98, 99, 100, 101, 102, 103, 104, 105, 106, 107, 108, 109, 110, 111, 112, 113, 114, 115, 116, 117, 118, 119, 120, 121, 122, 123, 124, 125, 126, 127, 128, 129, 130, 131, 132, 133, 134, 135, 136, 137, 138, 139, 140, 141, 142, 143, 144, 145, 146, 147, 148, 149, 150, 151, 152, 153, 154, 155, 156, 157, 158, 159, 160, 161, 162, 163, 164, 165, 166, 167, 168, 169, 170, 171, 172, 173, 174, 175, 176, 177, 178, 179, 180, 181, 182, 183, 184, 185, 186, 187, 188, 189, 190, 191, 192, 193, 194, 195, 196, 197, 198, 199, 200, 201, 202, 203, 204, 205, 206, 207, 208, 209, 210, 211, 212, 213, 214, 215, 216, 217, 218, 219, 220, 221, 222, 223, 224, 225, 226, 227, 228, 229, 230, 231, 232, 233, 234, 235, 236, 237, 238, 239, 240, 241, 242, 243, 244, 245, 246, 247, 248, 249, 250, 251, 252, 253, 254, 255, 256],
      "AcquisitionTime": ["092952.000000", "092954.000000", "092956.000000", "092958.000000", "093000.000000", "093002.000000", "093004.000000", "093006.000000", "093008.000000", "093010.000000", "093012.000000", "093014.000000", "093016.000000", "093018.000000", "093020.000000", "093022.000000", "093024.000000", "093026.000000", "093028.000000", "093030.000000", "093032.000000", "093034.000000", "093036.000000", "093038.000000", "093040.000000", "093042.000000", "093044.000000", "093046.000000", "093048.000000", "093050.000000", "093052.000000", "093054.000000", "093056.000000", "093058.000000", "093100.000000", "093102.000000", "093104.000000", "093106.000000", "093108.000000", "093110.000000", "093112.000000", "093114.000000", "093116.000000", "093118.000000", "093120.000000", "093122.000000", "093124.000000", "093126.000000", "093128.000000", "093130.000000", "093132.000000", "093134.000000", "093136.000000", "093138.000000", "093140.000000", "093142.000000", "093144.000000", "093146.000000", "093148.000000", "093150.000000", "093152.000000", "093154.000000", "093156.000000", "093158.000000", "093200.000000", "093202.000000", "093204.000000", "093206.000000", "093208.000000", "093210.000000", "093212.000000", "093214.000000", "093216.000000", "093218.000000", "093220.000000", "093222.000000", "093224.000000", "093226.000000", "093228.000000", "093230.000000", "093232.000000", "093234.000000", "093236.000000", "093238.000000", "093240.000000", "093242.000000", "093244.000000", "093246.000000", "093248.000000", "093250.000000", "093252.000000", "093254.000000", "093256.000000", "093258.000000", "093300.000000", "093302.000000", "093304.000000", "093306.000000", "093308.000000", "093310.000000", "093312.000000", "093314.000000", "093316.000000", "093318.000000", "093320.000000", "093322.000000", "093324.000000", "093326.000000", "093328.000000", "093330.000000", "093332.000000", "093334.000000", "093336.000000", "093338.000000", "093340.000000", "093342.000000", "093344.000000", "093346.000000", "093348.000000", "093350.000000", "093352.000000", "093354.000000", "093356.000000", "093358.000000", "093400.000000", "093402.000000", "093404.000000", "093406.000000", "093408.000000", "093410.000000", "093412.000000", "093414.000000", "093416.000000", "093418.000000", "093420.000000", "093422.000000", "093424.000000", "093426.000000", "093428.000000", "093430.000000", "093432.000000", "093434.000000", "093436.000000", "093438.000000", "093440.000000", "093442.000000", "093444.000000", "093446.000000", "093448.000000", "093450.000000", "093452.000000", "093454.000000", "093456.000000", "093458.000000", "093500.000000", "093502.000000", "093504.000000", "093506.000000", "093508.000000", "093510.000000", "093512.000000", "093514.000000", "093516.000000", "093518.000000", "093520.000000", "093522.000000", "093524.000000", "093526.000000", "093528.000000", "093530.000000", "093532.000000", "093534.000000", "093536.000000", "093538.000000", "093540.000000", "093542.000000", "093544.000000", "093546.000000", "093548.000000", "093550.000000", "093552.000000", "093554.000000", "093556.000000", "093558.000000", "093600.000000", "093602.000000", "093604.000000", "093606.000000", "093608.000000", "093610.000000", "093612.000000", "093614.000000", "093616.000000", "093618.000000", "093620.000000", "093622.000000", "093624.000000", "093626.000000", "093628.000000", "093630.000000", "093632.000000", "093634.000000", "093636.000000", "093638.000000", "093640.000000", "093642.000000", "093644.000000", "093646.000000", "093648.000000", "093650.000000", "093652.000000", "093654.000000", "093656.000000", "093658.000000", "093700.000000", "093702.000000", "093704.000000", "093706.000000", "093708.000000", "093710.000000", "093712.000000", "093714.000000", "093716.000000", "093718.000000", "093720.000000", "093722.000000", "093724.000000", "093726.000000", "093728.000000", "093730.000000", "093732.000000", "093734.000000", "093736.000000", "093738.000000", "093740.000000", "093742.000000", "093744.000000", "093746.000000", "093748.000000", "093750.000000", "093752.000000", "093754.000000", "093756.000000", "093758.000000", "093800.000000", "093802.000000", "093804.000000", "093806.000000", "093808.000000", "093810.000000", "093812.000000", "093814.000000", "093816.000000", "093818.000000", "093820.000000", "093822.000000"],
      "ContentTime": ["092954.288000", "092956.284000", "092957.785000", "092959.784000", "093002.284000", "093004.284000", "093005.784000", "093007.784000", "093010.284000", "093012.284000", "093013.784000", "093015.784000", "093018.285000", "093020.285000", "093022.285000", "093023.785000", "093025.783000", "093028.284000", "093029.784000", "093031.784000", "093034.284000", "093036.285000", "093038.285000", "093039.785000", "093041.783000", "093043.784000", "093045.784000", "093047.783000", "093050.284000", "093051.784000", "093053.784000", "093055.785000", "093058.284000", "093059.783000", "093101.784000", "093103.784000", "093106.285000", "093108.284000", "093109.784000", "093111.784000", "093113.784000", "093115.784000", "093117.784000", "093119.784000", "093122.283000", "093123.784000", "093125.784000", "093127.784000", "093130.284000", "093131.785000", "093134.283000", "093135.783000", "093137.784000", "093139.784000", "093142.284000", "093143.785000", "093145.785000", "093148.284000", "093149.784000", "093151.783000", "093154.284000", "093155.783000", "093158.284000", "093159.785000", "093201.784000", "093203.784000", "093205.785000", "093207.784000", "093209.784000", "093212.284000", "093214.284000", "093216.285000", "093218.285000", "093219.785000", "093222.285000", "093224.285000", "093226.284000", "093227.784000", "093230.284000", "093232.283000", "093233.785000", "093236.284000", "093238.284000", "093239.784000", "093241.785000", "093243.784000", "093245.784000", "093247.784000", "093249.784000", "093251.785000", "093254.284000", "093255.785000", "093258.284000", "093259.784000", "093301.783000", "093304.283000", "093306.283000", "093308.285000", "093309.784000", "093311.785000", "093314.285000", "093316.284000", "093318.284000", "093319.783000", "093322.283000", "093324.284000", "093325.785000", "093328.284000", "093330.284000", "093331.785000", "093333.785000", "093335.785000", "093338.284000", "093339.783000", "093341.783000", "093343.785000", "093346.285000", "093348.285000", "093349.784000", "093351.785000", "093354.283000", "093355.783000", "093358.283000", "093359.783000", "093401.785000", "093403.784000", "093405.785000", "093408.285000", "093410.285000", "093411.783000", "093414.284000", "093415.784000", "093418.285000", "093420.285000", "093422.285000", "093423.785000", "093425.785000", "093428.285000", "093430.283000", "093432.284000", "093434.283000", "093436.285000", "093438.284000", "093439.784000", "093441.784000", "093443.785000", "093446.285000", "093447.784000", "093449.784000", "093451.784000", "093453.785000", "093456.284000", "093458.284000", "093459.784000", "093502.285000", "093503.785000", "093506.284000", "093508.284000", "093510.284000", "093512.285000", "093513.785000", "093515.785000", "093517.784000", "093519.784000", "093522.284000", "093523.784000", "093525.783000", "093527.783000", "093529.784000", "093531.785000", "093533.785000", "093536.285000", "093538.284000", "093540.284000", "093541.783000", "093543.783000", "093545.784000", "093547.785000", "093550.285000", "093551.784000", "093554.285000", "093556.284000", "093558.284000", "093600.283000", "093602.284000", "093604.285000", "093605.784000", "093607.784000", "093610.284000", "093611.785000", "093613.785000", "093615.784000", "093618.284000", "093619.783000", "093622.285000", "093623.785000", "093625.784000", "093627.784000", "093630.285000", "093632.284000", "093634.284000", "093635.784000", "093637.784000", "093639.785000", "093642.285000", "093643.784000", "093645.784000", "093647.785000", "093650.284000", "093651.783000", "093654.284000", "093655.785000", "093658.285000", "093659.784000", "093701.784000", "093704.285000", "093705.785000", "093707.783000", "093709.784000", "093711.784000", "093714.285000", "093716.285000", "093717.784000", "093719.785000", "093722.284000", "093723.785000", "093725.784000", "093727.783000", "093730.284000", "093731.785000", "093734.285000", "093735.784000", "093737.784000", "093739.784000", "093741.784000", "093743.784000", "093745.783000", "093748.285000", "093750.285000", "093752.285000", "093754.285000", "093755.784000", "093757.796000", "093759.784000", "093801.783000", "093804.284000", "093806.285000", "093807.784000", "093810.285000", "093812.285000", "093813.784000", "093816.284000", "093818.284000", "093819.784000", "093822.284000", "093823.792000"],
      "InstanceCreationTime": ["092954.288000", "092956.284000", "092957.785000", "092959.784000", "093002.284000", "093004.284000", "093005.784000", "093007.784000", "093010.284000", "093012.284000", "093013.784000", "093015.784000", "093018.285000", "093020.285000", "093022.285000", "093023.785000", "093025.783000", "093028.284000", "093029.784000", "093031.784000", "093034.284000", "093036.285000", "093038.285000", "093039.785000", "093041.783000", "093043.784000", "093045.784000", "093047.783000", "093050.284000", "093051.784000", "093053.784000", "093055.785000", "093058.284000", "093059.783000", "093101.784000", "093103.784000", "093106.285000", "093108.284000", "093109.784000", "093111.784000", "093113.784000", "093115.784000", "093117.784000", "093119.784000", "093122.283000", "093123.784000", "093125.784000", "093127.784000", "093130.284000", "093131.785000", "093134.283000", "093135.783000", "093137.784000", "093139.784000", "093142.284000", "093143.785000", "093145.785000", "093148.284000", "093149.784000", "093151.783000", "093154.284000", "093155.783000", "093158.284000", "093159.785000", "093201.784000", "093203.784000", "093205.785000", "093207.784000", "093209.784000", "093212.284000", "093214.284000", "093216.285000", "093218.285000", "093219.785000", "093222.285000", "093224.285000", "093226.284000", "093227.784000", "093230.284000", "093232.283000", "093233.785000", "093236.284000", "093238.284000", "093239.784000", "093241.785000", "093243.784000", "093245.784000", "093247.784000", "093249.784000", "093251.785000", "093254.284000", "093255.785000", "093258.284000", "093259.784000", "093301.783000", "093304.283000", "093306.283000", "093308.285000", "093309.784000", "093311.785000", "093314.285000", "093316.284000", "093318.284000", "093319.783000", "093322.283000", "093324.284000", "093325.785000", "093328.284000", "093330.284000", "093331.785000", "093333.785000", "093335.785000", "093338.284000", "093339.783000", "093341.783000", "093343.785000", "093346.285000", "093348.285000", "093349.784000", "093351.785000", "093354.283000", "093355.783000", "093358.283000", "093359.783000", "093401.785000", "093403.784000", "093405.785000", "093408.285000", "093410.285000", "093411.783000", "093414.284000", "093415.784000", "093418.285000", "093420.285000", "093422.285000", "093423.785000", "093425.785000", "093428.285000", "093430.283000", "093432.284000", "093434.283000", "093436.285000", "093438.284000", "093439.784000", "093441.784000", "093443.785000", "093446.285000", "093447.784000", "093449.784000", "093451.784000", "093453.785000", "093456.284000", "093458.284000", "093459.784000", "093502.285000", "093503.785000", "093506.284000", "093508.284000", "093510.284000", "093512.285000", "093513.785000", "093515.785000", "093517.784000", "093519.784000", "093522.284000", "093523.784000", "093525.783000", "093527.783000", "093529.784000", "093531.785000", "093533.785000", "093536.285000", "093538.284000", "093540.284000", "093541.783000", "093543.783000", "093545.784000", "093547.785000", "093550.285000", "093551.784000", "093554.285000", "093556.284000", "093558.284000", "093600.283000", "093602.284000", "093604.285000", "093605.784000", "093607.784000", "093610.284000", "093611.785000", "093613.785000", "093615.784000", "093618.284000", "093619.783000", "093622.285000", "093623.785000", "093625.784000", "093627.784000", "093630.285000", "093632.284000", "093634.284000", "093635.784000", "093637.784000", "093639.785000", "093642.285000", "093643.784000", "093645.784000", "093647.785000", "093650.284000", "093651.783000", "093654.284000", "093655.785000", "093658.285000", "093659.784000", "093701.784000", "093704.285000", "093705.785000", "093707.783000", "093709.784000", "093711.784000", "093714.285000", "093716.285000", "093717.784000", "093719.785000", "093722.284000", "093723.785000", "093725.784000", "093727.783000", "093730.284000", "093731.785000", "093734.285000", "093735.784000", "093737.784000", "093739.784000", "093741.784000", "093743.784000", "093745.783000", "093748.285000", "093750.285000", "093752.285000", "093754.285000", "093755.784000", "093757.796000", "093759.784000", "093801.783000", "093804.284000", "093806.285000", "093807.784000", "093810.285000", "093812.285000", "093813.784000", "093816.284000", "093818.284000", "093819.784000", "093822.284000", "093823.792000"],
      "InstanceNumber": [1, 2, 3, 4, 5, 6, 7, 8, 9, 10, 11, 12, 13, 14, 15, 16, 17, 18, 19, 20, 21, 22, 23, 24, 25, 26, 27, 28, 29, 30, 31, 32, 33, 34, 35, 36, 37, 38, 39, 40, 41, 42, 43, 44, 45, 46, 47, 48, 49, 50, 51, 52, 53, 54, 55, 56, 57, 58, 59, 60, 61, 62, 63, 64, 65, 66, 67, 68, 69, 70, 71, 72, 73, 74, 75, 76, 77, 78, 79, 80, 81, 82, 83, 84, 85, 86, 87, 88, 89, 90, 91, 92, 93, 94, 95, 96, 97, 98, 99, 100, 101, 102, 103, 104, 105, 106, 107, 108, 109, 110, 111, 112, 113, 114, 115, 116, 117, 118, 119, 120, 121, 122, 123, 124, 125, 126, 127, 128, 129, 130, 131, 132, 133, 134, 135, 136, 137, 138, 139, 140, 141, 142, 143, 144, 145, 146, 147, 148, 149, 150, 151, 152, 153, 154, 155, 156, 157, 158, 159, 160, 161, 162, 163, 164, 165, 166, 167, 168, 169, 170, 171, 172, 173, 174, 175, 176, 177, 178, 179, 180, 181, 182, 183, 184, 185, 186, 187, 188, 189, 190, 191, 192, 193, 194, 195, 196, 197, 198, 199, 200, 201, 202, 203, 204, 205, 206, 207, 208, 209, 210, 211, 212, 213, 214, 215, 216, 217, 218, 219, 220, 221, 222, 223, 224, 225, 226, 227, 228, 229, 230, 231, 232, 233, 234, 235, 236, 237, 238, 239, 240, 241, 242, 243, 244, 245, 246, 247, 248, 249, 250, 251, 252, 253, 254, 255, 256],
      "LargestImagePixelValue": [3076, 3041, 2980, 3020, 3005, 3035, 2992, 3025, 3016, 3029, 3005, 3013, 3011, 3029, 2999, 2981, 2995, 2999, 3020, 2981, 3025, 3016, 3039, 3008, 3018, 3033, 3004, 3025, 3020, 3042, 2987, 3014, 3023, 3016, 3009, 3008, 2999, 3013, 3014, 3010, 3025, 3032, 2993, 2985, 2997, 3006, 2994, 3016, 3009, 2990, 3012, 2994, 3033, 2961, 3050, 3022, 2973, 2983, 2969, 2975, 3004, 2968, 2984, 2962, 3019, 2990, 2988, 2994, 3000, 3013, 2980, 2950, 2982, 2961, 3000, 2983, 2988, 3004, 2964, 3002, 2990, 3002, 2985, 2935, 2967, 2942, 2976, 2943, 2990, 2990, 2990, 2948, 2918, 2951, 2930, 2973, 2960, 2943, 2974, 2956, 2997, 2922, 2953, 2933, 2926, 2944, 2950, 2980, 2971, 2973, 2914, 2980, 2984, 2980, 2951, 2960, 2910, 2996, 2965, 2947, 2966, 2985, 3010, 2966, 2972, 3018, 3018, 2998, 2965, 2981, 2995, 3019, 3006, 2971, 2967, 2916, 2942, 2947, 2963, 2953, 2955, 2925, 2965, 2973, 2985, 3023, 2999, 2990, 2981, 2989, 2980, 2909, 2910, 2923, 2973, 3000, 2927, 2946, 3012, 2989, 3012, 3029, 2989, 2962, 2938, 2968, 3038, 2998, 3012, 3042, 3053, 3031, 3055, 3060, 3074, 3111, 3032, 3057, 3084, 3057, 3036, 3021, 3091, 3086, 3099, 3014, 3030, 2944, 2959, 3009, 3008, 3031, 3044, 3052, 3073, 2965, 3015, 3006, 3000, 3057, 2978, 3002, 3068, 3093, 3081, 3075, 3121, 3062, 3098, 3057, 3053, 2980, 2952, 2983, 3045, 2949, 3004, 2982, 3011, 2954, 3000, 2977, 3053, 2971, 2910, 2946, 2985, 2998, 2995, 2977, 3024, 3002, 3047, 2962, 3011, 2949, 2919, 2908, 2967, 2959, 2933, 2944, 2956, 2989, 2955, 3014, 3006, 2975, 2972, 2982, 3000, 3021, 3023, 3035, 2983, 3019],
      "WindowCenter": [765.0, 763.0, 762.0, 764.0, 764.0, 765.0, 765.0, 764.0, 764.0, 764.0, 766.0, 766.0, 766.0, 764.0, 764.0, 764.0, 764.0, 764.0, 764.0, 763.0, 764.0, 763.0, 763.0, 762.0, 761.0, 762.0, 762.0, 762.0, 762.0, 762.0, 763.0, 763.0, 763.0, 762.0, 762.0, 762.0, 763.0, 763.0, 763.0, 763.0, 764.0, 764.0, 763.0, 762.0, 762.0, 762.0, 763.0, 763.0, 762.0, 762.0, 763.0, 762.0, 762.0, 761.0, 762.0, 762.0, 761.0, 762.0, 762.0, 762.0, 762.0, 762.0, 762.0, 762.0, 763.0, 762.0, 762.0, 762.0, 762.0, 764.0, 764.0, 763.0, 763.0, 763.0, 764.0, 764.0, 764.0, 764.0, 763.0, 762.0, 763.0, 763.0, 763.0, 762.0, 763.0, 762.0, 763.0, 762.0, 763.0, 763.0, 763.0, 761.0, 760.0, 761.0, 762.0, 762.0, 762.0, 762.0, 763.0, 763.0, 763.0, 762.0, 763.0, 762.0, 761.0, 763.0, 764.0, 764.0, 763.0, 763.0, 763.0, 764.0, 764.0, 764.0, 764.0, 764.0, 763.0, 764.0, 764.0, 764.0, 763.0, 763.0, 763.0, 762.0, 761.0, 761.0, 761.0, 761.0, 761.0, 761.0, 762.0, 762.0, 763.0, 763.0, 762.0, 761.0, 762.0, 762.0, 764.0, 764.0, 763.0, 762.0, 763.0, 763.0, 764.0, 764.0, 763.0, 763.0, 762.0, 762.0, 762.0, 761.0, 761.0, 762.0, 763.0, 763.0, 762.0, 762.0, 763.0, 761.0, 762.0, 761.0, 760.0, 760.0, 760.0, 762.0, 762.0, 762.0, 762.0, 763.0, 763.0, 763.0, 763.0, 763.0, 763.0, 764.0, 763.0, 763.0, 764.0, 763.0, 762.0, 761.0, 763.0, 763.0, 763.0, 762.0, 762.0, 761.0, 762.0, 762.0, 763.0, 764.0, 764.0, 763.0, 762.0, 761.0, 761.0, 761.0, 761.0, 762.0, 761.0, 761.0, 762.0, 763.0, 764.0, 764.0, 766.0, 764.0, 764.0, 764.0, 764.0, 763.0, 763.0, 763.0, 763.0, 762.0, 763.0, 762.0, 763.0, 762.0, 763.0, 763.0, 764.0, 763.0, 762.0, 761.0, 762.0, 763.0, 763.0, 762.0, 763.0, 762.0, 763.0, 762.0, 762.0, 761.0, 761.0, 761.0, 762.0, 762.0, 762.0, 761.0, 761.0, 761.0, 761.0, 762.0, 762.0, 763.0, 763.0, 762.0, 763.0, 762.0, 762.0, 762.0, 762.0, 762.0],
      "WindowWidth": [1635.0, 1631.0, 1629.0, 1632.0, 1633.0, 1636.0, 1635.0, 1634.0, 1632.0, 1634.0, 1637.0, 1637.0, 1637.0, 1635.0, 1634.0, 1632.0, 1633.0, 1632.0, 1632.0, 1630.0, 1632.0, 1631.0, 1629.0, 1627.0, 1627.0, 1628.0, 1628.0, 1629.0, 1628.0, 1629.0, 1630.0, 1631.0, 1630.0, 1629.0, 1629.0, 1628.0, 1630.0, 1630.0, 1631.0, 1631.0, 1633.0, 1633.0, 1632.0, 1630.0, 1629.0, 1629.0, 1630.0, 1630.0, 1629.0, 1629.0, 1630.0, 1629.0, 1628.0, 1627.0, 1629.0, 1627.0, 1627.0, 1628.0, 1629.0, 1630.0, 1630.0, 1629.0, 1629.0, 1628.0, 1630.0, 1629.0, 1628.0, 1629.0, 1629.0, 1632.0, 1632.0, 1630.0, 1630.0, 1630.0, 1632.0, 1633.0, 1633.0, 1632.0, 1629.0, 1629.0, 1630.0, 1631.0, 1631.0, 1629.0, 1630.0, 1629.0, 1630.0, 1628.0, 1632.0, 1631.0, 1630.0, 1626.0, 1623.0, 1625.0, 1627.0, 1628.0, 1629.0, 1627.0, 1630.0, 1630.0, 1631.0, 1628.0, 1630.0, 1629.0, 1626.0, 1630.0, 1634.0, 1634.0, 1631.0, 1629.0, 1631.0, 1634.0, 1633.0, 1632.0, 1633.0, 1632.0, 1631.0, 1633.0, 1633.0, 1632.0, 1631.0, 1630.0, 1630.0, 1627.0, 1626.0, 1626.0, 1626.0, 1625.0, 1624.0, 1625.0, 1627.0, 1628.0, 1631.0, 1630.0, 1628.0, 1626.0, 1627.0, 1629.0, 1632.0, 1632.0, 1630.0, 1628.0, 1630.0, 1632.0, 1633.0, 1634.0, 1631.0, 1630.0, 1629.0, 1628.0, 1628.0, 1625.0, 1626.0, 1627.0, 1630.0, 1630.0, 1627.0, 1628.0, 1629.0, 1625.0, 1627.0, 1624.0, 1624.0, 1623.0, 1623.0, 1626.0, 1629.0, 1627.0, 1628.0, 1629.0, 1631.0, 1630.0, 1630.0, 1630.0, 1630.0, 1632.0, 1630.0, 1631.0, 1632.0, 1629.0, 1628.0, 1626.0, 1631.0, 1632.0, 1631.0, 1627.0, 1627.0, 1625.0, 1626.0, 1627.0, 1630.0, 1633.0, 1632.0, 1629.0, 1628.0, 1624.0, 1625.0, 1625.0, 1626.0, 1627.0, 1626.0, 1625.0, 1628.0, 1630.0, 1633.0, 1633.0, 1637.0, 1632.0, 1633.0, 1632.0, 1632.0, 1629.0, 1629.0, 1630.0, 1630.0, 1629.0, 1629.0, 1628.0, 1629.0, 1628.0, 1630.0, 1631.0, 1632.0, 1629.0, 1626.0, 1625.0, 1628.0, 1630.0, 1630.0, 1628.0, 1629.0, 1628.0, 1629.0, 1626.0, 1628.0, 1626.0, 1625.0, 1625.0, 1626.0, 1627.0, 1627.0, 1626.0, 1625.0, 1625.0, 1626.0, 1627.0, 1628.0, 1630.0, 1629.0, 1628.0, 1628.0, 1627.0, 1627.0, 1626.0, 1626.0, 1628.0]
    },
    "slices": {}
  }
}