{
 "AcquisitionMatrixPE": 100,
 "AcquisitionNumber": 1,
 "AcquisitionTime": "09:10:26.827500",
 "BandwidthPerPixelPhaseEncode": 18.519,
 "BaseResolution": 100,
 "BodyPartExamined": "BRAIN",
 "ConsistencyInfo": "N4_VE11C_LATEST_20160120",
 "ConversionSoftware": "dcm2niix",
 "ConversionSoftwareVersion": "v1.0.20180622 GCC4.9.2",
 "DerivedVendorReportedEchoSpacing": 0.000539986,
 "DeviceSerialNumber": "166078",
 "DwellTime": 2.1e-06,
 "EchoTime": 0.034,
 "EchoTrainLength": 100,
 "EffectiveEchoSpacing": 0.000539986,
 "FlipAngle": 90,
 "ImageOrientationPatientDICOM": [
  0.999999,
  -0.000346191,
  -0.00130108,
  6.04834e-09,
  0.966377,
  -0.25713
 ],
 "ImageType": [
  "ORIGINAL",
  "PRIMARY",
  "M",
  "ND",
  "MOSAIC"
 ],
 "InPlanePhaseEncodingDirectionDICOM": "COL",
 "InstitutionAddress": "Street_StreetNo_Bei_Jing_District_CN_ZIP",
 "InstitutionName": "BeiJing_Normal_University",
 "InstitutionalDepartmentName": "Department",
 "MRAcquisitionType": "2D",
 "MagneticFieldStrength": 3,
 "Manufacturer": "Siemens",
 "ManufacturersModelName": "Prisma",
 "Modality": "MR",
 "MultibandAccelerationFactor": 3,
 "PartialFourier": 1,
 "PatientPosition": "HFS",
 "PercentPhaseFOV": 100,
 "PhaseEncodingDirection": "j-",
 "PhaseEncodingSteps": 100,
 "PhaseResolution": 1,
 "PixelBandwidth": 2380,
 "ProcedureStepDescription": "BNU_P2018_64CH_Zhen.ZongLei",
 "ProtocolName": "bold_100x100_s3_2x2x2_static_256",
 "PulseSequenceDetails": "%SiemensSeq%_ep2d_bold",
 "ReceiveCoilActiveElements": "HC1-7;NC1",
 "ReceiveCoilName": "HeadNeck_64",
 "ReconMatrixPE": 100,
 "RepetitionTime": 2,
 "SAR": 0.0822452,
 "ScanOptions": "FS",
 "ScanningSequence": "EP",
 "SequenceName": "_epfid2d1_100",
 "SequenceVariant": "SK",
 "SeriesDescription": "bold_100x100_s3_2x2x2_static_256",
 "SeriesNumber": 3,
 "ShimSetting": [
  -5471,
  -11489,
  -1302,
  484,
  -15,
  -192,
  -171,
  97
 ],
 "SliceThickness": 2,
 "SliceTiming": [
  1.485,
  0,
  0.99,
  0.0825,
  1.0725,
  0.165,
  1.155,
  0.2475,
  1.2375,
  0.33,
  1.32,
  0.4125,
  1.4025,
  0.5775,
  1.5675,
  0.66,
  1.65,
  0.7425,
  1.7325,
  0.825,
  1.815,
  0.9075,
  1.8975,
  0.495,
  1.485,
  0,
  0.99,
  0.0825,
  1.0725,
  0.165,
  1.155,
  0.2475,
  1.2375,
  0.33,
  1.32,
  0.4125,
  1.4025,
  0.5775,
  1.5675,
  0.66,
  1.65,
  0.7425,
  1.7325,
  0.825,
  1.815,
  0.9075,
  1.8975,
  0.495,
  1.485,
  0,
  0.99,
  0.0825,
  1.0725,
  0.165,
  1.155,
  0.2475,
  1.2375,
  0.33,
  1.32,
  0.4125,
  1.4025,
  0.5775,
  1.5675,
  0.66,
  1.65,
  0.7425,
  1.7325,
  0.825,
  1.815,
  0.9075,
  1.8975,
  0.495
 ],
 "SoftwareVersions": "syngo_MR_E11",
 "SpacingBetweenSlices": 2,
 "StationName": "AWP166078",
 "TaskName": "imagenet",
 "TotalReadoutTime": 0.0534586,
 "TxRefAmp": 233.801,
 "dcmmeta_affine": [
  [
   -1.9999982118606567,
   1.2096689872009847e-08,
   -0.00269269198179245,
   102.7587661743164
  ],
  [
   0.0006923822220414877,
   1.9327539205551147,
   -0.5142585635185242,
   -76.64244842529297
  ],
  [
   -0.002602152293547988,
   0.5142590403556824,
   1.932752251625061,
   -110.37429809570312
  ],
  [
   0.0,
   0.0,
   0.0,
   1.0
  ]
 ],
 "dcmmeta_reorient_transform": [
  [
   0.0,
   -1.0,
   0.0,
   99.0
  ],
  [
   1.0,
   0.0,
   0.0,
   0.0
  ],
  [
   0.0,
   0.0,
   1.0,
   0.0
  ],
  [
   0.0,
   0.0,
   0.0,
   1.0
  ]
 ],
 "dcmmeta_shape": [
  100,
  100,
  72,
  256
 ],
 "dcmmeta_slice_dim": 2,
 "dcmmeta_version": 0.6,
 "global": {
  "const": {
   "AcquisitionMatrix": [
    100,
    0,
    0,
    100
   ],
   "AngioFlag": "N",
   "BitsAllocated": 16,
   "BitsStored": 12,
   "BodyPartExamined": "BRAIN",
   "Columns": 900,
   "EchoNumbers": 1,
   "EchoTime": 34.0,
   "EchoTrainLength": 100,
   "FlipAngle": 90.0,
   "HighBit": 11,
   "ImageOrientationPatient": [
    0.99999909367593,
    -0.000346191114,
    -0.0013010761072,
    6.048345e-09,
    0.96637695221066,
    -0.257129512573
   ],
   "ImagePositionPatient": [
    -902.75804604839,
    -887.52479382795,
    147.28181997335
   ],
   "ImageType": [
    "ORIGINAL",
    "PRIMARY",
    "M",
    "ND",
    "MOSAIC"
   ],
   "ImagedNucleus": "1H",
   "ImagingFrequency": 123.257756,
   "InPlanePhaseEncodingDirection": "COL",
   "MRAcquisitionType": "2D",
   "MagneticFieldStrength": 3.0,
   "Manufacturer": "SIEMENS",
   "ManufacturerModelName": "Prisma",
   "Modality": "MR",
   "NumberOfAverages": 1.0,
   "NumberOfPhaseEncodingSteps": 100,
   "PercentPhaseFieldOfView": 100.0,
   "PercentSampling": 100.0,
   "PerformedProcedureStepStartTime": "090340.699000",
   "PhotometricInterpretation": "MONOCHROME2",
   "PixelBandwidth": 2380.0,
   "PixelRepresentation": 0,
   "PixelSpacing": [
    2.0,
    2.0
   ],
   "ProtocolName": "bold_100x100_s3_2x2x2_static_256",
   "RepetitionTime": 2000.0,
   "Rows": 900,
   "SAR": 0.08224520691132,
   "SamplesPerPixel": 1,
   "ScanOptions": "FS",
   "ScanningSequence": "EP",
   "SequenceName": "*epfid2d1_100",
   "SequenceVariant": "SK",
   "SeriesDescription": "bold_100x100_s3_2x2x2_static_256",
   "SeriesNumber": 3,
   "SeriesTime": "091029.368000",
   "SliceLocation": -87.094408097982,
   "SliceThickness": 2.0,
   "SmallestImagePixelValue": 0,
   "SoftwareVersions": "syngo MR E11",
   "SpacingBetweenSlices": 2.0000000449449,
   "SpecificCharacterSet": "ISO_IR 100",
   "StudyID": "1",
   "StudyTime": "090340.649000",
   "TransmitCoilName": "Body",
   "VariableFlipAngleFlag": "N",
   "WindowCenterWidthExplanation": "Algo1",
   "dBdt": 0.0
  },
  "slices": {}
 },
 "time": {
  "samples": {
   "AcquisitionNumber": [
    1,
    2,
    3,
    4,
    5,
    6,
    7,
    8,
    9,
    10,
    11,
    12,
    13,
    14,
    15,
    16,
    17,
    18,
    19,
    20,
    21,
    22,
    23,
    24,
    25,
    26,
    27,
    28,
    29,
    30,
    31,
    32,
    33,
    34,
    35,
    36,
    37,
    38,
    39,
    40,
    41,
    42,
    43,
    44,
    45,
    46,
    47,
    48,
    49,
    50,
    51,
    52,
    53,
    54,
    55,
    56,
    57,
    58,
    59,
    60,
    61,
    62,
    63,
    64,
    65,
    66,
    67,
    68,
    69,
    70,
    71,
    72,
    73,
    74,
    75,
    76,
    77,
    78,
    79,
    80,
    81,
    82,
    83,
    84,
    85,
    86,
    87,
    88,
    89,
    90,
    91,
    92,
    93,
    94,
    95,
    96,
    97,
    98,
    99,
    100,
    101,
    102,
    103,
    104,
    105,
    106,
    107,
    108,
    109,
    110,
    111,
    112,
    113,
    114,
    115,
    116,
    117,
    118,
    119,
    120,
    121,
    122,
    123,
    124,
    125,
    126,
    127,
    128,
    129,
    130,
    131,
    132,
    133,
    134,
    135,
    136,
    137,
    138,
    139,
    140,
    141,
    142,
    143,
    144,
    145,
    146,
    147,
    148,
    149,
    150,
    151,
    152,
    153,
    154,
    155,
    156,
    157,
    158,
    159,
    160,
    161,
    162,
    163,
    164,
    165,
    166,
    167,
    168,
    169,
    170,
    171,
    172,
    173,
    174,
    175,
    176,
    177,
    178,
    179,
    180,
    181,
    182,
    183,
    184,
    185,
    186,
    187,
    188,
    189,
    190,
    191,
    192,
    193,
    194,
    195,
    196,
    197,
    198,
    199,
    200,
    201,
    202,
    203,
    204,
    205,
    206,
    207,
    208,
    209,
    210,
    211,
    212,
    213,
    214,
    215,
    216,
    217,
    218,
    219,
    220,
    221,
    222,
    223,
    224,
    225,
    226,
    227,
    228,
    229,
    230,
    231,
    232,
    233,
    234,
    235,
    236,
    237,
    238,
    239,
    240,
    241,
    242,
    243,
    244,
    245,
    246,
    247,
    248,
    249,
    250,
    251,
    252,
    253,
    254,
    255,
    256
   ],
   "AcquisitionTime": [
    "091026.827500",
    "091028.827500",
    "091030.827500",
    "091032.827500",
    "091034.827500",
    "091036.827500",
    "091038.827500",
    "091040.827500",
    "091042.827500",
    "091044.827500",
    "091046.827500",
    "091048.827500",
    "091050.827500",
    "091052.827500",
    "091054.827500",
    "091056.827500",
    "091058.827500",
    "091100.827500",
    "091102.827500",
    "091104.827500",
    "091106.827500",
    "091108.827500",
    "091110.827500",
    "091112.827500",
    "091114.827500",
    "091116.827500",
    "091118.827500",
    "091120.827500",
    "091122.827500",
    "091124.827500",
    "091126.827500",
    "091128.827500",
    "091130.827500",
    "091132.827500",
    "091134.827500",
    "091136.827500",
    "091138.827500",
    "091140.827500",
    "091142.827500",
    "091144.827500",
    "091146.827500",
    "091148.827500",
    "091150.827500",
    "091152.827500",
    "091154.827500",
    "091156.827500",
    "091158.827500",
    "091200.827500",
    "091202.827500",
    "091204.827500",
    "091206.827500",
    "091208.827500",
    "091210.827500",
    "091212.827500",
    "091214.827500",
    "091216.827500",
    "091218.827500",
    "091220.827500",
    "091222.827500",
    "091224.827500",
    "091226.827500",
    "091228.827500",
    "091230.827500",
    "091232.827500",
    "091234.827500",
    "091236.827500",
    "091238.827500",
    "091240.827500",
    "091242.827500",
    "091244.827500",
    "091246.827500",
    "091248.827500",
    "091250.827500",
    "091252.827500",
    "091254.827500",
    "091256.827500",
    "091258.827500",
    "091300.827500",
    "091302.827500",
    "091304.827500",
    "091306.827500",
    "091308.827500",
    "091310.827500",
    "091312.827500",
    "091314.827500",
    "091316.827500",
    "091318.827500",
    "091320.827500",
    "091322.827500",
    "091324.827500",
    "091326.827500",
    "091328.827500",
    "091330.827500",
    "091332.827500",
    "091334.827500",
    "091336.827500",
    "091338.827500",
    "091340.827500",
    "091342.827500",
    "091344.827500",
    "091346.827500",
    "091348.827500",
    "091350.827500",
    "091352.827500",
    "091354.827500",
    "091356.827500",
    "091358.827500",
    "091400.827500",
    "091402.827500",
    "091404.827500",
    "091406.827500",
    "091408.827500",
    "091410.827500",
    "091412.827500",
    "091414.827500",
    "091416.827500",
    "091418.827500",
    "091420.827500",
    "091422.827500",
    "091424.827500",
    "091426.827500",
    "091428.827500",
    "091430.827500",
    "091432.827500",
    "091434.827500",
    "091436.827500",
    "091438.827500",
    "091440.827500",
    "091442.827500",
    "091444.827500",
    "091446.827500",
    "091448.827500",
    "091450.827500",
    "091452.827500",
    "091454.827500",
    "091456.827500",
    "091458.827500",
    "091500.827500",
    "091502.827500",
    "091504.827500",
    "091506.827500",
    "091508.827500",
    "091510.827500",
    "091512.827500",
    "091514.827500",
    "091516.827500",
    "091518.827500",
    "091520.827500",
    "091522.827500",
    "091524.827500",
    "091526.827500",
    "091528.827500",
    "091530.827500",
    "091532.827500",
    "091534.827500",
    "091536.827500",
    "091538.827500",
    "091540.827500",
    "091542.827500",
    "091544.827500",
    "091546.827500",
    "091548.827500",
    "091550.827500",
    "091552.827500",
    "091554.827500",
    "091556.827500",
    "091558.827500",
    "091600.827500",
    "091602.827500",
    "091604.827500",
    "091606.827500",
    "091608.827500",
    "091610.827500",
    "091612.827500",
    "091614.827500",
    "091616.827500",
    "091618.827500",
    "091620.827500",
    "091622.827500",
    "091624.827500",
    "091626.827500",
    "091628.827500",
    "091630.827500",
    "091632.827500",
    "091634.827500",
    "091636.827500",
    "091638.827500",
    "091640.827500",
    "091642.827500",
    "091644.827500",
    "091646.827500",
    "091648.827500",
    "091650.827500",
    "091652.827500",
    "091654.827500",
    "091656.827500",
    "091658.827500",
    "091700.827500",
    "091702.827500",
    "091704.827500",
    "091706.827500",
    "091708.827500",
    "091710.827500",
    "091712.827500",
    "091714.827500",
    "091716.827500",
    "091718.827500",
    "091720.827500",
    "091722.827500",
    "091724.827500",
    "091726.827500",
    "091728.827500",
    "091730.827500",
    "091732.827500",
    "091734.827500",
    "091736.827500",
    "091738.827500",
    "091740.827500",
    "091742.827500",
    "091744.827500",
    "091746.827500",
    "091748.827500",
    "091750.827500",
    "091752.827500",
    "091754.827500",
    "091756.827500",
    "091758.827500",
    "091800.827500",
    "091802.827500",
    "091804.827500",
    "091806.827500",
    "091808.827500",
    "091810.827500",
    "091812.827500",
    "091814.827500",
    "091816.827500",
    "091818.827500",
    "091820.827500",
    "091822.827500",
    "091824.827500",
    "091826.827500",
    "091828.827500",
    "091830.827500",
    "091832.827500",
    "091834.827500",
    "091836.827500",
    "091838.827500",
    "091840.827500",
    "091842.827500",
    "091844.827500",
    "091846.827500",
    "091848.827500",
    "091850.827500",
    "091852.827500",
    "091854.827500",
    "091856.827500"
   ],
   "ContentTime": [
    "091029.372000",
    "091031.368000",
    "091032.867000",
    "091034.868000",
    "091036.867000",
    "091038.866000",
    "091040.867000",
    "091042.868000",
    "091044.867000",
    "091046.868000",
    "091048.867000",
    "091050.867000",
    "091052.868000",
    "091054.867000",
    "091056.867000",
    "091058.867000",
    "091100.868000",
    "091102.868000",
    "091104.867000",
    "091106.868000",
    "091108.867000",
    "091110.868000",
    "091112.866000",
    "091114.866000",
    "091116.866000",
    "091118.868000",
    "091120.867000",
    "091122.867000",
    "091124.868000",
    "091126.867000",
    "091128.867000",
    "091130.866000",
    "091132.866000",
    "091134.868000",
    "091136.867000",
    "091138.868000",
    "091140.867000",
    "091142.867000",
    "091144.868000",
    "091146.866000",
    "091148.866000",
    "091150.866000",
    "091152.868000",
    "091154.867000",
    "091156.867000",
    "091158.868000",
    "091200.867000",
    "091202.868000",
    "091204.867000",
    "091206.867000",
    "091208.866000",
    "091210.867000",
    "091212.867000",
    "091214.868000",
    "091216.868000",
    "091218.868000",
    "091220.867000",
    "091222.867000",
    "091224.867000",
    "091226.866000",
    "091228.867000",
    "091230.868000",
    "091232.868000",
    "091234.867000",
    "091236.868000",
    "091238.867000",
    "091240.867000",
    "091242.867000",
    "091244.867000",
    "091246.867000",
    "091248.867000",
    "091250.867000",
    "091252.868000",
    "091254.867000",
    "091256.866000",
    "091258.866000",
    "091300.867000",
    "091302.867000",
    "091304.868000",
    "091306.867000",
    "091308.868000",
    "091310.867000",
    "091312.867000",
    "091314.867000",
    "091316.866000",
    "091318.866000",
    "091320.867000",
    "091322.867000",
    "091324.867000",
    "091326.867000",
    "091328.867000",
    "091330.867000",
    "091332.867000",
    "091334.866000",
    "091336.867000",
    "091338.868000",
    "091340.868000",
    "091342.868000",
    "091344.867000",
    "091346.867000",
    "091348.868000",
    "091350.866000",
    "091352.866000",
    "091354.867000",
    "091356.868000",
    "091358.867000",
    "091400.868000",
    "091402.868000",
    "091404.867000",
    "091406.866000",
    "091408.866000",
    "091410.867000",
    "091412.868000",
    "091414.868000",
    "091416.867000",
    "091418.867000",
    "091420.867000",
    "091422.868000",
    "091424.867000",
    "091426.867000",
    "091428.867000",
    "091430.867000",
    "091432.868000",
    "091434.868000",
    "091436.867000",
    "091438.868000",
    "091440.868000",
    "091442.866000",
    "091444.867000",
    "091446.868000",
    "091448.868000",
    "091450.867000",
    "091452.868000",
    "091454.867000",
    "091456.868000",
    "091458.867000",
    "091500.867000",
    "091502.867000",
    "091504.867000",
    "091506.867000",
    "091508.867000",
    "091510.867000",
    "091512.867000",
    "091514.867000",
    "091516.867000",
    "091518.866000",
    "091520.867000",
    "091522.868000",
    "091524.867000",
    "091526.867000",
    "091528.867000",
    "091530.867000",
    "091532.867000",
    "091534.866000",
    "091536.866000",
    "091538.866000",
    "091540.867000",
    "091542.868000",
    "091544.868000",
    "091546.867000",
    "091548.868000",
    "091550.867000",
    "091552.867000",
    "091554.866000",
    "091556.868000",
    "091558.868000",
    "091600.868000",
    "091602.867000",
    "091604.867000",
    "091606.868000",
    "091608.867000",
    "091610.867000",
    "091612.867000",
    "091614.868000",
    "091616.867000",
    "091618.868000",
    "091620.868000",
    "091622.867000",
    "091624.868000",
    "091626.866000",
    "091628.866000",
    "091630.867000",
    "091632.868000",
    "091634.868000",
    "091636.868000",
    "091638.867000",
    "091640.867000",
    "091642.879000",
    "091644.867000",
    "091646.867000",
    "091648.867000",
    "091650.868000",
    "091652.868000",
    "091654.868000",
    "091656.867000",
    "091658.867000",
    "091700.867000",
    "091702.867000",
    "091704.866000",
    "091706.868000",
    "091708.868000",
    "091710.868000",
    "091712.867000",
    "091714.868000",
    "091716.867000",
    "091718.868000",
    "091720.866000",
    "091722.866000",
    "091724.868000",
    "091726.868000",
    "091728.867000",
    "091730.867000",
    "091732.868000",
    "091734.867000",
    "091736.867000",
    "091738.866000",
    "091740.866000",
    "091742.867000",
    "091744.867000",
    "091746.867000",
    "091748.867000",
    "091750.867000",
    "091752.868000",
    "091754.867000",
    "091756.867000",
    "091758.867000",
    "091800.867000",
    "091802.868000",
    "091804.867000",
    "091806.868000",
    "091808.867000",
    "091810.867000",
    "091812.867000",
    "091814.867000",
    "091816.868000",
    "091818.867000",
    "091820.868000",
    "091822.867000",
    "091824.867000",
    "091826.867000",
    "091828.868000",
    "091830.867000",
    "091832.866000",
    "091834.867000",
    "091836.868000",
    "091838.868000",
    "091840.867000",
    "091842.868000",
    "091844.867000",
    "091846.867000",
    "091848.867000",
    "091850.867000",
    "091852.868000",
    "091854.868000",
    "091856.868000",
    "091858.613000"
   ],
   "InstanceCreationTime": [
    "091029.372000",
    "091031.368000",
    "091032.867000",
    "091034.868000",
    "091036.867000",
    "091038.866000",
    "091040.867000",
    "091042.868000",
    "091044.867000",
    "091046.868000",
    "091048.867000",
    "091050.867000",
    "091052.868000",
    "091054.867000",
    "091056.867000",
    "091058.867000",
    "091100.868000",
    "091102.868000",
    "091104.867000",
    "091106.868000",
    "091108.867000",
    "091110.868000",
    "091112.866000",
    "091114.866000",
    "091116.866000",
    "091118.868000",
    "091120.867000",
    "091122.867000",
    "091124.868000",
    "091126.867000",
    "091128.867000",
    "091130.866000",
    "091132.866000",
    "091134.868000",
    "091136.867000",
    "091138.868000",
    "091140.867000",
    "091142.867000",
    "091144.868000",
    "091146.866000",
    "091148.866000",
    "091150.866000",
    "091152.868000",
    "091154.867000",
    "091156.867000",
    "091158.868000",
    "091200.867000",
    "091202.868000",
    "091204.867000",
    "091206.867000",
    "091208.866000",
    "091210.867000",
    "091212.867000",
    "091214.868000",
    "091216.868000",
    "091218.868000",
    "091220.867000",
    "091222.867000",
    "091224.867000",
    "091226.866000",
    "091228.867000",
    "091230.868000",
    "091232.868000",
    "091234.867000",
    "091236.868000",
    "091238.867000",
    "091240.867000",
    "091242.867000",
    "091244.867000",
    "091246.867000",
    "091248.867000",
    "091250.867000",
    "091252.868000",
    "091254.867000",
    "091256.866000",
    "091258.866000",
    "091300.867000",
    "091302.867000",
    "091304.868000",
    "091306.867000",
    "091308.868000",
    "091310.867000",
    "091312.867000",
    "091314.867000",
    "091316.866000",
    "091318.866000",
    "091320.867000",
    "091322.867000",
    "091324.867000",
    "091326.867000",
    "091328.867000",
    "091330.867000",
    "091332.867000",
    "091334.866000",
    "091336.867000",
    "091338.868000",
    "091340.868000",
    "091342.868000",
    "091344.867000",
    "091346.867000",
    "091348.868000",
    "091350.866000",
    "091352.866000",
    "091354.867000",
    "091356.868000",
    "091358.867000",
    "091400.868000",
    "091402.868000",
    "091404.867000",
    "091406.866000",
    "091408.866000",
    "091410.867000",
    "091412.868000",
    "091414.868000",
    "091416.867000",
    "091418.867000",
    "091420.867000",
    "091422.868000",
    "091424.867000",
    "091426.867000",
    "091428.867000",
    "091430.867000",
    "091432.868000",
    "091434.868000",
    "091436.867000",
    "091438.868000",
    "091440.868000",
    "091442.866000",
    "091444.867000",
    "091446.868000",
    "091448.868000",
    "091450.867000",
    "091452.868000",
    "091454.867000",
    "091456.868000",
    "091458.867000",
    "091500.867000",
    "091502.867000",
    "091504.867000",
    "091506.867000",
    "091508.867000",
    "091510.867000",
    "091512.867000",
    "091514.867000",
    "091516.867000",
    "091518.866000",
    "091520.867000",
    "091522.868000",
    "091524.867000",
    "091526.867000",
    "091528.867000",
    "091530.867000",
    "091532.867000",
    "091534.866000",
    "091536.866000",
    "091538.866000",
    "091540.867000",
    "091542.868000",
    "091544.868000",
    "091546.867000",
    "091548.868000",
    "091550.867000",
    "091552.867000",
    "091554.866000",
    "091556.868000",
    "091558.868000",
    "091600.868000",
    "091602.867000",
    "091604.867000",
    "091606.868000",
    "091608.867000",
    "091610.867000",
    "091612.867000",
    "091614.868000",
    "091616.867000",
    "091618.868000",
    "091620.868000",
    "091622.867000",
    "091624.868000",
    "091626.866000",
    "091628.866000",
    "091630.867000",
    "091632.868000",
    "091634.868000",
    "091636.868000",
    "091638.867000",
    "091640.867000",
    "091642.879000",
    "091644.867000",
    "091646.867000",
    "091648.867000",
    "091650.868000",
    "091652.868000",
    "091654.868000",
    "091656.867000",
    "091658.867000",
    "091700.867000",
    "091702.867000",
    "091704.866000",
    "091706.868000",
    "091708.868000",
    "091710.868000",
    "091712.867000",
    "091714.868000",
    "091716.867000",
    "091718.868000",
    "091720.866000",
    "091722.866000",
    "091724.868000",
    "091726.868000",
    "091728.867000",
    "091730.867000",
    "091732.868000",
    "091734.867000",
    "091736.867000",
    "091738.866000",
    "091740.866000",
    "091742.867000",
    "091744.867000",
    "091746.867000",
    "091748.867000",
    "091750.867000",
    "091752.868000",
    "091754.867000",
    "091756.867000",
    "091758.867000",
    "091800.867000",
    "091802.868000",
    "091804.867000",
    "091806.868000",
    "091808.867000",
    "091810.867000",
    "091812.867000",
    "091814.867000",
    "091816.868000",
    "091818.867000",
    "091820.868000",
    "091822.867000",
    "091824.867000",
    "091826.867000",
    "091828.868000",
    "091830.867000",
    "091832.866000",
    "091834.867000",
    "091836.868000",
    "091838.868000",
    "091840.867000",
    "091842.868000",
    "091844.867000",
    "091846.867000",
    "091848.867000",
    "091850.867000",
    "091852.868000",
    "091854.868000",
    "091856.868000",
    "091858.613000"
   ],
   "InstanceNumber": [
    1,
    2,
    3,
    4,
    5,
    6,
    7,
    8,
    9,
    10,
    11,
    12,
    13,
    14,
    15,
    16,
    17,
    18,
    19,
    20,
    21,
    22,
    23,
    24,
    25,
    26,
    27,
    28,
    29,
    30,
    31,
    32,
    33,
    34,
    35,
    36,
    37,
    38,
    39,
    40,
    41,
    42,
    43,
    44,
    45,
    46,
    47,
    48,
    49,
    50,
    51,
    52,
    53,
    54,
    55,
    56,
    57,
    58,
    59,
    60,
    61,
    62,
    63,
    64,
    65,
    66,
    67,
    68,
    69,
    70,
    71,
    72,
    73,
    74,
    75,
    76,
    77,
    78,
    79,
    80,
    81,
    82,
    83,
    84,
    85,
    86,
    87,
    88,
    89,
    90,
    91,
    92,
    93,
    94,
    95,
    96,
    97,
    98,
    99,
    100,
    101,
    102,
    103,
    104,
    105,
    106,
    107,
    108,
    109,
    110,
    111,
    112,
    113,
    114,
    115,
    116,
    117,
    118,
    119,
    120,
    121,
    122,
    123,
    124,
    125,
    126,
    127,
    128,
    129,
    130,
    131,
    132,
    133,
    134,
    135,
    136,
    137,
    138,
    139,
    140,
    141,
    142,
    143,
    144,
    145,
    146,
    147,
    148,
    149,
    150,
    151,
    152,
    153,
    154,
    155,
    156,
    157,
    158,
    159,
    160,
    161,
    162,
    163,
    164,
    165,
    166,
    167,
    168,
    169,
    170,
    171,
    172,
    173,
    174,
    175,
    176,
    177,
    178,
    179,
    180,
    181,
    182,
    183,
    184,
    185,
    186,
    187,
    188,
    189,
    190,
    191,
    192,
    193,
    194,
    195,
    196,
    197,
    198,
    199,
    200,
    201,
    202,
    203,
    204,
    205,
    206,
    207,
    208,
    209,
    210,
    211,
    212,
    213,
    214,
    215,
    216,
    217,
    218,
    219,
    220,
    221,
    222,
    223,
    224,
    225,
    226,
    227,
    228,
    229,
    230,
    231,
    232,
    233,
    234,
    235,
    236,
    237,
    238,
    239,
    240,
    241,
    242,
    243,
    244,
    245,
    246,
    247,
    248,
    249,
    250,
    251,
    252,
    253,
    254,
    255,
    256
   ],
   "LargestImagePixelValue": [
    2827,
    2852,
    2836,
    2846,
    2836,
    2864,
    2857,
    2833,
    2834,
    2865,
    2865,
    2847,
    2857,
    2879,
    2879,
    2874,
    2862,
    2882,
    2825,
    2822,
    2854,
    2846,
    2833,
    2839,
    2844,
    2867,
    2845,
    2860,
    2868,
    2870,
    2862,
    2887,
    2853,
    2895,
    2839,
    2826,
    2826,
    2844,
    2833,
    2827,
    2835,
    2825,
    2848,
    2826,
    2857,
    2824,
    2834,
    2839,
    2854,
    2842,
    2845,
    2826,
    2828,
    2851,
    2838,
    2846,
    2887,
    2849,
    2868,
    2853,
    2872,
    2861,
    2843,
    2869,
    2866,
    2862,
    2857,
    2867,
    2835,
    2858,
    2820,
    2855,
    2845,
    2865,
    2824,
    2850,
    2848,
    2875,
    2858,
    2853,
    2877,
    2867,
    2865,
    2912,
    2863,
    2872,
    2845,
    2885,
    2866,
    2842,
    2873,
    2870,
    2843,
    2872,
    2869,
    2880,
    2829,
    2830,
    2848,
    2871,
    2876,
    2868,
    2866,
    2881,
    2883,
    2929,
    2907,
    2861,
    2888,
    2886,
    2866,
    2878,
    2870,
    2876,
    2889,
    2869,
    2873,
    2856,
    2892,
    2927,
    2900,
    2904,
    2904,
    2895,
    2926,
    2932,
    2933,
    2869,
    2869,
    2891,
    2918,
    2891,
    2919,
    2878,
    2844,
    2872,
    2916,
    2887,
    2867,
    2911,
    2878,
    2921,
    2910,
    2918,
    2885,
    2882,
    2876,
    2883,
    2865,
    2864,
    2904,
    2872,
    2847,
    2886,
    2890,
    2862,
    2883,
    2907,
    2899,
    2880,
    2898,
    2884,
    2874,
    2858,
    2894,
    2912,
    2880,
    2880,
    2837,
    2889,
    2899,
    2899,
    2863,
    2842,
    2868,
    2871,
    2857,
    2875,
    2888,
    2878,
    2877,
    2873,
    2858,
    2883,
    2860,
    2861,
    2848,
    2878,
    2896,
    2874,
    2878,
    2892,
    2876,
    2885,
    2867,
    2883,
    2881,
    2883,
    2864,
    2839,
    2881,
    2907,
    2879,
    2858,
    2882,
    2903,
    2861,
    2871,
    2870,
    2833,
    2840,
    2840,
    2824,
    2857,
    2848,
    2848,
    2840,
    2832,
    2839,
    2827,
    2817,
    2824,
    2803,
    2783,
    2766,
    2776,
    2797,
    2790,
    2817,
    2843,
    2801,
    2776,
    2798,
    2756,
    2770,
    2790,
    2775,
    2823,
    2835,
    2784,
    2792,
    2788,
    2784,
    2776,
    2792,
    2777,
    2765,
    2768,
    2731,
    2800,
    2753,
    2769,
    2761,
    2764,
    2769,
    2761
   ],
   "WindowCenter": [
    761.0,
    759.0,
    760.0,
    761.0,
    759.0,
    759.0,
    759.0,
    758.0,
    758.0,
    759.0,
    759.0,
    760.0,
    760.0,
    759.0,
    760.0,
    761.0,
    761.0,
    760.0,
    759.0,
    759.0,
    759.0,
    759.0,
    758.0,
    757.0,
    758.0,
    758.0,
    758.0,
    758.0,
    757.0,
    757.0,
    759.0,
    759.0,
    758.0,
    758.0,
    759.0,
    759.0,
    758.0,
    758.0,
    758.0,
    759.0,
    761.0,
    760.0,
    759.0,
    758.0,
    759.0,
    759.0,
    760.0,
    759.0,
    759.0,
    759.0,
    759.0,
    759.0,
    759.0,
    759.0,
    759.0,
    758.0,
    758.0,
    758.0,
    759.0,
    759.0,
    760.0,
    760.0,
    759.0,
    758.0,
    759.0,
    759.0,
    760.0,
    760.0,
    759.0,
    759.0,
    759.0,
    760.0,
    759.0,
    759.0,
    758.0,
    759.0,
    759.0,
    759.0,
    759.0,
    759.0,
    759.0,
    759.0,
    760.0,
    762.0,
    762.0,
    761.0,
    761.0,
    762.0,
    762.0,
    761.0,
    760.0,
    760.0,
    759.0,
    759.0,
    760.0,
    759.0,
    757.0,
    756.0,
    757.0,
    758.0,
    758.0,
    757.0,
    758.0,
    758.0,
    758.0,
    759.0,
    760.0,
    759.0,
    759.0,
