{
  "AcquisitionMatrixPE": 100,
  "AcquisitionNumber": 1,
  "AcquisitionTime": "16:22:53.272500",
  "BandwidthPerPixelPhaseEncode": 18.519,
  "BaseResolution": 100,
  "BodyPartExamined": "BRAIN",
  "ConsistencyInfo": "N4_VE11C_LATEST_20160120",
  "ConversionSoftware": "dcm2niix",
  "ConversionSoftwareVersion": "v1.0.20180622 GCC4.9.2",
  "DerivedVendorReportedEchoSpacing": 0.000539986,
  "DeviceSerialNumber": "166078",
  "DwellTime": 2.1e-06,
  "EchoTime": 0.034,
  "EchoTrainLength": 100,
  "EffectiveEchoSpacing": 0.000539986,
  "FlipAngle": 90,
  "ImageOrientationPatientDICOM": [1, -7.37861e-06, -6.87783e-05, 2.87274e-08, 0.994339, -0.106256],
  "ImageType": [
    "ORIGINAL",
    "PRIMARY",
    "M",
    "ND",
    "MOSAIC"
],
  "InPlanePhaseEncodingDirectionDICOM": "COL",
  "InstitutionAddress": "Street_StreetNo_Bei_Jing_District_CN_ZIP",
  "InstitutionName": "BeiJing_Normal_University",
  "InstitutionalDepartmentName": "Department",
  "MRAcquisitionType": "2D",
  "MagneticFieldStrength": 3,
  "Manufacturer": "Siemens",
  "ManufacturersModelName": "Prisma",
  "Modality": "MR",
  "MultibandAccelerationFactor": 3,
  "PartialFourier": 1,
  "PatientPosition": "HFS",
  "PercentPhaseFOV": 100,
  "PhaseEncodingDirection": "j-",
  "PhaseEncodingSteps": 100,
  "PhaseResolution": 1,
  "PixelBandwidth": 2380,
  "ProcedureStepDescription": "BNU_P2018_64CH_Zhen.ZongLei",
  "ProtocolName": "bold_100x100_s3_2x2x2_cat_150",
  "PulseSequenceDetails": "%SiemensSeq%_ep2d_bold",
  "ReceiveCoilActiveElements": "HC1-7;NC1",
  "ReceiveCoilName": "HeadNeck_64",
  "ReconMatrixPE": 100,
  "RepetitionTime": 2,
  "SAR": 0.0816931,
  "ScanOptions": "FS",
  "ScanningSequence": "EP",
  "SequenceName": "_epfid2d1_100",
  "SequenceVariant": "SK",
  "SeriesDescription": "bold_100x100_s3_2x2x2_cat_150",
  "SeriesNumber": 14,
  "ShimSetting": [-5461, -11518, -1248, 228, -37, -154, -137, 42],
  "SliceThickness": 2,
  "SliceTiming": [1.485, 0, 0.99, 0.0825, 1.0725, 0.165, 1.155, 0.2475, 1.2375, 0.33, 1.32, 0.4125, 1.4025, 0.5775, 1.5675, 0.66, 1.65, 0.7425, 1.7325, 0.825, 1.815, 0.9075, 1.8975, 0.495, 1.485, 0, 0.99, 0.0825, 1.0725, 0.165, 1.155, 0.2475, 1.2375, 0.33, 1.32, 0.4125, 1.4025, 0.5775, 1.5675, 0.66, 1.65, 0.7425, 1.7325, 0.825, 1.815, 0.9075, 1.8975, 0.495, 1.485, 0, 0.99, 0.0825, 1.0725, 0.165, 1.155, 0.2475, 1.2375, 0.33, 1.32, 0.4125, 1.4025, 0.5775, 1.5675, 0.66, 1.65, 0.7425, 1.7325, 0.825, 1.815, 0.9075, 1.8975, 0.495],
  "SoftwareVersions": "syngo_MR_E11",
  "SpacingBetweenSlices": 2,
  "StationName": "AWP166078",
  "TaskName": "category",
  "TotalReadoutTime": 0.0534586,
  "TxRefAmp": 249.589,
  "dcmmeta_affine": [
    [-2.0, 5.745484088492958e-08, -0.000138345843879506, 100.02751922607422],
    [1.4757224562345073e-05, 1.9886776208877563, -0.2125122994184494, -81.75200653076172],
    [-0.00013755651889368892, 0.2125122845172882, 1.9886776208877563, -79.15380096435547],
    [0.0, 0.0, 0.0, 1.0]
],
  "dcmmeta_reorient_transform": [
    [0.0, -1.0, 0.0, 99.0],
    [1.0, 0.0, 0.0, 0.0],
    [0.0, 0.0, 1.0, 0.0],
    [0.0, 0.0, 0.0, 1.0]
],
  "dcmmeta_shape": [100, 100, 72, 150],
  "dcmmeta_slice_dim": 2,
  "dcmmeta_version": 0.6,
  "global": {
    "const": {
      "AcquisitionMatrix": [100, 0, 0, 100],
      "AngioFlag": "N",
      "BitsAllocated": 16,
      "BitsStored": 12,
      "BodyPartExamined": "BRAIN",
      "Columns": 900,
      "EchoNumbers": 1,
      "EchoTime": 34.0,
      "EchoTrainLength": 100,
      "FlipAngle": 90.0,
      "HighBit": 11,
      "ImageOrientationPatient": [0.99999999760755, -7.37861208e-06, -6.87782609e-05, 2.8727421e-08, 0.9943387912732, -0.1062561441487],
      "ImagePositionPatient": [-900.02754367261, -910.59220774297, 26.944856316083],
      "ImageType": [
        "ORIGINAL",
        "PRIMARY",
        "M",
        "ND",
        "MOSAIC"
],
      "ImagedNucleus": "1H",
      "ImagingFrequency": 123.257762,
      "InPlanePhaseEncodingDirection": "COL",
      "MRAcquisitionType": "2D",
      "MagneticFieldStrength": 3.0,
      "Manufacturer": "SIEMENS",
      "ManufacturerModelName": "Prisma",
      "Modality": "MR",
      "NumberOfAverages": 1.0,
      "NumberOfPhaseEncodingSteps": 100,
      "PercentPhaseFieldOfView": 100.0,
      "PercentSampling": 100.0,
      "PerformedProcedureStepStartTime": "151925.678000",
      "PhotometricInterpretation": "MONOCHROME2",
      "PixelBandwidth": 2380.0,
      "PixelRepresentation": 0,
      "PixelSpacing": [2.0, 2.0],
      "ProtocolName": "bold_100x100_s3_2x2x2_cat_150",
      "RepetitionTime": 2000.0,
      "Rows": 900,
      "SAR": 0.08169310377612,
      "SamplesPerPixel": 1,
      "ScanOptions": "FS",
      "ScanningSequence": "EP",
      "SequenceName": "*epfid2d1_100",
      "SequenceVariant": "SK",
      "SeriesDescription": "bold_100x100_s3_2x2x2_cat_150",
      "SeriesNumber": 14,
      "SeriesTime": "162256.069000",
      "SliceLocation": -70.025958386435,
      "SliceThickness": 2.0,
      "SmallestImagePixelValue": 0,
      "SoftwareVersions": "syngo MR E11",
      "SpacingBetweenSlices": 2.0000000766297,
      "SpecificCharacterSet": "ISO_IR 100",
      "StudyID": "1",
      "StudyTime": "151925.613000",
      "TransmitCoilName": "Body",
      "VariableFlipAngleFlag": "N",
      "WindowCenterWidthExplanation": "Algo1",
      "dBdt": 0.0},
    "slices": {}
  },
  "time": {
    "samples": {
      "AcquisitionNumber": [1, 2, 3, 4, 5, 6, 7, 8, 9, 10, 11, 12, 13, 14, 15, 16, 17, 18, 19, 20, 21, 22, 23, 24, 25, 26, 27, 28, 29, 30, 31, 32, 33, 34, 35, 36, 37, 38, 39, 40, 41, 42, 43, 44, 45, 46, 47, 48, 49, 50, 51, 52, 53, 54, 55, 56, 57, 58, 59, 60, 61, 62, 63, 64, 65, 66, 67, 68, 69, 70, 71, 72, 73, 74, 75, 76, 77, 78, 79, 80, 81, 82, 83, 84, 85, 86, 87, 88, 89, 90, 91, 92, 93, 94, 95, 96, 97, 98, 99, 100, 101, 102, 103, 104, 105, 106, 107, 108, 109, 110, 111, 112, 113, 114, 115, 116, 117, 118, 119, 120, 121, 122, 123, 124, 125, 126, 127, 128, 129, 130, 131, 132, 133, 134, 135, 136, 137, 138, 139, 140, 141, 142, 143, 144, 145, 146, 147, 148, 149, 150],
      "AcquisitionTime": ["162253.272500", "162255.272500", "162257.272500", "162259.272500", "162301.272500", "162303.272500", "162305.272500", "162307.272500", "162309.272500", "162311.272500", "162313.272500", "162315.272500", "162317.272500", "162319.272500", "162321.272500", "162323.272500", "162325.272500", "162327.272500", "162329.272500", "162331.272500", "162333.272500", "162335.272500", "162337.272500", "162339.272500", "162341.272500", "162343.272500", "162345.272500", "162347.272500", "162349.272500", "162351.272500", "162353.272500", "162355.272500", "162357.272500", "162359.272500", "162401.272500", "162403.272500", "162405.272500", "162407.272500", "162409.272500", "162411.272500", "162413.272500", "162415.272500", "162417.272500", "162419.272500", "162421.272500", "162423.272500", "162425.272500", "162427.272500", "162429.272500", "162431.272500", "162433.272500", "162435.272500", "162437.272500", "162439.272500", "162441.272500", "162443.272500", "162445.272500", "162447.272500", "162449.272500", "162451.272500", "162453.272500", "162455.272500", "162457.272500", "162459.272500", "162501.272500", "162503.272500", "162505.272500", "162507.272500", "162509.272500", "162511.272500", "162513.272500", "162515.272500", "162517.272500", "162519.272500", "162521.272500", "162523.272500", "162525.272500", "162527.272500", "162529.272500", "162531.272500", "162533.272500", "162535.272500", "162537.272500", "162539.272500", "162541.272500", "162543.272500", "162545.272500", "162547.272500", "162549.272500", "162551.272500", "162553.272500", "162555.272500", "162557.272500", "162559.272500", "162601.272500", "162603.272500", "162605.272500", "162607.272500", "162609.272500", "162611.272500", "162613.272500", "162615.272500", "162617.272500", "162619.272500", "162621.272500", "162623.272500", "162625.272500", "162627.272500", "162629.272500", "162631.272500", "162633.272500", "162635.272500", "162637.272500", "162639.272500", "162641.272500", "162643.272500", "162645.272500", "162647.272500", "162649.272500", "162651.272500", "162653.272500", "162655.272500", "162657.272500", "162659.272500", "162701.272500", "162703.272500", "162705.272500", "162707.272500", "162709.272500", "162711.272500", "162713.272500", "162715.272500", "162717.272500", "162719.272500", "162721.272500", "162723.272500", "162725.272500", "162727.272500", "162729.272500", "162731.272500", "162733.272500", "162735.272500", "162737.272500", "162739.272500", "162741.272500", "162743.272500", "162745.272500", "162747.272500", "162749.272500", "162751.272500"],
      "ContentTime": ["162256.073000", "162257.557000", "162259.557000", "162301.557000", "162303.557000", "162305.557000", "162307.557000", "162309.556000", "162311.557000", "162313.556000", "162315.556000", "162317.556000", "162319.557000", "162321.556000", "162323.557000", "162325.556000", "162327.556000", "162329.556000", "162331.556000", "162333.556000", "162335.557000", "162337.557000", "162339.556000", "162341.556000", "162343.555000", "162345.555000", "162347.556000", "162349.557000", "162351.557000", "162353.557000", "162355.556000", "162357.556000", "162359.557000", "162401.555000", "162403.555000", "162405.556000", "162407.556000", "162409.557000", "162411.557000", "162413.557000", "162415.557000", "162417.556000", "162419.555000", "162421.557000", "162423.557000", "162425.557000", "162427.557000", "162429.556000", "162431.556000", "162433.557000", "162435.555000", "162437.556000", "162439.556000", "162441.556000", "162443.557000", "162445.557000", "162447.557000", "162449.556000", "162451.556000", "162453.555000", "162455.556000", "162457.557000", "162459.556000", "162501.557000", "162503.557000", "162505.557000", "162507.557000", "162509.556000", "162511.556000", "162513.556000", "162515.556000", "162517.556000", "162519.557000", "162521.557000", "162523.557000", "162525.557000", "162527.557000", "162529.556000", "162531.556000", "162533.557000", "162535.556000", "162537.556000", "162539.557000", "162541.557000", "162543.556000", "162545.555000", "162547.555000", "162549.556000", "162551.557000", "162553.557000", "162555.556000", "162557.556000", "162559.556000", "162601.557000", "162603.556000", "162605.556000", "162607.556000", "162609.557000", "162611.557000", "162613.557000", "162615.556000", "162617.557000", "162619.557000", "162621.556000", "162623.555000", "162625.556000", "162627.556000", "162629.557000", "162631.556000", "162633.556000", "162635.557000", "162637.556000", "162639.555000", "162641.557000", "162643.556000", "162645.557000", "162647.556000", "162649.556000", "162651.556000", "162653.556000", "162655.556000", "162657.555000", "162659.556000", "162701.557000", "162703.557000", "162705.556000", "162707.557000", "162709.556000", "162711.557000", "162713.556000", "162715.555000", "162717.557000", "162719.557000", "162721.556000", "162723.556000", "162725.556000", "162727.557000", "162729.557000", "162731.555000", "162733.556000", "162735.556000", "162737.556000", "162739.556000", "162741.556000", "162743.577000", "162745.557000", "162747.556000", "162749.556000", "162751.557000", "162753.245000"],
      "InstanceCreationTime": ["162256.073000", "162257.557000", "162259.557000", "162301.557000", "162303.557000", "162305.557000", "162307.557000", "162309.556000", "162311.557000", "162313.556000", "162315.556000", "162317.556000", "162319.557000", "162321.556000", "162323.557000", "162325.556000", "162327.556000", "162329.556000", "162331.556000", "162333.556000", "162335.557000", "162337.557000", "162339.556000", "162341.556000", "162343.555000", "162345.555000", "162347.556000", "162349.557000", "162351.557000", "162353.557000", "162355.556000", "162357.556000", "162359.557000", "162401.555000", "162403.555000", "162405.556000", "162407.556000", "162409.557000", "162411.557000", "162413.557000", "162415.557000", "162417.556000", "162419.555000", "162421.557000", "162423.557000", "162425.557000", "162427.557000", "162429.556000", "162431.556000", "162433.557000", "162435.555000", "162437.556000", "162439.556000", "162441.556000", "162443.557000", "162445.557000", "162447.557000", "162449.556000", "162451.556000", "162453.555000", "162455.556000", "162457.557000", "162459.556000", "162501.557000", "162503.557000", "162505.557000", "162507.557000", "162509.556000", "162511.556000", "162513.556000", "162515.556000", "162517.556000", "162519.557000", "162521.557000", "162523.557000", "162525.557000", "162527.557000", "162529.556000", "162531.556000", "162533.557000", "162535.556000", "162537.556000", "162539.557000", "162541.557000", "162543.556000", "162545.555000", "162547.555000", "162549.556000", "162551.557000", "162553.557000", "162555.556000", "162557.556000", "162559.556000", "162601.557000", "162603.556000", "162605.556000", "162607.556000", "162609.557000", "162611.557000", "162613.557000", "162615.556000", "162617.557000", "162619.557000", "162621.556000", "162623.555000", "162625.556000", "162627.556000", "162629.557000", "162631.556000", "162633.556000", "162635.557000", "162637.556000", "162639.555000", "162641.557000", "162643.556000", "162645.557000", "162647.556000", "162649.556000", "162651.556000", "162653.556000", "162655.556000", "162657.555000", "162659.556000", "162701.557000", "162703.557000", "162705.556000", "162707.557000", "162709.556000", "162711.557000", "162713.556000", "162715.555000", "162717.557000", "162719.557000", "162721.556000", "162723.556000", "162725.556000", "162727.557000", "162729.557000", "162731.555000", "162733.556000", "162735.556000", "162737.556000", "162739.556000", "162741.556000", "162743.577000", "162745.557000", "162747.556000", "162749.556000", "162751.557000", "162753.245000"],
      "InstanceNumber": [1, 2, 3, 4, 5, 6, 7, 8, 9, 10, 11, 12, 13, 14, 15, 16, 17, 18, 19, 20, 21, 22, 23, 24, 25, 26, 27, 28, 29, 30, 31, 32, 33, 34, 35, 36, 37, 38, 39, 40, 41, 42, 43, 44, 45, 46, 47, 48, 49, 50, 51, 52, 53, 54, 55, 56, 57, 58, 59, 60, 61, 62, 63, 64, 65, 66, 67, 68, 69, 70, 71, 72, 73, 74, 75, 76, 77, 78, 79, 80, 81, 82, 83, 84, 85, 86, 87, 88, 89, 90, 91, 92, 93, 94, 95, 96, 97, 98, 99, 100, 101, 102, 103, 104, 105, 106, 107, 108, 109, 110, 111, 112, 113, 114, 115, 116, 117, 118, 119, 120, 121, 122, 123, 124, 125, 126, 127, 128, 129, 130, 131, 132, 133, 134, 135, 136, 137, 138, 139, 140, 141, 142, 143, 144, 145, 146, 147, 148, 149, 150],
      "LargestImagePixelValue": [3009, 2926, 2909, 2924, 2912, 2904, 2920, 2916, 2912, 2920, 2910, 2936, 2919, 2955, 2928, 3176, 2908, 2919, 2934, 2942, 2910, 2939, 2903, 2929, 2919, 2918, 2925, 2928, 2910, 2906, 2908, 2919, 2895, 3432, 2961, 2905, 2910, 2895, 2898, 2927, 2923, 2926, 2926, 2928, 2931, 2930, 2946, 2927, 2930, 2932, 2975, 2926, 2917, 2929, 2913, 2939, 2912, 2942, 2946, 2931, 2962, 2931, 2947, 2959, 2919, 2940, 2931, 2932, 2947, 2925, 2935, 2922, 2927, 2924, 2923, 2959, 2960, 2959, 2980, 2941, 2957, 2939, 2959, 2937, 2947, 2952, 2942, 2935, 2953, 2918, 2987, 2918, 2953, 2962, 2959, 2936, 2921, 2930, 2922, 2964, 2932, 2941, 2950, 2938, 2926, 2934, 2950, 2951, 2952, 2945, 2914, 2958, 2943, 2932, 2949, 2956, 2941, 2925, 2932, 2987, 2937, 2950, 2948, 2963, 2941, 2973, 2911, 2926, 2935, 2923, 2953, 2933, 2950, 2944, 3001, 2939, 2951, 2948, 2965, 2981, 2955, 2972, 2963, 2959, 2969, 2978, 2966, 2965, 2961, 2939],
      "WindowCenter": [808.0, 806.0, 806.0, 805.0, 806.0, 807.0, 807.0, 806.0, 806.0, 806.0, 805.0, 805.0, 804.0, 804.0, 804.0, 806.0, 803.0, 803.0, 804.0, 805.0, 805.0, 804.0, 804.0, 804.0, 804.0, 804.0, 804.0, 804.0, 803.0, 803.0, 804.0, 804.0, 804.0, 810.0, 808.0, 808.0, 807.0, 805.0, 804.0, 805.0, 805.0, 806.0, 806.0, 806.0, 805.0, 805.0, 805.0, 804.0, 804.0, 804.0, 806.0, 805.0, 806.0, 806.0, 806.0, 806.0, 804.0, 804.0, 803.0, 803.0, 801.0, 801.0, 801.0, 801.0, 802.0, 805.0, 806.0, 805.0, 804.0, 802.0, 802.0, 802.0, 803.0, 804.0, 806.0, 807.0, 806.0, 804.0, 803.0, 803.0, 806.0, 806.0, 804.0, 803.0, 802.0, 803.0, 804.0, 804.0, 804.0, 804.0, 805.0, 804.0, 804.0, 803.0, 803.0, 804.0, 804.0, 805.0, 805.0, 804.0, 802.0, 802.0, 804.0, 804.0, 803.0, 803.0, 804.0, 805.0, 805.0, 805.0, 805.0, 805.0, 805.0, 805.0, 804.0, 803.0, 804.0, 806.0, 805.0, 804.0, 804.0, 803.0, 802.0, 803.0, 804.0, 805.0, 805.0, 806.0, 805.0, 805.0, 805.0, 804.0, 806.0, 805.0, 805.0, 804.0, 805.0, 805.0, 806.0, 806.0, 806.0, 805.0, 805.0, 804.0, 804.0, 805.0, 805.0, 805.0, 806.0, 805.0],
      "WindowWidth": [1702.0, 1695.0, 1695.0, 1694.0, 1695.0, 1697.0, 1698.0, 1697.0, 1697.0, 1696.0, 1695.0, 1694.0, 1692.0, 1691.0, 1691.0, 1697.0, 1689.0, 1690.0, 1692.0, 1694.0, 1694.0, 1692.0, 1691.0, 1692.0, 1692.0, 1691.0, 1693.0, 1691.0, 1689.0, 1690.0, 1691.0, 1692.0, 1692.0, 1707.0, 1701.0, 1701.0, 1698.0, 1695.0, 1693.0, 1694.0, 1695.0, 1696.0, 1696.0, 1697.0, 1695.0, 1695.0, 1695.0, 1693.0, 1692.0, 1692.0, 1696.0, 1694.0, 1695.0, 1696.0, 1696.0, 1695.0, 1692.0, 1692.0, 1690.0, 1689.0, 1685.0, 1684.0, 1684.0, 1684.0, 1687.0, 1694.0, 1695.0, 1693.0, 1691.0, 1687.0, 1686.0, 1687.0, 1688.0, 1692.0, 1696.0, 1699.0, 1697.0, 1691.0, 1689.0, 1690.0, 1695.0, 1696.0, 1692.0, 1688.0, 1687.0, 1689.0, 1691.0, 1692.0, 1693.0, 1692.0, 1693.0, 1690.0, 1691.0, 1690.0, 1690.0, 1691.0, 1691.0, 1693.0, 1694.0, 1691.0, 1687.0, 1687.0, 1691.0, 1691.0, 1690.0, 1689.0, 1692.0, 1693.0, 1695.0, 1695.0, 1693.0, 1695.0, 1695.0, 1694.0, 1691.0, 1689.0, 1692.0, 1696.0, 1695.0, 1693.0, 1691.0, 1690.0, 1688.0, 1689.0, 1691.0, 1693.0, 1694.0, 1697.0, 1695.0, 1694.0, 1694.0, 1693.0, 1695.0, 1694.0, 1693.0, 1691.0, 1694.0, 1694.0, 1696.0, 1696.0, 1695.0, 1694.0, 1693.0, 1692.0, 1692.0, 1693.0, 1694.0, 1693.0, 1696.0, 1695.0]
    },
    "slices": {}
  }
}