{
 "AcquisitionMatrixPE": 100,
 "AcquisitionNumber": 1,
 "AcquisitionTime": "16:01:7.145000",
 "BandwidthPerPixelPhaseEncode": 18.519,
 "BaseResolution": 100,
 "BodyPartExamined": "BRAIN",
 "ConsistencyInfo": "N4_VE11C_LATEST_20160120",
 "ConversionSoftware": "dcm2niix",
 "ConversionSoftwareVersion": "v1.0.20180622 GCC4.9.2",
 "DerivedVendorReportedEchoSpacing": 0.000539986,
 "DeviceSerialNumber": "166078",
 "DwellTime": 2.1e-06,
 "EchoTime": 0.034,
 "EchoTrainLength": 100,
 "EffectiveEchoSpacing": 0.000539986,
 "FlipAngle": 90,
 "ImageOrientationPatientDICOM": [
  1,
  -7.37861e-06,
  -6.87783e-05,
  2.87274e-08,
  0.994339,
  -0.106256
 ],
 "ImageType": [
  "ORIGINAL",
  "PRIMARY",
  "M",
  "ND",
  "MOSAIC"
 ],
 "InPlanePhaseEncodingDirectionDICOM": "COL",
 "InstitutionAddress": "Street_StreetNo_Bei_Jing_District_CN_ZIP",
 "InstitutionName": "BeiJing_Normal_University",
 "InstitutionalDepartmentName": "Department",
 "MRAcquisitionType": "2D",
 "MagneticFieldStrength": 3,
 "Manufacturer": "Siemens",
 "ManufacturersModelName": "Prisma",
 "Modality": "MR",
 "MultibandAccelerationFactor": 3,
 "PartialFourier": 1,
 "PatientPosition": "HFS",
 "PercentPhaseFOV": 100,
 "PhaseEncodingDirection": "j-",
 "PhaseEncodingSteps": 100,
 "PhaseResolution": 1,
 "PixelBandwidth": 2380,
 "ProcedureStepDescription": "BNU_P2018_64CH_Zhen.ZongLei",
 "ProtocolName": "bold_100x100_s3_2x2x2_cat_150",
 "PulseSequenceDetails": "%SiemensSeq%_ep2d_bold",
 "ReceiveCoilActiveElements": "HC1-7;NC1",
 "ReceiveCoilName": "HeadNeck_64",
 "ReconMatrixPE": 100,
 "RepetitionTime": 2,
 "SAR": 0.0816931,
 "ScanOptions": "FS",
 "ScanningSequence": "EP",
 "SequenceName": "_epfid2d1_100",
 "SequenceVariant": "SK",
 "SeriesDescription": "bold_100x100_s3_2x2x2_cat_150",
 "SeriesNumber": 9,
 "ShimSetting": [
  -5461,
  -11518,
  -1248,
  228,
  -37,
  -154,
  -137,
  42
 ],
 "SliceThickness": 2,
 "SliceTiming": [
  1.485,
  0,
  0.99,
  0.0825,
  1.0725,
  0.165,
  1.155,
  0.2475,
  1.2375,
  0.33,
  1.32,
  0.4125,
  1.4025,
  0.5775,
  1.5675,
  0.66,
  1.65,
  0.7425,
  1.7325,
  0.825,
  1.815,
  0.9075,
  1.8975,
  0.495,
  1.485,
  0,
  0.99,
  0.0825,
  1.0725,
  0.165,
  1.155,
  0.2475,
  1.2375,
  0.33,
  1.32,
  0.4125,
  1.4025,
  0.5775,
  1.5675,
  0.66,
  1.65,
  0.7425,
  1.7325,
  0.825,
  1.815,
  0.9075,
  1.8975,
  0.495,
  1.485,
  0,
  0.99,
  0.0825,
  1.0725,
  0.165,
  1.155,
  0.2475,
  1.2375,
  0.33,
  1.32,
  0.4125,
  1.4025,
  0.5775,
  1.5675,
  0.66,
  1.65,
  0.7425,
  1.7325,
  0.825,
  1.815,
  0.9075,
  1.8975,
  0.495
 ],
 "SoftwareVersions": "syngo_MR_E11",
 "SpacingBetweenSlices": 2,
 "StationName": "AWP166078",
 "TaskName": "floc",
 "TotalReadoutTime": 0.0534586,
 "TxRefAmp": 249.589,
 "dcmmeta_affine": [
  [
   -2.0,
   5.745484088492958e-08,
   -0.000138345843879506,
   100.02751922607422
  ],
  [
   1.4757224562345073e-05,
   1.9886776208877563,
   -0.2125122994184494,
   -81.75200653076172
  ],
  [
   -0.00013755651889368892,
   0.2125122845172882,
   1.9886776208877563,
   -79.15380096435547
  ],
  [
   0.0,
   0.0,
   0.0,
   1.0
  ]
 ],
 "dcmmeta_reorient_transform": [
  [
   0.0,
   -1.0,
   0.0,
   99.0
  ],
  [
   1.0,
   0.0,
   0.0,
   0.0
  ],
  [
   0.0,
   0.0,
   1.0,
   0.0
  ],
  [
   0.0,
   0.0,
   0.0,
   1.0
  ]
 ],
 "dcmmeta_shape": [
  100,
  100,
  72,
  150
 ],
 "dcmmeta_slice_dim": 2,
 "dcmmeta_version": 0.6,
 "global": {
  "const": {
   "AcquisitionMatrix": [
    100,
    0,
    0,
    100
   ],
   "AngioFlag": "N",
   "BitsAllocated": 16,
   "BitsStored": 12,
   "BodyPartExamined": "BRAIN",
   "Columns": 900,
   "EchoNumbers": 1,
   "EchoTime": 34.0,
   "EchoTrainLength": 100,
   "FlipAngle": 90.0,
   "HighBit": 11,
   "ImageOrientationPatient": [
    0.99999999760755,
    -7.37861208e-06,
    -6.87782609e-05,
    2.8727421e-08,
    0.9943387912732,
    -0.1062561441487
   ],
   "ImagePositionPatient": [
    -900.02754367261,
    -910.59220774297,
    26.944856316083
   ],
   "ImageType": [
    "ORIGINAL",
    "PRIMARY",
    "M",
    "ND",
    "MOSAIC"
   ],
   "ImagedNucleus": "1H",
   "ImagingFrequency": 123.257761,
   "InPlanePhaseEncodingDirection": "COL",
   "MRAcquisitionType": "2D",
   "MagneticFieldStrength": 3.0,
   "Manufacturer": "SIEMENS",
   "ManufacturerModelName": "Prisma",
   "Modality": "MR",
   "NumberOfAverages": 1.0,
   "NumberOfPhaseEncodingSteps": 100,
   "PercentPhaseFieldOfView": 100.0,
   "PercentSampling": 100.0,
   "PerformedProcedureStepStartTime": "151925.678000",
   "PhotometricInterpretation": "MONOCHROME2",
   "PixelBandwidth": 2380.0,
   "PixelRepresentation": 0,
   "PixelSpacing": [
    2.0,
    2.0
   ],
   "ProtocolName": "bold_100x100_s3_2x2x2_cat_150",
   "RepetitionTime": 2000.0,
   "Rows": 900,
   "SAR": 0.08169310377612,
   "SamplesPerPixel": 1,
   "ScanOptions": "FS",
   "ScanningSequence": "EP",
   "SequenceName": "*epfid2d1_100",
   "SequenceVariant": "SK",
   "SeriesDescription": "bold_100x100_s3_2x2x2_cat_150",
   "SeriesNumber": 9,
   "SeriesTime": "160110.048000",
   "SliceLocation": -70.025958386435,
   "SliceThickness": 2.0,
   "SmallestImagePixelValue": 0,
   "SoftwareVersions": "syngo MR E11",
   "SpacingBetweenSlices": 2.0000000766297,
   "SpecificCharacterSet": "ISO_IR 100",
   "StudyID": "1",
   "StudyTime": "151925.613000",
   "TransmitCoilName": "Body",
   "VariableFlipAngleFlag": "N",
   "WindowCenterWidthExplanation": "Algo1",
   "dBdt": 0.0
  },
  "slices": {}
 },
 "time": {
  "samples": {
   "AcquisitionNumber": [
    1,
    2,
    3,
    4,
    5,
    6,
    7,
    8,
    9,
    10,
    11,
    12,
    13,
    14,
    15,
    16,
    17,
    18,
    19,
    20,
    21,
    22,
    23,
    24,
    25,
    26,
    27,
    28,
    29,
    30,
    31,
    32,
    33,
    34,
    35,
    36,
    37,
    38,
    39,
    40,
    41,
    42,
    43,
    44,
    45,
    46,
    47,
    48,
    49,
    50,
    51,
    52,
    53,
    54,
    55,
    56,
    57,
    58,
    59,
    60,
    61,
    62,
    63,
    64,
    65,
    66,
    67,
    68,
    69,
    70,
    71,
    72,
    73,
    74,
    75,
    76,
    77,
    78,
    79,
    80,
    81,
    82,
    83,
    84,
    85,
    86,
    87,
    88,
    89,
    90,
    91,
    92,
    93,
    94,
    95,
    96,
    97,
    98,
    99,
    100,
    101,
    102,
    103,
    104,
    105,
    106,
    107,
    108,
    109,
    110,
    111,
    112,
    113,
    114,
    115,
    116,
    117,
    118,
    119,
    120,
    121,
    122,
    123,
    124,
    125,
    126,
    127,
    128,
    129,
    130,
    131,
    132,
    133,
    134,
    135,
    136,
    137,
    138,
    139,
    140,
    141,
    142,
    143,
    144,
    145,
    146,
    147,
    148,
    149,
    150
   ],
   "AcquisitionTime": [
    "160107.145000",
    "160109.145000",
    "160111.145000",
    "160113.145000",
    "160115.145000",
    "160117.145000",
    "160119.145000",
    "160121.145000",
    "160123.145000",
    "160125.145000",
    "160127.145000",
    "160129.145000",
    "160131.145000",
    "160133.145000",
    "160135.145000",
    "160137.145000",
    "160139.145000",
    "160141.145000",
    "160143.145000",
    "160145.145000",
    "160147.145000",
    "160149.145000",
    "160151.145000",
    "160153.145000",
    "160155.145000",
    "160157.145000",
    "160159.145000",
    "160201.145000",
    "160203.145000",
    "160205.145000",
    "160207.145000",
    "160209.145000",
    "160211.145000",
    "160213.145000",
    "160215.145000",
    "160217.145000",
    "160219.145000",
    "160221.145000",
    "160223.145000",
    "160225.145000",
    "160227.145000",
    "160229.145000",
    "160231.145000",
    "160233.145000",
    "160235.145000",
    "160237.145000",
    "160239.145000",
    "160241.145000",
    "160243.145000",
    "160245.145000",
    "160247.145000",
    "160249.145000",
    "160251.145000",
    "160253.145000",
    "160255.145000",
    "160257.145000",
    "160259.145000",
    "160301.145000",
    "160303.145000",
    "160305.145000",
    "160307.145000",
    "160309.145000",
    "160311.145000",
    "160313.145000",
    "160315.145000",
    "160317.145000",
    "160319.145000",
    "160321.145000",
    "160323.145000",
    "160325.145000",
    "160327.145000",
    "160329.145000",
    "160331.145000",
    "160333.145000",
    "160335.145000",
    "160337.145000",
    "160339.145000",
    "160341.145000",
    "160343.145000",
    "160345.145000",
    "160347.145000",
    "160349.145000",
    "160351.145000",
    "160353.145000",
    "160355.145000",
    "160357.145000",
    "160359.145000",
    "160401.145000",
    "160403.145000",
    "160405.145000",
    "160407.145000",
    "160409.145000",
    "160411.145000",
    "160413.145000",
    "160415.145000",
    "160417.145000",
    "160419.145000",
    "160421.145000",
    "160423.145000",
    "160425.145000",
    "160427.145000",
    "160429.145000",
    "160431.145000",
    "160433.145000",
    "160435.145000",
    "160437.145000",
    "160439.145000",
    "160441.145000",
    "160443.145000",
    "160445.145000",
    "160447.145000",
    "160449.145000",
    "160451.145000",
    "160453.145000",
    "160455.145000",
    "160457.145000",
    "160459.145000",
    "160501.145000",
    "160503.145000",
    "160505.145000",
    "160507.145000",
    "160509.145000",
    "160511.145000",
    "160513.145000",
    "160515.145000",
    "160517.145000",
    "160519.145000",
    "160521.145000",
    "160523.145000",
    "160525.145000",
    "160527.145000",
    "160529.145000",
    "160531.145000",
    "160533.145000",
    "160535.145000",
    "160537.145000",
    "160539.145000",
    "160541.145000",
    "160543.145000",
    "160545.145000",
    "160547.145000",
    "160549.145000",
    "160551.145000",
    "160553.145000",
    "160555.145000",
    "160557.145000",
    "160559.145000",
    "160601.145000",
    "160603.145000",
    "160605.145000"
   ],
   "ContentTime": [
    "160110.052000",
    "160111.547000",
    "160113.548000",
    "160115.547000",
    "160117.546000",
    "160119.546000",
    "160121.547000",
    "160123.548000",
    "160125.548000",
    "160127.548000",
    "160129.547000",
    "160131.547000",
    "160133.547000",
    "160135.546000",
    "160137.547000",
    "160139.548000",
    "160141.548000",
    "160143.548000",
    "160145.547000",
    "160147.547000",
    "160149.548000",
    "160151.548000",
    "160153.546000",
    "160155.547000",
    "160157.548000",
    "160159.547000",
    "160201.548000",
    "160203.547000",
    "160205.547000",
    "160207.547000",
    "160209.546000",
    "160211.547000",
    "160213.548000",
    "160215.547000",
    "160217.548000",
    "160219.547000",
    "160221.548000",
    "160223.547000",
    "160225.548000",
    "160227.546000",
    "160229.546000",
    "160231.547000",
    "160233.547000",
    "160235.547000",
    "160237.548000",
    "160239.548000",
    "160241.548000",
    "160243.548000",
    "160245.546000",
    "160247.548000",
    "160249.547000",
    "160251.547000",
    "160253.547000",
    "160255.547000",
    "160257.547000",
    "160259.547000",
    "160301.548000",
    "160303.546000",
    "160305.547000",
    "160307.547000",
    "160309.548000",
    "160311.548000",
    "160313.548000",
    "160315.547000",
    "160317.548000",
    "160319.546000",
    "160321.546000",
    "160323.548000",
    "160325.548000",
    "160327.548000",
    "160329.548000",
    "160331.547000",
    "160333.548000",
    "160335.548000",
    "160337.547000",
    "160339.546000",
    "160341.547000",
    "160343.547000",
    "160345.548000",
    "160347.548000",
    "160349.547000",
    "160351.548000",
    "160353.547000",
    "160355.547000",
    "160357.548000",
    "160359.548000",
    "160401.547000",
    "160403.548000",
    "160405.547000",
    "160407.547000",
    "160409.547000",
    "160411.547000",
    "160413.546000",
    "160415.547000",
    "160417.547000",
    "160419.547000",
    "160421.547000",
    "160423.547000",
    "160425.547000",
    "160427.547000",
    "160429.547000",
    "160431.546000",
    "160433.548000",
    "160435.547000",
    "160437.547000",
    "160439.547000",
    "160441.548000",
    "160443.547000",
    "160445.548000",
    "160447.546000",
    "160449.547000",
    "160451.547000",
    "160453.547000",
    "160455.547000",
    "160457.547000",
    "160459.548000",
    "160501.548000",
    "160503.548000",
    "160505.547000",
    "160507.548000",
    "160509.548000",
    "160511.548000",
    "160513.548000",
    "160515.548000",
    "160517.547000",
    "160519.548000",
    "160521.547000",
    "160523.547000",
    "160525.548000",
    "160527.548000",
    "160529.547000",
    "160531.547000",
    "160533.547000",
    "160535.547000",
    "160537.547000",
    "160539.547000",
    "160541.546000",
    "160543.547000",
    "160545.547000",
    "160547.547000",
    "160549.548000",
    "160551.548000",
    "160553.548000",
    "160555.548000",
    "160557.547000",
    "160559.547000",
    "160601.547000",
    "160603.548000",
    "160605.547000",
    "160607.237000"
   ],
   "InstanceCreationTime": [
    "160110.052000",
    "160111.547000",
    "160113.548000",
    "160115.547000",
    "160117.546000",
    "160119.546000",
    "160121.547000",
    "160123.548000",
    "160125.548000",
    "160127.548000",
    "160129.547000",
    "160131.547000",
    "160133.547000",
    "160135.546000",
    "160137.547000",
    "160139.548000",
    "160141.548000",
    "160143.548000",
    "160145.547000",
    "160147.547000",
    "160149.548000",
    "160151.548000",
    "160153.546000",
    "160155.547000",
    "160157.548000",
    "160159.547000",
    "160201.548000",
    "160203.547000",
    "160205.547000",
    "160207.547000",
    "160209.546000",
    "160211.547000",
    "160213.548000",
    "160215.547000",
    "160217.548000",
    "160219.547000",
    "160221.548000",
    "160223.547000",
    "160225.548000",
    "160227.546000",
    "160229.546000",
    "160231.547000",
    "160233.547000",
    "160235.547000",
    "160237.548000",
    "160239.548000",
    "160241.548000",
    "160243.548000",
    "160245.546000",
    "160247.548000",
    "160249.547000",
    "160251.547000",
    "160253.547000",
    "160255.547000",
    "160257.547000",
    "160259.547000",
    "160301.548000",
    "160303.546000",
    "160305.547000",
    "160307.547000",
    "160309.548000",
    "160311.548000",
    "160313.548000",
    "160315.547000",
    "160317.548000",
    "160319.546000",
    "160321.546000",
    "160323.548000",
    "160325.548000",
    "160327.548000",
    "160329.548000",
    "160331.547000",
    "160333.548000",
    "160335.548000",
    "160337.547000",
    "160339.546000",
    "160341.547000",
    "160343.547000",
    "160345.548000",
    "160347.548000",
    "160349.547000",
    "160351.548000",
    "160353.547000",
    "160355.547000",
    "160357.548000",
    "160359.548000",
    "160401.547000",
    "160403.548000",
    "160405.547000",
    "160407.547000",
    "160409.547000",
    "160411.547000",
    "160413.546000",
    "160415.547000",
    "160417.547000",
    "160419.547000",
    "160421.547000",
    "160423.547000",
    "160425.547000",
    "160427.547000",
    "160429.547000",
    "160431.546000",
    "160433.548000",
    "160435.547000",
    "160437.547000",
    "160439.547000",
    "160441.548000",
    "160443.547000",
    "160445.548000",
    "160447.546000",
    "160449.547000",
    "160451.547000",
    "160453.547000",
    "160455.547000",
    "160457.547000",
    "160459.548000",
    "160501.548000",
    "160503.548000",
    "160505.547000",
    "160507.548000",
    "160509.548000",
    "160511.548000",
    "160513.548000",
    "160515.548000",
    "160517.547000",
    "160519.548000",
    "160521.547000",
    "160523.547000",
    "160525.548000",
    "160527.548000",
    "160529.547000",
    "160531.547000",
    "160533.547000",
    "160535.547000",
    "160537.547000",
    "160539.547000",
    "160541.546000",
    "160543.547000",
    "160545.547000",
    "160547.547000",
    "160549.548000",
    "160551.548000",
    "160553.548000",
    "160555.548000",
    "160557.547000",
    "160559.547000",
    "160601.547000",
    "160603.548000",
    "160605.547000",
    "160607.237000"
   ],
   "InstanceNumber": [
    1,
    2,
    3,
    4,
    5,
    6,
    7,
    8,
    9,
    10,
    11,
    12,
    13,
    14,
    15,
    16,
    17,
    18,
    19,
    20,
    21,
    22,
    23,
    24,
    25,
    26,
    27,
    28,
    29,
    30,
    31,
    32,
    33,
    34,
    35,
    36,
    37,
    38,
    39,
    40,
    41,
    42,
    43,
    44,
    45,
    46,
    47,
    48,
    49,
    50,
    51,
    52,
    53,
    54,
    55,
    56,
    57,
    58,
    59,
    60,
    61,
    62,
    63,
    64,
    65,
    66,
    67,
    68,
    69,
    70,
    71,
    72,
    73,
    74,
    75,
    76,
    77,
    78,
    79,
    80,
    81,
    82,
    83,
    84,
    85,
    86,
    87,
    88,
    89,
    90,
    91,
    92,
    93,
    94,
    95,
    96,
    97,
    98,
    99,
    100,
    101,
    102,
    103,
    104,
    105,
    106,
    107,
    108,
    109,
    110,
    111,
    112,
    113,
    114,
    115,
    116,
    117,
    118,
    119,
    120,
    121,
    122,
    123,
    124,
    125,
    126,
    127,
    128,
    129,
    130,
    131,
    132,
    133,
    134,
    135,
    136,
    137,
    138,
    139,
    140,
    141,
    142,
    143,
    144,
    145,
    146,
    147,
    148,
    149,
    150
   ],
   "LargestImagePixelValue": [
    2886,
    2947,
    2766,
    2759,
    2761,
    2821,
    2782,
    2822,
    2796,
    2805,
    2801,
    2832,
    2797,
    2812,
    2801,
    2837,
    2762,
    2746,
    2754,
    2776,
    2785,
    2788,
    2776,
    2785,
    2783,
    2821,
    2913,
    2779,
    2800,
    2794,
    2825,
    2771,
    2829,
    2793,
    2790,
    2804,
    2823,
    2814,
    2844,
    2798,
    2808,
    2785,
    2822,
    2817,
    2839,
    2815,
    2811,
    2842,
    2824,
    2819,
    2820,
    2852,
    2825,
    2847,
    2815,
    2840,
    2861,
    2827,
    2863,
    2853,
    2816,
    2812,
    2775,
    2786,
    2763,
    2828,
    2819,
    2832,
    2825,
    2857,
    2851,
    2850,
    2801,
    2822,
    2827,
    2799,
    2810,
    2860,
    2789,
    2806,
    2780,
    2768,
    2829,
    2819,
    2801,
    2821,
    2803,
    2843,
    2818,
    2841,
    2822,
    2795,
    2792,
    2811,
    2748,
    2719,
    2774,
    2748,
    2823,
    2762,
    2794,
    2787,
    2763,
    2770,
    2793,
    2840,
    2825,
    2983,
    2963,
    2848,
    2845,
    2820,
    2846,
    2845,
    2857,
    2799,
    2818,
    2850,
    2881,
    2822,
    2828,
    2841,
    2798,
    2746,
    2732,
    2764,
    2766,
    2784,
    2800,
    2788,
    2782,
    2806,
    2816,
    2803,
    2812,
    2848,
    2864,
    2826,
    2842,
    2867,
    2856,
    2860,
    2868,
    2811,
    2795,
    2790,
    2817,
    2842,
    2884,
    2870
   ],
   "WindowCenter": [
    796.0,
    806.0,
    801.0,
    800.0,
    799.0,
    801.0,
    800.0,
    800.0,
    800.0,
    802.0,
    801.0,
    801.0,
    800.0,
    801.0,
    801.0,
    801.0,
    802.0,
    802.0,
    802.0,
    801.0,
    799.0,
    799.0,
    799.0,
    800.0,
    802.0,
    802.0,
    803.0,
    800.0,
    801.0,
    800.0,
    800.0,
    800.0,
    800.0,
    801.0,
    803.0,
    803.0,
    803.0,
    801.0,
    800.0,
    799.0,
    798.0,
    799.0,
    799.0,
    800.0,
    800.0,
    800.0,
    801.0,
    802.0,
    801.0,
    801.0,
    800.0,
    801.0,
    801.0,
    801.0,
    801.0,
    803.0,
    803.0,
    803.0,
    804.0,
    804.0,
    802.0,
    800.0,
    798.0,
    798.0,
    798.0,
    802.0,
    803.0,
    803.0,
    802.0,
    801.0,
    800.0,
    800.0,
    801.0,
    802.0,
    802.0,
    801.0,
    801.0,
    801.0,
    798.0,
    799.0,
    799.0,
    799.0,
    800.0,
    801.0,
    801.0,
    801.0,
    802.0,
    804.0,
    803.0,
    802.0,
    801.0,
    799.0,
    800.0,
    801.0,
    801.0,
    799.0,
    800.0,
    798.0,
    799.0,
    799.0,
    800.0,
    802.0,
    801.0,
    801.0,
    801.0,
    802.0,
    801.0,
    803.0,
    803.0,
    802.0,
    801.0,
    800.0,
    802.0,
    802.0,
    802.0,
    801.0,
    800.0,
    801.0,
    802.0,
    801.0,
    800.0,
    800.0,
    799.0,
    797.0,
    797.0,
    798.0,
    799.0,
    801.0,
    802.0,
    801.0,
    800.0,
    801.0,
    802.0,
    801.0,
    801.0,
    801.0,
    802.0,
    802.0,
    802.0,
    801.0,
    801.0,
    802.0,
    802.0,
    800.0,
    800.0,
    799.0,
    799.0,
    801.0,
    801.0,
    802.0
   ],
   "WindowWidth": [
    1674.0,
    1698.0,
    1684.0,
    1682.0,
    1681.0,
    1683.0,
    1683.0,
    1683.0,
    1684.0,
    1687.0,
    1686.0,
    1685.0,
    1683.0,
    1686.0,
    1686.0,
    1685.0,
    1687.0,
    1688.0,
    1687.0,
    1683.0,
    1681.0,
    1679.0,
    1679.0,
    1683.0,
    1687.0,
    1688.0,
    1689.0,
    1683.0,
    1684.0,
    1683.0,
    1683.0,
    1682.0,
    1683.0,
    1685.0,
    1688.0,
    1689.0,
    1689.0,
    1686.0,
    1682.0,
    1679.0,
    1678.0,
    1681.0,
    1681.0,
    1682.0,
    1683.0,
    1683.0,
    1685.0,
    1687.0,
    1686.0,
    1684.0,
    1684.0,
    1685.0,
    1684.0,
    1685.0,
    1685.0,
    1689.0,
    1689.0,
    1690.0,
    1692.0,
    1691.0,
    1686.0,
    1681.0,
    1678.0,
    1677.0,
    1679.0,
    1687.0,
    1691.0,
    1690.0,
    1686.0,
    1685.0,
    1682.0,
    1683.0,
    1684.0,
    1686.0,
    1686.0,
    1685.0,
    1684.0,
    1684.0,
    1678.0,
    1679.0,
    1680.0,
    1681.0,
    1683.0,
    1685.0,
    1684.0,
    1685.0,
    1687.0,
    1692.0,
    1690.0,
    1687.0,
    1685.0,
    1681.0,
    1683.0,
    1685.0,
    1684.0,
    1680.0,
    1681.0,
    1678.0,
    1679.0,
    1680.0,
    1683.0,
    1686.0,
    1685.0,
    1685.0,
    1685.0,
    1686.0,
    1685.0,
    1688.0,
    1691.0,
    1687.0,
    1685.0,
    1683.0,
    1687.0,
    1688.0,
    1687.0,
    1684.0,
    1683.0,
    1686.0,
    1688.0,
    1685.0,
    1683.0,
    1683.0,
    1679.0,
    1674.0,
    1675.0,
    1678.0,
    1680.0,
    1684.0,
    1687.0,
    1685.0,
    1683.0,
    1685.0,
    1687.0,
    1685.0,
    1684.0,
    1684.0,
    1686.0,
    1687.0,
    1686.0,
    1684.0,
    1684.0,
    1686.0,
    1687.0,
    1683.0,
    1681.0,
    1678.0,
    1679.0,
    1684.0,
    1684.0,
    1686.0
   ]
  },
  "slices": {}
 }
}