{
  "AcquisitionMatrixPE": 100,
  "AcquisitionNumber": 1,
  "AcquisitionTime": "16:41:0.325000",
  "BandwidthPerPixelPhaseEncode": 18.519,
  "BaseResolution": 100,
  "BodyPartExamined": "BRAIN",
  "ConsistencyInfo": "N4_VE11C_LATEST_20160120",
  "ConversionSoftware": "dcm2niix",
  "ConversionSoftwareVersion": "v1.0.20180622 GCC4.9.2",
  "DerivedVendorReportedEchoSpacing": 0.000539986,
  "DeviceSerialNumber": "166078",
  "DwellTime": 2.1e-06,
  "EchoTime": 0.034,
  "EchoTrainLength": 100,
  "EffectiveEchoSpacing": 0.000539986,
  "FlipAngle": 90,
  "ImageOrientationPatientDICOM": [1, -7.37861e-06, -6.87783e-05, 2.87274e-08, 0.994339, -0.106256],
  "ImageType": [
    "ORIGINAL",
    "PRIMARY",
    "M",
    "ND",
    "MOSAIC"
],
  "InPlanePhaseEncodingDirectionDICOM": "COL",
  "InstitutionAddress": "Street_StreetNo_Bei_Jing_District_CN_ZIP",
  "InstitutionName": "BeiJing_Normal_University",
  "InstitutionalDepartmentName": "Department",
  "MRAcquisitionType": "2D",
  "MagneticFieldStrength": 3,
  "Manufacturer": "Siemens",
  "ManufacturersModelName": "Prisma",
  "Modality": "MR",
  "MultibandAccelerationFactor": 3,
  "PartialFourier": 1,
  "PatientPosition": "HFS",
  "PercentPhaseFOV": 100,
  "PhaseEncodingDirection": "j-",
  "PhaseEncodingSteps": 100,
  "PhaseResolution": 1,
  "PixelBandwidth": 2380,
  "ProcedureStepDescription": "BNU_P2018_64CH_Zhen.ZongLei",
  "ProtocolName": "bold_100x100_s3_2x2x2_cat_150",
  "PulseSequenceDetails": "%SiemensSeq%_ep2d_bold",
  "ReceiveCoilActiveElements": "HC1-7;NC1",
  "ReceiveCoilName": "HeadNeck_64",
  "ReconMatrixPE": 100,
  "RepetitionTime": 2,
  "SAR": 0.0816931,
  "ScanOptions": "FS",
  "ScanningSequence": "EP",
  "SequenceName": "_epfid2d1_100",
  "SequenceVariant": "SK",
  "SeriesDescription": "bold_100x100_s3_2x2x2_cat_150",
  "SeriesNumber": 17,
  "ShimSetting": [-5461, -11518, -1248, 228, -37, -154, -137, 42],
  "SliceThickness": 2,
  "SliceTiming": [1.485, 0, 0.99, 0.0825, 1.0725, 0.165, 1.155, 0.2475, 1.2375, 0.33, 1.32, 0.4125, 1.4025, 0.5775, 1.5675, 0.66, 1.65, 0.7425, 1.7325, 0.825, 1.815, 0.9075, 1.8975, 0.495, 1.485, 0, 0.99, 0.0825, 1.0725, 0.165, 1.155, 0.2475, 1.2375, 0.33, 1.32, 0.4125, 1.4025, 0.5775, 1.5675, 0.66, 1.65, 0.7425, 1.7325, 0.825, 1.815, 0.9075, 1.8975, 0.495, 1.485, 0, 0.99, 0.0825, 1.0725, 0.165, 1.155, 0.2475, 1.2375, 0.33, 1.32, 0.4125, 1.4025, 0.5775, 1.5675, 0.66, 1.65, 0.7425, 1.7325, 0.825, 1.815, 0.9075, 1.8975, 0.495],
  "SoftwareVersions": "syngo_MR_E11",
  "SpacingBetweenSlices": 2,
  "StationName": "AWP166078",
  "TaskName": "category",
  "TotalReadoutTime": 0.0534586,
  "TxRefAmp": 249.589,
  "dcmmeta_affine": [
    [-2.0, 5.745484088492958e-08, -0.000138345843879506, 100.02751922607422],
    [1.4757224562345073e-05, 1.9886776208877563, -0.2125122994184494, -81.75200653076172],
    [-0.00013755651889368892, 0.2125122845172882, 1.9886776208877563, -79.15380096435547],
    [0.0, 0.0, 0.0, 1.0]
],
  "dcmmeta_reorient_transform": [
    [0.0, -1.0, 0.0, 99.0],
    [1.0, 0.0, 0.0, 0.0],
    [0.0, 0.0, 1.0, 0.0],
    [0.0, 0.0, 0.0, 1.0]
],
  "dcmmeta_shape": [100, 100, 72, 150],
  "dcmmeta_slice_dim": 2,
  "dcmmeta_version": 0.6,
  "global": {
    "const": {
      "AcquisitionMatrix": [100, 0, 0, 100],
      "AngioFlag": "N",
      "BitsAllocated": 16,
      "BitsStored": 12,
      "BodyPartExamined": "BRAIN",
      "Columns": 900,
      "EchoNumbers": 1,
      "EchoTime": 34.0,
      "EchoTrainLength": 100,
      "FlipAngle": 90.0,
      "HighBit": 11,
      "ImageOrientationPatient": [0.99999999760755, -7.37861208e-06, -6.87782609e-05, 2.8727421e-08, 0.9943387912732, -0.1062561441487],
      "ImagePositionPatient": [-900.02754367261, -910.59220774297, 26.944856316083],
      "ImageType": [
        "ORIGINAL",
        "PRIMARY",
        "M",
        "ND",
        "MOSAIC"
],
      "ImagedNucleus": "1H",
      "ImagingFrequency": 123.257762,
      "InPlanePhaseEncodingDirection": "COL",
      "MRAcquisitionType": "2D",
      "MagneticFieldStrength": 3.0,
      "Manufacturer": "SIEMENS",
      "ManufacturerModelName": "Prisma",
      "Modality": "MR",
      "NumberOfAverages": 1.0,
      "NumberOfPhaseEncodingSteps": 100,
      "PercentPhaseFieldOfView": 100.0,
      "PercentSampling": 100.0,
      "PerformedProcedureStepStartTime": "151925.678000",
      "PhotometricInterpretation": "MONOCHROME2",
      "PixelBandwidth": 2380.0,
      "PixelRepresentation": 0,
      "PixelSpacing": [2.0, 2.0],
      "ProtocolName": "bold_100x100_s3_2x2x2_cat_150",
      "RepetitionTime": 2000.0,
      "Rows": 900,
      "SAR": 0.08169310377612,
      "SamplesPerPixel": 1,
      "ScanOptions": "FS",
      "ScanningSequence": "EP",
      "SequenceName": "*epfid2d1_100",
      "SequenceVariant": "SK",
      "SeriesDescription": "bold_100x100_s3_2x2x2_cat_150",
      "SeriesNumber": 17,
      "SeriesTime": "164102.938000",
      "SliceLocation": -70.025958386435,
      "SliceThickness": 2.0,
      "SmallestImagePixelValue": 0,
      "SoftwareVersions": "syngo MR E11",
      "SpacingBetweenSlices": 2.0000000766297,
      "SpecificCharacterSet": "ISO_IR 100",
      "StudyID": "1",
      "StudyTime": "151925.613000",
      "TransmitCoilName": "Body",
      "VariableFlipAngleFlag": "N",
      "WindowCenterWidthExplanation": "Algo1",
      "dBdt": 0.0},
    "slices": {}
  },
  "time": {
    "samples": {
      "AcquisitionNumber": [1, 2, 3, 4, 5, 6, 7, 8, 9, 10, 11, 12, 13, 14, 15, 16, 17, 18, 19, 20, 21, 22, 23, 24, 25, 26, 27, 28, 29, 30, 31, 32, 33, 34, 35, 36, 37, 38, 39, 40, 41, 42, 43, 44, 45, 46, 47, 48, 49, 50, 51, 52, 53, 54, 55, 56, 57, 58, 59, 60, 61, 62, 63, 64, 65, 66, 67, 68, 69, 70, 71, 72, 73, 74, 75, 76, 77, 78, 79, 80, 81, 82, 83, 84, 85, 86, 87, 88, 89, 90, 91, 92, 93, 94, 95, 96, 97, 98, 99, 100, 101, 102, 103, 104, 105, 106, 107, 108, 109, 110, 111, 112, 113, 114, 115, 116, 117, 118, 119, 120, 121, 122, 123, 124, 125, 126, 127, 128, 129, 130, 131, 132, 133, 134, 135, 136, 137, 138, 139, 140, 141, 142, 143, 144, 145, 146, 147, 148, 149, 150],
      "AcquisitionTime": ["164100.325000", "164102.325000", "164104.325000", "164106.325000", "164108.325000", "164110.325000", "164112.325000", "164114.325000", "164116.325000", "164118.325000", "164120.325000", "164122.325000", "164124.325000", "164126.325000", "164128.325000", "164130.325000", "164132.325000", "164134.325000", "164136.325000", "164138.325000", "164140.325000", "164142.325000", "164144.325000", "164146.325000", "164148.325000", "164150.325000", "164152.325000", "164154.325000", "164156.325000", "164158.325000", "164200.325000", "164202.325000", "164204.325000", "164206.325000", "164208.325000", "164210.325000", "164212.325000", "164214.325000", "164216.325000", "164218.325000", "164220.325000", "164222.325000", "164224.325000", "164226.325000", "164228.325000", "164230.325000", "164232.325000", "164234.325000", "164236.325000", "164238.325000", "164240.325000", "164242.325000", "164244.325000", "164246.325000", "164248.325000", "164250.325000", "164252.325000", "164254.325000", "164256.325000", "164258.325000", "164300.325000", "164302.325000", "164304.325000", "164306.325000", "164308.325000", "164310.325000", "164312.325000", "164314.325000", "164316.325000", "164318.325000", "164320.325000", "164322.325000", "164324.325000", "164326.325000", "164328.325000", "164330.325000", "164332.325000", "164334.325000", "164336.325000", "164338.325000", "164340.325000", "164342.325000", "164344.325000", "164346.325000", "164348.325000", "164350.325000", "164352.325000", "164354.325000", "164356.325000", "164358.325000", "164400.325000", "164402.325000", "164404.325000", "164406.325000", "164408.325000", "164410.325000", "164412.325000", "164414.325000", "164416.325000", "164418.325000", "164420.325000", "164422.325000", "164424.325000", "164426.325000", "164428.325000", "164430.325000", "164432.325000", "164434.325000", "164436.325000", "164438.325000", "164440.325000", "164442.325000", "164444.325000", "164446.325000", "164448.325000", "164450.325000", "164452.325000", "164454.325000", "164456.325000", "164458.325000", "164500.325000", "164502.325000", "164504.325000", "164506.325000", "164508.325000", "164510.325000", "164512.325000", "164514.325000", "164516.325000", "164518.325000", "164520.325000", "164522.325000", "164524.325000", "164526.325000", "164528.325000", "164530.325000", "164532.325000", "164534.325000", "164536.325000", "164538.325000", "164540.325000", "164542.325000", "164544.325000", "164546.325000", "164548.325000", "164550.325000", "164552.325000", "164554.325000", "164556.325000", "164558.325000"],
      "ContentTime": ["164102.942000", "164104.438000", "164106.437000", "164108.437000", "164110.437000", "164112.436000", "164114.436000", "164116.437000", "164118.438000", "164120.438000", "164122.437000", "164124.438000", "164126.438000", "164128.437000", "164130.437000", "164132.436000", "164134.438000", "164136.438000", "164138.437000", "164140.437000", "164142.437000", "164144.437000", "164146.436000", "164148.436000", "164150.437000", "164152.438000", "164154.437000", "164156.437000", "164158.437000", "164200.437000", "164202.437000", "164204.437000", "164206.436000", "164208.437000", "164210.437000", "164212.437000", "164214.437000", "164216.438000", "164218.437000", "164220.437000", "164222.436000", "164224.437000", "164226.437000", "164228.437000", "164230.438000", "164232.437000", "164234.437000", "164236.437000", "164238.436000", "164240.437000", "164242.436000", "164244.437000", "164246.437000", "164248.438000", "164250.438000", "164252.438000", "164254.437000", "164256.436000", "164258.437000", "164300.437000", "164302.438000", "164304.437000", "164306.437000", "164308.437000", "164310.438000", "164312.438000", "164314.437000", "164316.436000", "164318.438000", "164320.437000", "164322.438000", "164324.438000", "164326.438000", "164328.438000", "164330.437000", "164332.436000", "164334.436000", "164336.437000", "164338.437000", "164340.438000", "164342.437000", "164344.437000", "164346.437000", "164348.437000", "164350.436000", "164352.436000", "164354.438000", "164356.437000", "164358.437000", "164400.438000", "164402.437000", "164404.437000", "164406.437000", "164408.436000", "164410.437000", "164412.437000", "164414.438000", "164416.438000", "164418.438000", "164420.437000", "164422.438000", "164424.436000", "164426.436000", "164428.437000", "164430.438000", "164432.437000", "164434.438000", "164436.438000", "164438.437000", "164440.437000", "164442.436000", "164444.437000", "164446.437000", "164448.437000", "164450.437000", "164452.437000", "164454.437000", "164456.438000", "164458.436000", "164500.437000", "164502.436000", "164504.437000", "164506.437000", "164508.438000", "164510.437000", "164512.437000", "164514.437000", "164516.437000", "164518.438000", "164520.437000", "164522.438000", "164524.437000", "164526.437000", "164528.437000", "164530.437000", "164532.438000", "164534.436000", "164536.436000", "164538.437000", "164540.437000", "164542.437000", "164544.438000", "164546.437000", "164548.437000", "164550.438000", "164552.437000", "164554.436000", "164556.437000", "164558.437000", "164600.256000"],
      "InstanceCreationTime": ["164102.942000", "164104.438000", "164106.437000", "164108.437000", "164110.437000", "164112.436000", "164114.436000", "164116.437000", "164118.438000", "164120.438000", "164122.437000", "164124.438000", "164126.438000", "164128.437000", "164130.437000", "164132.436000", "164134.438000", "164136.438000", "164138.437000", "164140.437000", "164142.437000", "164144.437000", "164146.436000", "164148.436000", "164150.437000", "164152.438000", "164154.437000", "164156.437000", "164158.437000", "164200.437000", "164202.437000", "164204.437000", "164206.436000", "164208.437000", "164210.437000", "164212.437000", "164214.437000", "164216.438000", "164218.437000", "164220.437000", "164222.436000", "164224.437000", "164226.437000", "164228.437000", "164230.438000", "164232.437000", "164234.437000", "164236.437000", "164238.436000", "164240.437000", "164242.436000", "164244.437000", "164246.437000", "164248.438000", "164250.438000", "164252.438000", "164254.437000", "164256.436000", "164258.437000", "164300.437000", "164302.438000", "164304.437000", "164306.437000", "164308.437000", "164310.438000", "164312.438000", "164314.437000", "164316.436000", "164318.438000", "164320.437000", "164322.438000", "164324.438000", "164326.438000", "164328.438000", "164330.437000", "164332.436000", "164334.436000", "164336.437000", "164338.437000", "164340.438000", "164342.437000", "164344.437000", "164346.437000", "164348.437000", "164350.436000", "164352.436000", "164354.438000", "164356.437000", "164358.437000", "164400.438000", "164402.437000", "164404.437000", "164406.437000", "164408.436000", "164410.437000", "164412.437000", "164414.438000", "164416.438000", "164418.438000", "164420.437000", "164422.438000", "164424.436000", "164426.436000", "164428.437000", "164430.438000", "164432.437000", "164434.438000", "164436.438000", "164438.437000", "164440.437000", "164442.436000", "164444.437000", "164446.437000", "164448.437000", "164450.437000", "164452.437000", "164454.437000", "164456.438000", "164458.436000", "164500.437000", "164502.436000", "164504.437000", "164506.437000", "164508.438000", "164510.437000", "164512.437000", "164514.437000", "164516.437000", "164518.438000", "164520.437000", "164522.438000", "164524.437000", "164526.437000", "164528.437000", "164530.437000", "164532.438000", "164534.436000", "164536.436000", "164538.437000", "164540.437000", "164542.437000", "164544.438000", "164546.437000", "164548.437000", "164550.438000", "164552.437000", "164554.436000", "164556.437000", "164558.437000", "164600.256000"],
      "InstanceNumber": [1, 2, 3, 4, 5, 6, 7, 8, 9, 10, 11, 12, 13, 14, 15, 16, 17, 18, 19, 20, 21, 22, 23, 24, 25, 26, 27, 28, 29, 30, 31, 32, 33, 34, 35, 36, 37, 38, 39, 40, 41, 42, 43, 44, 45, 46, 47, 48, 49, 50, 51, 52, 53, 54, 55, 56, 57, 58, 59, 60, 61, 62, 63, 64, 65, 66, 67, 68, 69, 70, 71, 72, 73, 74, 75, 76, 77, 78, 79, 80, 81, 82, 83, 84, 85, 86, 87, 88, 89, 90, 91, 92, 93, 94, 95, 96, 97, 98, 99, 100, 101, 102, 103, 104, 105, 106, 107, 108, 109, 110, 111, 112, 113, 114, 115, 116, 117, 118, 119, 120, 121, 122, 123, 124, 125, 126, 127, 128, 129, 130, 131, 132, 133, 134, 135, 136, 137, 138, 139, 140, 141, 142, 143, 144, 145, 146, 147, 148, 149, 150],
      "LargestImagePixelValue": [2978, 3002, 2939, 2957, 2983, 2979, 2982, 2982, 2983, 2955, 3449, 2999, 2966, 2976, 2963, 2975, 2973, 2982, 2982, 2992, 2988, 2995, 2986, 3009, 3004, 3012, 2991, 2996, 2991, 2963, 2959, 2945, 2965, 2950, 2972, 2937, 2960, 2954, 2952, 2955, 2933, 2954, 2926, 2936, 2939, 2936, 2941, 2951, 2938, 2892, 2891, 2874, 2882, 2872, 2853, 2893, 2872, 2838, 2885, 2909, 2913, 2916, 2954, 2903, 2998, 2881, 2902, 2886, 2892, 2916, 2941, 2975, 2978, 2951, 2915, 2950, 2905, 2897, 2886, 2929, 2902, 2870, 2913, 2951, 2970, 2919, 2958, 2970, 2882, 2883, 2911, 2889, 2901, 2848, 2873, 2874, 2880, 2892, 2890, 2915, 2898, 2890, 2878, 2862, 2861, 2903, 2893, 2892, 2904, 2943, 2920, 2936, 2937, 2916, 2932, 2941, 2886, 2912, 2912, 2932, 2941, 2953, 2943, 2920, 2906, 2940, 2922, 2864, 2865, 2879, 2907, 2973, 2931, 2896, 2939, 3024, 2971, 2979, 3029, 3066, 3085, 3044, 3040, 3081, 3105, 3040, 2970, 3155, 3008, 2959],
      "WindowCenter": [812.0, 810.0, 809.0, 807.0, 807.0, 807.0, 808.0, 808.0, 808.0, 807.0, 812.0, 807.0, 806.0, 807.0, 806.0, 806.0, 806.0, 806.0, 806.0, 806.0, 806.0, 806.0, 806.0, 806.0, 806.0, 807.0, 808.0, 808.0, 807.0, 806.0, 807.0, 807.0, 806.0, 806.0, 806.0, 806.0, 806.0, 806.0, 806.0, 806.0, 805.0, 806.0, 807.0, 806.0, 805.0, 805.0, 804.0, 804.0, 804.0, 805.0, 804.0, 804.0, 804.0, 804.0, 805.0, 805.0, 805.0, 803.0, 804.0, 804.0, 805.0, 806.0, 807.0, 806.0, 807.0, 806.0, 807.0, 806.0, 806.0, 806.0, 806.0, 806.0, 807.0, 807.0, 806.0, 808.0, 807.0, 805.0, 805.0, 805.0, 804.0, 804.0, 805.0, 806.0, 805.0, 805.0, 805.0, 806.0, 805.0, 805.0, 806.0, 806.0, 805.0, 803.0, 803.0, 803.0, 803.0, 805.0, 805.0, 805.0, 805.0, 805.0, 805.0, 805.0, 805.0, 805.0, 804.0, 804.0, 805.0, 807.0, 807.0, 807.0, 806.0, 805.0, 804.0, 805.0, 805.0, 806.0, 806.0, 805.0, 804.0, 805.0, 806.0, 806.0, 806.0, 806.0, 806.0, 806.0, 806.0, 806.0, 806.0, 807.0, 807.0, 806.0, 808.0, 808.0, 807.0, 807.0, 808.0, 808.0, 808.0, 808.0, 808.0, 809.0, 811.0, 810.0, 809.0, 811.0, 807.0, 805.0],
      "WindowWidth": [1710.0, 1705.0, 1702.0, 1698.0, 1698.0, 1698.0, 1701.0, 1700.0, 1699.0, 1698.0, 1708.0, 1697.0, 1693.0, 1696.0, 1695.0, 1695.0, 1695.0, 1696.0, 1695.0, 1696.0, 1695.0, 1695.0, 1695.0, 1696.0, 1696.0, 1697.0, 1700.0, 1700.0, 1698.0, 1696.0, 1699.0, 1699.0, 1697.0, 1695.0, 1695.0, 1696.0, 1696.0, 1697.0, 1696.0, 1695.0, 1694.0, 1697.0, 1698.0, 1695.0, 1692.0, 1693.0, 1692.0, 1691.0, 1692.0, 1692.0, 1692.0, 1691.0, 1692.0, 1691.0, 1692.0, 1694.0, 1692.0, 1689.0, 1690.0, 1692.0, 1694.0, 1697.0, 1699.0, 1696.0, 1697.0, 1696.0, 1697.0, 1695.0, 1696.0, 1695.0, 1695.0, 1696.0, 1698.0, 1698.0, 1697.0, 1700.0, 1698.0, 1694.0, 1694.0, 1694.0, 1691.0, 1691.0, 1694.0, 1695.0, 1694.0, 1693.0, 1695.0, 1696.0, 1693.0, 1694.0, 1696.0, 1696.0, 1695.0, 1690.0, 1689.0, 1688.0, 1689.0, 1693.0, 1692.0, 1692.0, 1693.0, 1694.0, 1694.0, 1693.0, 1693.0, 1694.0, 1692.0, 1692.0, 1694.0, 1698.0, 1698.0, 1698.0, 1694.0, 1692.0, 1692.0, 1693.0, 1693.0, 1696.0, 1696.0, 1694.0, 1692.0, 1694.0, 1696.0, 1697.0, 1696.0, 1696.0, 1697.0, 1696.0, 1695.0, 1695.0, 1695.0, 1699.0, 1698.0, 1696.0, 1699.0, 1701.0, 1699.0, 1698.0, 1700.0, 1701.0, 1701.0, 1700.0, 1701.0, 1703.0, 1708.0, 1705.0, 1703.0, 1707.0, 1699.0, 1693.0]
    },
    "slices": {}
  }
}