{
  "AcquisitionMatrixPE": 100,
  "AcquisitionNumber": 1,
  "AcquisitionTime": "16:59:40.507500",
  "BandwidthPerPixelPhaseEncode": 18.519,
  "BaseResolution": 100,
  "BodyPartExamined": "BRAIN",
  "ConsistencyInfo": "N4_VE11C_LATEST_20160120",
  "ConversionSoftware": "dcm2niix",
  "ConversionSoftwareVersion": "v1.0.20180622 GCC4.9.2",
  "DerivedVendorReportedEchoSpacing": 0.000539986,
  "DeviceSerialNumber": "166078",
  "DwellTime": 2.1e-06,
  "EchoTime": 0.034,
  "EchoTrainLength": 100,
  "EffectiveEchoSpacing": 0.000539986,
  "FlipAngle": 90,
  "ImageOrientationPatientDICOM": [1, -7.37861e-06, -6.87783e-05, 2.87274e-08, 0.994339, -0.106256],
  "ImageType": [
    "ORIGINAL",
    "PRIMARY",
    "M",
    "ND",
    "MOSAIC"
],
  "InPlanePhaseEncodingDirectionDICOM": "COL",
  "InstitutionAddress": "Street_StreetNo_Bei_Jing_District_CN_ZIP",
  "InstitutionName": "BeiJing_Normal_University",
  "InstitutionalDepartmentName": "Department",
  "MRAcquisitionType": "2D",
  "MagneticFieldStrength": 3,
  "Manufacturer": "Siemens",
  "ManufacturersModelName": "Prisma",
  "Modality": "MR",
  "MultibandAccelerationFactor": 3,
  "PartialFourier": 1,
  "PatientPosition": "HFS",
  "PercentPhaseFOV": 100,
  "PhaseEncodingDirection": "j-",
  "PhaseEncodingSteps": 100,
  "PhaseResolution": 1,
  "PixelBandwidth": 2380,
  "ProcedureStepDescription": "BNU_P2018_64CH_Zhen.ZongLei",
  "ProtocolName": "bold_100x100_s3_2x2x2_cat_150",
  "PulseSequenceDetails": "%SiemensSeq%_ep2d_bold",
  "ReceiveCoilActiveElements": "HC1-7;NC1",
  "ReceiveCoilName": "HeadNeck_64",
  "ReconMatrixPE": 100,
  "RepetitionTime": 2,
  "SAR": 0.0816931,
  "ScanOptions": "FS",
  "ScanningSequence": "EP",
  "SequenceName": "_epfid2d1_100",
  "SequenceVariant": "SK",
  "SeriesDescription": "bold_100x100_s3_2x2x2_cat_150",
  "SeriesNumber": 20,
  "ShimSetting": [-5461, -11518, -1248, 228, -37, -154, -137, 42],
  "SliceThickness": 2,
  "SliceTiming": [1.485, 0, 0.99, 0.0825, 1.0725, 0.165, 1.155, 0.2475, 1.2375, 0.33, 1.32, 0.4125, 1.4025, 0.5775, 1.5675, 0.66, 1.65, 0.7425, 1.7325, 0.825, 1.815, 0.9075, 1.8975, 0.495, 1.485, 0, 0.99, 0.0825, 1.0725, 0.165, 1.155, 0.2475, 1.2375, 0.33, 1.32, 0.4125, 1.4025, 0.5775, 1.5675, 0.66, 1.65, 0.7425, 1.7325, 0.825, 1.815, 0.9075, 1.8975, 0.495, 1.485, 0, 0.99, 0.0825, 1.0725, 0.165, 1.155, 0.2475, 1.2375, 0.33, 1.32, 0.4125, 1.4025, 0.5775, 1.5675, 0.66, 1.65, 0.7425, 1.7325, 0.825, 1.815, 0.9075, 1.8975, 0.495],
  "SoftwareVersions": "syngo_MR_E11",
  "SpacingBetweenSlices": 2,
  "StationName": "AWP166078",
  "TaskName": "category",
  "TotalReadoutTime": 0.0534586,
  "TxRefAmp": 249.589,
  "dcmmeta_affine": [
    [-2.0, 5.745484088492958e-08, -0.000138345843879506, 100.02751922607422],
    [1.4757224562345073e-05, 1.9886776208877563, -0.2125122994184494, -81.75200653076172],
    [-0.00013755651889368892, 0.2125122845172882, 1.9886776208877563, -79.15380096435547],
    [0.0, 0.0, 0.0, 1.0]
],
  "dcmmeta_reorient_transform": [
    [0.0, -1.0, 0.0, 99.0],
    [1.0, 0.0, 0.0, 0.0],
    [0.0, 0.0, 1.0, 0.0],
    [0.0, 0.0, 0.0, 1.0]
],
  "dcmmeta_shape": [100, 100, 72, 150],
  "dcmmeta_slice_dim": 2,
  "dcmmeta_version": 0.6,
  "global": {
    "const": {
      "AcquisitionMatrix": [100, 0, 0, 100],
      "AngioFlag": "N",
      "BitsAllocated": 16,
      "BitsStored": 12,
      "BodyPartExamined": "BRAIN",
      "Columns": 900,
      "EchoNumbers": 1,
      "EchoTime": 34.0,
      "EchoTrainLength": 100,
      "FlipAngle": 90.0,
      "HighBit": 11,
      "ImageOrientationPatient": [0.99999999760755, -7.37861208e-06, -6.87782609e-05, 2.8727421e-08, 0.9943387912732, -0.1062561441487],
      "ImagePositionPatient": [-900.02754367261, -910.59220774297, 26.944856316083],
      "ImageType": [
        "ORIGINAL",
        "PRIMARY",
        "M",
        "ND",
        "MOSAIC"
],
      "ImagedNucleus": "1H",
      "ImagingFrequency": 123.257761,
      "InPlanePhaseEncodingDirection": "COL",
      "MRAcquisitionType": "2D",
      "MagneticFieldStrength": 3.0,
      "Manufacturer": "SIEMENS",
      "ManufacturerModelName": "Prisma",
      "Modality": "MR",
      "NumberOfAverages": 1.0,
      "NumberOfPhaseEncodingSteps": 100,
      "PercentPhaseFieldOfView": 100.0,
      "PercentSampling": 100.0,
      "PerformedProcedureStepStartTime": "151925.678000",
      "PhotometricInterpretation": "MONOCHROME2",
      "PixelBandwidth": 2380.0,
      "PixelRepresentation": 0,
      "PixelSpacing": [2.0, 2.0],
      "ProtocolName": "bold_100x100_s3_2x2x2_cat_150",
      "RepetitionTime": 2000.0,
      "Rows": 900,
      "SAR": 0.08169310377612,
      "SamplesPerPixel": 1,
      "ScanOptions": "FS",
      "ScanningSequence": "EP",
      "SequenceName": "*epfid2d1_100",
      "SequenceVariant": "SK",
      "SeriesDescription": "bold_100x100_s3_2x2x2_cat_150",
      "SeriesNumber": 20,
      "SeriesTime": "165942.992000",
      "SliceLocation": -70.025958386435,
      "SliceThickness": 2.0,
      "SmallestImagePixelValue": 0,
      "SoftwareVersions": "syngo MR E11",
      "SpacingBetweenSlices": 2.0000000766297,
      "SpecificCharacterSet": "ISO_IR 100",
      "StudyID": "1",
      "StudyTime": "151925.613000",
      "TransmitCoilName": "Body",
      "VariableFlipAngleFlag": "N",
      "WindowCenterWidthExplanation": "Algo1",
      "dBdt": 0.0},
    "slices": {}
  },
  "time": {
    "samples": {
      "AcquisitionNumber": [1, 2, 3, 4, 5, 6, 7, 8, 9, 10, 11, 12, 13, 14, 15, 16, 17, 18, 19, 20, 21, 22, 23, 24, 25, 26, 27, 28, 29, 30, 31, 32, 33, 34, 35, 36, 37, 38, 39, 40, 41, 42, 43, 44, 45, 46, 47, 48, 49, 50, 51, 52, 53, 54, 55, 56, 57, 58, 59, 60, 61, 62, 63, 64, 65, 66, 67, 68, 69, 70, 71, 72, 73, 74, 75, 76, 77, 78, 79, 80, 81, 82, 83, 84, 85, 86, 87, 88, 89, 90, 91, 92, 93, 94, 95, 96, 97, 98, 99, 100, 101, 102, 103, 104, 105, 106, 107, 108, 109, 110, 111, 112, 113, 114, 115, 116, 117, 118, 119, 120, 121, 122, 123, 124, 125, 126, 127, 128, 129, 130, 131, 132, 133, 134, 135, 136, 137, 138, 139, 140, 141, 142, 143, 144, 145, 146, 147, 148, 149, 150],
      "AcquisitionTime": ["165940.507500", "165942.507500", "165944.507500", "165946.507500", "165948.507500", "165950.507500", "165952.507500", "165954.507500", "165956.507500", "165958.507500", "170000.507500", "170002.507500", "170004.507500", "170006.507500", "170008.507500", "170010.507500", "170012.507500", "170014.507500", "170016.507500", "170018.507500", "170020.507500", "170022.507500", "170024.507500", "170026.507500", "170028.507500", "170030.507500", "170032.507500", "170034.507500", "170036.507500", "170038.507500", "170040.507500", "170042.507500", "170044.507500", "170046.507500", "170048.507500", "170050.507500", "170052.507500", "170054.507500", "170056.507500", "170058.507500", "170100.507500", "170102.507500", "170104.507500", "170106.507500", "170108.507500", "170110.507500", "170112.507500", "170114.507500", "170116.507500", "170118.507500", "170120.507500", "170122.507500", "170124.507500", "170126.507500", "170128.507500", "170130.507500", "170132.507500", "170134.507500", "170136.507500", "170138.507500", "170140.507500", "170142.507500", "170144.507500", "170146.507500", "170148.507500", "170150.507500", "170152.507500", "170154.507500", "170156.507500", "170158.507500", "170200.507500", "170202.507500", "170204.507500", "170206.507500", "170208.507500", "170210.507500", "170212.507500", "170214.507500", "170216.507500", "170218.507500", "170220.507500", "170222.507500", "170224.507500", "170226.507500", "170228.507500", "170230.507500", "170232.507500", "170234.507500", "170236.507500", "170238.507500", "170240.507500", "170242.507500", "170244.507500", "170246.507500", "170248.507500", "170250.507500", "170252.507500", "170254.507500", "170256.507500", "170258.507500", "170300.507500", "170302.507500", "170304.507500", "170306.507500", "170308.507500", "170310.507500", "170312.507500", "170314.507500", "170316.507500", "170318.507500", "170320.507500", "170322.507500", "170324.507500", "170326.507500", "170328.507500", "170330.507500", "170332.507500", "170334.507500", "170336.507500", "170338.507500", "170340.507500", "170342.507500", "170344.507500", "170346.507500", "170348.507500", "170350.507500", "170352.507500", "170354.507500", "170356.507500", "170358.507500", "170400.507500", "170402.507500", "170404.507500", "170406.507500", "170408.507500", "170410.507500", "170412.507500", "170414.507500", "170416.507500", "170418.507500", "170420.507500", "170422.507500", "170424.507500", "170426.507500", "170428.507500", "170430.507500", "170432.507500", "170434.507500", "170436.507500", "170438.507500"],
      "ContentTime": ["165942.996000", "165944.491000", "165946.491000", "165948.492000", "165950.491000", "165951.991000", "165953.991000", "165956.493000", "165958.492000", "170000.492000", "170002.492000", "170004.491000", "170005.992000", "170007.992000", "170009.991000", "170012.492000", "170014.492000", "170015.992000", "170017.991000", "170020.492000", "170022.491000", "170024.492000", "170026.492000", "170028.492000", "170030.493000", "170031.993000", "170034.492000", "170035.991000", "170038.491000", "170040.491000", "170042.492000", "170043.991000", "170045.991000", "170048.493000", "170050.493000", "170052.492000", "170054.491000", "170055.991000", "170058.492000", "170059.991000", "170102.491000", "170103.992000", "170106.492000", "170108.491000", "170109.991000", "170112.492000", "170113.992000", "170116.492000", "170118.492000", "170120.492000", "170121.992000", "170124.492000", "170126.492000", "170128.491000", "170130.491000", "170132.492000", "170134.491000", "170136.492000", "170138.491000", "170139.992000", "170142.493000", "170144.492000", "170146.492000", "170148.491000", "170150.491000", "170151.992000", "170154.492000", "170156.492000", "170158.492000", "170200.492000", "170202.492000", "170204.491000", "170206.491000", "170208.492000", "170210.491000", "170212.491000", "170214.493000", "170216.493000", "170218.492000", "170220.491000", "170221.991000", "170224.492000", "170226.492000", "170227.991000", "170229.991000", "170232.492000", "170233.993000", "170235.991000", "170238.492000", "170240.492000", "170242.491000", "170243.991000", "170246.491000", "170247.991000", "170250.492000", "170251.992000", "170254.491000", "170255.992000", "170257.992000", "170300.492000", "170302.492000", "170303.992000", "170306.492000", "170307.992000", "170309.993000", "170311.992000", "170313.992000", "170315.992000", "170317.991000", "170320.491000", "170322.491000", "170324.493000", "170325.992000", "170327.992000", "170330.492000", "170332.492000", "170334.492000", "170335.991000", "170338.492000", "170340.492000", "170341.992000", "170344.492000", "170345.991000", "170348.492000", "170350.492000", "170352.492000", "170354.491000", "170356.492000", "170358.492000", "170400.493000", "170402.492000", "170403.992000", "170405.992000", "170407.992000", "170409.992000", "170412.492000", "170414.491000", "170415.991000", "170418.493000", "170419.992000", "170422.492000", "170424.492000", "170426.492000", "170428.492000", "170429.992000", "170432.492000", "170434.493000", "170435.993000", "170437.992000", "170439.970000"],
      "InstanceCreationTime": ["165942.996000", "165944.491000", "165946.491000", "165948.492000", "165950.491000", "165951.991000", "165953.991000", "165956.493000", "165958.492000", "170000.492000", "170002.492000", "170004.491000", "170005.992000", "170007.992000", "170009.991000", "170012.492000", "170014.492000", "170015.992000", "170017.991000", "170020.492000", "170022.491000", "170024.492000", "170026.492000", "170028.492000", "170030.493000", "170031.993000", "170034.492000", "170035.991000", "170038.491000", "170040.491000", "170042.492000", "170043.991000", "170045.991000", "170048.493000", "170050.493000", "170052.492000", "170054.491000", "170055.991000", "170058.492000", "170059.991000", "170102.491000", "170103.992000", "170106.492000", "170108.491000", "170109.991000", "170112.492000", "170113.992000", "170116.492000", "170118.492000", "170120.492000", "170121.992000", "170124.492000", "170126.492000", "170128.491000", "170130.491000", "170132.492000", "170134.491000", "170136.492000", "170138.491000", "170139.992000", "170142.493000", "170144.492000", "170146.492000", "170148.491000", "170150.491000", "170151.992000", "170154.492000", "170156.492000", "170158.492000", "170200.492000", "170202.492000", "170204.491000", "170206.491000", "170208.492000", "170210.491000", "170212.491000", "170214.493000", "170216.493000", "170218.492000", "170220.491000", "170221.991000", "170224.492000", "170226.492000", "170227.991000", "170229.991000", "170232.492000", "170233.993000", "170235.991000", "170238.492000", "170240.492000", "170242.491000", "170243.991000", "170246.491000", "170247.991000", "170250.492000", "170251.992000", "170254.491000", "170255.992000", "170257.992000", "170300.492000", "170302.492000", "170303.992000", "170306.492000", "170307.992000", "170309.993000", "170311.992000", "170313.992000", "170315.992000", "170317.991000", "170320.491000", "170322.491000", "170324.493000", "170325.992000", "170327.992000", "170330.492000", "170332.492000", "170334.492000", "170335.991000", "170338.492000", "170340.492000", "170341.992000", "170344.492000", "170345.991000", "170348.492000", "170350.492000", "170352.492000", "170354.491000", "170356.492000", "170358.492000", "170400.493000", "170402.492000", "170403.992000", "170405.992000", "170407.992000", "170409.992000", "170412.492000", "170414.491000", "170415.991000", "170418.493000", "170419.992000", "170422.492000", "170424.492000", "170426.492000", "170428.492000", "170429.992000", "170432.492000", "170434.493000", "170435.993000", "170437.992000", "170439.970000"],
      "InstanceNumber": [1, 2, 3, 4, 5, 6, 7, 8, 9, 10, 11, 12, 13, 14, 15, 16, 17, 18, 19, 20, 21, 22, 23, 24, 25, 26, 27, 28, 29, 30, 31, 32, 33, 34, 35, 36, 37, 38, 39, 40, 41, 42, 43, 44, 45, 46, 47, 48, 49, 50, 51, 52, 53, 54, 55, 56, 57, 58, 59, 60, 61, 62, 63, 64, 65, 66, 67, 68, 69, 70, 71, 72, 73, 74, 75, 76, 77, 78, 79, 80, 81, 82, 83, 84, 85, 86, 87, 88, 89, 90, 91, 92, 93, 94, 95, 96, 97, 98, 99, 100, 101, 102, 103, 104, 105, 106, 107, 108, 109, 110, 111, 112, 113, 114, 115, 116, 117, 118, 119, 120, 121, 122, 123, 124, 125, 126, 127, 128, 129, 130, 131, 132, 133, 134, 135, 136, 137, 138, 139, 140, 141, 142, 143, 144, 145, 146, 147, 148, 149, 150],
      "LargestImagePixelValue": [3378, 3259, 3231, 3176, 3208, 3177, 3167, 3163, 3171, 3192, 3191, 3169, 3203, 3225, 3192, 3199, 3214, 3235, 3185, 3213, 3191, 3197, 3209, 3206, 3205, 3218, 3197, 3203, 3214, 3226, 3201, 3196, 3167, 3211, 3238, 3218, 3220, 3183, 3211, 3216, 3207, 3235, 3203, 3225, 3194, 3226, 3222, 3204, 3229, 3229, 3213, 3214, 3237, 3213, 3223, 3204, 3189, 3204, 3237, 3200, 3221, 3229, 3234, 3226, 3145, 3151, 3145, 3174, 3256, 3208, 3234, 3226, 3229, 3193, 3254, 3211, 3219, 3234, 3232, 3193, 3252, 3224, 3212, 3217, 3198, 3218, 3195, 3208, 3215, 3231, 3215, 3158, 3151, 3171, 3186, 3171, 3194, 3178, 3192, 3214, 3179, 3206, 3215, 3214, 3216, 3198, 3174, 3217, 3184, 3156, 3168, 3209, 3182, 3196, 3141, 3178, 3178, 3112, 3128, 3104, 3114, 3187, 3126, 3124, 3146, 3148, 3123, 3159, 3133, 3143, 3133, 3159, 3240, 3248, 3221, 3212, 3198, 3213, 3156, 3193, 3125, 3093, 3091, 3087, 3141, 3155, 3157, 3291, 3207, 3271],
      "WindowCenter": [822.0, 820.0, 821.0, 822.0, 822.0, 821.0, 821.0, 821.0, 819.0, 818.0, 818.0, 818.0, 819.0, 819.0, 818.0, 818.0, 818.0, 818.0, 819.0, 820.0, 819.0, 819.0, 820.0, 821.0, 821.0, 820.0, 819.0, 818.0, 818.0, 818.0, 818.0, 819.0, 819.0, 819.0, 818.0, 818.0, 817.0, 817.0, 819.0, 819.0, 817.0, 817.0, 816.0, 817.0, 817.0, 818.0, 818.0, 818.0, 819.0, 819.0, 818.0, 817.0, 818.0, 817.0, 817.0, 818.0, 820.0, 819.0, 820.0, 820.0, 820.0, 819.0, 819.0, 819.0, 818.0, 818.0, 817.0, 817.0, 818.0, 817.0, 818.0, 818.0, 819.0, 819.0, 820.0, 819.0, 818.0, 817.0, 818.0, 818.0, 818.0, 816.0, 818.0, 819.0, 819.0, 818.0, 817.0, 817.0, 818.0, 818.0, 818.0, 817.0, 816.0, 818.0, 820.0, 821.0, 820.0, 819.0, 818.0, 818.0, 818.0, 819.0, 818.0, 818.0, 818.0, 819.0, 819.0, 820.0, 820.0, 819.0, 817.0, 817.0, 817.0, 818.0, 819.0, 820.0, 820.0, 820.0, 818.0, 817.0, 818.0, 819.0, 818.0, 817.0, 817.0, 817.0, 817.0, 817.0, 817.0, 817.0, 818.0, 820.0, 820.0, 821.0, 821.0, 820.0, 820.0, 819.0, 818.0, 817.0, 816.0, 816.0, 818.0, 818.0, 818.0, 819.0, 820.0, 823.0, 821.0, 821.0],
      "WindowWidth": [1737.0, 1731.0, 1733.0, 1734.0, 1735.0, 1732.0, 1733.0, 1732.0, 1729.0, 1727.0, 1726.0, 1727.0, 1729.0, 1729.0, 1727.0, 1726.0, 1726.0, 1727.0, 1729.0, 1730.0, 1729.0, 1729.0, 1731.0, 1733.0, 1734.0, 1733.0, 1730.0, 1727.0, 1727.0, 1727.0, 1727.0, 1729.0, 1729.0, 1728.0, 1727.0, 1725.0, 1724.0, 1724.0, 1728.0, 1728.0, 1723.0, 1723.0, 1722.0, 1723.0, 1724.0, 1726.0, 1726.0, 1727.0, 1729.0, 1728.0, 1726.0, 1724.0, 1726.0, 1725.0, 1723.0, 1726.0, 1730.0, 1730.0, 1731.0, 1731.0, 1731.0, 1730.0, 1729.0, 1729.0, 1726.0, 1726.0, 1724.0, 1724.0, 1727.0, 1725.0, 1725.0, 1726.0, 1727.0, 1728.0, 1731.0, 1729.0, 1727.0, 1725.0, 1726.0, 1726.0, 1726.0, 1722.0, 1726.0, 1729.0, 1728.0, 1727.0, 1723.0, 1724.0, 1725.0, 1727.0, 1726.0, 1722.0, 1722.0, 1726.0, 1731.0, 1732.0, 1730.0, 1727.0, 1725.0, 1725.0, 1727.0, 1728.0, 1727.0, 1725.0, 1727.0, 1728.0, 1728.0, 1730.0, 1731.0, 1729.0, 1724.0, 1723.0, 1723.0, 1727.0, 1728.0, 1730.0, 1732.0, 1731.0, 1727.0, 1724.0, 1725.0, 1727.0, 1725.0, 1724.0, 1724.0, 1724.0, 1724.0, 1724.0, 1723.0, 1725.0, 1726.0, 1730.0, 1732.0, 1733.0, 1733.0, 1731.0, 1730.0, 1728.0, 1726.0, 1724.0, 1722.0, 1722.0, 1725.0, 1726.0, 1726.0, 1727.0, 1731.0, 1738.0, 1733.0, 1734.0]
    },
    "slices": {}
  }
}