{
  "AcquisitionMatrixPE": 100,
  "AcquisitionNumber": 1,
  "AcquisitionTime": "14:24:53.097500",
  "BandwidthPerPixelPhaseEncode": 18.519,
  "BaseResolution": 100,
  "BodyPartExamined": "BRAIN",
  "ConsistencyInfo": "N4_VE11C_LATEST_20160120",
  "ConversionSoftware": "dcm2niix",
  "ConversionSoftwareVersion": "v1.0.20180622 GCC4.9.2",
  "DerivedVendorReportedEchoSpacing": 0.000539986,
  "DeviceSerialNumber": "166078",
  "DwellTime": 2.1e-06,
  "EchoTime": 0.034,
  "EchoTrainLength": 100,
  "EffectiveEchoSpacing": 0.000539986,
  "FlipAngle": 90,
  "ImageOrientationPatientDICOM": [1, -7.88483e-05, -0.00047179, -5.20551e-08, 0.986302, -0.164947],
  "ImageType": [
    "ORIGINAL",
    "PRIMARY",
    "M",
    "ND",
    "MOSAIC"
],
  "InPlanePhaseEncodingDirectionDICOM": "COL",
  "InstitutionAddress": "Street_StreetNo_Bei_Jing_District_CN_ZIP",
  "InstitutionName": "BeiJing_Normal_University",
  "InstitutionalDepartmentName": "Department",
  "MRAcquisitionType": "2D",
  "MagneticFieldStrength": 3,
  "Manufacturer": "Siemens",
  "ManufacturersModelName": "Prisma",
  "Modality": "MR",
  "MultibandAccelerationFactor": 3,
  "PartialFourier": 1,
  "PatientPosition": "HFS",
  "PercentPhaseFOV": 100,
  "PhaseEncodingDirection": "j-",
  "PhaseEncodingSteps": 100,
  "PhaseResolution": 1,
  "PixelBandwidth": 2380,
  "ProcedureStepDescription": "BNU_P2018_64CH_Zhen.ZongLei",
  "ProtocolName": "bold_100x100_s3_2x2x2_static_256",
  "PulseSequenceDetails": "%SiemensSeq%_ep2d_bold",
  "ReceiveCoilActiveElements": "HC1-7;NC1",
  "ReceiveCoilName": "HeadNeck_64",
  "ReconMatrixPE": 100,
  "RepetitionTime": 2,
  "SAR": 0.0661823,
  "ScanOptions": "FS",
  "ScanningSequence": "EP",
  "SequenceName": "_epfid2d1_100",
  "SequenceVariant": "SK",
  "SeriesDescription": "bold_100x100_s3_2x2x2_static_256",
  "SeriesNumber": 13,
  "ShimSetting": [-5461, -11491, -1259, 273, -89, -184, -187, 30],
  "SliceThickness": 2,
  "SliceTiming": [1.485, 0, 0.99, 0.0825, 1.0725, 0.165, 1.155, 0.2475, 1.2375, 0.33, 1.32, 0.4125, 1.4025, 0.5775, 1.5675, 0.66, 1.65, 0.7425, 1.7325, 0.825, 1.815, 0.9075, 1.8975, 0.495, 1.485, 0, 0.99, 0.0825, 1.0725, 0.165, 1.155, 0.2475, 1.2375, 0.33, 1.32, 0.4125, 1.4025, 0.5775, 1.5675, 0.66, 1.65, 0.7425, 1.7325, 0.825, 1.815, 0.9075, 1.8975, 0.495, 1.485, 0, 0.99, 0.0825, 1.0725, 0.165, 1.155, 0.2475, 1.2375, 0.33, 1.32, 0.4125, 1.4025, 0.5775, 1.5675, 0.66, 1.65, 0.7425, 1.7325, 0.825, 1.815, 0.9075, 1.8975, 0.495],
  "SoftwareVersions": "syngo_MR_E11",
  "SpacingBetweenSlices": 2,
  "StationName": "AWP166078",
  "TaskName": "naturalvision",
  "TotalReadoutTime": 0.0534586,
  "TxRefAmp": 216.643,
  "dcmmeta_affine": [
    [-1.999999761581421, -1.0411029904844327e-07, -0.000956666306592524, 99.7325668334961],
    [0.00015769663150422275, 1.9726048707962036, -0.32989412546157837, -78.03262329101562],
    [-0.0009435794781893492, 0.32989415526390076, 1.9726046323776245, -94.775634765625],
    [0.0, 0.0, 0.0, 1.0]
],
  "dcmmeta_reorient_transform": [
    [0.0, -1.0, 0.0, 99.0],
    [1.0, 0.0, 0.0, 0.0],
    [0.0, 0.0, 1.0, 0.0],
    [0.0, 0.0, 0.0, 1.0]
],
  "dcmmeta_shape": [100, 100, 72, 256],
  "dcmmeta_slice_dim": 2,
  "dcmmeta_version": 0.6,
  "global": {
    "const": {
      "AcquisitionMatrix": [100, 0, 0, 100],
      "AngioFlag": "N",
      "BitsAllocated": 16,
      "BitsStored": 12,
      "BodyPartExamined": "BRAIN",
      "Columns": 900,
      "EchoNumbers": 1,
      "EchoTime": 34.0,
      "EchoTrainLength": 100,
      "FlipAngle": 90.0,
      "HighBit": 11,
      "ImageOrientationPatient": [0.99999988559869, -7.88483171e-05, -0.0004717897347, -5.2055148e-08, 0.98630241787436, -0.1649470839245],
      "ImagePositionPatient": [-899.73242691705, -906.2341109322, 70.218989161917],
      "ImageType": [
        "ORIGINAL",
        "PRIMARY",
        "M",
        "ND",
        "MOSAIC"
],
      "ImagedNucleus": "1H",
      "ImagingFrequency": 123.257788,
      "InPlanePhaseEncodingDirection": "COL",
      "MRAcquisitionType": "2D",
      "MagneticFieldStrength": 3.0,
      "Manufacturer": "SIEMENS",
      "ManufacturerModelName": "Prisma",
      "Modality": "MR",
      "NumberOfAverages": 1.0,
      "NumberOfPhaseEncodingSteps": 100,
      "PercentPhaseFieldOfView": 100.0,
      "PercentSampling": 100.0,
      "PerformedProcedureStepStartTime": "130212.680000",
      "PhotometricInterpretation": "MONOCHROME2",
      "PixelBandwidth": 2380.0,
      "PixelRepresentation": 0,
      "PixelSpacing": [2.0, 2.0],
      "ProtocolName": "bold_100x100_s3_2x2x2_static_256",
      "RepetitionTime": 2000.0,
      "Rows": 900,
      "SAR": 0.06618232338754,
      "SamplesPerPixel": 1,
      "ScanOptions": "FS",
      "ScanningSequence": "EP",
      "SequenceName": "*epfid2d1_100",
      "SequenceVariant": "SK",
      "SeriesDescription": "bold_100x100_s3_2x2x2_static_256",
      "SeriesNumber": 13,
      "SeriesTime": "142456.006000",
      "SliceLocation": -80.653877856303,
      "SliceThickness": 2.0,
      "SmallestImagePixelValue": 0,
      "SoftwareVersions": "syngo MR E11",
      "SpacingBetweenSlices": 2.0000000086767,
      "SpecificCharacterSet": "ISO_IR 100",
      "StudyID": "1",
      "StudyTime": "130212.611000",
      "TransmitCoilName": "Body",
      "VariableFlipAngleFlag": "N",
      "WindowCenterWidthExplanation": "Algo1",
      "dBdt": 0.0},
    "slices": {}
  },
  "time": {
    "samples": {
      "AcquisitionNumber": [1, 2, 3, 4, 5, 6, 7, 8, 9, 10, 11, 12, 13, 14, 15, 16, 17, 18, 19, 20, 21, 22, 23, 24, 25, 26, 27, 28, 29, 30, 31, 32, 33, 34, 35, 36, 37, 38, 39, 40, 41, 42, 43, 44, 45, 46, 47, 48, 49, 50, 51, 52, 53, 54, 55, 56, 57, 58, 59, 60, 61, 62, 63, 64, 65, 66, 67, 68, 69, 70, 71, 72, 73, 74, 75, 76, 77, 78, 79, 80, 81, 82, 83, 84, 85, 86, 87, 88, 89, 90, 91, 92, 93, 94, 95, 96, 97, 98, 99, 100, 101, 102, 103, 104, 105, 106, 107, 108, 109, 110, 111, 112, 113, 114, 115, 116, 117, 118, 119, 120, 121, 122, 123, 124, 125, 126, 127, 128, 129, 130, 131, 132, 133, 134, 135, 136, 137, 138, 139, 140, 141, 142, 143, 144, 145, 146, 147, 148, 149, 150, 151, 152, 153, 154, 155, 156, 157, 158, 159, 160, 161, 162, 163, 164, 165, 166, 167, 168, 169, 170, 171, 172, 173, 174, 175, 176, 177, 178, 179, 180, 181, 182, 183, 184, 185, 186, 187, 188, 189, 190, 191, 192, 193, 194, 195, 196, 197, 198, 199, 200, 201, 202, 203, 204, 205, 206, 207, 208, 209, 210, 211, 212, 213, 214, 215, 216, 217, 218, 219, 220, 221, 222, 223, 224, 225, 226, 227, 228, 229, 230, 231, 232, 233, 234, 235, 236, 237, 238, 239, 240, 241, 242, 243, 244, 245, 246, 247, 248, 249, 250, 251, 252, 253, 254, 255, 256],
      "AcquisitionTime": ["142453.097500", "142455.097500", "142457.097500", "142459.097500", "142501.097500", "142503.097500", "142505.097500", "142507.097500", "142509.097500", "142511.097500", "142513.097500", "142515.097500", "142517.097500", "142519.097500", "142521.097500", "142523.097500", "142525.097500", "142527.097500", "142529.097500", "142531.097500", "142533.097500", "142535.097500", "142537.097500", "142539.097500", "142541.097500", "142543.097500", "142545.097500", "142547.097500", "142549.097500", "142551.097500", "142553.097500", "142555.097500", "142557.097500", "142559.097500", "142601.097500", "142603.097500", "142605.097500", "142607.097500", "142609.097500", "142611.097500", "142613.097500", "142615.097500", "142617.097500", "142619.097500", "142621.097500", "142623.097500", "142625.097500", "142627.097500", "142629.097500", "142631.097500", "142633.097500", "142635.097500", "142637.097500", "142639.097500", "142641.097500", "142643.097500", "142645.097500", "142647.097500", "142649.097500", "142651.097500", "142653.097500", "142655.097500", "142657.097500", "142659.097500", "142701.097500", "142703.097500", "142705.097500", "142707.097500", "142709.097500", "142711.097500", "142713.097500", "142715.097500", "142717.097500", "142719.097500", "142721.097500", "142723.097500", "142725.097500", "142727.097500", "142729.097500", "142731.097500", "142733.097500", "142735.097500", "142737.097500", "142739.097500", "142741.097500", "142743.097500", "142745.097500", "142747.097500", "142749.097500", "142751.097500", "142753.097500", "142755.097500", "142757.097500", "142759.097500", "142801.097500", "142803.097500", "142805.097500", "142807.097500", "142809.097500", "142811.097500", "142813.097500", "142815.097500", "142817.097500", "142819.097500", "142821.097500", "142823.097500", "142825.097500", "142827.097500", "142829.097500", "142831.097500", "142833.097500", "142835.097500", "142837.097500", "142839.097500", "142841.097500", "142843.097500", "142845.097500", "142847.097500", "142849.097500", "142851.097500", "142853.097500", "142855.097500", "142857.097500", "142859.097500", "142901.097500", "142903.097500", "142905.097500", "142907.097500", "142909.097500", "142911.097500", "142913.097500", "142915.097500", "142917.097500", "142919.097500", "142921.097500", "142923.097500", "142925.097500", "142927.097500", "142929.097500", "142931.097500", "142933.097500", "142935.097500", "142937.097500", "142939.097500", "142941.097500", "142943.097500", "142945.097500", "142947.097500", "142949.097500", "142951.097500", "142953.097500", "142955.097500", "142957.097500", "142959.097500", "143001.097500", "143003.097500", "143005.097500", "143007.097500", "143009.097500", "143011.097500", "143013.097500", "143015.097500", "143017.097500", "143019.097500", "143021.097500", "143023.097500", "143025.097500", "143027.097500", "143029.097500", "143031.097500", "143033.097500", "143035.097500", "143037.097500", "143039.097500", "143041.097500", "143043.097500", "143045.097500", "143047.097500", "143049.097500", "143051.097500", "143053.097500", "143055.097500", "143057.097500", "143059.097500", "143101.097500", "143103.097500", "143105.097500", "143107.097500", "143109.097500", "143111.097500", "143113.097500", "143115.097500", "143117.097500", "143119.097500", "143121.097500", "143123.097500", "143125.097500", "143127.097500", "143129.097500", "143131.097500", "143133.097500", "143135.097500", "143137.097500", "143139.097500", "143141.097500", "143143.097500", "143145.097500", "143147.097500", "143149.097500", "143151.097500", "143153.097500", "143155.097500", "143157.097500", "143159.097500", "143201.097500", "143203.097500", "143205.097500", "143207.097500", "143209.097500", "143211.097500", "143213.097500", "143215.097500", "143217.097500", "143219.097500", "143221.097500", "143223.097500", "143225.097500", "143227.097500", "143229.097500", "143231.097500", "143233.097500", "143235.097500", "143237.097500", "143239.097500", "143241.097500", "143243.097500", "143245.097500", "143247.097500", "143249.097500", "143251.097500", "143253.097500", "143255.097500", "143257.097500", "143259.097500", "143301.097500", "143303.097500", "143305.097500", "143307.097500", "143309.097500", "143311.097500", "143313.097500", "143315.097500", "143317.097500", "143319.097500", "143321.097500", "143323.097500"],
      "ContentTime": ["142456.010000", "142457.505000", "142459.505000", "142501.505000", "142503.506000", "142505.505000", "142507.506000", "142509.506000", "142511.505000", "142513.505000", "142515.505000", "142517.505000", "142519.506000", "142521.505000", "142523.505000", "142525.506000", "142527.504000", "142529.506000", "142531.505000", "142533.505000", "142535.505000", "142537.505000", "142539.505000", "142541.505000", "142543.505000", "142545.505000", "142547.505000", "142549.505000", "142551.505000", "142553.506000", "142555.506000", "142557.506000", "142559.506000", "142601.506000", "142603.505000", "142605.506000", "142607.506000", "142609.505000", "142611.506000", "142613.506000", "142615.505000", "142617.506000", "142619.506000", "142621.505000", "142623.506000", "142625.506000", "142627.505000", "142629.506000", "142631.506000", "142633.505000", "142635.505000", "142637.505000", "142639.506000", "142641.506000", "142643.506000", "142645.506000", "142647.505000", "142649.506000", "142651.506000", "142653.505000", "142655.506000", "142657.506000", "142659.505000", "142701.505000", "142703.506000", "142705.506000", "142707.505000", "142709.506000", "142711.506000", "142713.505000", "142715.505000", "142717.506000", "142719.506000", "142721.506000", "142723.506000", "142725.505000", "142727.506000", "142729.505000", "142731.506000", "142733.506000", "142735.506000", "142737.505000", "142739.506000", "142741.505000", "142743.506000", "142745.506000", "142747.504000", "142749.506000", "142751.506000", "142753.505000", "142755.505000", "142757.505000", "142759.505000", "142801.505000", "142803.505000", "142805.505000", "142807.506000", "142809.506000", "142811.505000", "142813.506000", "142815.505000", "142817.506000", "142819.505000", "142821.505000", "142823.505000", "142825.505000", "142827.505000", "142829.505000", "142831.505000", "142833.506000", "142835.505000", "142837.506000", "142839.505000", "142841.506000", "142843.506000", "142845.506000", "142847.506000", "142849.505000", "142851.505000", "142853.505000", "142855.506000", "142857.504000", "142859.505000", "142901.505000", "142903.506000", "142905.506000", "142907.505000", "142909.506000", "142911.506000", "142913.506000", "142915.506000", "142917.505000", "142919.506000", "142921.506000", "142923.506000", "142925.506000", "142927.506000", "142929.505000", "142931.505000", "142933.506000", "142935.506000", "142937.506000", "142939.506000", "142941.505000", "142943.506000", "142945.505000", "142947.506000", "142949.506000", "142951.506000", "142953.506000", "142955.505000", "142957.506000", "142959.506000", "143001.505000", "143003.506000", "143005.506000", "143007.504000", "143009.505000", "143011.506000", "143013.506000", "143015.506000", "143017.505000", "143019.506000", "143021.506000", "143023.506000", "143025.505000", "143027.505000", "143029.505000", "143031.505000", "143033.505000", "143035.506000", "143037.506000", "143039.506000", "143041.506000", "143043.506000", "143045.506000", "143047.506000", "143049.506000", "143051.505000", "143053.505000", "143055.505000", "143057.505000", "143059.506000", "143101.506000", "143103.505000", "143105.506000", "143107.505000", "143109.505000", "143111.506000", "143113.506000", "143115.505000", "143117.505000", "143119.505000", "143121.505000", "143123.506000", "143125.506000", "143127.505000", "143129.505000", "143131.505000", "143133.505000", "143135.505000", "143137.506000", "143139.506000", "143141.505000", "143143.506000", "143145.506000", "143147.506000", "143149.505000", "143151.505000", "143153.506000", "143155.506000", "143157.506000", "143159.505000", "143201.506000", "143203.506000", "143205.506000", "143207.506000", "143209.506000", "143211.505000", "143213.506000", "143215.506000", "143217.505000", "143219.506000", "143221.506000", "143223.505000", "143225.505000", "143227.505000", "143229.505000", "143231.506000", "143233.506000", "143235.506000", "143237.506000", "143239.506000", "143241.505000", "143243.506000", "143245.506000", "143247.506000", "143249.506000", "143251.506000", "143253.506000", "143255.506000", "143257.506000", "143259.506000", "143301.506000", "143303.506000", "143305.506000", "143307.506000", "143309.506000", "143311.506000", "143313.505000", "143315.506000", "143317.506000", "143319.505000", "143321.506000", "143323.505000", "143325.220000"],
      "InstanceCreationTime": ["142456.010000", "142457.505000", "142459.505000", "142501.505000", "142503.506000", "142505.505000", "142507.506000", "142509.506000", "142511.505000", "142513.505000", "142515.505000", "142517.505000", "142519.506000", "142521.505000", "142523.505000", "142525.506000", "142527.504000", "142529.506000", "142531.505000", "142533.505000", "142535.505000", "142537.505000", "142539.505000", "142541.505000", "142543.505000", "142545.505000", "142547.505000", "142549.505000", "142551.505000", "142553.506000", "142555.506000", "142557.506000", "142559.506000", "142601.506000", "142603.505000", "142605.506000", "142607.506000", "142609.505000", "142611.506000", "142613.506000", "142615.505000", "142617.506000", "142619.506000", "142621.505000", "142623.506000", "142625.506000", "142627.505000", "142629.506000", "142631.506000", "142633.505000", "142635.505000", "142637.505000", "142639.506000", "142641.506000", "142643.506000", "142645.506000", "142647.505000", "142649.506000", "142651.506000", "142653.505000", "142655.506000", "142657.506000", "142659.505000", "142701.505000", "142703.506000", "142705.506000", "142707.505000", "142709.506000", "142711.506000", "142713.505000", "142715.505000", "142717.506000", "142719.506000", "142721.506000", "142723.506000", "142725.505000", "142727.506000", "142729.505000", "142731.506000", "142733.506000", "142735.506000", "142737.505000", "142739.506000", "142741.505000", "142743.506000", "142745.506000", "142747.504000", "142749.506000", "142751.506000", "142753.505000", "142755.505000", "142757.505000", "142759.505000", "142801.505000", "142803.505000", "142805.505000", "142807.506000", "142809.506000", "142811.505000", "142813.506000", "142815.505000", "142817.506000", "142819.505000", "142821.505000", "142823.505000", "142825.505000", "142827.505000", "142829.505000", "142831.505000", "142833.506000", "142835.505000", "142837.506000", "142839.505000", "142841.506000", "142843.506000", "142845.506000", "142847.506000", "142849.505000", "142851.505000", "142853.505000", "142855.506000", "142857.504000", "142859.505000", "142901.505000", "142903.506000", "142905.506000", "142907.505000", "142909.506000", "142911.506000", "142913.506000", "142915.506000", "142917.505000", "142919.506000", "142921.506000", "142923.506000", "142925.506000", "142927.506000", "142929.505000", "142931.505000", "142933.506000", "142935.506000", "142937.506000", "142939.506000", "142941.505000", "142943.506000", "142945.505000", "142947.506000", "142949.506000", "142951.506000", "142953.506000", "142955.505000", "142957.506000", "142959.506000", "143001.505000", "143003.506000", "143005.506000", "143007.504000", "143009.505000", "143011.506000", "143013.506000", "143015.506000", "143017.505000", "143019.506000", "143021.506000", "143023.506000", "143025.505000", "143027.505000", "143029.505000", "143031.505000", "143033.505000", "143035.506000", "143037.506000", "143039.506000", "143041.506000", "143043.506000", "143045.506000", "143047.506000", "143049.506000", "143051.505000", "143053.505000", "143055.505000", "143057.505000", "143059.506000", "143101.506000", "143103.505000", "143105.506000", "143107.505000", "143109.505000", "143111.506000", "143113.506000", "143115.505000", "143117.505000", "143119.505000", "143121.505000", "143123.506000", "143125.506000", "143127.505000", "143129.505000", "143131.505000", "143133.505000", "143135.505000", "143137.506000", "143139.506000", "143141.505000", "143143.506000", "143145.506000", "143147.506000", "143149.505000", "143151.505000", "143153.506000", "143155.506000", "143157.506000", "143159.505000", "143201.506000", "143203.506000", "143205.506000", "143207.506000", "143209.506000", "143211.505000", "143213.506000", "143215.506000", "143217.505000", "143219.506000", "143221.506000", "143223.505000", "143225.505000", "143227.505000", "143229.505000", "143231.506000", "143233.506000", "143235.506000", "143237.506000", "143239.506000", "143241.505000", "143243.506000", "143245.506000", "143247.506000", "143249.506000", "143251.506000", "143253.506000", "143255.506000", "143257.506000", "143259.506000", "143301.506000", "143303.506000", "143305.506000", "143307.506000", "143309.506000", "143311.506000", "143313.505000", "143315.506000", "143317.506000", "143319.505000", "143321.506000", "143323.505000", "143325.220000"],
      "InstanceNumber": [1, 2, 3, 4, 5, 6, 7, 8, 9, 10, 11, 12, 13, 14, 15, 16, 17, 18, 19, 20, 21, 22, 23, 24, 25, 26, 27, 28, 29, 30, 31, 32, 33, 34, 35, 36, 37, 38, 39, 40, 41, 42, 43, 44, 45, 46, 47, 48, 49, 50, 51, 52, 53, 54, 55, 56, 57, 58, 59, 60, 61, 62, 63, 64, 65, 66, 67, 68, 69, 70, 71, 72, 73, 74, 75, 76, 77, 78, 79, 80, 81, 82, 83, 84, 85, 86, 87, 88, 89, 90, 91, 92, 93, 94, 95, 96, 97, 98, 99, 100, 101, 102, 103, 104, 105, 106, 107, 108, 109, 110, 111, 112, 113, 114, 115, 116, 117, 118, 119, 120, 121, 122, 123, 124, 125, 126, 127, 128, 129, 130, 131, 132, 133, 134, 135, 136, 137, 138, 139, 140, 141, 142, 143, 144, 145, 146, 147, 148, 149, 150, 151, 152, 153, 154, 155, 156, 157, 158, 159, 160, 161, 162, 163, 164, 165, 166, 167, 168, 169, 170, 171, 172, 173, 174, 175, 176, 177, 178, 179, 180, 181, 182, 183, 184, 185, 186, 187, 188, 189, 190, 191, 192, 193, 194, 195, 196, 197, 198, 199, 200, 201, 202, 203, 204, 205, 206, 207, 208, 209, 210, 211, 212, 213, 214, 215, 216, 217, 218, 219, 220, 221, 222, 223, 224, 225, 226, 227, 228, 229, 230, 231, 232, 233, 234, 235, 236, 237, 238, 239, 240, 241, 242, 243, 244, 245, 246, 247, 248, 249, 250, 251, 252, 253, 254, 255, 256],
      "LargestImagePixelValue": [3288, 3243, 3237, 3218, 3203, 3218, 3217, 3233, 3242, 3237, 3244, 3236, 3213, 3239, 3213, 3224, 3229, 3223, 3245, 3201, 3241, 3225, 3250, 3222, 3221, 3205, 3230, 3203, 3212, 3250, 3209, 3235, 3228, 3236, 3226, 3226, 3229, 3209, 3243, 3217, 3212, 3257, 3209, 3241, 3231, 3258, 3228, 3231, 3211, 3261, 3250, 3204, 3216, 3216, 3211, 3232, 3242, 3225, 3207, 3242, 3396, 3224, 3221, 3227, 3235, 3238, 3248, 3248, 3215, 3213, 3233, 3224, 3243, 3216, 3216, 3247, 3235, 3232, 3244, 3228, 3228, 3226, 3228, 3223, 3223, 3255, 3227, 3222, 3247, 3238, 3214, 3225, 3256, 3233, 3232, 3223, 3207, 3236, 3214, 3238, 3213, 3249, 3211, 3227, 3245, 3239, 3227, 3248, 3222, 3218, 3214, 3211, 3213, 3215, 3220, 3215, 3214, 3217, 3224, 3248, 3272, 3240, 3222, 3227, 3227, 3226, 3244, 3219, 3209, 3197, 3234, 3248, 3240, 3221, 3214, 3222, 3241, 3237, 3233, 3223, 3208, 3231, 3220, 3202, 3218, 3213, 3247, 3225, 3233, 3244, 3242, 3230, 3246, 3220, 3214, 3209, 3224, 3222, 3243, 3234, 3224, 3216, 3209, 3254, 3249, 3202, 3245, 3214, 3227, 3227, 3451, 3259, 3214, 3209, 3234, 3228, 3214, 3227, 3215, 3223, 3208, 3233, 3240, 3202, 3226, 3243, 3225, 3222, 3227, 3231, 3226, 3208, 3235, 3234, 3232, 3219, 3215, 3212, 3225, 3211, 3224, 3237, 3230, 3243, 3238, 3245, 3227, 3206, 3238, 3238, 3251, 3239, 3234, 3228, 3220, 3319, 3222, 3219, 3210, 3232, 3239, 3221, 3230, 3232, 3243, 3230, 3247, 3241, 3241, 3209, 3228, 3209, 3221, 3233, 3218, 3233, 3238, 3214, 3245, 3228, 3216, 3202, 3235, 3208, 3212, 3245, 3210, 3236, 3256, 3225, 3223, 3221, 3235, 3228, 3245, 3220],
      "WindowCenter": [791.0, 788.0, 787.0, 788.0, 789.0, 790.0, 789.0, 788.0, 787.0, 786.0, 787.0, 787.0, 788.0, 786.0, 785.0, 785.0, 784.0, 784.0, 785.0, 784.0, 785.0, 785.0, 787.0, 788.0, 787.0, 786.0, 784.0, 785.0, 786.0, 786.0, 786.0, 786.0, 785.0, 786.0, 786.0, 787.0, 788.0, 787.0, 787.0, 786.0, 786.0, 788.0, 786.0, 786.0, 784.0, 784.0, 785.0, 786.0, 786.0, 786.0, 786.0, 786.0, 787.0, 788.0, 786.0, 785.0, 784.0, 784.0, 785.0, 788.0, 789.0, 786.0, 785.0, 784.0, 785.0, 785.0, 786.0, 786.0, 786.0, 787.0, 788.0, 789.0, 788.0, 788.0, 787.0, 786.0, 786.0, 786.0, 787.0, 786.0, 784.0, 784.0, 784.0, 785.0, 785.0, 786.0, 786.0, 787.0, 787.0, 787.0, 787.0, 786.0, 786.0, 786.0, 787.0, 788.0, 787.0, 786.0, 785.0, 786.0, 786.0, 787.0, 788.0, 786.0, 786.0, 785.0, 787.0, 789.0, 788.0, 786.0, 786.0, 785.0, 785.0, 787.0, 788.0, 789.0, 786.0, 785.0, 785.0, 786.0, 786.0, 785.0, 786.0, 786.0, 787.0, 787.0, 787.0, 787.0, 785.0, 784.0, 784.0, 785.0, 786.0, 786.0, 788.0, 788.0, 787.0, 786.0, 786.0, 786.0, 788.0, 788.0, 788.0, 788.0, 787.0, 787.0, 787.0, 785.0, 784.0, 785.0, 786.0, 786.0, 787.0, 787.0, 788.0, 788.0, 788.0, 788.0, 788.0, 787.0, 787.0, 787.0, 788.0, 788.0, 786.0, 785.0, 787.0, 787.0, 787.0, 787.0, 788.0, 787.0, 786.0, 786.0, 786.0, 787.0, 787.0, 789.0, 789.0, 790.0, 789.0, 789.0, 788.0, 788.0, 788.0, 787.0, 787.0, 786.0, 785.0, 784.0, 785.0, 785.0, 786.0, 786.0, 785.0, 785.0, 786.0, 784.0, 785.0, 785.0, 784.0, 785.0, 785.0, 785.0, 786.0, 786.0, 786.0, 785.0, 785.0, 785.0, 785.0, 785.0, 783.0, 785.0, 786.0, 787.0, 785.0, 784.0, 785.0, 784.0, 785.0, 784.0, 784.0, 785.0, 785.0, 786.0, 785.0, 785.0, 785.0, 784.0, 784.0, 785.0, 786.0, 786.0, 785.0, 784.0, 784.0, 784.0, 785.0, 785.0, 785.0, 786.0, 786.0, 786.0, 785.0, 785.0, 784.0, 784.0, 784.0, 782.0, 784.0, 786.0, 786.0, 786.0, 786.0, 785.0],
      "WindowWidth": [1697.0, 1690.0, 1688.0, 1689.0, 1691.0, 1694.0, 1693.0, 1690.0, 1687.0, 1686.0, 1689.0, 1689.0, 1689.0, 1684.0, 1683.0, 1682.0, 1680.0, 1681.0, 1682.0, 1681.0, 1682.0, 1683.0, 1689.0, 1690.0, 1689.0, 1684.0, 1681.0, 1684.0, 1686.0, 1686.0, 1686.0, 1685.0, 1683.0, 1684.0, 1686.0, 1688.0, 1690.0, 1688.0, 1688.0, 1687.0, 1687.0, 1690.0, 1686.0, 1685.0, 1679.0, 1679.0, 1683.0, 1686.0, 1686.0, 1684.0, 1686.0, 1686.0, 1687.0, 1690.0, 1685.0, 1682.0, 1679.0, 1681.0, 1683.0, 1690.0, 1693.0, 1686.0, 1683.0, 1681.0, 1683.0, 1682.0, 1684.0, 1685.0, 1687.0, 1688.0, 1691.0, 1693.0, 1691.0, 1690.0, 1689.0, 1686.0, 1686.0, 1686.0, 1687.0, 1685.0, 1680.0, 1681.0, 1681.0, 1683.0, 1684.0, 1686.0, 1685.0, 1688.0, 1688.0, 1687.0, 1687.0, 1685.0, 1684.0, 1684.0, 1688.0, 1692.0, 1688.0, 1686.0, 1682.0, 1684.0, 1686.0, 1689.0, 1690.0, 1686.0, 1685.0, 1682.0, 1688.0, 1692.0, 1690.0, 1685.0, 1684.0, 1684.0, 1682.0, 1688.0, 1690.0, 1691.0, 1684.0, 1682.0, 1684.0, 1685.0, 1684.0, 1683.0, 1684.0, 1685.0, 1687.0, 1688.0, 1689.0, 1687.0, 1683.0, 1681.0, 1680.0, 1683.0, 1684.0, 1685.0, 1689.0, 1690.0, 1687.0, 1686.0, 1684.0, 1685.0, 1690.0, 1691.0, 1691.0, 1689.0, 1687.0, 1686.0, 1686.0, 1682.0, 1680.0, 1683.0, 1685.0, 1685.0, 1687.0, 1687.0, 1688.0, 1690.0, 1691.0, 1691.0, 1689.0, 1689.0, 1686.0, 1689.0, 1689.0, 1691.0, 1686.0, 1683.0, 1687.0, 1687.0, 1687.0, 1686.0, 1691.0, 1687.0, 1685.0, 1685.0, 1685.0, 1686.0, 1686.0, 1693.0, 1693.0, 1694.0, 1693.0, 1692.0, 1691.0, 1689.0, 1690.0, 1688.0, 1687.0, 1684.0, 1681.0, 1679.0, 1681.0, 1681.0, 1684.0, 1685.0, 1683.0, 1683.0, 1684.0, 1680.0, 1682.0, 1684.0, 1680.0, 1681.0, 1681.0, 1683.0, 1685.0, 1686.0, 1685.0, 1682.0, 1683.0, 1682.0, 1683.0, 1682.0, 1677.0, 1682.0, 1684.0, 1687.0, 1682.0, 1681.0, 1682.0, 1681.0, 1681.0, 1680.0, 1681.0, 1683.0, 1682.0, 1684.0, 1681.0, 1683.0, 1682.0, 1681.0, 1680.0, 1684.0, 1685.0, 1686.0, 1682.0, 1679.0, 1679.0, 1680.0, 1683.0, 1681.0, 1683.0, 1684.0, 1685.0, 1685.0, 1682.0, 1681.0, 1679.0, 1680.0, 1679.0, 1675.0, 1680.0, 1684.0, 1685.0, 1685.0, 1685.0, 1682.0]
    },
    "slices": {}
  }
}