{
  "AcquisitionMatrixPE": 100,
  "AcquisitionNumber": 1,
  "AcquisitionTime": "13:24:32.745000",
  "BandwidthPerPixelPhaseEncode": 18.519,
  "BaseResolution": 100,
  "BodyPartExamined": "BRAIN",
  "ConsistencyInfo": "N4_VE11C_LATEST_20160120",
  "ConversionSoftware": "dcm2niix",
  "ConversionSoftwareVersion": "v1.0.20180622 GCC4.9.2",
  "DerivedVendorReportedEchoSpacing": 0.000539986,
  "DeviceSerialNumber": "166078",
  "DwellTime": 2.1e-06,
  "EchoTime": 0.034,
  "EchoTrainLength": 100,
  "EffectiveEchoSpacing": 0.000539986,
  "FlipAngle": 90,
  "ImageOrientationPatientDICOM": [1, -7.88483e-05, -0.00047179, -5.20551e-08, 0.986302, -0.164947],
  "ImageType": [
    "ORIGINAL",
    "PRIMARY",
    "M",
    "ND",
    "MOSAIC"
],
  "InPlanePhaseEncodingDirectionDICOM": "COL",
  "InstitutionAddress": "Street_StreetNo_Bei_Jing_District_CN_ZIP",
  "InstitutionName": "BeiJing_Normal_University",
  "InstitutionalDepartmentName": "Department",
  "MRAcquisitionType": "2D",
  "MagneticFieldStrength": 3,
  "Manufacturer": "Siemens",
  "ManufacturersModelName": "Prisma",
  "Modality": "MR",
  "MultibandAccelerationFactor": 3,
  "PartialFourier": 1,
  "PatientPosition": "HFS",
  "PercentPhaseFOV": 100,
  "PhaseEncodingDirection": "j-",
  "PhaseEncodingSteps": 100,
  "PhaseResolution": 1,
  "PixelBandwidth": 2380,
  "ProcedureStepDescription": "BNU_P2018_64CH_Zhen.ZongLei",
  "ProtocolName": "bold_100x100_s3_2x2x2_static_256",
  "PulseSequenceDetails": "%SiemensSeq%_ep2d_bold",
  "ReceiveCoilActiveElements": "HC1-7;NC1",
  "ReceiveCoilName": "HeadNeck_64",
  "ReconMatrixPE": 100,
  "RepetitionTime": 2,
  "SAR": 0.0661823,
  "ScanOptions": "FS",
  "ScanningSequence": "EP",
  "SequenceName": "_epfid2d1_100",
  "SequenceVariant": "SK",
  "SeriesDescription": "bold_100x100_s3_2x2x2_static_256",
  "SeriesNumber": 5,
  "ShimSetting": [-5461, -11491, -1259, 273, -89, -184, -187, 30],
  "SliceThickness": 2,
  "SliceTiming": [1.485, 0, 0.99, 0.0825, 1.0725, 0.165, 1.155, 0.2475, 1.2375, 0.33, 1.32, 0.4125, 1.4025, 0.5775, 1.5675, 0.66, 1.65, 0.7425, 1.7325, 0.825, 1.815, 0.9075, 1.8975, 0.495, 1.485, 0, 0.99, 0.0825, 1.0725, 0.165, 1.155, 0.2475, 1.2375, 0.33, 1.32, 0.4125, 1.4025, 0.5775, 1.5675, 0.66, 1.65, 0.7425, 1.7325, 0.825, 1.815, 0.9075, 1.8975, 0.495, 1.485, 0, 0.99, 0.0825, 1.0725, 0.165, 1.155, 0.2475, 1.2375, 0.33, 1.32, 0.4125, 1.4025, 0.5775, 1.5675, 0.66, 1.65, 0.7425, 1.7325, 0.825, 1.815, 0.9075, 1.8975, 0.495],
  "SoftwareVersions": "syngo_MR_E11",
  "SpacingBetweenSlices": 2,
  "StationName": "AWP166078",
  "TaskName": "naturalvision",
  "TotalReadoutTime": 0.0534586,
  "TxRefAmp": 216.643,
  "dcmmeta_affine": [
    [-1.999999761581421, -1.0411029904844327e-07, -0.000956666306592524, 99.7325668334961],
    [0.00015769663150422275, 1.9726048707962036, -0.32989412546157837, -78.03262329101562],
    [-0.0009435794781893492, 0.32989415526390076, 1.9726046323776245, -94.775634765625],
    [0.0, 0.0, 0.0, 1.0]
],
  "dcmmeta_reorient_transform": [
    [0.0, -1.0, 0.0, 99.0],
    [1.0, 0.0, 0.0, 0.0],
    [0.0, 0.0, 1.0, 0.0],
    [0.0, 0.0, 0.0, 1.0]
],
  "dcmmeta_shape": [100, 100, 72, 256],
  "dcmmeta_slice_dim": 2,
  "dcmmeta_version": 0.6,
  "global": {
    "const": {
      "AcquisitionMatrix": [100, 0, 0, 100],
      "AngioFlag": "N",
      "BitsAllocated": 16,
      "BitsStored": 12,
      "BodyPartExamined": "BRAIN",
      "Columns": 900,
      "EchoNumbers": 1,
      "EchoTime": 34.0,
      "EchoTrainLength": 100,
      "FlipAngle": 90.0,
      "HighBit": 11,
      "ImageOrientationPatient": [0.99999988559869, -7.88483171e-05, -0.0004717897347, -5.2055148e-08, 0.98630241787436, -0.1649470839245],
      "ImagePositionPatient": [-899.73242691705, -906.2341109322, 70.218989161917],
      "ImageType": [
        "ORIGINAL",
        "PRIMARY",
        "M",
        "ND",
        "MOSAIC"
],
      "ImagedNucleus": "1H",
      "ImagingFrequency": 123.257766,
      "InPlanePhaseEncodingDirection": "COL",
      "MRAcquisitionType": "2D",
      "MagneticFieldStrength": 3.0,
      "Manufacturer": "SIEMENS",
      "ManufacturerModelName": "Prisma",
      "Modality": "MR",
      "NumberOfAverages": 1.0,
      "NumberOfPhaseEncodingSteps": 100,
      "PercentPhaseFieldOfView": 100.0,
      "PercentSampling": 100.0,
      "PerformedProcedureStepStartTime": "130212.680000",
      "PhotometricInterpretation": "MONOCHROME2",
      "PixelBandwidth": 2380.0,
      "PixelRepresentation": 0,
      "PixelSpacing": [2.0, 2.0],
      "ProtocolName": "bold_100x100_s3_2x2x2_static_256",
      "RepetitionTime": 2000.0,
      "Rows": 900,
      "SAR": 0.06618232338754,
      "SamplesPerPixel": 1,
      "ScanOptions": "FS",
      "ScanningSequence": "EP",
      "SequenceName": "*epfid2d1_100",
      "SequenceVariant": "SK",
      "SeriesDescription": "bold_100x100_s3_2x2x2_static_256",
      "SeriesNumber": 5,
      "SeriesTime": "132435.797000",
      "SliceLocation": -80.653877856303,
      "SliceThickness": 2.0,
      "SmallestImagePixelValue": 0,
      "SoftwareVersions": "syngo MR E11",
      "SpacingBetweenSlices": 2.0000000086767,
      "SpecificCharacterSet": "ISO_IR 100",
      "StudyID": "1",
      "StudyTime": "130212.611000",
      "TransmitCoilName": "Body",
      "VariableFlipAngleFlag": "N",
      "WindowCenterWidthExplanation": "Algo1",
      "dBdt": 0.0},
    "slices": {}
  },
  "time": {
    "samples": {
      "AcquisitionNumber": [1, 2, 3, 4, 5, 6, 7, 8, 9, 10, 11, 12, 13, 14, 15, 16, 17, 18, 19, 20, 21, 22, 23, 24, 25, 26, 27, 28, 29, 30, 31, 32, 33, 34, 35, 36, 37, 38, 39, 40, 41, 42, 43, 44, 45, 46, 47, 48, 49, 50, 51, 52, 53, 54, 55, 56, 57, 58, 59, 60, 61, 62, 63, 64, 65, 66, 67, 68, 69, 70, 71, 72, 73, 74, 75, 76, 77, 78, 79, 80, 81, 82, 83, 84, 85, 86, 87, 88, 89, 90, 91, 92, 93, 94, 95, 96, 97, 98, 99, 100, 101, 102, 103, 104, 105, 106, 107, 108, 109, 110, 111, 112, 113, 114, 115, 116, 117, 118, 119, 120, 121, 122, 123, 124, 125, 126, 127, 128, 129, 130, 131, 132, 133, 134, 135, 136, 137, 138, 139, 140, 141, 142, 143, 144, 145, 146, 147, 148, 149, 150, 151, 152, 153, 154, 155, 156, 157, 158, 159, 160, 161, 162, 163, 164, 165, 166, 167, 168, 169, 170, 171, 172, 173, 174, 175, 176, 177, 178, 179, 180, 181, 182, 183, 184, 185, 186, 187, 188, 189, 190, 191, 192, 193, 194, 195, 196, 197, 198, 199, 200, 201, 202, 203, 204, 205, 206, 207, 208, 209, 210, 211, 212, 213, 214, 215, 216, 217, 218, 219, 220, 221, 222, 223, 224, 225, 226, 227, 228, 229, 230, 231, 232, 233, 234, 235, 236, 237, 238, 239, 240, 241, 242, 243, 244, 245, 246, 247, 248, 249, 250, 251, 252, 253, 254, 255, 256],
      "AcquisitionTime": ["132432.745000", "132434.745000", "132436.745000", "132438.745000", "132440.745000", "132442.745000", "132444.745000", "132446.745000", "132448.745000", "132450.745000", "132452.745000", "132454.745000", "132456.745000", "132458.745000", "132500.745000", "132502.745000", "132504.745000", "132506.745000", "132508.745000", "132510.745000", "132512.745000", "132514.745000", "132516.745000", "132518.745000", "132520.745000", "132522.745000", "132524.745000", "132526.745000", "132528.745000", "132530.745000", "132532.745000", "132534.745000", "132536.745000", "132538.745000", "132540.745000", "132542.745000", "132544.745000", "132546.745000", "132548.745000", "132550.745000", "132552.745000", "132554.745000", "132556.745000", "132558.745000", "132600.745000", "132602.745000", "132604.745000", "132606.745000", "132608.745000", "132610.745000", "132612.745000", "132614.745000", "132616.745000", "132618.745000", "132620.745000", "132622.745000", "132624.745000", "132626.745000", "132628.745000", "132630.745000", "132632.745000", "132634.745000", "132636.745000", "132638.745000", "132640.745000", "132642.745000", "132644.745000", "132646.745000", "132648.745000", "132650.745000", "132652.745000", "132654.745000", "132656.745000", "132658.745000", "132700.745000", "132702.745000", "132704.745000", "132706.745000", "132708.745000", "132710.745000", "132712.745000", "132714.745000", "132716.745000", "132718.745000", "132720.745000", "132722.745000", "132724.745000", "132726.745000", "132728.745000", "132730.745000", "132732.745000", "132734.745000", "132736.745000", "132738.745000", "132740.745000", "132742.745000", "132744.745000", "132746.745000", "132748.745000", "132750.745000", "132752.745000", "132754.745000", "132756.745000", "132758.745000", "132800.745000", "132802.745000", "132804.745000", "132806.745000", "132808.745000", "132810.745000", "132812.745000", "132814.745000", "132816.745000", "132818.745000", "132820.745000", "132822.745000", "132824.745000", "132826.745000", "132828.745000", "132830.745000", "132832.745000", "132834.745000", "132836.745000", "132838.745000", "132840.745000", "132842.745000", "132844.745000", "132846.745000", "132848.745000", "132850.745000", "132852.745000", "132854.745000", "132856.745000", "132858.745000", "132900.745000", "132902.745000", "132904.745000", "132906.745000", "132908.745000", "132910.745000", "132912.745000", "132914.745000", "132916.745000", "132918.745000", "132920.745000", "132922.745000", "132924.745000", "132926.745000", "132928.745000", "132930.745000", "132932.745000", "132934.745000", "132936.745000", "132938.745000", "132940.745000", "132942.745000", "132944.745000", "132946.745000", "132948.745000", "132950.745000", "132952.745000", "132954.745000", "132956.745000", "132958.745000", "133000.745000", "133002.745000", "133004.745000", "133006.745000", "133008.745000", "133010.745000", "133012.745000", "133014.745000", "133016.745000", "133018.745000", "133020.745000", "133022.745000", "133024.745000", "133026.745000", "133028.745000", "133030.745000", "133032.745000", "133034.745000", "133036.745000", "133038.745000", "133040.745000", "133042.745000", "133044.745000", "133046.745000", "133048.745000", "133050.745000", "133052.745000", "133054.745000", "133056.745000", "133058.745000", "133100.745000", "133102.745000", "133104.745000", "133106.745000", "133108.745000", "133110.745000", "133112.745000", "133114.745000", "133116.745000", "133118.745000", "133120.745000", "133122.745000", "133124.745000", "133126.745000", "133128.745000", "133130.745000", "133132.745000", "133134.745000", "133136.745000", "133138.745000", "133140.745000", "133142.745000", "133144.745000", "133146.745000", "133148.745000", "133150.745000", "133152.745000", "133154.745000", "133156.745000", "133158.745000", "133200.745000", "133202.745000", "133204.745000", "133206.745000", "133208.745000", "133210.745000", "133212.745000", "133214.745000", "133216.745000", "133218.745000", "133220.745000", "133222.745000", "133224.745000", "133226.745000", "133228.745000", "133230.745000", "133232.745000", "133234.745000", "133236.745000", "133238.745000", "133240.745000", "133242.745000", "133244.745000", "133246.745000", "133248.745000", "133250.745000", "133252.745000", "133254.745000", "133256.745000", "133258.745000", "133300.745000", "133302.745000"],
      "ContentTime": ["132435.801000", "132437.296000", "132439.296000", "132441.296000", "132443.296000", "132445.295000", "132447.295000", "132449.295000", "132451.295000", "132453.296000", "132455.296000", "132457.296000", "132459.297000", "132501.296000", "132503.295000", "132505.296000", "132507.296000", "132509.296000", "132511.297000", "132513.296000", "132515.297000", "132517.297000", "132519.296000", "132521.296000", "132523.295000", "132525.295000", "132527.297000", "132529.297000", "132531.296000", "132533.296000", "132535.296000", "132537.296000", "132539.295000", "132541.296000", "132543.296000", "132545.296000", "132547.297000", "132549.297000", "132551.296000", "132553.296000", "132555.296000", "132557.295000", "132559.296000", "132601.297000", "132603.296000", "132605.297000", "132607.297000", "132609.297000", "132611.296000", "132613.296000", "132615.295000", "132617.295000", "132619.297000", "132621.297000", "132623.297000", "132625.297000", "132627.296000", "132629.295000", "132631.296000", "132633.296000", "132635.296000", "132637.297000", "132639.297000", "132641.297000", "132643.297000", "132645.297000", "132647.296000", "132649.295000", "132651.296000", "132653.296000", "132655.296000", "132657.297000", "132659.296000", "132701.297000", "132703.296000", "132705.295000", "132707.296000", "132709.296000", "132711.296000", "132713.296000", "132715.296000", "132717.296000", "132719.296000", "132721.296000", "132723.295000", "132725.295000", "132727.295000", "132729.296000", "132731.296000", "132733.297000", "132735.297000", "132737.297000", "132739.295000", "132741.295000", "132743.296000", "132745.295000", "132747.296000", "132749.296000", "132751.296000", "132753.297000", "132755.296000", "132757.296000", "132759.296000", "132801.296000", "132803.295000", "132805.297000", "132807.297000", "132809.297000", "132811.297000", "132813.296000", "132815.295000", "132817.295000", "132819.296000", "132821.297000", "132823.297000", "132825.297000", "132827.297000", "132829.296000", "132831.297000", "132833.295000", "132835.296000", "132837.296000", "132839.296000", "132841.296000", "132843.296000", "132845.296000", "132847.297000", "132849.295000", "132851.296000", "132853.296000", "132855.295000", "132857.296000", "132859.297000", "132901.297000", "132903.296000", "132905.296000", "132907.296000", "132909.295000", "132911.296000", "132913.296000", "132915.297000", "132917.297000", "132919.296000", "132921.297000", "132923.297000", "132925.296000", "132927.296000", "132929.295000", "132931.296000", "132933.297000", "132935.296000", "132937.297000", "132939.296000", "132941.296000", "132943.295000", "132945.296000", "132947.295000", "132949.296000", "132951.297000", "132953.297000", "132955.296000", "132957.297000", "132959.296000", "133001.296000", "133003.295000", "133005.295000", "133007.296000", "133009.297000", "133011.297000", "133013.297000", "133015.296000", "133017.296000", "133019.296000", "133021.296000", "133023.295000", "133025.296000", "133027.297000", "133029.297000", "133031.297000", "133033.297000", "133035.296000", "133037.295000", "133039.295000", "133041.296000", "133043.296000", "133045.297000", "133047.296000", "133049.296000", "133051.297000", "133053.295000", "133055.316000", "133057.295000", "133059.296000", "133101.296000", "133103.296000", "133105.296000", "133107.296000", "133109.296000", "133111.296000", "133113.295000", "133115.295000", "133117.297000", "133119.297000", "133121.296000", "133123.297000", "133125.296000", "133127.295000", "133129.296000", "133131.296000", "133133.296000", "133135.297000", "133137.297000", "133139.297000", "133141.297000", "133143.297000", "133145.296000", "133147.295000", "133149.295000", "133151.296000", "133153.296000", "133155.297000", "133157.296000", "133159.297000", "133201.295000", "133203.296000", "133205.295000", "133207.295000", "133209.296000", "133211.297000", "133213.297000", "133215.296000", "133217.296000", "133219.296000", "133221.296000", "133223.295000", "133225.296000", "133227.297000", "133229.296000", "133231.297000", "133233.296000", "133235.297000", "133237.295000", "133239.296000", "133241.296000", "133243.296000", "133245.296000", "133247.297000", "133249.297000", "133251.297000", "133253.297000", "133255.296000", "133257.296000", "133259.296000", "133301.298000", "133303.298000", "133305.028000"],
      "InstanceCreationTime": ["132435.801000", "132437.296000", "132439.296000", "132441.296000", "132443.296000", "132445.295000", "132447.295000", "132449.295000", "132451.295000", "132453.296000", "132455.296000", "132457.296000", "132459.297000", "132501.296000", "132503.295000", "132505.296000", "132507.296000", "132509.296000", "132511.297000", "132513.296000", "132515.297000", "132517.297000", "132519.296000", "132521.296000", "132523.295000", "132525.295000", "132527.297000", "132529.297000", "132531.296000", "132533.296000", "132535.296000", "132537.296000", "132539.295000", "132541.296000", "132543.296000", "132545.296000", "132547.297000", "132549.297000", "132551.296000", "132553.296000", "132555.296000", "132557.295000", "132559.296000", "132601.297000", "132603.296000", "132605.297000", "132607.297000", "132609.297000", "132611.296000", "132613.296000", "132615.295000", "132617.295000", "132619.297000", "132621.297000", "132623.297000", "132625.297000", "132627.296000", "132629.295000", "132631.296000", "132633.296000", "132635.296000", "132637.297000", "132639.297000", "132641.297000", "132643.297000", "132645.297000", "132647.296000", "132649.295000", "132651.296000", "132653.296000", "132655.296000", "132657.297000", "132659.296000", "132701.297000", "132703.296000", "132705.295000", "132707.296000", "132709.296000", "132711.296000", "132713.296000", "132715.296000", "132717.296000", "132719.296000", "132721.296000", "132723.295000", "132725.295000", "132727.295000", "132729.296000", "132731.296000", "132733.297000", "132735.297000", "132737.297000", "132739.295000", "132741.295000", "132743.296000", "132745.295000", "132747.296000", "132749.296000", "132751.296000", "132753.297000", "132755.296000", "132757.296000", "132759.296000", "132801.296000", "132803.295000", "132805.297000", "132807.297000", "132809.297000", "132811.297000", "132813.296000", "132815.295000", "132817.295000", "132819.296000", "132821.297000", "132823.297000", "132825.297000", "132827.297000", "132829.296000", "132831.297000", "132833.295000", "132835.296000", "132837.296000", "132839.296000", "132841.296000", "132843.296000", "132845.296000", "132847.297000", "132849.295000", "132851.296000", "132853.296000", "132855.295000", "132857.296000", "132859.297000", "132901.297000", "132903.296000", "132905.296000", "132907.296000", "132909.295000", "132911.296000", "132913.296000", "132915.297000", "132917.297000", "132919.296000", "132921.297000", "132923.297000", "132925.296000", "132927.296000", "132929.295000", "132931.296000", "132933.297000", "132935.296000", "132937.297000", "132939.296000", "132941.296000", "132943.295000", "132945.296000", "132947.295000", "132949.296000", "132951.297000", "132953.297000", "132955.296000", "132957.297000", "132959.296000", "133001.296000", "133003.295000", "133005.295000", "133007.296000", "133009.297000", "133011.297000", "133013.297000", "133015.296000", "133017.296000", "133019.296000", "133021.296000", "133023.295000", "133025.296000", "133027.297000", "133029.297000", "133031.297000", "133033.297000", "133035.296000", "133037.295000", "133039.295000", "133041.296000", "133043.296000", "133045.297000", "133047.296000", "133049.296000", "133051.297000", "133053.295000", "133055.316000", "133057.295000", "133059.296000", "133101.296000", "133103.296000", "133105.296000", "133107.296000", "133109.296000", "133111.296000", "133113.295000", "133115.295000", "133117.297000", "133119.297000", "133121.296000", "133123.297000", "133125.296000", "133127.295000", "133129.296000", "133131.296000", "133133.296000", "133135.297000", "133137.297000", "133139.297000", "133141.297000", "133143.297000", "133145.296000", "133147.295000", "133149.295000", "133151.296000", "133153.296000", "133155.297000", "133157.296000", "133159.297000", "133201.295000", "133203.296000", "133205.295000", "133207.295000", "133209.296000", "133211.297000", "133213.297000", "133215.296000", "133217.296000", "133219.296000", "133221.296000", "133223.295000", "133225.296000", "133227.297000", "133229.296000", "133231.297000", "133233.296000", "133235.297000", "133237.295000", "133239.296000", "133241.296000", "133243.296000", "133245.296000", "133247.297000", "133249.297000", "133251.297000", "133253.297000", "133255.296000", "133257.296000", "133259.296000", "133301.298000", "133303.298000", "133305.028000"],
      "InstanceNumber": [1, 2, 3, 4, 5, 6, 7, 8, 9, 10, 11, 12, 13, 14, 15, 16, 17, 18, 19, 20, 21, 22, 23, 24, 25, 26, 27, 28, 29, 30, 31, 32, 33, 34, 35, 36, 37, 38, 39, 40, 41, 42, 43, 44, 45, 46, 47, 48, 49, 50, 51, 52, 53, 54, 55, 56, 57, 58, 59, 60, 61, 62, 63, 64, 65, 66, 67, 68, 69, 70, 71, 72, 73, 74, 75, 76, 77, 78, 79, 80, 81, 82, 83, 84, 85, 86, 87, 88, 89, 90, 91, 92, 93, 94, 95, 96, 97, 98, 99, 100, 101, 102, 103, 104, 105, 106, 107, 108, 109, 110, 111, 112, 113, 114, 115, 116, 117, 118, 119, 120, 121, 122, 123, 124, 125, 126, 127, 128, 129, 130, 131, 132, 133, 134, 135, 136, 137, 138, 139, 140, 141, 142, 143, 144, 145, 146, 147, 148, 149, 150, 151, 152, 153, 154, 155, 156, 157, 158, 159, 160, 161, 162, 163, 164, 165, 166, 167, 168, 169, 170, 171, 172, 173, 174, 175, 176, 177, 178, 179, 180, 181, 182, 183, 184, 185, 186, 187, 188, 189, 190, 191, 192, 193, 194, 195, 196, 197, 198, 199, 200, 201, 202, 203, 204, 205, 206, 207, 208, 209, 210, 211, 212, 213, 214, 215, 216, 217, 218, 219, 220, 221, 222, 223, 224, 225, 226, 227, 228, 229, 230, 231, 232, 233, 234, 235, 236, 237, 238, 239, 240, 241, 242, 243, 244, 245, 246, 247, 248, 249, 250, 251, 252, 253, 254, 255, 256],
      "LargestImagePixelValue": [3519, 3438, 3430, 3433, 3442, 3472, 3461, 3453, 3451, 3438, 3414, 3421, 3439, 3424, 3420, 3473, 3464, 3452, 3432, 3427, 3435, 3435, 3458, 3422, 3395, 3430, 3423, 3437, 3466, 3469, 3460, 3459, 3448, 3410, 3479, 3442, 3460, 3418, 3440, 3513, 3481, 3558, 3455, 3476, 3437, 3460, 3446, 3456, 3477, 3480, 3450, 3434, 3445, 3417, 3452, 3435, 3445, 3489, 3443, 3462, 3490, 3464, 3467, 3475, 3429, 3445, 3428, 3455, 3431, 3452, 3443, 3433, 3415, 3433, 3439, 3438, 3428, 3441, 3451, 3485, 3463, 3520, 3446, 3464, 3445, 3485, 3408, 3486, 3439, 3465, 3440, 3424, 3466, 3462, 3465, 3471, 3510, 3478, 3426, 3452, 3462, 3465, 3440, 3440, 3456, 3465, 3431, 3445, 3458, 3408, 3445, 3466, 3444, 3456, 3473, 3481, 3441, 3517, 3439, 3440, 3419, 3565, 3423, 3385, 3416, 3418, 3393, 3379, 3379, 3429, 3387, 3396, 3408, 3404, 3392, 3385, 3388, 3379, 3364, 3377, 3425, 3392, 3330, 3343, 3353, 3379, 3329, 3354, 3370, 3349, 3319, 3346, 3338, 3376, 3343, 3409, 3397, 3389, 3357, 3370, 3368, 3373, 3377, 3376, 3355, 3403, 3364, 3376, 3431, 3287, 3327, 3591, 3320, 3350, 3326, 3331, 3325, 3319, 3325, 3307, 3322, 3321, 3325, 3350, 3337, 3310, 3340, 3349, 3373, 3347, 3336, 3326, 3355, 3332, 3377, 3330, 3301, 3344, 3326, 3322, 3332, 3339, 3349, 3343, 3353, 3319, 3346, 3309, 3353, 3342, 3354, 3316, 3339, 3355, 3309, 3345, 3331, 3331, 3303, 3629, 3351, 3308, 3306, 3321, 3324, 3359, 3307, 3332, 3324, 3335, 3318, 3361, 3289, 3316, 3395, 3348, 3331, 3306, 3352, 3298, 3338, 3355, 3327, 3299, 3318, 3327, 3295, 3324, 3301, 3341, 3318, 3309, 3322, 3301, 3348, 3296],
      "WindowCenter": [801.0, 799.0, 798.0, 797.0, 797.0, 797.0, 796.0, 797.0, 797.0, 796.0, 797.0, 796.0, 796.0, 794.0, 796.0, 797.0, 796.0, 795.0, 794.0, 794.0, 793.0, 794.0, 794.0, 793.0, 794.0, 794.0, 794.0, 795.0, 796.0, 796.0, 795.0, 794.0, 791.0, 792.0, 794.0, 794.0, 794.0, 794.0, 796.0, 798.0, 798.0, 796.0, 795.0, 794.0, 793.0, 793.0, 794.0, 796.0, 795.0, 795.0, 795.0, 794.0, 795.0, 794.0, 793.0, 792.0, 792.0, 792.0, 794.0, 796.0, 796.0, 795.0, 795.0, 795.0, 796.0, 796.0, 795.0, 794.0, 792.0, 794.0, 793.0, 792.0, 793.0, 794.0, 793.0, 793.0, 793.0, 793.0, 795.0, 796.0, 797.0, 797.0, 797.0, 797.0, 796.0, 795.0, 795.0, 796.0, 794.0, 794.0, 794.0, 795.0, 794.0, 795.0, 795.0, 796.0, 795.0, 795.0, 795.0, 795.0, 796.0, 795.0, 794.0, 792.0, 791.0, 793.0, 794.0, 795.0, 795.0, 796.0, 796.0, 795.0, 795.0, 796.0, 797.0, 795.0, 793.0, 793.0, 792.0, 795.0, 795.0, 795.0, 793.0, 793.0, 794.0, 795.0, 795.0, 793.0, 792.0, 792.0, 793.0, 794.0, 796.0, 796.0, 795.0, 794.0, 794.0, 793.0, 793.0, 793.0, 792.0, 793.0, 794.0, 793.0, 793.0, 793.0, 793.0, 793.0, 793.0, 792.0, 793.0, 794.0, 792.0, 793.0, 793.0, 793.0, 794.0, 793.0, 793.0, 791.0, 792.0, 792.0, 793.0, 792.0, 793.0, 794.0, 794.0, 794.0, 790.0, 793.0, 793.0, 793.0, 791.0, 790.0, 792.0, 793.0, 793.0, 793.0, 792.0, 794.0, 794.0, 794.0, 792.0, 793.0, 792.0, 792.0, 792.0, 792.0, 792.0, 792.0, 793.0, 796.0, 795.0, 793.0, 794.0, 793.0, 793.0, 793.0, 792.0, 792.0, 790.0, 792.0, 792.0, 793.0, 794.0, 794.0, 794.0, 793.0, 792.0, 792.0, 793.0, 792.0, 791.0, 791.0, 792.0, 794.0, 794.0, 794.0, 794.0, 795.0, 792.0, 792.0, 789.0, 788.0, 787.0, 788.0, 790.0, 792.0, 793.0, 794.0, 793.0, 792.0, 791.0, 792.0, 793.0, 794.0, 794.0, 794.0, 795.0, 793.0, 794.0, 794.0, 793.0, 792.0, 791.0, 790.0, 789.0, 789.0, 788.0, 789.0, 791.0, 792.0, 794.0, 793.0, 793.0, 792.0],
      "WindowWidth": [1729.0, 1721.0, 1720.0, 1715.0, 1717.0, 1716.0, 1715.0, 1717.0, 1716.0, 1715.0, 1717.0, 1715.0, 1713.0, 1710.0, 1713.0, 1717.0, 1715.0, 1713.0, 1708.0, 1709.0, 1708.0, 1709.0, 1708.0, 1707.0, 1708.0, 1709.0, 1711.0, 1712.0, 1716.0, 1714.0, 1713.0, 1708.0, 1702.0, 1705.0, 1709.0, 1710.0, 1710.0, 1708.0, 1715.0, 1719.0, 1719.0, 1716.0, 1711.0, 1708.0, 1706.0, 1706.0, 1709.0, 1715.0, 1712.0, 1711.0, 1710.0, 1710.0, 1710.0, 1708.0, 1706.0, 1704.0, 1703.0, 1704.0, 1708.0, 1713.0, 1715.0, 1712.0, 1712.0, 1713.0, 1712.0, 1713.0, 1711.0, 1707.0, 1704.0, 1708.0, 1706.0, 1703.0, 1706.0, 1708.0, 1705.0, 1706.0, 1706.0, 1705.0, 1712.0, 1714.0, 1716.0, 1716.0, 1715.0, 1715.0, 1712.0, 1712.0, 1711.0, 1713.0, 1709.0, 1707.0, 1708.0, 1710.0, 1708.0, 1711.0, 1712.0, 1714.0, 1712.0, 1710.0, 1710.0, 1712.0, 1714.0, 1710.0, 1707.0, 1702.0, 1702.0, 1706.0, 1708.0, 1711.0, 1710.0, 1713.0, 1713.0, 1710.0, 1710.0, 1713.0, 1716.0, 1710.0, 1705.0, 1707.0, 1704.0, 1711.0, 1709.0, 1711.0, 1705.0, 1706.0, 1707.0, 1710.0, 1711.0, 1705.0, 1702.0, 1703.0, 1705.0, 1708.0, 1714.0, 1714.0, 1712.0, 1709.0, 1708.0, 1706.0, 1704.0, 1705.0, 1703.0, 1706.0, 1709.0, 1706.0, 1705.0, 1706.0, 1705.0, 1704.0, 1706.0, 1704.0, 1705.0, 1707.0, 1702.0, 1704.0, 1704.0, 1707.0, 1707.0, 1707.0, 1705.0, 1700.0, 1703.0, 1703.0, 1705.0, 1704.0, 1705.0, 1709.0, 1708.0, 1707.0, 1699.0, 1704.0, 1704.0, 1706.0, 1701.0, 1696.0, 1702.0, 1705.0, 1705.0, 1704.0, 1703.0, 1708.0, 1707.0, 1708.0, 1702.0, 1706.0, 1703.0, 1703.0, 1703.0, 1702.0, 1702.0, 1702.0, 1706.0, 1712.0, 1711.0, 1705.0, 1706.0, 1706.0, 1705.0, 1705.0, 1702.0, 1702.0, 1698.0, 1701.0, 1703.0, 1706.0, 1708.0, 1707.0, 1707.0, 1705.0, 1703.0, 1703.0, 1703.0, 1702.0, 1699.0, 1700.0, 1702.0, 1706.0, 1708.0, 1707.0, 1707.0, 1710.0, 1703.0, 1701.0, 1694.0, 1691.0, 1689.0, 1693.0, 1698.0, 1702.0, 1705.0, 1707.0, 1704.0, 1703.0, 1700.0, 1701.0, 1706.0, 1707.0, 1708.0, 1706.0, 1710.0, 1706.0, 1708.0, 1708.0, 1706.0, 1701.0, 1700.0, 1697.0, 1695.0, 1694.0, 1691.0, 1695.0, 1699.0, 1703.0, 1707.0, 1705.0, 1704.0, 1703.0]
    },
    "slices": {}
  }
}