{
  "AcquisitionMatrixPE": 100,
  "AcquisitionNumber": 1,
  "AcquisitionTime": "14:05:43.592500",
  "BandwidthPerPixelPhaseEncode": 18.519,
  "BaseResolution": 100,
  "BodyPartExamined": "BRAIN",
  "ConsistencyInfo": "N4_VE11C_LATEST_20160120",
  "ConversionSoftware": "dcm2niix",
  "ConversionSoftwareVersion": "v1.0.20180622 GCC4.9.2",
  "DerivedVendorReportedEchoSpacing": 0.000539986,
  "DeviceSerialNumber": "166078",
  "DwellTime": 2.1e-06,
  "EchoTime": 0.034,
  "EchoTrainLength": 100,
  "EffectiveEchoSpacing": 0.000539986,
  "FlipAngle": 90,
  "ImageOrientationPatientDICOM": [1, -7.88483e-05, -0.00047179, -5.20551e-08, 0.986302, -0.164947],
  "ImageType": [
    "ORIGINAL",
    "PRIMARY",
    "M",
    "ND",
    "MOSAIC"
],
  "InPlanePhaseEncodingDirectionDICOM": "COL",
  "InstitutionAddress": "Street_StreetNo_Bei_Jing_District_CN_ZIP",
  "InstitutionName": "BeiJing_Normal_University",
  "InstitutionalDepartmentName": "Department",
  "MRAcquisitionType": "2D",
  "MagneticFieldStrength": 3,
  "Manufacturer": "Siemens",
  "ManufacturersModelName": "Prisma",
  "Modality": "MR",
  "MultibandAccelerationFactor": 3,
  "PartialFourier": 1,
  "PatientPosition": "HFS",
  "PercentPhaseFOV": 100,
  "PhaseEncodingDirection": "j-",
  "PhaseEncodingSteps": 100,
  "PhaseResolution": 1,
  "PixelBandwidth": 2380,
  "ProcedureStepDescription": "BNU_P2018_64CH_Zhen.ZongLei",
  "ProtocolName": "bold_100x100_s3_2x2x2_static_256",
  "PulseSequenceDetails": "%SiemensSeq%_ep2d_bold",
  "ReceiveCoilActiveElements": "HC1-7;NC1",
  "ReceiveCoilName": "HeadNeck_64",
  "ReconMatrixPE": 100,
  "RepetitionTime": 2,
  "SAR": 0.0661823,
  "ScanOptions": "FS",
  "ScanningSequence": "EP",
  "SequenceName": "_epfid2d1_100",
  "SequenceVariant": "SK",
  "SeriesDescription": "bold_100x100_s3_2x2x2_static_256",
  "SeriesNumber": 11,
  "ShimSetting": [-5461, -11491, -1259, 273, -89, -184, -187, 30],
  "SliceThickness": 2,
  "SliceTiming": [1.485, 0, 0.99, 0.0825, 1.0725, 0.165, 1.155, 0.2475, 1.2375, 0.33, 1.32, 0.4125, 1.4025, 0.5775, 1.5675, 0.66, 1.65, 0.7425, 1.7325, 0.825, 1.815, 0.9075, 1.8975, 0.495, 1.485, 0, 0.99, 0.0825, 1.0725, 0.165, 1.155, 0.2475, 1.2375, 0.33, 1.32, 0.4125, 1.4025, 0.5775, 1.5675, 0.66, 1.65, 0.7425, 1.7325, 0.825, 1.815, 0.9075, 1.8975, 0.495, 1.485, 0, 0.99, 0.0825, 1.0725, 0.165, 1.155, 0.2475, 1.2375, 0.33, 1.32, 0.4125, 1.4025, 0.5775, 1.5675, 0.66, 1.65, 0.7425, 1.7325, 0.825, 1.815, 0.9075, 1.8975, 0.495],
  "SoftwareVersions": "syngo_MR_E11",
  "SpacingBetweenSlices": 2,
  "StationName": "AWP166078",
  "TaskName": "naturalvision",
  "TotalReadoutTime": 0.0534586,
  "TxRefAmp": 216.643,
  "dcmmeta_affine": [
    [-1.999999761581421, -1.0411029904844327e-07, -0.000956666306592524, 99.7325668334961],
    [0.00015769663150422275, 1.9726048707962036, -0.32989412546157837, -78.03262329101562],
    [-0.0009435794781893492, 0.32989415526390076, 1.9726046323776245, -94.775634765625],
    [0.0, 0.0, 0.0, 1.0]
],
  "dcmmeta_reorient_transform": [
    [0.0, -1.0, 0.0, 99.0],
    [1.0, 0.0, 0.0, 0.0],
    [0.0, 0.0, 1.0, 0.0],
    [0.0, 0.0, 0.0, 1.0]
],
  "dcmmeta_shape": [100, 100, 72, 256],
  "dcmmeta_slice_dim": 2,
  "dcmmeta_version": 0.6,
  "global": {
    "const": {
      "AcquisitionMatrix": [100, 0, 0, 100],
      "AngioFlag": "N",
      "BitsAllocated": 16,
      "BitsStored": 12,
      "BodyPartExamined": "BRAIN",
      "Columns": 900,
      "EchoNumbers": 1,
      "EchoTime": 34.0,
      "EchoTrainLength": 100,
      "FlipAngle": 90.0,
      "HighBit": 11,
      "ImageOrientationPatient": [0.99999988559869, -7.88483171e-05, -0.0004717897347, -5.2055148e-08, 0.98630241787436, -0.1649470839245],
      "ImagePositionPatient": [-899.73242691705, -906.2341109322, 70.218989161917],
      "ImageType": [
        "ORIGINAL",
        "PRIMARY",
        "M",
        "ND",
        "MOSAIC"
],
      "ImagedNucleus": "1H",
      "ImagingFrequency": 123.257783,
      "InPlanePhaseEncodingDirection": "COL",
      "MRAcquisitionType": "2D",
      "MagneticFieldStrength": 3.0,
      "Manufacturer": "SIEMENS",
      "ManufacturerModelName": "Prisma",
      "Modality": "MR",
      "NumberOfAverages": 1.0,
      "NumberOfPhaseEncodingSteps": 100,
      "PercentPhaseFieldOfView": 100.0,
      "PercentSampling": 100.0,
      "PerformedProcedureStepStartTime": "130212.680000",
      "PhotometricInterpretation": "MONOCHROME2",
      "PixelBandwidth": 2380.0,
      "PixelRepresentation": 0,
      "PixelSpacing": [2.0, 2.0],
      "ProtocolName": "bold_100x100_s3_2x2x2_static_256",
      "RepetitionTime": 2000.0,
      "Rows": 900,
      "SAR": 0.06618232338754,
      "SamplesPerPixel": 1,
      "ScanOptions": "FS",
      "ScanningSequence": "EP",
      "SequenceName": "*epfid2d1_100",
      "SequenceVariant": "SK",
      "SeriesDescription": "bold_100x100_s3_2x2x2_static_256",
      "SeriesNumber": 11,
      "SeriesTime": "140546.768000",
      "SliceLocation": -80.653877856303,
      "SliceThickness": 2.0,
      "SmallestImagePixelValue": 0,
      "SoftwareVersions": "syngo MR E11",
      "SpacingBetweenSlices": 2.0000000086767,
      "SpecificCharacterSet": "ISO_IR 100",
      "StudyID": "1",
      "StudyTime": "130212.611000",
      "TransmitCoilName": "Body",
      "VariableFlipAngleFlag": "N",
      "WindowCenterWidthExplanation": "Algo1",
      "dBdt": 0.0},
    "slices": {}
  },
  "time": {
    "samples": {
      "AcquisitionNumber": [1, 2, 3, 4, 5, 6, 7, 8, 9, 10, 11, 12, 13, 14, 15, 16, 17, 18, 19, 20, 21, 22, 23, 24, 25, 26, 27, 28, 29, 30, 31, 32, 33, 34, 35, 36, 37, 38, 39, 40, 41, 42, 43, 44, 45, 46, 47, 48, 49, 50, 51, 52, 53, 54, 55, 56, 57, 58, 59, 60, 61, 62, 63, 64, 65, 66, 67, 68, 69, 70, 71, 72, 73, 74, 75, 76, 77, 78, 79, 80, 81, 82, 83, 84, 85, 86, 87, 88, 89, 90, 91, 92, 93, 94, 95, 96, 97, 98, 99, 100, 101, 102, 103, 104, 105, 106, 107, 108, 109, 110, 111, 112, 113, 114, 115, 116, 117, 118, 119, 120, 121, 122, 123, 124, 125, 126, 127, 128, 129, 130, 131, 132, 133, 134, 135, 136, 137, 138, 139, 140, 141, 142, 143, 144, 145, 146, 147, 148, 149, 150, 151, 152, 153, 154, 155, 156, 157, 158, 159, 160, 161, 162, 163, 164, 165, 166, 167, 168, 169, 170, 171, 172, 173, 174, 175, 176, 177, 178, 179, 180, 181, 182, 183, 184, 185, 186, 187, 188, 189, 190, 191, 192, 193, 194, 195, 196, 197, 198, 199, 200, 201, 202, 203, 204, 205, 206, 207, 208, 209, 210, 211, 212, 213, 214, 215, 216, 217, 218, 219, 220, 221, 222, 223, 224, 225, 226, 227, 228, 229, 230, 231, 232, 233, 234, 235, 236, 237, 238, 239, 240, 241, 242, 243, 244, 245, 246, 247, 248, 249, 250, 251, 252, 253, 254, 255, 256],
      "AcquisitionTime": ["140543.592500", "140545.592500", "140547.592500", "140549.592500", "140551.592500", "140553.592500", "140555.592500", "140557.592500", "140559.592500", "140601.592500", "140603.592500", "140605.592500", "140607.592500", "140609.592500", "140611.592500", "140613.592500", "140615.592500", "140617.592500", "140619.592500", "140621.592500", "140623.592500", "140625.592500", "140627.592500", "140629.592500", "140631.592500", "140633.592500", "140635.592500", "140637.592500", "140639.592500", "140641.592500", "140643.592500", "140645.592500", "140647.592500", "140649.592500", "140651.592500", "140653.592500", "140655.592500", "140657.592500", "140659.592500", "140701.592500", "140703.592500", "140705.592500", "140707.592500", "140709.592500", "140711.592500", "140713.592500", "140715.592500", "140717.592500", "140719.592500", "140721.592500", "140723.592500", "140725.592500", "140727.592500", "140729.592500", "140731.592500", "140733.592500", "140735.592500", "140737.592500", "140739.592500", "140741.592500", "140743.592500", "140745.592500", "140747.592500", "140749.592500", "140751.592500", "140753.592500", "140755.592500", "140757.592500", "140759.592500", "140801.592500", "140803.592500", "140805.592500", "140807.592500", "140809.592500", "140811.592500", "140813.592500", "140815.592500", "140817.592500", "140819.592500", "140821.592500", "140823.592500", "140825.592500", "140827.592500", "140829.592500", "140831.592500", "140833.592500", "140835.592500", "140837.592500", "140839.592500", "140841.592500", "140843.592500", "140845.592500", "140847.592500", "140849.592500", "140851.592500", "140853.592500", "140855.592500", "140857.592500", "140859.592500", "140901.592500", "140903.592500", "140905.592500", "140907.592500", "140909.592500", "140911.592500", "140913.592500", "140915.592500", "140917.592500", "140919.592500", "140921.592500", "140923.592500", "140925.592500", "140927.592500", "140929.592500", "140931.592500", "140933.592500", "140935.592500", "140937.592500", "140939.592500", "140941.592500", "140943.592500", "140945.592500", "140947.592500", "140949.592500", "140951.592500", "140953.592500", "140955.592500", "140957.592500", "140959.592500", "141001.592500", "141003.592500", "141005.592500", "141007.592500", "141009.592500", "141011.592500", "141013.592500", "141015.592500", "141017.592500", "141019.592500", "141021.592500", "141023.592500", "141025.592500", "141027.592500", "141029.592500", "141031.592500", "141033.592500", "141035.592500", "141037.592500", "141039.592500", "141041.592500", "141043.592500", "141045.592500", "141047.592500", "141049.592500", "141051.592500", "141053.592500", "141055.592500", "141057.592500", "141059.592500", "141101.592500", "141103.592500", "141105.592500", "141107.592500", "141109.592500", "141111.592500", "141113.592500", "141115.592500", "141117.592500", "141119.592500", "141121.592500", "141123.592500", "141125.592500", "141127.592500", "141129.592500", "141131.592500", "141133.592500", "141135.592500", "141137.592500", "141139.592500", "141141.592500", "141143.592500", "141145.592500", "141147.592500", "141149.592500", "141151.592500", "141153.592500", "141155.592500", "141157.592500", "141159.592500", "141201.592500", "141203.592500", "141205.592500", "141207.592500", "141209.592500", "141211.592500", "141213.592500", "141215.592500", "141217.592500", "141219.592500", "141221.592500", "141223.592500", "141225.592500", "141227.592500", "141229.592500", "141231.592500", "141233.592500", "141235.592500", "141237.592500", "141239.592500", "141241.592500", "141243.592500", "141245.592500", "141247.592500", "141249.592500", "141251.592500", "141253.592500", "141255.592500", "141257.592500", "141259.592500", "141301.592500", "141303.592500", "141305.592500", "141307.592500", "141309.592500", "141311.592500", "141313.592500", "141315.592500", "141317.592500", "141319.592500", "141321.592500", "141323.592500", "141325.592500", "141327.592500", "141329.592500", "141331.592500", "141333.592500", "141335.592500", "141337.592500", "141339.592500", "141341.592500", "141343.592500", "141345.592500", "141347.592500", "141349.592500", "141351.592500", "141353.592500", "141355.592500", "141357.592500", "141359.592500", "141401.592500", "141403.592500", "141405.592500", "141407.592500", "141409.592500", "141411.592500", "141413.592500"],
      "ContentTime": ["140546.772000", "140548.268000", "140550.268000", "140552.267000", "140554.266000", "140556.266000", "140558.267000", "140600.268000", "140602.268000", "140604.267000", "140606.268000", "140608.268000", "140610.266000", "140612.266000", "140614.268000", "140616.268000", "140618.267000", "140620.267000", "140622.267000", "140624.268000", "140626.268000", "140628.266000", "140630.266000", "140632.268000", "140634.267000", "140636.267000", "140638.267000", "140640.268000", "140642.268000", "140644.266000", "140646.266000", "140648.266000", "140650.268000", "140652.267000", "140654.267000", "140656.267000", "140658.267000", "140700.267000", "140702.267000", "140704.266000", "140706.267000", "140708.267000", "140710.268000", "140712.267000", "140714.268000", "140716.267000", "140718.267000", "140720.266000", "140722.266000", "140724.267000", "140726.268000", "140728.267000", "140730.267000", "140732.267000", "140734.268000", "140736.268000", "140738.266000", "140740.267000", "140742.268000", "140744.267000", "140746.268000", "140748.267000", "140750.268000", "140752.267000", "140754.266000", "140756.266000", "140758.266000", "140800.267000", "140802.268000", "140804.268000", "140806.268000", "140808.267000", "140810.268000", "140812.266000", "140814.267000", "140816.266000", "140818.267000", "140820.267000", "140822.267000", "140824.267000", "140826.268000", "140828.268000", "140830.267000", "140832.266000", "140834.267000", "140836.267000", "140838.268000", "140840.268000", "140842.267000", "140844.268000", "140846.267000", "140848.266000", "140850.267000", "140852.267000", "140854.268000", "140856.268000", "140858.268000", "140900.268000", "140902.268000", "140904.266000", "140906.266000", "140908.266000", "140910.268000", "140912.268000", "140914.268000", "140916.268000", "140918.267000", "140920.267000", "140922.266000", "140924.267000", "140926.266000", "140928.268000", "140930.268000", "140932.268000", "140934.268000", "140936.267000", "140938.268000", "140940.267000", "140942.267000", "140944.268000", "140946.268000", "140948.267000", "140950.268000", "140952.267000", "140954.268000", "140956.268000", "140958.266000", "141000.266000", "141002.268000", "141004.268000", "141006.267000", "141008.267000", "141010.268000", "141012.268000", "141014.267000", "141016.267000", "141018.267000", "141020.268000", "141022.268000", "141024.268000", "141026.268000", "141028.267000", "141030.267000", "141032.267000", "141034.266000", "141036.268000", "141038.267000", "141040.268000", "141042.268000", "141044.267000", "141046.268000", "141048.268000", "141050.266000", "141052.267000", "141054.268000", "141056.268000", "141058.268000", "141100.268000", "141102.267000", "141104.268000", "141106.268000", "141108.267000", "141110.266000", "141112.268000", "141114.268000", "141116.267000", "141118.268000", "141120.267000", "141122.268000", "141124.266000", "141126.266000", "141128.267000", "141130.268000", "141132.268000", "141134.268000", "141136.268000", "141138.268000", "141140.268000", "141142.266000", "141144.267000", "141146.268000", "141148.267000", "141150.268000", "141152.268000", "141154.268000", "141156.267000", "141158.267000", "141200.267000", "141202.267000", "141204.268000", "141206.268000", "141208.268000", "141210.267000", "141212.267000", "141214.268000", "141216.268000", "141218.267000", "141220.266000", "141222.267000", "141224.268000", "141226.268000", "141228.267000", "141230.268000", "141232.268000", "141234.266000", "141236.267000", "141238.266000", "141240.268000", "141242.268000", "141244.268000", "141246.268000", "141248.268000", "141250.267000", "141252.267000", "141254.266000", "141256.268000", "141258.267000", "141300.268000", "141302.268000", "141304.267000", "141306.268000", "141308.268000", "141310.267000", "141312.267000", "141314.267000", "141316.268000", "141318.268000", "141320.267000", "141322.267000", "141324.267000", "141326.268000", "141328.267000", "141330.266000", "141332.267000", "141334.267000", "141336.268000", "141338.268000", "141340.267000", "141342.267000", "141344.267000", "141346.266000", "141348.266000", "141350.285000", "141352.268000", "141354.267000", "141356.268000", "141358.268000", "141400.268000", "141402.267000", "141404.267000", "141406.268000", "141408.268000", "141410.268000", "141412.268000", "141414.268000", "141415.945000"],
      "InstanceCreationTime": ["140546.772000", "140548.268000", "140550.268000", "140552.267000", "140554.266000", "140556.266000", "140558.267000", "140600.268000", "140602.268000", "140604.267000", "140606.268000", "140608.268000", "140610.266000", "140612.266000", "140614.268000", "140616.268000", "140618.267000", "140620.267000", "140622.267000", "140624.268000", "140626.268000", "140628.266000", "140630.266000", "140632.268000", "140634.267000", "140636.267000", "140638.267000", "140640.268000", "140642.268000", "140644.266000", "140646.266000", "140648.266000", "140650.268000", "140652.267000", "140654.267000", "140656.267000", "140658.267000", "140700.267000", "140702.267000", "140704.266000", "140706.267000", "140708.267000", "140710.268000", "140712.267000", "140714.268000", "140716.267000", "140718.267000", "140720.266000", "140722.266000", "140724.267000", "140726.268000", "140728.267000", "140730.267000", "140732.267000", "140734.268000", "140736.268000", "140738.266000", "140740.267000", "140742.268000", "140744.267000", "140746.268000", "140748.267000", "140750.268000", "140752.267000", "140754.266000", "140756.266000", "140758.266000", "140800.267000", "140802.268000", "140804.268000", "140806.268000", "140808.267000", "140810.268000", "140812.266000", "140814.267000", "140816.266000", "140818.267000", "140820.267000", "140822.267000", "140824.267000", "140826.268000", "140828.268000", "140830.267000", "140832.266000", "140834.267000", "140836.267000", "140838.268000", "140840.268000", "140842.267000", "140844.268000", "140846.267000", "140848.266000", "140850.267000", "140852.267000", "140854.268000", "140856.268000", "140858.268000", "140900.268000", "140902.268000", "140904.266000", "140906.266000", "140908.266000", "140910.268000", "140912.268000", "140914.268000", "140916.268000", "140918.267000", "140920.267000", "140922.266000", "140924.267000", "140926.266000", "140928.268000", "140930.268000", "140932.268000", "140934.268000", "140936.267000", "140938.268000", "140940.267000", "140942.267000", "140944.268000", "140946.268000", "140948.267000", "140950.268000", "140952.267000", "140954.268000", "140956.268000", "140958.266000", "141000.266000", "141002.268000", "141004.268000", "141006.267000", "141008.267000", "141010.268000", "141012.268000", "141014.267000", "141016.267000", "141018.267000", "141020.268000", "141022.268000", "141024.268000", "141026.268000", "141028.267000", "141030.267000", "141032.267000", "141034.266000", "141036.268000", "141038.267000", "141040.268000", "141042.268000", "141044.267000", "141046.268000", "141048.268000", "141050.266000", "141052.267000", "141054.268000", "141056.268000", "141058.268000", "141100.268000", "141102.267000", "141104.268000", "141106.268000", "141108.267000", "141110.266000", "141112.268000", "141114.268000", "141116.267000", "141118.268000", "141120.267000", "141122.268000", "141124.266000", "141126.266000", "141128.267000", "141130.268000", "141132.268000", "141134.268000", "141136.268000", "141138.268000", "141140.268000", "141142.266000", "141144.267000", "141146.268000", "141148.267000", "141150.268000", "141152.268000", "141154.268000", "141156.267000", "141158.267000", "141200.267000", "141202.267000", "141204.268000", "141206.268000", "141208.268000", "141210.267000", "141212.267000", "141214.268000", "141216.268000", "141218.267000", "141220.266000", "141222.267000", "141224.268000", "141226.268000", "141228.267000", "141230.268000", "141232.268000", "141234.266000", "141236.267000", "141238.266000", "141240.268000", "141242.268000", "141244.268000", "141246.268000", "141248.268000", "141250.267000", "141252.267000", "141254.266000", "141256.268000", "141258.267000", "141300.268000", "141302.268000", "141304.267000", "141306.268000", "141308.268000", "141310.267000", "141312.267000", "141314.267000", "141316.268000", "141318.268000", "141320.267000", "141322.267000", "141324.267000", "141326.268000", "141328.267000", "141330.266000", "141332.267000", "141334.267000", "141336.268000", "141338.268000", "141340.267000", "141342.267000", "141344.267000", "141346.266000", "141348.266000", "141350.285000", "141352.268000", "141354.267000", "141356.268000", "141358.268000", "141400.268000", "141402.267000", "141404.267000", "141406.268000", "141408.268000", "141410.268000", "141412.268000", "141414.268000", "141415.945000"],
      "InstanceNumber": [1, 2, 3, 4, 5, 6, 7, 8, 9, 10, 11, 12, 13, 14, 15, 16, 17, 18, 19, 20, 21, 22, 23, 24, 25, 26, 27, 28, 29, 30, 31, 32, 33, 34, 35, 36, 37, 38, 39, 40, 41, 42, 43, 44, 45, 46, 47, 48, 49, 50, 51, 52, 53, 54, 55, 56, 57, 58, 59, 60, 61, 62, 63, 64, 65, 66, 67, 68, 69, 70, 71, 72, 73, 74, 75, 76, 77, 78, 79, 80, 81, 82, 83, 84, 85, 86, 87, 88, 89, 90, 91, 92, 93, 94, 95, 96, 97, 98, 99, 100, 101, 102, 103, 104, 105, 106, 107, 108, 109, 110, 111, 112, 113, 114, 115, 116, 117, 118, 119, 120, 121, 122, 123, 124, 125, 126, 127, 128, 129, 130, 131, 132, 133, 134, 135, 136, 137, 138, 139, 140, 141, 142, 143, 144, 145, 146, 147, 148, 149, 150, 151, 152, 153, 154, 155, 156, 157, 158, 159, 160, 161, 162, 163, 164, 165, 166, 167, 168, 169, 170, 171, 172, 173, 174, 175, 176, 177, 178, 179, 180, 181, 182, 183, 184, 185, 186, 187, 188, 189, 190, 191, 192, 193, 194, 195, 196, 197, 198, 199, 200, 201, 202, 203, 204, 205, 206, 207, 208, 209, 210, 211, 212, 213, 214, 215, 216, 217, 218, 219, 220, 221, 222, 223, 224, 225, 226, 227, 228, 229, 230, 231, 232, 233, 234, 235, 236, 237, 238, 239, 240, 241, 242, 243, 244, 245, 246, 247, 248, 249, 250, 251, 252, 253, 254, 255, 256],
      "LargestImagePixelValue": [3373, 3366, 3328, 3315, 3325, 3318, 3310, 3324, 3311, 3350, 3277, 3304, 3265, 3310, 3247, 3319, 3283, 3314, 3308, 3305, 3295, 3283, 3282, 3275, 3246, 3299, 3261, 3312, 3305, 3275, 3317, 3288, 3275, 3264, 3304, 3242, 3319, 3262, 3255, 3313, 3326, 3271, 3362, 3262, 3262, 3284, 3242, 3271, 3305, 3275, 3262, 3254, 3264, 3230, 3332, 3272, 3288, 3311, 3272, 3277, 3259, 3248, 3269, 3299, 3255, 3309, 3275, 3280, 3211, 3236, 3216, 3241, 3261, 3242, 3239, 3270, 3238, 3262, 3259, 3234, 3247, 3248, 3254, 3236, 3278, 3244, 3272, 3234, 3222, 3211, 3209, 3250, 3226, 3268, 3257, 3245, 3254, 3236, 3229, 3252, 3214, 3243, 3251, 3229, 3309, 3276, 3252, 3249, 3234, 3245, 3264, 3253, 3243, 3255, 3288, 3262, 3273, 3274, 3237, 3247, 3221, 3216, 3227, 3250, 3254, 3254, 3242, 3220, 3215, 3220, 3244, 3240, 3238, 3218, 3228, 3245, 3233, 3230, 3243, 3254, 3234, 3250, 3274, 3239, 3254, 3227, 3282, 3286, 3286, 3209, 3191, 3214, 3247, 3263, 3273, 3238, 3234, 3257, 3257, 3264, 3243, 3255, 3241, 3232, 3252, 3244, 3285, 3222, 3255, 3233, 3249, 3267, 3289, 3301, 3293, 3302, 3284, 3313, 3288, 3284, 3307, 3297, 3295, 3309, 3291, 3678, 3304, 3290, 3313, 3278, 3269, 3263, 3266, 3276, 3273, 3328, 3289, 3253, 3314, 3277, 3317, 3289, 3294, 3272, 3287, 3304, 3290, 3321, 3310, 3320, 3292, 3294, 3331, 3318, 3277, 3241, 3227, 3300, 3275, 3318, 3254, 3313, 3337, 3282, 3266, 3292, 3274, 3285, 3291, 3285, 3286, 3292, 3260, 3269, 3258, 3247, 3267, 3280, 3263, 3248, 3265, 3262, 3273, 3256, 3292, 3272, 3267, 3292, 3291, 3277, 3271, 3298, 3247, 3307, 3236, 3274],
      "WindowCenter": [794.0, 792.0, 791.0, 792.0, 790.0, 792.0, 791.0, 791.0, 790.0, 790.0, 791.0, 792.0, 791.0, 791.0, 789.0, 789.0, 788.0, 787.0, 788.0, 788.0, 788.0, 788.0, 787.0, 788.0, 788.0, 788.0, 788.0, 788.0, 790.0, 789.0, 790.0, 790.0, 790.0, 790.0, 789.0, 790.0, 791.0, 791.0, 790.0, 791.0, 788.0, 787.0, 788.0, 789.0, 789.0, 789.0, 787.0, 787.0, 788.0, 789.0, 789.0, 788.0, 789.0, 788.0, 789.0, 789.0, 789.0, 789.0, 789.0, 790.0, 790.0, 789.0, 789.0, 789.0, 789.0, 790.0, 791.0, 790.0, 788.0, 789.0, 790.0, 791.0, 791.0, 790.0, 788.0, 788.0, 786.0, 788.0, 789.0, 788.0, 788.0, 787.0, 789.0, 788.0, 789.0, 790.0, 790.0, 790.0, 788.0, 789.0, 788.0, 789.0, 788.0, 789.0, 789.0, 789.0, 790.0, 789.0, 789.0, 789.0, 789.0, 789.0, 789.0, 789.0, 788.0, 788.0, 788.0, 789.0, 790.0, 790.0, 790.0, 789.0, 790.0, 789.0, 790.0, 790.0, 788.0, 790.0, 790.0, 791.0, 790.0, 788.0, 788.0, 788.0, 788.0, 788.0, 789.0, 788.0, 788.0, 788.0, 788.0, 789.0, 788.0, 789.0, 787.0, 786.0, 786.0, 788.0, 789.0, 791.0, 789.0, 788.0, 789.0, 788.0, 789.0, 790.0, 790.0, 790.0, 789.0, 789.0, 787.0, 786.0, 784.0, 785.0, 787.0, 789.0, 789.0, 790.0, 790.0, 791.0, 791.0, 790.0, 790.0, 789.0, 789.0, 788.0, 790.0, 790.0, 791.0, 790.0, 791.0, 792.0, 791.0, 789.0, 789.0, 788.0, 787.0, 787.0, 787.0, 788.0, 788.0, 789.0, 789.0, 788.0, 787.0, 791.0, 788.0, 788.0, 788.0, 787.0, 788.0, 791.0, 790.0, 790.0, 789.0, 789.0, 788.0, 789.0, 790.0, 790.0, 788.0, 789.0, 790.0, 791.0, 792.0, 791.0, 791.0, 791.0, 792.0, 792.0, 791.0, 791.0, 791.0, 790.0, 792.0, 792.0, 790.0, 790.0, 788.0, 787.0, 786.0, 787.0, 788.0, 788.0, 790.0, 790.0, 789.0, 790.0, 789.0, 789.0, 790.0, 791.0, 790.0, 789.0, 789.0, 789.0, 789.0, 789.0, 790.0, 790.0, 789.0, 788.0, 789.0, 788.0, 789.0, 788.0, 788.0, 788.0, 788.0, 788.0, 788.0, 788.0, 787.0, 788.0, 789.0, 790.0],
      "WindowWidth": [1706.0, 1701.0, 1700.0, 1701.0, 1697.0, 1701.0, 1699.0, 1699.0, 1696.0, 1694.0, 1699.0, 1700.0, 1699.0, 1698.0, 1695.0, 1693.0, 1692.0, 1689.0, 1690.0, 1692.0, 1690.0, 1690.0, 1689.0, 1692.0, 1690.0, 1691.0, 1691.0, 1692.0, 1695.0, 1695.0, 1697.0, 1697.0, 1695.0, 1695.0, 1694.0, 1696.0, 1697.0, 1700.0, 1697.0, 1698.0, 1691.0, 1690.0, 1692.0, 1693.0, 1693.0, 1692.0, 1689.0, 1688.0, 1692.0, 1693.0, 1692.0, 1692.0, 1692.0, 1691.0, 1693.0, 1695.0, 1693.0, 1694.0, 1692.0, 1696.0, 1697.0, 1693.0, 1692.0, 1693.0, 1694.0, 1696.0, 1698.0, 1696.0, 1690.0, 1692.0, 1696.0, 1697.0, 1697.0, 1694.0, 1689.0, 1691.0, 1687.0, 1691.0, 1692.0, 1691.0, 1691.0, 1688.0, 1692.0, 1692.0, 1694.0, 1696.0, 1695.0, 1696.0, 1692.0, 1692.0, 1691.0, 1694.0, 1690.0, 1692.0, 1694.0, 1694.0, 1695.0, 1693.0, 1693.0, 1693.0, 1692.0, 1692.0, 1695.0, 1692.0, 1691.0, 1692.0, 1692.0, 1694.0, 1695.0, 1696.0, 1696.0, 1694.0, 1695.0, 1693.0, 1695.0, 1695.0, 1691.0, 1696.0, 1696.0, 1697.0, 1695.0, 1691.0, 1690.0, 1689.0, 1690.0, 1690.0, 1693.0, 1690.0, 1691.0, 1690.0, 1691.0, 1693.0, 1691.0, 1693.0, 1688.0, 1684.0, 1684.0, 1690.0, 1694.0, 1698.0, 1692.0, 1690.0, 1693.0, 1691.0, 1694.0, 1695.0, 1694.0, 1695.0, 1692.0, 1693.0, 1688.0, 1684.0, 1681.0, 1684.0, 1688.0, 1692.0, 1693.0, 1695.0, 1695.0, 1699.0, 1699.0, 1696.0, 1696.0, 1693.0, 1692.0, 1692.0, 1696.0, 1697.0, 1699.0, 1696.0, 1700.0, 1701.0, 1698.0, 1693.0, 1692.0, 1689.0, 1687.0, 1689.0, 1690.0, 1692.0, 1692.0, 1694.0, 1695.0, 1691.0, 1690.0, 1698.0, 1691.0, 1691.0, 1690.0, 1690.0, 1690.0, 1698.0, 1697.0, 1696.0, 1693.0, 1693.0, 1692.0, 1694.0, 1697.0, 1695.0, 1692.0, 1692.0, 1697.0, 1698.0, 1700.0, 1699.0, 1697.0, 1700.0, 1700.0, 1701.0, 1698.0, 1697.0, 1698.0, 1696.0, 1702.0, 1702.0, 1696.0, 1695.0, 1689.0, 1687.0, 1684.0, 1688.0, 1690.0, 1691.0, 1695.0, 1694.0, 1693.0, 1695.0, 1693.0, 1693.0, 1695.0, 1697.0, 1695.0, 1694.0, 1694.0, 1693.0, 1693.0, 1695.0, 1695.0, 1694.0, 1693.0, 1692.0, 1694.0, 1689.0, 1692.0, 1692.0, 1691.0, 1689.0, 1691.0, 1691.0, 1690.0, 1691.0, 1689.0, 1691.0, 1694.0, 1696.0]
    },
    "slices": {}
  }
}