{
 "AcquisitionMatrixPE": 100,
 "AcquisitionNumber": 1,
 "AcquisitionTime": "16:29:4.942500",
 "BandwidthPerPixelPhaseEncode": 18.519,
 "BaseResolution": 100,
 "BodyPartExamined": "BRAIN",
 "ConsistencyInfo": "N4_VE11C_LATEST_20160120",
 "ConversionSoftware": "dcm2niix",
 "ConversionSoftwareVersion": "v1.0.20180622 GCC4.9.2",
 "DerivedVendorReportedEchoSpacing": 0.000539986,
 "DeviceSerialNumber": "166078",
 "DwellTime": 2.1e-06,
 "EchoTime": 0.034,
 "EchoTrainLength": 100,
 "EffectiveEchoSpacing": 0.000539986,
 "FlipAngle": 90,
 "ImageOrientationPatientDICOM": [
  1,
  -7.37861e-06,
  -6.87783e-05,
  2.87274e-08,
  0.994339,
  -0.106256
 ],
 "ImageType": [
  "ORIGINAL",
  "PRIMARY",
  "M",
  "ND",
  "MOSAIC"
 ],
 "InPlanePhaseEncodingDirectionDICOM": "COL",
 "InstitutionAddress": "Street_StreetNo_Bei_Jing_District_CN_ZIP",
 "InstitutionName": "BeiJing_Normal_University",
 "InstitutionalDepartmentName": "Department",
 "MRAcquisitionType": "2D",
 "MagneticFieldStrength": 3,
 "Manufacturer": "Siemens",
 "ManufacturersModelName": "Prisma",
 "Modality": "MR",
 "MultibandAccelerationFactor": 3,
 "PartialFourier": 1,
 "PatientPosition": "HFS",
 "PercentPhaseFOV": 100,
 "PhaseEncodingDirection": "j-",
 "PhaseEncodingSteps": 100,
 "PhaseResolution": 1,
 "PixelBandwidth": 2380,
 "ProcedureStepDescription": "BNU_P2018_64CH_Zhen.ZongLei",
 "ProtocolName": "bold_100x100_s3_2x2x2_retino_150",
 "PulseSequenceDetails": "%SiemensSeq%_ep2d_bold",
 "ReceiveCoilActiveElements": "HC1-7;NC1",
 "ReceiveCoilName": "HeadNeck_64",
 "ReconMatrixPE": 100,
 "RepetitionTime": 2,
 "SAR": 0.0816931,
 "ScanOptions": "FS",
 "ScanningSequence": "EP",
 "SequenceName": "_epfid2d1_100",
 "SequenceVariant": "SK",
 "SeriesDescription": "bold_100x100_s3_2x2x2_retino_150",
 "SeriesNumber": 15,
 "ShimSetting": [
  -5461,
  -11518,
  -1248,
  228,
  -37,
  -154,
  -137,
  42
 ],
 "SliceThickness": 2,
 "SliceTiming": [
  1.485,
  0,
  0.99,
  0.0825,
  1.0725,
  0.165,
  1.155,
  0.2475,
  1.2375,
  0.33,
  1.32,
  0.4125,
  1.4025,
  0.5775,
  1.5675,
  0.66,
  1.65,
  0.7425,
  1.7325,
  0.825,
  1.815,
  0.9075,
  1.8975,
  0.495,
  1.485,
  0,
  0.99,
  0.0825,
  1.0725,
  0.165,
  1.155,
  0.2475,
  1.2375,
  0.33,
  1.32,
  0.4125,
  1.4025,
  0.5775,
  1.5675,
  0.66,
  1.65,
  0.7425,
  1.7325,
  0.825,
  1.815,
  0.9075,
  1.8975,
  0.495,
  1.485,
  0,
  0.99,
  0.0825,
  1.0725,
  0.165,
  1.155,
  0.2475,
  1.2375,
  0.33,
  1.32,
  0.4125,
  1.4025,
  0.5775,
  1.5675,
  0.66,
  1.65,
  0.7425,
  1.7325,
  0.825,
  1.815,
  0.9075,
  1.8975,
  0.495
 ],
 "SoftwareVersions": "syngo_MR_E11",
 "SpacingBetweenSlices": 2,
 "StationName": "AWP166078",
 "TaskName": "prf",
 "TotalReadoutTime": 0.0534586,
 "TxRefAmp": 249.589,
 "dcmmeta_affine": [
  [
   -2.0,
   5.745484088492958e-08,
   -0.000138345843879506,
   100.02751922607422
  ],
  [
   1.4757224562345073e-05,
   1.9886776208877563,
   -0.2125122994184494,
   -81.75200653076172
  ],
  [
   -0.00013755651889368892,
   0.2125122845172882,
   1.9886776208877563,
   -79.15380096435547
  ],
  [
   0.0,
   0.0,
   0.0,
   1.0
  ]
 ],
 "dcmmeta_reorient_transform": [
  [
   0.0,
   -1.0,
   0.0,
   99.0
  ],
  [
   1.0,
   0.0,
   0.0,
   0.0
  ],
  [
   0.0,
   0.0,
   1.0,
   0.0
  ],
  [
   0.0,
   0.0,
   0.0,
   1.0
  ]
 ],
 "dcmmeta_shape": [
  100,
  100,
  72,
  150
 ],
 "dcmmeta_slice_dim": 2,
 "dcmmeta_version": 0.6,
 "global": {
  "const": {
   "AcquisitionMatrix": [
    100,
    0,
    0,
    100
   ],
   "AngioFlag": "N",
   "BitsAllocated": 16,
   "BitsStored": 12,
   "BodyPartExamined": "BRAIN",
   "Columns": 900,
   "EchoNumbers": 1,
   "EchoTime": 34.0,
   "EchoTrainLength": 100,
   "FlipAngle": 90.0,
   "HighBit": 11,
   "ImageOrientationPatient": [
    0.99999999760755,
    -7.37861208e-06,
    -6.87782609e-05,
    2.8727421e-08,
    0.9943387912732,
    -0.1062561441487
   ],
   "ImagePositionPatient": [
    -900.02754367261,
    -910.59220774297,
    26.944856316083
   ],
   "ImageType": [
    "ORIGINAL",
    "PRIMARY",
    "M",
    "ND",
    "MOSAIC"
   ],
   "ImagedNucleus": "1H",
   "ImagingFrequency": 123.25776,
   "InPlanePhaseEncodingDirection": "COL",
   "MRAcquisitionType": "2D",
   "MagneticFieldStrength": 3.0,
   "Manufacturer": "SIEMENS",
   "ManufacturerModelName": "Prisma",
   "Modality": "MR",
   "NumberOfAverages": 1.0,
   "NumberOfPhaseEncodingSteps": 100,
   "PercentPhaseFieldOfView": 100.0,
   "PercentSampling": 100.0,
   "PerformedProcedureStepStartTime": "151925.678000",
   "PhotometricInterpretation": "MONOCHROME2",
   "PixelBandwidth": 2380.0,
   "PixelRepresentation": 0,
   "PixelSpacing": [
    2.0,
    2.0
   ],
   "ProtocolName": "bold_100x100_s3_2x2x2_retino_150",
   "RepetitionTime": 2000.0,
   "Rows": 900,
   "SAR": 0.08169310377612,
   "SamplesPerPixel": 1,
   "ScanOptions": "FS",
   "ScanningSequence": "EP",
   "SequenceName": "*epfid2d1_100",
   "SequenceVariant": "SK",
   "SeriesDescription": "bold_100x100_s3_2x2x2_retino_150",
   "SeriesNumber": 15,
   "SeriesTime": "162907.014000",
   "SliceLocation": -70.025958386435,
   "SliceThickness": 2.0,
   "SmallestImagePixelValue": 0,
   "SoftwareVersions": "syngo MR E11",
   "SpacingBetweenSlices": 2.0000000766297,
   "SpecificCharacterSet": "ISO_IR 100",
   "StudyID": "1",
   "StudyTime": "151925.613000",
   "TransmitCoilName": "Body",
   "VariableFlipAngleFlag": "N",
   "WindowCenterWidthExplanation": "Algo1",
   "dBdt": 0.0
  },
  "slices": {}
 },
 "time": {
  "samples": {
   "AcquisitionNumber": [
    1,
    2,
    3,
    4,
    5,
    6,
    7,
    8,
    9,
    10,
    11,
    12,
    13,
    14,
    15,
    16,
    17,
    18,
    19,
    20,
    21,
    22,
    23,
    24,
    25,
    26,
    27,
    28,
    29,
    30,
    31,
    32,
    33,
    34,
    35,
    36,
    37,
    38,
    39,
    40,
    41,
    42,
    43,
    44,
    45,
    46,
    47,
    48,
    49,
    50,
    51,
    52,
    53,
    54,
    55,
    56,
    57,
    58,
    59,
    60,
    61,
    62,
    63,
    64,
    65,
    66,
    67,
    68,
    69,
    70,
    71,
    72,
    73,
    74,
    75,
    76,
    77,
    78,
    79,
    80,
    81,
    82,
    83,
    84,
    85,
    86,
    87,
    88,
    89,
    90,
    91,
    92,
    93,
    94,
    95,
    96,
    97,
    98,
    99,
    100,
    101,
    102,
    103,
    104,
    105,
    106,
    107,
    108,
    109,
    110,
    111,
    112,
    113,
    114,
    115,
    116,
    117,
    118,
    119,
    120,
    121,
    122,
    123,
    124,
    125,
    126,
    127,
    128,
    129,
    130,
    131,
    132,
    133,
    134,
    135,
    136,
    137,
    138,
    139,
    140,
    141,
    142,
    143,
    144,
    145,
    146,
    147,
    148,
    149,
    150
   ],
   "AcquisitionTime": [
    "162904.942500",
    "162906.942500",
    "162908.942500",
    "162910.942500",
    "162912.942500",
    "162914.942500",
    "162916.942500",
    "162918.942500",
    "162920.942500",
    "162922.942500",
    "162924.942500",
    "162926.942500",
    "162928.942500",
    "162930.942500",
    "162932.942500",
    "162934.942500",
    "162936.942500",
    "162938.942500",
    "162940.942500",
    "162942.942500",
    "162944.942500",
    "162946.942500",
    "162948.942500",
    "162950.942500",
    "162952.942500",
    "162954.942500",
    "162956.942500",
    "162958.942500",
    "163000.942500",
    "163002.942500",
    "163004.942500",
    "163006.942500",
    "163008.942500",
    "163010.942500",
    "163012.942500",
    "163014.942500",
    "163016.942500",
    "163018.942500",
    "163020.942500",
    "163022.942500",
    "163024.942500",
    "163026.942500",
    "163028.942500",
    "163030.942500",
    "163032.942500",
    "163034.942500",
    "163036.942500",
    "163038.942500",
    "163040.942500",
    "163042.942500",
    "163044.942500",
    "163046.942500",
    "163048.942500",
    "163050.942500",
    "163052.942500",
    "163054.942500",
    "163056.942500",
    "163058.942500",
    "163100.942500",
    "163102.942500",
    "163104.942500",
    "163106.942500",
    "163108.942500",
    "163110.942500",
    "163112.942500",
    "163114.942500",
    "163116.942500",
    "163118.942500",
    "163120.942500",
    "163122.942500",
    "163124.942500",
    "163126.942500",
    "163128.942500",
    "163130.942500",
    "163132.942500",
    "163134.942500",
    "163136.942500",
    "163138.942500",
    "163140.942500",
    "163142.942500",
    "163144.942500",
    "163146.942500",
    "163148.942500",
    "163150.942500",
    "163152.942500",
    "163154.942500",
    "163156.942500",
    "163158.942500",
    "163200.942500",
    "163202.942500",
    "163204.942500",
    "163206.942500",
    "163208.942500",
    "163210.942500",
    "163212.942500",
    "163214.942500",
    "163216.942500",
    "163218.942500",
    "163220.942500",
    "163222.942500",
    "163224.942500",
    "163226.942500",
    "163228.942500",
    "163230.942500",
    "163232.942500",
    "163234.942500",
    "163236.942500",
    "163238.942500",
    "163240.942500",
    "163242.942500",
    "163244.942500",
    "163246.942500",
    "163248.942500",
    "163250.942500",
    "163252.942500",
    "163254.942500",
    "163256.942500",
    "163258.942500",
    "163300.942500",
    "163302.942500",
    "163304.942500",
    "163306.942500",
    "163308.942500",
    "163310.942500",
    "163312.942500",
    "163314.942500",
    "163316.942500",
    "163318.942500",
    "163320.942500",
    "163322.942500",
    "163324.942500",
    "163326.942500",
    "163328.942500",
    "163330.942500",
    "163332.942500",
    "163334.942500",
    "163336.942500",
    "163338.942500",
    "163340.942500",
    "163342.942500",
    "163344.942500",
    "163346.942500",
    "163348.942500",
    "163350.942500",
    "163352.942500",
    "163354.942500",
    "163356.942500",
    "163358.942500",
    "163400.942500",
    "163402.942500"
   ],
   "ContentTime": [
    "162907.018000",
    "162908.513000",
    "162910.513000",
    "162913.013000",
    "162914.513000",
    "162916.513000",
    "162918.515000",
    "162920.514000",
    "162923.013000",
    "162924.514000",
    "162926.513000",
    "162929.013000",
    "162930.513000",
    "162932.513000",
    "162934.514000",
    "162936.515000",
    "162938.514000",
    "162940.514000",
    "162942.513000",
    "162944.513000",
    "162946.514000",
    "162948.514000",
    "162950.514000",
    "162952.514000",
    "162954.515000",
    "162956.515000",
    "162958.514000",
    "163001.013000",
    "163002.513000",
    "163004.513000",
    "163006.514000",
    "163008.514000",
    "163010.513000",
    "163012.515000",
    "163014.513000",
    "163016.513000",
    "163018.513000",
    "163020.513000",
    "163022.514000",
    "163024.514000",
    "163026.513000",
    "163028.515000",
    "163030.515000",
    "163032.513000",
    "163034.514000",
    "163036.514000",
    "163038.513000",
    "163040.514000",
    "163042.513000",
    "163044.514000",
    "163046.515000",
    "163048.515000",
    "163050.514000",
    "163052.513000",
    "163054.514000",
    "163056.513000",
    "163059.015000",
    "163100.513000",
    "163102.513000",
    "163104.514000",
    "163106.515000",
    "163108.514000",
    "163111.014000",
    "163112.533000",
    "163114.513000",
    "163117.014000",
    "163118.514000",
    "163120.514000",
    "163122.514000",
    "163125.014000",
    "163126.513000",
    "163128.513000",
    "163131.013000",
    "163132.513000",
    "163134.514000",
    "163136.513000",
    "163139.014000",
    "163140.514000",
    "163142.513000",
    "163144.513000",
    "163147.013000",
    "163148.513000",
    "163150.513000",
    "163153.014000",
    "163154.513000",
    "163156.514000",
    "163158.515000",
    "163200.513000",
    "163202.513000",
    "163204.513000",
    "163206.513000",
    "163208.513000",
    "163210.514000",
    "163212.513000",
    "163215.014000",
    "163216.515000",
    "163218.514000",
    "163221.014000",
    "163222.513000",
    "163224.514000",
    "163226.513000",
    "163228.514000",
    "163231.015000",
    "163232.515000",
    "163234.514000",
    "163236.514000",
    "163238.514000",
    "163240.514000",
    "163242.513000",
    "163244.514000",
    "163246.514000",
    "163248.515000",
    "163251.014000",
    "163252.513000",
    "163254.513000",
    "163257.014000",
    "163258.514000",
    "163301.014000",
    "163303.014000",
    "163304.513000",
    "163306.515000",
    "163308.515000",
    "163311.014000",
    "163313.014000",
    "163314.514000",
    "163316.513000",
    "163318.513000",
    "163320.513000",
    "163322.514000",
    "163324.515000",
    "163326.515000",
    "163328.514000",
    "163330.514000",
    "163332.513000",
    "163334.513000",
    "163337.014000",
    "163338.514000",
    "163340.513000",
    "163342.514000",
    "163344.513000",
    "163346.514000",
    "163348.514000",
    "163350.514000",
    "163353.014000",
    "163354.513000",
    "163356.513000",
    "163358.515000",
    "163400.515000",
    "163402.513000",
    "163404.426000"
   ],
   "InstanceCreationTime": [
    "162907.018000",
    "162908.513000",
    "162910.513000",
    "162913.013000",
    "162914.513000",
    "162916.513000",
    "162918.515000",
    "162920.514000",
    "162923.013000",
    "162924.514000",
    "162926.513000",
    "162929.013000",
    "162930.513000",
    "162932.513000",
    "162934.514000",
    "162936.515000",
    "162938.514000",
    "162940.514000",
    "162942.513000",
    "162944.513000",
    "162946.514000",
    "162948.514000",
    "162950.514000",
    "162952.514000",
    "162954.515000",
    "162956.515000",
    "162958.514000",
    "163001.013000",
    "163002.513000",
    "163004.513000",
    "163006.514000",
    "163008.514000",
    "163010.513000",
    "163012.515000",
    "163014.513000",
    "163016.513000",
    "163018.513000",
    "163020.513000",
    "163022.514000",
    "163024.514000",
    "163026.513000",
    "163028.515000",
    "163030.515000",
    "163032.513000",
    "163034.514000",
    "163036.514000",
    "163038.513000",
    "163040.514000",
    "163042.513000",
    "163044.514000",
    "163046.515000",
    "163048.515000",
    "163050.514000",
    "163052.513000",
    "163054.514000",
    "163056.513000",
    "163059.015000",
    "163100.513000",
    "163102.513000",
    "163104.514000",
    "163106.515000",
    "163108.514000",
    "163111.014000",
    "163112.533000",
    "163114.513000",
    "163117.014000",
    "163118.514000",
    "163120.514000",
    "163122.514000",
    "163125.014000",
    "163126.513000",
    "163128.513000",
    "163131.013000",
    "163132.513000",
    "163134.514000",
    "163136.513000",
    "163139.014000",
    "163140.514000",
    "163142.513000",
    "163144.513000",
    "163147.013000",
    "163148.513000",
    "163150.513000",
    "163153.014000",
    "163154.513000",
    "163156.514000",
    "163158.515000",
    "163200.513000",
    "163202.513000",
    "163204.513000",
    "163206.513000",
    "163208.513000",
    "163210.514000",
    "163212.513000",
    "163215.014000",
    "163216.515000",
    "163218.514000",
    "163221.014000",
    "163222.513000",
    "163224.514000",
    "163226.513000",
    "163228.514000",
    "163231.015000",
    "163232.515000",
    "163234.514000",
    "163236.514000",
    "163238.514000",
    "163240.514000",
    "163242.513000",
    "163244.514000",
    "163246.514000",
    "163248.515000",
    "163251.014000",
    "163252.513000",
    "163254.513000",
    "163257.014000",
    "163258.514000",
    "163301.014000",
    "163303.014000",
    "163304.513000",
    "163306.515000",
    "163308.515000",
    "163311.014000",
    "163313.014000",
    "163314.514000",
    "163316.513000",
    "163318.513000",
    "163320.513000",
    "163322.514000",
    "163324.515000",
    "163326.515000",
    "163328.514000",
    "163330.514000",
    "163332.513000",
    "163334.513000",
    "163337.014000",
    "163338.514000",
    "163340.513000",
    "163342.514000",
    "163344.513000",
    "163346.514000",
    "163348.514000",
    "163350.514000",
    "163353.014000",
    "163354.513000",
    "163356.513000",
    "163358.515000",
    "163400.515000",
    "163402.513000",
    "163404.426000"
   ],
   "InstanceNumber": [
    1,
    2,
    3,
    4,
    5,
    6,
    7,
    8,
    9,
    10,
    11,
    12,
    13,
    14,
    15,
    16,
    17,
    18,
    19,
    20,
    21,
    22,
    23,
    24,
    25,
    26,
    27,
    28,
    29,
    30,
    31,
    32,
    33,
    34,
    35,
    36,
    37,
    38,
    39,
    40,
    41,
    42,
    43,
    44,
    45,
    46,
    47,
    48,
    49,
    50,
    51,
    52,
    53,
    54,
    55,
    56,
    57,
    58,
    59,
    60,
    61,
    62,
    63,
    64,
    65,
    66,
    67,
    68,
    69,
    70,
    71,
    72,
    73,
    74,
    75,
    76,
    77,
    78,
    79,
    80,
    81,
    82,
    83,
    84,
    85,
    86,
    87,
    88,
    89,
    90,
    91,
    92,
    93,
    94,
    95,
    96,
    97,
    98,
    99,
    100,
    101,
    102,
    103,
    104,
    105,
    106,
    107,
    108,
    109,
    110,
    111,
    112,
    113,
    114,
    115,
    116,
    117,
    118,
    119,
    120,
    121,
    122,
    123,
    124,
    125,
    126,
    127,
    128,
    129,
    130,
    131,
    132,
    133,
    134,
    135,
    136,
    137,
    138,
    139,
    140,
    141,
    142,
    143,
    144,
    145,
    146,
    147,
    148,
    149,
    150
   ],
   "LargestImagePixelValue": [
    2937,
    2882,
    2920,
    2898,
    2891,
    2883,
    2924,
    2919,
    2821,
    2870,
    2897,
    2881,
    2911,
    2881,
    2884,
    2895,
    2909,
    2858,
    2853,
    2831,
    2901,
    2870,
    2855,
    2853,
    2888,
    2898,
    2877,
    2890,
    2887,
    2875,
    2915,
    2863,
    2895,
    2879,
    2885,
    2841,
    2869,
    2869,
    2860,
    2856,
    2903,
    2884,
    2905,
    2892,
    2863,
    2876,
    2845,
    2856,
    2922,
    2869,
    2864,
    2906,
    3062,
    2886,
    2853,
    2910,
    2898,
    2910,
    2871,
    2940,
    2869,
    2917,
    2892,
    2908,
    2925,
    2881,
    2893,
    2861,
    2922,
    2903,
    2939,
    2910,
    2915,
    2884,
    2902,
    2860,
    2902,
    2963,
    2915,
    2940,
    2929,
    2941,
    2895,
    2950,
    2880,
    2916,
    2908,
    2937,
    2883,
    2872,
    2901,
    2908,
    2862,
    2917,
    2900,
    2938,
    2926,
    2923,
    2884,
    2902,
    2928,
    2931,
    2905,
    2950,
    2930,
    2936,
    2942,
    2953,
    3075,
    2955,
    2982,
    2951,
    2952,
    2950,
    2972,
    2940,
    2933,
    2953,
    2916,
    2943,
    2869,
    2919,
    2927,
    2926,
    2948,
    2860,
    2938,
    2912,
    2920,
    2894,
    2870,
    2915,
    2904,
    2988,
    2923,
    2950,
    2981,
    2914,
    3204,
    2955,
    2957,
    2969,
    2914,
    2968,
    2957,
    2961,
    2918,
    2956,
    2900,
    2913
   ],
   "WindowCenter": [
    809.0,
    808.0,
    807.0,
    807.0,
    807.0,
    805.0,
    805.0,
    805.0,
    804.0,
    805.0,
    805.0,
    804.0,
    803.0,
    803.0,
    803.0,
    804.0,
    805.0,
    805.0,
    804.0,
    804.0,
    804.0,
    803.0,
    803.0,
    803.0,
    803.0,
    804.0,
    804.0,
    804.0,
    803.0,
    804.0,
    805.0,
    805.0,
    806.0,
    805.0,
    805.0,
    802.0,
    802.0,
    801.0,
    802.0,
    804.0,
    805.0,
    805.0,
    804.0,
    804.0,
    804.0,
    805.0,
    804.0,
    805.0,
    805.0,
    805.0,
    804.0,
    805.0,
    806.0,
    804.0,
    805.0,
    805.0,
    805.0,
    805.0,
    806.0,
    806.0,
    805.0,
    805.0,
    804.0,
    805.0,
    805.0,
    806.0,
    805.0,
    805.0,
    806.0,
    805.0,
    804.0,
    803.0,
    804.0,
    805.0,
    805.0,
    804.0,
    805.0,
    805.0,
    805.0,
    805.0,
    805.0,
    806.0,
    805.0,
    805.0,
    803.0,
    804.0,
    805.0,
    805.0,
    804.0,
    804.0,
    805.0,
    805.0,
    805.0,
    806.0,
    806.0,
    806.0,
    806.0,
    806.0,
    807.0,
    806.0,
    806.0,
    805.0,
    805.0,
    805.0,
    805.0,
    805.0,
    805.0,
    806.0,
    807.0,
    805.0,
    805.0,
    804.0,
    805.0,
    805.0,
    805.0,
    805.0,
    805.0,
    806.0,
    806.0,
    806.0,
    805.0,
    806.0,
    805.0,
    805.0,
    805.0,
    805.0,
    806.0,
    805.0,
    806.0,
    806.0,
    806.0,
    805.0,
    805.0,
    806.0,
    805.0,
    806.0,
    805.0,
    804.0,
    807.0,
    806.0,
    806.0,
    805.0,
    804.0,
    805.0,
    804.0,
    804.0,
    804.0,
    805.0,
    805.0,
    805.0
   ],
   "WindowWidth": [
    1705.0,
    1700.0,
    1700.0,
    1700.0,
    1698.0,
    1695.0,
    1694.0,
    1694.0,
    1692.0,
    1693.0,
    1694.0,
    1692.0,
    1690.0,
    1691.0,
    1690.0,
    1693.0,
    1694.0,
    1694.0,
    1693.0,
    1691.0,
    1692.0,
    1690.0,
    1689.0,
    1689.0,
    1690.0,
    1692.0,
    1692.0,
    1693.0,
    1691.0,
    1691.0,
    1695.0,
    1695.0,
    1697.0,
    1695.0,
    1693.0,
    1687.0,
    1686.0,
    1685.0,
    1687.0,
    1691.0,
    1695.0,
    1693.0,
    1693.0,
    1692.0,
    1692.0,
    1694.0,
    1692.0,
    1693.0,
    1694.0,
    1693.0,
    1692.0,
    1694.0,
    1696.0,
    1692.0,
    1692.0,
    1694.0,
    1693.0,
    1694.0,
    1695.0,
    1696.0,
    1694.0,
    1695.0,
    1692.0,
    1693.0,
    1695.0,
    1695.0,
    1693.0,
    1694.0,
    1696.0,
    1693.0,
    1690.0,
    1690.0,
    1692.0,
    1693.0,
    1694.0,
    1692.0,
    1694.0,
    1694.0,
    1693.0,
    1694.0,
    1693.0,
    1696.0,
    1694.0,
    1693.0,
    1688.0,
    1692.0,
    1695.0,
    1694.0,
    1692.0,
    1692.0,
    1693.0,
    1694.0,
    1694.0,
    1696.0,
    1696.0,
    1696.0,
    1695.0,
    1697.0,
    1698.0,
    1697.0,
    1695.0,
    1693.0,
    1693.0,
    1694.0,
    1695.0,
    1694.0,
    1693.0,
    1696.0,
    1699.0,
    1695.0,
    1693.0,
    1692.0,
    1694.0,
    1694.0,
    1694.0,
    1695.0,
    1694.0,
    1696.0,
    1696.0,
    1697.0,
    1695.0,
    1696.0,
    1694.0,
    1693.0,
    1695.0,
    1695.0,
    1696.0,
    1694.0,
    1696.0,
    1696.0,
    1695.0,
    1694.0,
    1694.0,
    1696.0,
    1694.0,
    1696.0,
    1694.0,
    1690.0,
    1698.0,
    1694.0,
    1695.0,
    1693.0,
    1691.0,
    1694.0,
    1692.0,
    1692.0,
    1692.0,
    1695.0,
    1694.0,
    1692.0
   ]
  },
  "slices": {}
 }
}