{
 "AcquisitionMatrixPE": 100,
 "AcquisitionNumber": 1,
 "AcquisitionTime": "15:48:18.142500",
 "BandwidthPerPixelPhaseEncode": 18.519,
 "BaseResolution": 100,
 "BodyPartExamined": "BRAIN",
 "ConsistencyInfo": "N4_VE11C_LATEST_20160120",
 "ConversionSoftware": "dcm2niix",
 "ConversionSoftwareVersion": "v1.0.20180622 GCC4.9.2",
 "DerivedVendorReportedEchoSpacing": 0.000539986,
 "DeviceSerialNumber": "166078",
 "DwellTime": 2.1e-06,
 "EchoTime": 0.034,
 "EchoTrainLength": 100,
 "EffectiveEchoSpacing": 0.000539986,
 "FlipAngle": 90,
 "ImageOrientationPatientDICOM": [
  1,
  -7.37861e-06,
  -6.87783e-05,
  2.87274e-08,
  0.994339,
  -0.106256
 ],
 "ImageType": [
  "ORIGINAL",
  "PRIMARY",
  "M",
  "ND",
  "MOSAIC"
 ],
 "InPlanePhaseEncodingDirectionDICOM": "COL",
 "InstitutionAddress": "Street_StreetNo_Bei_Jing_District_CN_ZIP",
 "InstitutionName": "BeiJing_Normal_University",
 "InstitutionalDepartmentName": "Department",
 "MRAcquisitionType": "2D",
 "MagneticFieldStrength": 3,
 "Manufacturer": "Siemens",
 "ManufacturersModelName": "Prisma",
 "Modality": "MR",
 "MultibandAccelerationFactor": 3,
 "PartialFourier": 1,
 "PatientPosition": "HFS",
 "PercentPhaseFOV": 100,
 "PhaseEncodingDirection": "j-",
 "PhaseEncodingSteps": 100,
 "PhaseResolution": 1,
 "PixelBandwidth": 2380,
 "ProcedureStepDescription": "BNU_P2018_64CH_Zhen.ZongLei",
 "ProtocolName": "bold_100x100_s3_2x2x2_retino_150",
 "PulseSequenceDetails": "%SiemensSeq%_ep2d_bold",
 "ReceiveCoilActiveElements": "HC1-7;NC1",
 "ReceiveCoilName": "HeadNeck_64",
 "ReconMatrixPE": 100,
 "RepetitionTime": 2,
 "SAR": 0.0816931,
 "ScanOptions": "FS",
 "ScanningSequence": "EP",
 "SequenceName": "_epfid2d1_100",
 "SequenceVariant": "SK",
 "SeriesDescription": "bold_100x100_s3_2x2x2_retino_150",
 "SeriesNumber": 7,
 "ShimSetting": [
  -5461,
  -11518,
  -1248,
  228,
  -37,
  -154,
  -137,
  42
 ],
 "SliceThickness": 2,
 "SliceTiming": [
  1.485,
  0,
  0.99,
  0.0825,
  1.0725,
  0.165,
  1.155,
  0.2475,
  1.2375,
  0.33,
  1.32,
  0.4125,
  1.4025,
  0.5775,
  1.5675,
  0.66,
  1.65,
  0.7425,
  1.7325,
  0.825,
  1.815,
  0.9075,
  1.8975,
  0.495,
  1.485,
  0,
  0.99,
  0.0825,
  1.0725,
  0.165,
  1.155,
  0.2475,
  1.2375,
  0.33,
  1.32,
  0.4125,
  1.4025,
  0.5775,
  1.5675,
  0.66,
  1.65,
  0.7425,
  1.7325,
  0.825,
  1.815,
  0.9075,
  1.8975,
  0.495,
  1.485,
  0,
  0.99,
  0.0825,
  1.0725,
  0.165,
  1.155,
  0.2475,
  1.2375,
  0.33,
  1.32,
  0.4125,
  1.4025,
  0.5775,
  1.5675,
  0.66,
  1.65,
  0.7425,
  1.7325,
  0.825,
  1.815,
  0.9075,
  1.8975,
  0.495
 ],
 "SoftwareVersions": "syngo_MR_E11",
 "SpacingBetweenSlices": 2,
 "StationName": "AWP166078",
 "TaskName": "prf",
 "TotalReadoutTime": 0.0534586,
 "TxRefAmp": 249.589,
 "dcmmeta_affine": [
  [
   -2.0,
   5.745484088492958e-08,
   -0.000138345843879506,
   100.02751922607422
  ],
  [
   1.4757224562345073e-05,
   1.9886776208877563,
   -0.2125122994184494,
   -81.75200653076172
  ],
  [
   -0.00013755651889368892,
   0.2125122845172882,
   1.9886776208877563,
   -79.15380096435547
  ],
  [
   0.0,
   0.0,
   0.0,
   1.0
  ]
 ],
 "dcmmeta_reorient_transform": [
  [
   0.0,
   -1.0,
   0.0,
   99.0
  ],
  [
   1.0,
   0.0,
   0.0,
   0.0
  ],
  [
   0.0,
   0.0,
   1.0,
   0.0
  ],
  [
   0.0,
   0.0,
   0.0,
   1.0
  ]
 ],
 "dcmmeta_shape": [
  100,
  100,
  72,
  150
 ],
 "dcmmeta_slice_dim": 2,
 "dcmmeta_version": 0.6,
 "global": {
  "const": {
   "AcquisitionMatrix": [
    100,
    0,
    0,
    100
   ],
   "AngioFlag": "N",
   "BitsAllocated": 16,
   "BitsStored": 12,
   "BodyPartExamined": "BRAIN",
   "Columns": 900,
   "EchoNumbers": 1,
   "EchoTime": 34.0,
   "EchoTrainLength": 100,
   "FlipAngle": 90.0,
   "HighBit": 11,
   "ImageOrientationPatient": [
    0.99999999760755,
    -7.37861208e-06,
    -6.87782609e-05,
    2.8727421e-08,
    0.9943387912732,
    -0.1062561441487
   ],
   "ImagePositionPatient": [
    -900.02754367261,
    -910.59220774297,
    26.944856316083
   ],
   "ImageType": [
    "ORIGINAL",
    "PRIMARY",
    "M",
    "ND",
    "MOSAIC"
   ],
   "ImagedNucleus": "1H",
   "ImagingFrequency": 123.25776,
   "InPlanePhaseEncodingDirection": "COL",
   "MRAcquisitionType": "2D",
   "MagneticFieldStrength": 3.0,
   "Manufacturer": "SIEMENS",
   "ManufacturerModelName": "Prisma",
   "Modality": "MR",
   "NumberOfAverages": 1.0,
   "NumberOfPhaseEncodingSteps": 100,
   "PercentPhaseFieldOfView": 100.0,
   "PercentSampling": 100.0,
   "PerformedProcedureStepStartTime": "151925.678000",
   "PhotometricInterpretation": "MONOCHROME2",
   "PixelBandwidth": 2380.0,
   "PixelRepresentation": 0,
   "PixelSpacing": [
    2.0,
    2.0
   ],
   "ProtocolName": "bold_100x100_s3_2x2x2_retino_150",
   "RepetitionTime": 2000.0,
   "Rows": 900,
   "SAR": 0.08169310377612,
   "SamplesPerPixel": 1,
   "ScanOptions": "FS",
   "ScanningSequence": "EP",
   "SequenceName": "*epfid2d1_100",
   "SequenceVariant": "SK",
   "SeriesDescription": "bold_100x100_s3_2x2x2_retino_150",
   "SeriesNumber": 7,
   "SeriesTime": "154820.538000",
   "SliceLocation": -70.025958386435,
   "SliceThickness": 2.0,
   "SmallestImagePixelValue": 0,
   "SoftwareVersions": "syngo MR E11",
   "SpacingBetweenSlices": 2.0000000766297,
   "SpecificCharacterSet": "ISO_IR 100",
   "StudyID": "1",
   "StudyTime": "151925.613000",
   "TransmitCoilName": "Body",
   "VariableFlipAngleFlag": "N",
   "WindowCenterWidthExplanation": "Algo1",
   "dBdt": 0.0
  },
  "slices": {}
 },
 "time": {
  "samples": {
   "AcquisitionNumber": [
    1,
    2,
    3,
    4,
    5,
    6,
    7,
    8,
    9,
    10,
    11,
    12,
    13,
    14,
    15,
    16,
    17,
    18,
    19,
    20,
    21,
    22,
    23,
    24,
    25,
    26,
    27,
    28,
    29,
    30,
    31,
    32,
    33,
    34,
    35,
    36,
    37,
    38,
    39,
    40,
    41,
    42,
    43,
    44,
    45,
    46,
    47,
    48,
    49,
    50,
    51,
    52,
    53,
    54,
    55,
    56,
    57,
    58,
    59,
    60,
    61,
    62,
    63,
    64,
    65,
    66,
    67,
    68,
    69,
    70,
    71,
    72,
    73,
    74,
    75,
    76,
    77,
    78,
    79,
    80,
    81,
    82,
    83,
    84,
    85,
    86,
    87,
    88,
    89,
    90,
    91,
    92,
    93,
    94,
    95,
    96,
    97,
    98,
    99,
    100,
    101,
    102,
    103,
    104,
    105,
    106,
    107,
    108,
    109,
    110,
    111,
    112,
    113,
    114,
    115,
    116,
    117,
    118,
    119,
    120,
    121,
    122,
    123,
    124,
    125,
    126,
    127,
    128,
    129,
    130,
    131,
    132,
    133,
    134,
    135,
    136,
    137,
    138,
    139,
    140,
    141,
    142,
    143,
    144,
    145,
    146,
    147,
    148,
    149,
    150
   ],
   "AcquisitionTime": [
    "154818.142500",
    "154820.142500",
    "154822.142500",
    "154824.142500",
    "154826.142500",
    "154828.142500",
    "154830.142500",
    "154832.142500",
    "154834.142500",
    "154836.142500",
    "154838.142500",
    "154840.142500",
    "154842.142500",
    "154844.142500",
    "154846.142500",
    "154848.142500",
    "154850.142500",
    "154852.142500",
    "154854.142500",
    "154856.142500",
    "154858.142500",
    "154900.142500",
    "154902.142500",
    "154904.142500",
    "154906.142500",
    "154908.142500",
    "154910.142500",
    "154912.142500",
    "154914.142500",
    "154916.142500",
    "154918.142500",
    "154920.142500",
    "154922.142500",
    "154924.142500",
    "154926.142500",
    "154928.142500",
    "154930.142500",
    "154932.142500",
    "154934.142500",
    "154936.142500",
    "154938.142500",
    "154940.142500",
    "154942.142500",
    "154944.142500",
    "154946.142500",
    "154948.142500",
    "154950.142500",
    "154952.142500",
    "154954.142500",
    "154956.142500",
    "154958.142500",
    "155000.142500",
    "155002.142500",
    "155004.142500",
    "155006.142500",
    "155008.142500",
    "155010.142500",
    "155012.142500",
    "155014.142500",
    "155016.142500",
    "155018.142500",
    "155020.142500",
    "155022.142500",
    "155024.142500",
    "155026.142500",
    "155028.142500",
    "155030.142500",
    "155032.142500",
    "155034.142500",
    "155036.142500",
    "155038.142500",
    "155040.142500",
    "155042.142500",
    "155044.142500",
    "155046.142500",
    "155048.142500",
    "155050.142500",
    "155052.142500",
    "155054.142500",
    "155056.142500",
    "155058.142500",
    "155100.142500",
    "155102.142500",
    "155104.142500",
    "155106.142500",
    "155108.142500",
    "155110.142500",
    "155112.142500",
    "155114.142500",
    "155116.142500",
    "155118.142500",
    "155120.142500",
    "155122.142500",
    "155124.142500",
    "155126.142500",
    "155128.142500",
    "155130.142500",
    "155132.142500",
    "155134.142500",
    "155136.142500",
    "155138.142500",
    "155140.142500",
    "155142.142500",
    "155144.142500",
    "155146.142500",
    "155148.142500",
    "155150.142500",
    "155152.142500",
    "155154.142500",
    "155156.142500",
    "155158.142500",
    "155200.142500",
    "155202.142500",
    "155204.142500",
    "155206.142500",
    "155208.142500",
    "155210.142500",
    "155212.142500",
    "155214.142500",
    "155216.142500",
    "155218.142500",
    "155220.142500",
    "155222.142500",
    "155224.142500",
    "155226.142500",
    "155228.142500",
    "155230.142500",
    "155232.142500",
    "155234.142500",
    "155236.142500",
    "155238.142500",
    "155240.142500",
    "155242.142500",
    "155244.142500",
    "155246.142500",
    "155248.142500",
    "155250.142500",
    "155252.142500",
    "155254.142500",
    "155256.142500",
    "155258.142500",
    "155300.142500",
    "155302.142500",
    "155304.142500",
    "155306.142500",
    "155308.142500",
    "155310.142500",
    "155312.142500",
    "155314.142500",
    "155316.142500"
   ],
   "ContentTime": [
    "154820.542000",
    "154822.038000",
    "154824.036000",
    "154826.037000",
    "154828.036000",
    "154830.037000",
    "154832.038000",
    "154834.037000",
    "154836.038000",
    "154838.037000",
    "154840.037000",
    "154842.036000",
    "154844.036000",
    "154846.037000",
    "154848.037000",
    "154850.037000",
    "154852.037000",
    "154854.038000",
    "154856.038000",
    "154858.037000",
    "154900.037000",
    "154902.036000",
    "154904.037000",
    "154906.037000",
    "154908.037000",
    "154910.038000",
    "154912.038000",
    "154914.037000",
    "154916.037000",
    "154918.036000",
    "154920.036000",
    "154922.036000",
    "154924.038000",
    "154926.038000",
    "154928.038000",
    "154930.037000",
    "154932.037000",
    "154934.037000",
    "154936.037000",
    "154938.037000",
    "154940.037000",
    "154942.037000",
    "154944.037000",
    "154946.037000",
    "154948.038000",
    "154950.038000",
    "154952.036000",
    "154954.037000",
    "154956.037000",
    "154958.036000",
    "155000.038000",
    "155002.038000",
    "155004.038000",
    "155006.038000",
    "155008.037000",
    "155010.037000",
    "155012.036000",
    "155014.036000",
    "155016.037000",
    "155018.038000",
    "155020.037000",
    "155022.037000",
    "155024.038000",
    "155026.037000",
    "155028.037000",
    "155030.036000",
    "155032.036000",
    "155034.038000",
    "155036.037000",
    "155038.038000",
    "155040.037000",
    "155042.037000",
    "155044.037000",
    "155046.037000",
    "155048.036000",
    "155050.037000",
    "155052.037000",
    "155054.038000",
    "155056.037000",
    "155058.037000",
    "155100.037000",
    "155102.036000",
    "155104.037000",
    "155106.037000",
    "155108.037000",
    "155110.038000",
    "155112.037000",
    "155114.038000",
    "155116.037000",
    "155118.038000",
    "155120.037000",
    "155122.037000",
    "155124.036000",
    "155126.037000",
    "155128.037000",
    "155130.037000",
    "155132.038000",
    "155134.038000",
    "155136.037000",
    "155138.036000",
    "155140.037000",
    "155142.037000",
    "155144.038000",
    "155146.038000",
    "155148.037000",
    "155150.038000",
    "155152.038000",
    "155154.036000",
    "155156.036000",
    "155158.037000",
    "155200.036000",
    "155202.038000",
    "155204.038000",
    "155206.038000",
    "155208.037000",
    "155210.038000",
    "155212.037000",
    "155214.036000",
    "155216.037000",
    "155218.038000",
    "155220.038000",
    "155222.038000",
    "155224.037000",
    "155226.037000",
    "155228.037000",
    "155230.036000",
    "155232.037000",
    "155234.036000",
    "155236.037000",
    "155238.038000",
    "155240.038000",
    "155242.038000",
    "155244.038000",
    "155246.036000",
    "155248.036000",
    "155250.037000",
    "155252.036000",
    "155254.037000",
    "155256.037000",
    "155258.037000",
    "155300.038000",
    "155302.037000",
    "155304.036000",
    "155306.037000",
    "155308.036000",
    "155310.037000",
    "155312.037000",
    "155314.038000",
    "155316.038000",
    "155317.829000"
   ],
   "InstanceCreationTime": [
    "154820.542000",
    "154822.038000",
    "154824.036000",
    "154826.037000",
    "154828.036000",
    "154830.037000",
    "154832.038000",
    "154834.037000",
    "154836.038000",
    "154838.037000",
    "154840.037000",
    "154842.036000",
    "154844.036000",
    "154846.037000",
    "154848.037000",
    "154850.037000",
    "154852.037000",
    "154854.038000",
    "154856.038000",
    "154858.037000",
    "154900.037000",
    "154902.036000",
    "154904.037000",
    "154906.037000",
    "154908.037000",
    "154910.038000",
    "154912.038000",
    "154914.037000",
    "154916.037000",
    "154918.036000",
    "154920.036000",
    "154922.036000",
    "154924.038000",
    "154926.038000",
    "154928.038000",
    "154930.037000",
    "154932.037000",
    "154934.037000",
    "154936.037000",
    "154938.037000",
    "154940.037000",
    "154942.037000",
    "154944.037000",
    "154946.037000",
    "154948.038000",
    "154950.038000",
    "154952.036000",
    "154954.037000",
    "154956.037000",
    "154958.036000",
    "155000.038000",
    "155002.038000",
    "155004.038000",
    "155006.038000",
    "155008.037000",
    "155010.037000",
    "155012.036000",
    "155014.036000",
    "155016.037000",
    "155018.038000",
    "155020.037000",
    "155022.037000",
    "155024.038000",
    "155026.037000",
    "155028.037000",
    "155030.036000",
    "155032.036000",
    "155034.038000",
    "155036.037000",
    "155038.038000",
    "155040.037000",
    "155042.037000",
    "155044.037000",
    "155046.037000",
    "155048.036000",
    "155050.037000",
    "155052.037000",
    "155054.038000",
    "155056.037000",
    "155058.037000",
    "155100.037000",
    "155102.036000",
    "155104.037000",
    "155106.037000",
    "155108.037000",
    "155110.038000",
    "155112.037000",
    "155114.038000",
    "155116.037000",
    "155118.038000",
    "155120.037000",
    "155122.037000",
    "155124.036000",
    "155126.037000",
    "155128.037000",
    "155130.037000",
    "155132.038000",
    "155134.038000",
    "155136.037000",
    "155138.036000",
    "155140.037000",
    "155142.037000",
    "155144.038000",
    "155146.038000",
    "155148.037000",
    "155150.038000",
    "155152.038000",
    "155154.036000",
    "155156.036000",
    "155158.037000",
    "155200.036000",
    "155202.038000",
    "155204.038000",
    "155206.038000",
    "155208.037000",
    "155210.038000",
    "155212.037000",
    "155214.036000",
    "155216.037000",
    "155218.038000",
    "155220.038000",
    "155222.038000",
    "155224.037000",
    "155226.037000",
    "155228.037000",
    "155230.036000",
    "155232.037000",
    "155234.036000",
    "155236.037000",
    "155238.038000",
    "155240.038000",
    "155242.038000",
    "155244.038000",
    "155246.036000",
    "155248.036000",
    "155250.037000",
    "155252.036000",
    "155254.037000",
    "155256.037000",
    "155258.037000",
    "155300.038000",
    "155302.037000",
    "155304.036000",
    "155306.037000",
    "155308.036000",
    "155310.037000",
    "155312.037000",
    "155314.038000",
    "155316.038000",
    "155317.829000"
   ],
   "InstanceNumber": [
    1,
    2,
    3,
    4,
    5,
    6,
    7,
    8,
    9,
    10,
    11,
    12,
    13,
    14,
    15,
    16,
    17,
    18,
    19,
    20,
    21,
    22,
    23,
    24,
    25,
    26,
    27,
    28,
    29,
    30,
    31,
    32,
    33,
    34,
    35,
    36,
    37,
    38,
    39,
    40,
    41,
    42,
    43,
    44,
    45,
    46,
    47,
    48,
    49,
    50,
    51,
    52,
    53,
    54,
    55,
    56,
    57,
    58,
    59,
    60,
    61,
    62,
    63,
    64,
    65,
    66,
    67,
    68,
    69,
    70,
    71,
    72,
    73,
    74,
    75,
    76,
    77,
    78,
    79,
    80,
    81,
    82,
    83,
    84,
    85,
    86,
    87,
    88,
    89,
    90,
    91,
    92,
    93,
    94,
    95,
    96,
    97,
    98,
    99,
    100,
    101,
    102,
    103,
    104,
    105,
    106,
    107,
    108,
    109,
    110,
    111,
    112,
    113,
    114,
    115,
    116,
    117,
    118,
    119,
    120,
    121,
    122,
    123,
    124,
    125,
    126,
    127,
    128,
    129,
    130,
    131,
    132,
    133,
    134,
    135,
    136,
    137,
    138,
    139,
    140,
    141,
    142,
    143,
    144,
    145,
    146,
    147,
    148,
    149,
    150
   ],
   "LargestImagePixelValue": [
    2906,
    2853,
    2793,
    2833,
    2844,
    2878,
    2838,
    2847,
    2852,
    2937,
    2835,
    2858,
    2880,
    2846,
    2823,
    2852,
    2905,
    2845,
    2843,
    2845,
    2864,
    2851,
    2849,
    2848,
    2825,
    2867,
    2876,
    2829,
    2888,
    2898,
    2805,
    2806,
    2791,
    2806,
    2829,
    2847,
    2854,
    2803,
    2861,
    2832,
    2796,
    2808,
    2813,
    2828,
    2818,
    2779,
    2837,
    2797,
    2823,
    2819,
    2794,
    2786,
    2812,
    2834,
    2800,
    2842,
    2817,
    2794,
    2793,
    2779,
    2832,
    2827,
    2812,
    2859,
    2781,
    2818,
    2925,
    2897,
    2858,
    2853,
    2809,
    2830,
    2793,
    2824,
    2820,
    2871,
    2834,
    2843,
    2862,
    2855,
    2883,
    2823,
    2826,
    2799,
    2806,
    2864,
    2832,
    2808,
    2798,
    2800,
    2787,
    2814,
    2773,
    2799,
    2780,
    2815,
    2819,
    2825,
    2823,
    2823,
    2838,
    2834,
    2815,
    2774,
    2773,
    2826,
    2808,
    2834,
    2865,
    2917,
    2835,
    2859,
    2785,
    2815,
    2774,
    2806,
    2822,
    2816,
    2779,
    2796,
    2787,
    2784,
    2847,
    2853,
    2853,
    2857,
    2856,
    2867,
    2890,
    2863,
    2898,
    2825,
    2837,
    2839,
    2856,
    2832,
    2847,
    2866,
    2819,
    2885,
    2866,
    2838,
    2862,
    2907,
    2845,
    2846,
    2829,
    2837,
    2864,
    2818
   ],
   "WindowCenter": [
    806.0,
    804.0,
    803.0,
    803.0,
    803.0,
    802.0,
    801.0,
    801.0,
    801.0,
    802.0,
    801.0,
    802.0,
    801.0,
    801.0,
    801.0,
    802.0,
    802.0,
    802.0,
    802.0,
    801.0,
    801.0,
    801.0,
    801.0,
    801.0,
    801.0,
    801.0,
    803.0,
    805.0,
    806.0,
    804.0,
    801.0,
    800.0,
    799.0,
    798.0,
    799.0,
    800.0,
    801.0,
    801.0,
    802.0,
    802.0,
    800.0,
    799.0,
    800.0,
    800.0,
    800.0,
    800.0,
    801.0,
    801.0,
    802.0,
    802.0,
    801.0,
    801.0,
    801.0,
    800.0,
    800.0,
    803.0,
    803.0,
    803.0,
    802.0,
    803.0,
    804.0,
    803.0,
    802.0,
    802.0,
    800.0,
    801.0,
    803.0,
    802.0,
    802.0,
    802.0,
    801.0,
    802.0,
    802.0,
    805.0,
    805.0,
    804.0,
    802.0,
    800.0,
    800.0,
    799.0,
    800.0,
    799.0,
    800.0,
    801.0,
    802.0,
    803.0,
    802.0,
    802.0,
    803.0,
    803.0,
    803.0,
    802.0,
    802.0,
    801.0,
    800.0,
    800.0,
    800.0,
    800.0,
    800.0,
    800.0,
    800.0,
    799.0,
    799.0,
    798.0,
    799.0,
    800.0,
    801.0,
    802.0,
    803.0,
    804.0,
    804.0,
    805.0,
    805.0,
    803.0,
    800.0,
    798.0,
    798.0,
    798.0,
    798.0,
    799.0,
    800.0,
    801.0,
    802.0,
    802.0,
    802.0,
    802.0,
    803.0,
    803.0,
    804.0,
    804.0,
    803.0,
    802.0,
    801.0,
    801.0,
    803.0,
    802.0,
    801.0,
    801.0,
    800.0,
    802.0,
    802.0,
    802.0,
    803.0,
    803.0,
    802.0,
    801.0,
    800.0,
    800.0,
    801.0,
    802.0
   ],
   "WindowWidth": [
    1697.0,
    1692.0,
    1690.0,
    1690.0,
    1689.0,
    1688.0,
    1686.0,
    1685.0,
    1685.0,
    1688.0,
    1686.0,
    1687.0,
    1686.0,
    1685.0,
    1685.0,
    1687.0,
    1689.0,
    1689.0,
    1687.0,
    1686.0,
    1685.0,
    1685.0,
    1685.0,
    1685.0,
    1685.0,
    1685.0,
    1692.0,
    1696.0,
    1697.0,
    1693.0,
    1685.0,
    1682.0,
    1680.0,
    1679.0,
    1680.0,
    1682.0,
    1685.0,
    1686.0,
    1689.0,
    1687.0,
    1682.0,
    1681.0,
    1681.0,
    1682.0,
    1682.0,
    1682.0,
    1684.0,
    1684.0,
    1686.0,
    1686.0,
    1686.0,
    1684.0,
    1684.0,
    1683.0,
    1682.0,
    1688.0,
    1690.0,
    1689.0,
    1687.0,
    1689.0,
    1692.0,
    1690.0,
    1687.0,
    1686.0,
    1683.0,
    1685.0,
    1689.0,
    1687.0,
    1686.0,
    1687.0,
    1685.0,
    1686.0,
    1688.0,
    1695.0,
    1695.0,
    1691.0,
    1687.0,
    1683.0,
    1681.0,
    1680.0,
    1682.0,
    1680.0,
    1683.0,
    1684.0,
    1687.0,
    1688.0,
    1687.0,
    1687.0,
    1688.0,
    1690.0,
    1689.0,
    1687.0,
    1687.0,
    1684.0,
    1683.0,
    1682.0,
    1681.0,
    1681.0,
    1681.0,
    1682.0,
    1683.0,
    1681.0,
    1679.0,
    1678.0,
    1681.0,
    1684.0,
    1685.0,
    1687.0,
    1689.0,
    1691.0,
    1692.0,
    1695.0,
    1693.0,
    1689.0,
    1682.0,
    1677.0,
    1677.0,
    1677.0,
    1679.0,
    1681.0,
    1683.0,
    1685.0,
    1687.0,
    1687.0,
    1687.0,
    1687.0,
    1688.0,
    1688.0,
    1691.0,
    1691.0,
    1689.0,
    1686.0,
    1686.0,
    1686.0,
    1688.0,
    1688.0,
    1685.0,
    1685.0,
    1683.0,
    1686.0,
    1687.0,
    1688.0,
    1689.0,
    1689.0,
    1686.0,
    1684.0,
    1682.0,
    1683.0,
    1686.0,
    1687.0
   ]
  },
  "slices": {}
 }
}