{
 "AcquisitionMatrixPE": 100,
 "AcquisitionNumber": 1,
 "AcquisitionTime": "15:29:53.050000",
 "BandwidthPerPixelPhaseEncode": 18.519,
 "BaseResolution": 100,
 "BodyPartExamined": "BRAIN",
 "ConsistencyInfo": "N4_VE11C_LATEST_20160120",
 "ConversionSoftware": "dcm2niix",
 "ConversionSoftwareVersion": "v1.0.20180622 GCC4.9.2",
 "DerivedVendorReportedEchoSpacing": 0.000539986,
 "DeviceSerialNumber": "166078",
 "DwellTime": 2.1e-06,
 "EchoTime": 0.034,
 "EchoTrainLength": 100,
 "EffectiveEchoSpacing": 0.000539986,
 "FlipAngle": 90,
 "ImageOrientationPatientDICOM": [
  1,
  -7.37861e-06,
  -6.87783e-05,
  2.87274e-08,
  0.994339,
  -0.106256
 ],
 "ImageType": [
  "ORIGINAL",
  "PRIMARY",
  "M",
  "ND",
  "MOSAIC"
 ],
 "InPlanePhaseEncodingDirectionDICOM": "COL",
 "InstitutionAddress": "Street_StreetNo_Bei_Jing_District_CN_ZIP",
 "InstitutionName": "BeiJing_Normal_University",
 "InstitutionalDepartmentName": "Department",
 "MRAcquisitionType": "2D",
 "MagneticFieldStrength": 3,
 "Manufacturer": "Siemens",
 "ManufacturersModelName": "Prisma",
 "Modality": "MR",
 "MultibandAccelerationFactor": 3,
 "PartialFourier": 1,
 "PatientPosition": "HFS",
 "PercentPhaseFOV": 100,
 "PhaseEncodingDirection": "j-",
 "PhaseEncodingSteps": 100,
 "PhaseResolution": 1,
 "PixelBandwidth": 2380,
 "ProcedureStepDescription": "BNU_P2018_64CH_Zhen.ZongLei",
 "ProtocolName": "bold_100x100_s3_2x2x2_retino_150",
 "PulseSequenceDetails": "%SiemensSeq%_ep2d_bold",
 "ReceiveCoilActiveElements": "HC1-7;NC1",
 "ReceiveCoilName": "HeadNeck_64",
 "ReconMatrixPE": 100,
 "RepetitionTime": 2,
 "SAR": 0.0816931,
 "ScanOptions": "FS",
 "ScanningSequence": "EP",
 "SequenceName": "_epfid2d1_100",
 "SequenceVariant": "SK",
 "SeriesDescription": "bold_100x100_s3_2x2x2_retino_150",
 "SeriesNumber": 4,
 "ShimSetting": [
  -5461,
  -11518,
  -1248,
  228,
  -37,
  -154,
  -137,
  42
 ],
 "SliceThickness": 2,
 "SliceTiming": [
  1.485,
  0,
  0.99,
  0.0825,
  1.0725,
  0.165,
  1.155,
  0.2475,
  1.2375,
  0.33,
  1.32,
  0.4125,
  1.4025,
  0.5775,
  1.5675,
  0.66,
  1.65,
  0.7425,
  1.7325,
  0.825,
  1.815,
  0.9075,
  1.8975,
  0.495,
  1.485,
  0,
  0.99,
  0.0825,
  1.0725,
  0.165,
  1.155,
  0.2475,
  1.2375,
  0.33,
  1.32,
  0.4125,
  1.4025,
  0.5775,
  1.5675,
  0.66,
  1.65,
  0.7425,
  1.7325,
  0.825,
  1.815,
  0.9075,
  1.8975,
  0.495,
  1.485,
  0,
  0.99,
  0.0825,
  1.0725,
  0.165,
  1.155,
  0.2475,
  1.2375,
  0.33,
  1.32,
  0.4125,
  1.4025,
  0.5775,
  1.5675,
  0.66,
  1.65,
  0.7425,
  1.7325,
  0.825,
  1.815,
  0.9075,
  1.8975,
  0.495
 ],
 "SoftwareVersions": "syngo_MR_E11",
 "SpacingBetweenSlices": 2,
 "StationName": "AWP166078",
 "TaskName": "prf",
 "TotalReadoutTime": 0.0534586,
 "TxRefAmp": 249.589,
 "dcmmeta_affine": [
  [
   -2.0,
   5.745484088492958e-08,
   -0.000138345843879506,
   100.02751922607422
  ],
  [
   1.4757224562345073e-05,
   1.9886776208877563,
   -0.2125122994184494,
   -81.75200653076172
  ],
  [
   -0.00013755651889368892,
   0.2125122845172882,
   1.9886776208877563,
   -79.15380096435547
  ],
  [
   0.0,
   0.0,
   0.0,
   1.0
  ]
 ],
 "dcmmeta_reorient_transform": [
  [
   0.0,
   -1.0,
   0.0,
   99.0
  ],
  [
   1.0,
   0.0,
   0.0,
   0.0
  ],
  [
   0.0,
   0.0,
   1.0,
   0.0
  ],
  [
   0.0,
   0.0,
   0.0,
   1.0
  ]
 ],
 "dcmmeta_shape": [
  100,
  100,
  72,
  150
 ],
 "dcmmeta_slice_dim": 2,
 "dcmmeta_version": 0.6,
 "global": {
  "const": {
   "AcquisitionMatrix": [
    100,
    0,
    0,
    100
   ],
   "AngioFlag": "N",
   "BitsAllocated": 16,
   "BitsStored": 12,
   "BodyPartExamined": "BRAIN",
   "Columns": 900,
   "EchoNumbers": 1,
   "EchoTime": 34.0,
   "EchoTrainLength": 100,
   "FlipAngle": 90.0,
   "HighBit": 11,
   "ImageOrientationPatient": [
    0.99999999760755,
    -7.37861208e-06,
    -6.87782609e-05,
    2.8727421e-08,
    0.9943387912732,
    -0.1062561441487
   ],
   "ImagePositionPatient": [
    -900.02754367261,
    -910.59220774297,
    26.944856316083
   ],
   "ImageType": [
    "ORIGINAL",
    "PRIMARY",
    "M",
    "ND",
    "MOSAIC"
   ],
   "ImagedNucleus": "1H",
   "ImagingFrequency": 123.257757,
   "InPlanePhaseEncodingDirection": "COL",
   "MRAcquisitionType": "2D",
   "MagneticFieldStrength": 3.0,
   "Manufacturer": "SIEMENS",
   "ManufacturerModelName": "Prisma",
   "Modality": "MR",
   "NumberOfAverages": 1.0,
   "NumberOfPhaseEncodingSteps": 100,
   "PercentPhaseFieldOfView": 100.0,
   "PercentSampling": 100.0,
   "PerformedProcedureStepStartTime": "151925.678000",
   "PhotometricInterpretation": "MONOCHROME2",
   "PixelBandwidth": 2380.0,
   "PixelRepresentation": 0,
   "PixelSpacing": [
    2.0,
    2.0
   ],
   "ProtocolName": "bold_100x100_s3_2x2x2_retino_150",
   "RepetitionTime": 2000.0,
   "Rows": 900,
   "SAR": 0.08169310377612,
   "SamplesPerPixel": 1,
   "ScanOptions": "FS",
   "ScanningSequence": "EP",
   "SequenceName": "*epfid2d1_100",
   "SequenceVariant": "SK",
   "SeriesDescription": "bold_100x100_s3_2x2x2_retino_150",
   "SeriesNumber": 4,
   "SeriesTime": "152955.624000",
   "SliceLocation": -70.025958386435,
   "SliceThickness": 2.0,
   "SmallestImagePixelValue": 0,
   "SoftwareVersions": "syngo MR E11",
   "SpacingBetweenSlices": 2.0000000766297,
   "SpecificCharacterSet": "ISO_IR 100",
   "StudyID": "1",
   "StudyTime": "151925.613000",
   "TransmitCoilName": "Body",
   "VariableFlipAngleFlag": "N",
   "WindowCenterWidthExplanation": "Algo1",
   "dBdt": 0.0
  },
  "slices": {}
 },
 "time": {
  "samples": {
   "AcquisitionNumber": [
    1,
    2,
    3,
    4,
    5,
    6,
    7,
    8,
    9,
    10,
    11,
    12,
    13,
    14,
    15,
    16,
    17,
    18,
    19,
    20,
    21,
    22,
    23,
    24,
    25,
    26,
    27,
    28,
    29,
    30,
    31,
    32,
    33,
    34,
    35,
    36,
    37,
    38,
    39,
    40,
    41,
    42,
    43,
    44,
    45,
    46,
    47,
    48,
    49,
    50,
    51,
    52,
    53,
    54,
    55,
    56,
    57,
    58,
    59,
    60,
    61,
    62,
    63,
    64,
    65,
    66,
    67,
    68,
    69,
    70,
    71,
    72,
    73,
    74,
    75,
    76,
    77,
    78,
    79,
    80,
    81,
    82,
    83,
    84,
    85,
    86,
    87,
    88,
    89,
    90,
    91,
    92,
    93,
    94,
    95,
    96,
    97,
    98,
    99,
    100,
    101,
    102,
    103,
    104,
    105,
    106,
    107,
    108,
    109,
    110,
    111,
    112,
    113,
    114,
    115,
    116,
    117,
    118,
    119,
    120,
    121,
    122,
    123,
    124,
    125,
    126,
    127,
    128,
    129,
    130,
    131,
    132,
    133,
    134,
    135,
    136,
    137,
    138,
    139,
    140,
    141,
    142,
    143,
    144,
    145,
    146,
    147,
    148,
    149,
    150
   ],
   "AcquisitionTime": [
    "152953.050000",
    "152955.050000",
    "152957.050000",
    "152959.050000",
    "153001.050000",
    "153003.050000",
    "153005.050000",
    "153007.050000",
    "153009.050000",
    "153011.050000",
    "153013.050000",
    "153015.050000",
    "153017.050000",
    "153019.050000",
    "153021.050000",
    "153023.050000",
    "153025.050000",
    "153027.050000",
    "153029.050000",
    "153031.050000",
    "153033.050000",
    "153035.050000",
    "153037.050000",
    "153039.050000",
    "153041.050000",
    "153043.050000",
    "153045.050000",
    "153047.050000",
    "153049.050000",
    "153051.050000",
    "153053.050000",
    "153055.050000",
    "153057.050000",
    "153059.050000",
    "153101.050000",
    "153103.050000",
    "153105.050000",
    "153107.050000",
    "153109.050000",
    "153111.050000",
    "153113.050000",
    "153115.050000",
    "153117.050000",
    "153119.050000",
    "153121.050000",
    "153123.050000",
    "153125.050000",
    "153127.050000",
    "153129.050000",
    "153131.050000",
    "153133.050000",
    "153135.050000",
    "153137.050000",
    "153139.050000",
    "153141.050000",
    "153143.050000",
    "153145.050000",
    "153147.050000",
    "153149.050000",
    "153151.050000",
    "153153.050000",
    "153155.050000",
    "153157.050000",
    "153159.050000",
    "153201.050000",
    "153203.050000",
    "153205.050000",
    "153207.050000",
    "153209.050000",
    "153211.050000",
    "153213.050000",
    "153215.050000",
    "153217.050000",
    "153219.050000",
    "153221.050000",
    "153223.050000",
    "153225.050000",
    "153227.050000",
    "153229.050000",
    "153231.050000",
    "153233.050000",
    "153235.050000",
    "153237.050000",
    "153239.050000",
    "153241.050000",
    "153243.050000",
    "153245.050000",
    "153247.050000",
    "153249.050000",
    "153251.050000",
    "153253.050000",
    "153255.050000",
    "153257.050000",
    "153259.050000",
    "153301.050000",
    "153303.050000",
    "153305.050000",
    "153307.050000",
    "153309.050000",
    "153311.050000",
    "153313.050000",
    "153315.050000",
    "153317.050000",
    "153319.050000",
    "153321.050000",
    "153323.050000",
    "153325.050000",
    "153327.050000",
    "153329.050000",
    "153331.050000",
    "153333.050000",
    "153335.050000",
    "153337.050000",
    "153339.050000",
    "153341.050000",
    "153343.050000",
    "153345.050000",
    "153347.050000",
    "153349.050000",
    "153351.050000",
    "153353.050000",
    "153355.050000",
    "153357.050000",
    "153359.050000",
    "153401.050000",
    "153403.050000",
    "153405.050000",
    "153407.050000",
    "153409.050000",
    "153411.050000",
    "153413.050000",
    "153415.050000",
    "153417.050000",
    "153419.050000",
    "153421.050000",
    "153423.050000",
    "153425.050000",
    "153427.050000",
    "153429.050000",
    "153431.050000",
    "153433.050000",
    "153435.050000",
    "153437.050000",
    "153439.050000",
    "153441.050000",
    "153443.050000",
    "153445.050000",
    "153447.050000",
    "153449.050000",
    "153451.050000"
   ],
   "ContentTime": [
    "152955.627000",
    "152957.622000",
    "152959.623000",
    "153001.622000",
    "153003.622000",
    "153005.622000",
    "153007.622000",
    "153009.622000",
    "153011.623000",
    "153013.622000",
    "153015.623000",
    "153017.622000",
    "153019.622000",
    "153021.622000",
    "153023.623000",
    "153025.622000",
    "153027.622000",
    "153029.622000",
    "153031.622000",
    "153033.622000",
    "153035.622000",
    "153037.623000",
    "153039.622000",
    "153041.623000",
    "153043.621000",
    "153045.623000",
    "153047.623000",
    "153049.622000",
    "153051.623000",
    "153053.622000",
    "153055.622000",
    "153057.623000",
    "153059.622000",
    "153101.622000",
    "153103.623000",
    "153105.622000",
    "153107.622000",
    "153109.623000",
    "153111.622000",
    "153113.622000",
    "153115.622000",
    "153117.621000",
    "153119.623000",
    "153121.622000",
    "153123.623000",
    "153125.622000",
    "153127.622000",
    "153129.622000",
    "153131.622000",
    "153133.622000",
    "153135.621000",
    "153137.623000",
    "153139.622000",
    "153141.623000",
    "153143.622000",
    "153145.622000",
    "153147.622000",
    "153149.623000",
    "153151.623000",
    "153153.622000",
    "153155.623000",
    "153157.623000",
    "153159.622000",
    "153201.622000",
    "153203.622000",
    "153205.622000",
    "153207.622000",
    "153209.622000",
    "153211.621000",
    "153213.623000",
    "153215.623000",
    "153217.622000",
    "153219.622000",
    "153221.622000",
    "153223.623000",
    "153225.623000",
    "153227.621000",
    "153229.623000",
    "153231.623000",
    "153233.623000",
    "153235.622000",
    "153237.623000",
    "153239.623000",
    "153241.623000",
    "153243.622000",
    "153245.622000",
    "153247.622000",
    "153249.623000",
    "153251.623000",
    "153253.622000",
    "153255.623000",
    "153257.623000",
    "153259.623000",
    "153301.623000",
    "153303.622000",
    "153305.623000",
    "153307.622000",
    "153309.622000",
    "153311.622000",
    "153313.623000",
    "153315.623000",
    "153317.623000",
    "153319.622000",
    "153321.622000",
    "153323.623000",
    "153325.622000",
    "153327.623000",
    "153329.623000",
    "153331.622000",
    "153333.623000",
    "153335.622000",
    "153337.621000",
    "153339.623000",
    "153341.622000",
    "153343.623000",
    "153345.622000",
    "153347.622000",
    "153349.622000",
    "153351.622000",
    "153353.622000",
    "153355.621000",
    "153357.623000",
    "153359.623000",
    "153401.622000",
    "153403.623000",
    "153405.622000",
    "153407.622000",
    "153409.623000",
    "153411.623000",
    "153413.621000",
    "153415.622000",
    "153417.623000",
    "153419.622000",
    "153421.623000",
    "153423.623000",
    "153425.622000",
    "153427.622000",
    "153429.621000",
    "153431.622000",
    "153433.623000",
    "153435.623000",
    "153437.622000",
    "153439.623000",
    "153441.623000",
    "153443.622000",
    "153445.622000",
    "153447.621000",
    "153449.622000",
    "153451.622000",
    "153453.274000"
   ],
   "InstanceCreationTime": [
    "152955.627000",
    "152957.622000",
    "152959.623000",
    "153001.622000",
    "153003.622000",
    "153005.622000",
    "153007.622000",
    "153009.622000",
    "153011.623000",
    "153013.622000",
    "153015.623000",
    "153017.622000",
    "153019.622000",
    "153021.622000",
    "153023.623000",
    "153025.622000",
    "153027.622000",
    "153029.622000",
    "153031.622000",
    "153033.622000",
    "153035.622000",
    "153037.623000",
    "153039.622000",
    "153041.623000",
    "153043.621000",
    "153045.623000",
    "153047.623000",
    "153049.622000",
    "153051.623000",
    "153053.622000",
    "153055.622000",
    "153057.623000",
    "153059.622000",
    "153101.622000",
    "153103.623000",
    "153105.622000",
    "153107.622000",
    "153109.623000",
    "153111.622000",
    "153113.622000",
    "153115.622000",
    "153117.621000",
    "153119.623000",
    "153121.622000",
    "153123.623000",
    "153125.622000",
    "153127.622000",
    "153129.622000",
    "153131.622000",
    "153133.622000",
    "153135.621000",
    "153137.623000",
    "153139.622000",
    "153141.623000",
    "153143.622000",
    "153145.622000",
    "153147.622000",
    "153149.623000",
    "153151.623000",
    "153153.622000",
    "153155.623000",
    "153157.623000",
    "153159.622000",
    "153201.622000",
    "153203.622000",
    "153205.622000",
    "153207.622000",
    "153209.622000",
    "153211.621000",
    "153213.623000",
    "153215.623000",
    "153217.622000",
    "153219.622000",
    "153221.622000",
    "153223.623000",
    "153225.623000",
    "153227.621000",
    "153229.623000",
    "153231.623000",
    "153233.623000",
    "153235.622000",
    "153237.623000",
    "153239.623000",
    "153241.623000",
    "153243.622000",
    "153245.622000",
    "153247.622000",
    "153249.623000",
    "153251.623000",
    "153253.622000",
    "153255.623000",
    "153257.623000",
    "153259.623000",
    "153301.623000",
    "153303.622000",
    "153305.623000",
    "153307.622000",
    "153309.622000",
    "153311.622000",
    "153313.623000",
    "153315.623000",
    "153317.623000",
    "153319.622000",
    "153321.622000",
    "153323.623000",
    "153325.622000",
    "153327.623000",
    "153329.623000",
    "153331.622000",
    "153333.623000",
    "153335.622000",
    "153337.621000",
    "153339.623000",
    "153341.622000",
    "153343.623000",
    "153345.622000",
    "153347.622000",
    "153349.622000",
    "153351.622000",
    "153353.622000",
    "153355.621000",
    "153357.623000",
    "153359.623000",
    "153401.622000",
    "153403.623000",
    "153405.622000",
    "153407.622000",
    "153409.623000",
    "153411.623000",
    "153413.621000",
    "153415.622000",
    "153417.623000",
    "153419.622000",
    "153421.623000",
    "153423.623000",
    "153425.622000",
    "153427.622000",
    "153429.621000",
    "153431.622000",
    "153433.623000",
    "153435.623000",
    "153437.622000",
    "153439.623000",
    "153441.623000",
    "153443.622000",
    "153445.622000",
    "153447.621000",
    "153449.622000",
    "153451.622000",
    "153453.274000"
   ],
   "InstanceNumber": [
    1,
    2,
    3,
    4,
    5,
    6,
    7,
    8,
    9,
    10,
    11,
    12,
    13,
    14,
    15,
    16,
    17,
    18,
    19,
    20,
    21,
    22,
    23,
    24,
    25,
    26,
    27,
    28,
    29,
    30,
    31,
    32,
    33,
    34,
    35,
    36,
    37,
    38,
    39,
    40,
    41,
    42,
    43,
    44,
    45,
    46,
    47,
    48,
    49,
    50,
    51,
    52,
    53,
    54,
    55,
    56,
    57,
    58,
    59,
    60,
    61,
    62,
    63,
    64,
    65,
    66,
    67,
    68,
    69,
    70,
    71,
    72,
    73,
    74,
    75,
    76,
    77,
    78,
    79,
    80,
    81,
    82,
    83,
    84,
    85,
    86,
    87,
    88,
    89,
    90,
    91,
    92,
    93,
    94,
    95,
    96,
    97,
    98,
    99,
    100,
    101,
    102,
    103,
    104,
    105,
    106,
    107,
    108,
    109,
    110,
    111,
    112,
    113,
    114,
    115,
    116,
    117,
    118,
    119,
    120,
    121,
    122,
    123,
    124,
    125,
    126,
    127,
    128,
    129,
    130,
    131,
    132,
    133,
    134,
    135,
    136,
    137,
    138,
    139,
    140,
    141,
    142,
    143,
    144,
    145,
    146,
    147,
    148,
    149,
    150
   ],
   "LargestImagePixelValue": [
    3128,
    3070,
    3046,
    3005,
    3034,
    3006,
    3008,
    3015,
    3001,
    2997,
    3024,
    3019,
    2966,
    2989,
    2968,
    2984,
    2963,
    2971,
    2926,
    2985,
    2962,
    2920,
    2913,
    2901,
    2883,
    2846,
    3387,
    2918,
    2894,
    2883,
    2897,
    2937,
    2941,
    2891,
    2941,
    2941,
    2950,
    2925,
    2935,
    2957,
    2929,
    2909,
    2910,
    2882,
    2896,
    2917,
    2901,
    2924,
    2957,
    2925,
    2967,
    2946,
    2932,
    2905,
    3115,
    2897,
    2954,
    2938,
    2933,
    2914,
    2914,
    2923,
    2942,
    2936,
    2923,
    2954,
    2942,
    2923,
    2897,
    2898,
    2899,
    2878,
    2861,
    2821,
    2818,
    2788,
    2846,
    2834,
    2797,
    2838,
    2850,
    2815,
    2844,
    2875,
    2890,
    2851,
    2875,
    2869,
    2862,
    2826,
    2842,
    2838,
    2805,
    2834,
    2840,
    2805,
    2839,
    2918,
    2836,
    2863,
    2802,
    3007,
    2820,
    2836,
    2823,
    2820,
    2837,
    2816,
    2763,
    2824,
    2791,
    2809,
    2789,
    2791,
    2789,
    2804,
    2824,
    2797,
    2808,
    3170,
    2811,
    2824,
    2836,
    2812,
    2806,
    2788,
    2767,
    2813,
    2790,
    2784,
    2995,
    2817,
    2836,
    2809,
    2813,
    2818,
    2834,
    2822,
    2818,
    2812,
    2815,
    2799,
    2859,
    2802,
    2795,
    2789,
    2810,
    2799,
    2829,
    2974
   ],
   "WindowCenter": [
    805.0,
    804.0,
    803.0,
    803.0,
    802.0,
    801.0,
    801.0,
    800.0,
    800.0,
    800.0,
    800.0,
    800.0,
    800.0,
    801.0,
    801.0,
    800.0,
    801.0,
    801.0,
    800.0,
    800.0,
    799.0,
    799.0,
    799.0,
    800.0,
    801.0,
    801.0,
    804.0,
    799.0,
    798.0,
    797.0,
    798.0,
    799.0,
    799.0,
    798.0,
    798.0,
    799.0,
    799.0,
    799.0,
    801.0,
    801.0,
    799.0,
    798.0,
    799.0,
    799.0,
    799.0,
    799.0,
    798.0,
    798.0,
    799.0,
    801.0,
    801.0,
    800.0,
    800.0,
    799.0,
    800.0,
    798.0,
    800.0,
    800.0,
    800.0,
    799.0,
    798.0,
    798.0,
    799.0,
    800.0,
    800.0,
    800.0,
    800.0,
    800.0,
    800.0,
    800.0,
    799.0,
    799.0,
    798.0,
    799.0,
    799.0,
    799.0,
    799.0,
    801.0,
    802.0,
    801.0,
    801.0,
    799.0,
    799.0,
    799.0,
    798.0,
    798.0,
    799.0,
    799.0,
    799.0,
    798.0,
    800.0,
    800.0,
    800.0,
    800.0,
    801.0,
    801.0,
    801.0,
    802.0,
    801.0,
    801.0,
    799.0,
    801.0,
    799.0,
    798.0,
    798.0,
    799.0,
    799.0,
    799.0,
    798.0,
    798.0,
    800.0,
    800.0,
    799.0,
    798.0,
    799.0,
    801.0,
    801.0,
    802.0,
    800.0,
    804.0,
    801.0,
    800.0,
    799.0,
    798.0,
    797.0,
    796.0,
    796.0,
    798.0,
    798.0,
    798.0,
    802.0,
    801.0,
    801.0,
    799.0,
    798.0,
    798.0,
    798.0,
    798.0,
    798.0,
    799.0,
    799.0,
    799.0,
    800.0,
    799.0,
    798.0,
    797.0,
    797.0,
    796.0,
    797.0,
    801.0
   ],
   "WindowWidth": [
    1696.0,
    1694.0,
    1692.0,
    1691.0,
    1689.0,
    1686.0,
    1686.0,
    1685.0,
    1684.0,
    1684.0,
    1684.0,
    1685.0,
    1685.0,
    1687.0,
    1686.0,
    1686.0,
    1687.0,
    1687.0,
    1684.0,
    1683.0,
    1683.0,
    1682.0,
    1683.0,
    1685.0,
    1687.0,
    1686.0,
    1694.0,
    1683.0,
    1679.0,
    1678.0,
    1680.0,
    1682.0,
    1681.0,
    1679.0,
    1680.0,
    1681.0,
    1683.0,
    1682.0,
    1686.0,
    1687.0,
    1682.0,
    1679.0,
    1681.0,
    1682.0,
    1682.0,
    1682.0,
    1680.0,
    1680.0,
    1682.0,
    1686.0,
    1687.0,
    1686.0,
    1685.0,
    1681.0,
    1685.0,
    1680.0,
    1684.0,
    1684.0,
    1683.0,
    1681.0,
    1679.0,
    1679.0,
    1682.0,
    1683.0,
    1684.0,
    1684.0,
    1683.0,
    1685.0,
    1685.0,
    1683.0,
    1682.0,
    1681.0,
    1678.0,
    1682.0,
    1682.0,
    1681.0,
    1682.0,
    1686.0,
    1687.0,
    1687.0,
    1684.0,
    1681.0,
    1681.0,
    1680.0,
    1678.0,
    1679.0,
    1680.0,
    1681.0,
    1681.0,
    1680.0,
    1683.0,
    1684.0,
    1683.0,
    1683.0,
    1685.0,
    1685.0,
    1685.0,
    1688.0,
    1687.0,
    1687.0,
    1682.0,
    1686.0,
    1682.0,
    1679.0,
    1679.0,
    1681.0,
    1682.0,
    1681.0,
    1679.0,
    1680.0,
    1684.0,
    1683.0,
    1679.0,
    1679.0,
    1680.0,
    1685.0,
    1687.0,
    1688.0,
    1684.0,
    1694.0,
    1685.0,
    1684.0,
    1681.0,
    1679.0,
    1676.0,
    1674.0,
    1673.0,
    1677.0,
    1679.0,
    1678.0,
    1689.0,
    1686.0,
    1685.0,
    1680.0,
    1679.0,
    1680.0,
    1680.0,
    1680.0,
    1680.0,
    1682.0,
    1682.0,
    1681.0,
    1684.0,
    1680.0,
    1679.0,
    1676.0,
    1676.0,
    1675.0,
    1677.0,
    1687.0
   ]
  },
  "slices": {}
 }
}