{
 "AcquisitionMatrixPE": 100,
 "AcquisitionNumber": 1,
 "AcquisitionTime": "12:46:54.742500",
 "BandwidthPerPixelPhaseEncode": 18.519,
 "BaseResolution": 100,
 "BodyPartExamined": "BRAIN",
 "ConsistencyInfo": "N4_VE11C_LATEST_20160120",
 "ConversionSoftware": "dcm2niix",
 "ConversionSoftwareVersion": "v1.0.20180622 GCC4.9.2",
 "DerivedVendorReportedEchoSpacing": 0.000539986,
 "DeviceSerialNumber": "166078",
 "DwellTime": 2.1e-06,
 "EchoTime": 0.034,
 "EchoTrainLength": 100,
 "EffectiveEchoSpacing": 0.000539986,
 "FlipAngle": 90,
 "ImageOrientationPatientDICOM": [
  0.997684,
  0,
  0.0680153,
  0,
  1,
  0
 ],
 "ImageType": [
  "ORIGINAL",
  "PRIMARY",
  "M",
  "ND",
  "MOSAIC"
 ],
 "InPlanePhaseEncodingDirectionDICOM": "COL",
 "InstitutionAddress": "Street_StreetNo_Bei_Jing_District_CN_ZIP",
 "InstitutionName": "BeiJing_Normal_University",
 "InstitutionalDepartmentName": "Department",
 "MRAcquisitionType": "2D",
 "MagneticFieldStrength": 3,
 "Manufacturer": "Siemens",
 "ManufacturersModelName": "Prisma",
 "Modality": "MR",
 "MultibandAccelerationFactor": 3,
 "PartialFourier": 1,
 "PatientPosition": "HFS",
 "PercentPhaseFOV": 100,
 "PhaseEncodingDirection": "j-",
 "PhaseEncodingSteps": 100,
 "PhaseResolution": 1,
 "PixelBandwidth": 2380,
 "ProcedureStepDescription": "BNU_P2018_64CH_Zhen.ZongLei",
 "ProtocolName": "bold_100x100_s3_2x2x2_static_256",
 "PulseSequenceDetails": "%SiemensSeq%_ep2d_bold",
 "ReceiveCoilActiveElements": "HC1-7;NC1",
 "ReceiveCoilName": "HeadNeck_64",
 "ReconMatrixPE": 100,
 "RepetitionTime": 2,
 "SAR": 0.0766288,
 "ScanOptions": "FS",
 "ScanningSequence": "EP",
 "SequenceName": "_epfid2d1_100",
 "SequenceVariant": "SK",
 "SeriesDescription": "bold_100x100_s3_2x2x2_static_256",
 "SeriesNumber": 14,
 "ShimSetting": [
  -5446,
  -11509,
  -1248,
  145,
  -131,
  -216,
  -156,
  55
 ],
 "SliceThickness": 2,
 "SliceTiming": [
  1.485,
  0,
  0.99,
  0.0825,
  1.0725,
  0.165,
  1.155,
  0.2475,
  1.2375,
  0.33,
  1.32,
  0.4125,
  1.4025,
  0.5775,
  1.5675,
  0.66,
  1.65,
  0.7425,
  1.7325,
  0.825,
  1.815,
  0.9075,
  1.8975,
  0.495,
  1.485,
  0,
  0.99,
  0.0825,
  1.0725,
  0.165,
  1.155,
  0.2475,
  1.2375,
  0.33,
  1.32,
  0.4125,
  1.4025,
  0.5775,
  1.5675,
  0.66,
  1.65,
  0.7425,
  1.7325,
  0.825,
  1.815,
  0.9075,
  1.8975,
  0.495,
  1.485,
  0,
  0.99,
  0.0825,
  1.0725,
  0.165,
  1.155,
  0.2475,
  1.2375,
  0.33,
  1.32,
  0.4125,
  1.4025,
  0.5775,
  1.5675,
  0.66,
  1.65,
  0.7425,
  1.7325,
  0.825,
  1.815,
  0.9075,
  1.8975,
  0.495
 ],
 "SoftwareVersions": "syngo_MR_E11",
 "SpacingBetweenSlices": 2,
 "StationName": "AWP166078",
 "TaskName": "imagenet",
 "TotalReadoutTime": 0.0534586,
 "TxRefAmp": 244.878,
 "dcmmeta_affine": [
  [
   -1.9953685998916626,
   0.0,
   0.13603058457374573,
   96.28874206542969
  ],
  [
   0.0,
   2.0,
   0.0,
   -89.23373413085938
  ],
  [
   0.13603058457374573,
   0.0,
   1.995368480682373,
   -75.16963958740234
  ],
  [
   0.0,
   0.0,
   0.0,
   1.0
  ]
 ],
 "dcmmeta_reorient_transform": [
  [
   0.0,
   -1.0,
   0.0,
   99.0
  ],
  [
   1.0,
   0.0,
   0.0,
   0.0
  ],
  [
   0.0,
   0.0,
   1.0,
   0.0
  ],
  [
   0.0,
   0.0,
   0.0,
   1.0
  ]
 ],
 "dcmmeta_shape": [
  100,
  100,
  72,
  256
 ],
 "dcmmeta_slice_dim": 2,
 "dcmmeta_version": 0.6,
 "global": {
  "const": {
   "AcquisitionMatrix": [
    100,
    0,
    0,
    100
   ],
   "AngioFlag": "N",
   "BitsAllocated": 16,
   "BitsStored": 12,
   "BodyPartExamined": "BRAIN",
   "Columns": 900,
   "EchoNumbers": 1,
   "EchoTime": 34.0,
   "EchoTrainLength": 100,
   "FlipAngle": 90.0,
   "HighBit": 11,
   "ImageOrientationPatient": [
    0.99768427877948,
    0.0,
    0.06801529148854,
    0.0,
    1.0,
    0.0
   ],
   "ImagePositionPatient": [
    -894.43616297238,
    -908.76626491547,
    -129.58187299642
   ],
   "ImageType": [
    "ORIGINAL",
    "PRIMARY",
    "M",
    "ND",
    "MOSAIC"
   ],
   "ImagedNucleus": "1H",
   "ImagingFrequency": 123.257783,
   "InPlanePhaseEncodingDirection": "COL",
   "MRAcquisitionType": "2D",
   "MagneticFieldStrength": 3.0,
   "Manufacturer": "SIEMENS",
   "ManufacturerModelName": "Prisma",
   "Modality": "MR",
   "NumberOfAverages": 1.0,
   "NumberOfPhaseEncodingSteps": 100,
   "PercentPhaseFieldOfView": 100.0,
   "PercentSampling": 100.0,
   "PerformedProcedureStepStartTime": "111400.318000",
   "PhotometricInterpretation": "MONOCHROME2",
   "PixelBandwidth": 2380.0,
   "PixelRepresentation": 0,
   "PixelSpacing": [
    2.0,
    2.0
   ],
   "ProtocolName": "bold_100x100_s3_2x2x2_static_256",
   "RepetitionTime": 2000.0,
   "Rows": 900,
   "SAR": 0.07662884894547,
   "SamplesPerPixel": 1,
   "ScanOptions": "FS",
   "ScanningSequence": "EP",
   "SequenceName": "*epfid2d1_100",
   "SequenceVariant": "SK",
   "SeriesDescription": "bold_100x100_s3_2x2x2_static_256",
   "SeriesNumber": 14,
   "SeriesTime": "124656.939000",
   "SliceLocation": -68.446461160874,
   "SliceThickness": 2.0,
   "SmallestImagePixelValue": 0,
   "SoftwareVersions": "syngo MR E11",
   "SpacingBetweenSlices": 1.9999999697708,
   "SpecificCharacterSet": "ISO_IR 100",
   "StudyID": "1",
   "StudyTime": "111400.216000",
   "TransmitCoilName": "Body",
   "VariableFlipAngleFlag": "N",
   "WindowCenterWidthExplanation": "Algo1",
   "dBdt": 0.0
  },
  "slices": {}
 },
 "time": {
  "samples": {
   "AcquisitionNumber": [
    1,
    2,
    3,
    4,
    5,
    6,
    7,
    8,
    9,
    10,
    11,
    12,
    13,
    14,
    15,
    16,
    17,
    18,
    19,
    20,
    21,
    22,
    23,
    24,
    25,
    26,
    27,
    28,
    29,
    30,
    31,
    32,
    33,
    34,
    35,
    36,
    37,
    38,
    39,
    40,
    41,
    42,
    43,
    44,
    45,
    46,
    47,
    48,
    49,
    50,
    51,
    52,
    53,
    54,
    55,
    56,
    57,
    58,
    59,
    60,
    61,
    62,
    63,
    64,
    65,
    66,
    67,
    68,
    69,
    70,
    71,
    72,
    73,
    74,
    75,
    76,
    77,
    78,
    79,
    80,
    81,
    82,
    83,
    84,
    85,
    86,
    87,
    88,
    89,
    90,
    91,
    92,
    93,
    94,
    95,
    96,
    97,
    98,
    99,
    100,
    101,
    102,
    103,
    104,
    105,
    106,
    107,
    108,
    109,
    110,
    111,
    112,
    113,
    114,
    115,
    116,
    117,
    118,
    119,
    120,
    121,
    122,
    123,
    124,
    125,
    126,
    127,
    128,
    129,
    130,
    131,
    132,
    133,
    134,
    135,
    136,
    137,
    138,
    139,
    140,
    141,
    142,
    143,
    144,
    145,
    146,
    147,
    148,
    149,
    150,
    151,
    152,
    153,
    154,
    155,
    156,
    157,
    158,
    159,
    160,
    161,
    162,
    163,
    164,
    165,
    166,
    167,
    168,
    169,
    170,
    171,
    172,
    173,
    174,
    175,
    176,
    177,
    178,
    179,
    180,
    181,
    182,
    183,
    184,
    185,
    186,
    187,
    188,
    189,
    190,
    191,
    192,
    193,
    194,
    195,
    196,
    197,
    198,
    199,
    200,
    201,
    202,
    203,
    204,
    205,
    206,
    207,
    208,
    209,
    210,
    211,
    212,
    213,
    214,
    215,
    216,
    217,
    218,
    219,
    220,
    221,
    222,
    223,
    224,
    225,
    226,
    227,
    228,
    229,
    230,
    231,
    232,
    233,
    234,
    235,
    236,
    237,
    238,
    239,
    240,
    241,
    242,
    243,
    244,
    245,
    246,
    247,
    248,
    249,
    250,
    251,
    252,
    253,
    254,
    255,
    256
   ],
   "AcquisitionTime": [
    "124654.742500",
    "124656.742500",
    "124658.742500",
    "124700.742500",
    "124702.742500",
    "124704.742500",
    "124706.742500",
    "124708.742500",
    "124710.742500",
    "124712.742500",
    "124714.742500",
    "124716.742500",
    "124718.742500",
    "124720.742500",
    "124722.742500",
    "124724.742500",
    "124726.742500",
    "124728.742500",
    "124730.742500",
    "124732.742500",
    "124734.742500",
    "124736.742500",
    "124738.742500",
    "124740.742500",
    "124742.742500",
    "124744.742500",
    "124746.742500",
    "124748.742500",
    "124750.742500",
    "124752.742500",
    "124754.742500",
    "124756.742500",
    "124758.742500",
    "124800.742500",
    "124802.742500",
    "124804.742500",
    "124806.742500",
    "124808.742500",
    "124810.742500",
    "124812.742500",
    "124814.742500",
    "124816.742500",
    "124818.742500",
    "124820.742500",
    "124822.742500",
    "124824.742500",
    "124826.742500",
    "124828.742500",
    "124830.742500",
    "124832.742500",
    "124834.742500",
    "124836.742500",
    "124838.742500",
    "124840.742500",
    "124842.742500",
    "124844.742500",
    "124846.742500",
    "124848.742500",
    "124850.742500",
    "124852.742500",
    "124854.742500",
    "124856.742500",
    "124858.742500",
    "124900.742500",
    "124902.742500",
    "124904.742500",
    "124906.742500",
    "124908.742500",
    "124910.742500",
    "124912.742500",
    "124914.742500",
    "124916.742500",
    "124918.742500",
    "124920.742500",
    "124922.742500",
    "124924.742500",
    "124926.742500",
    "124928.742500",
    "124930.742500",
    "124932.742500",
    "124934.742500",
    "124936.742500",
    "124938.742500",
    "124940.742500",
    "124942.742500",
    "124944.742500",
    "124946.742500",
    "124948.742500",
    "124950.742500",
    "124952.742500",
    "124954.742500",
    "124956.742500",
    "124958.742500",
    "125000.742500",
    "125002.742500",
    "125004.742500",
    "125006.742500",
    "125008.742500",
    "125010.742500",
    "125012.742500",
    "125014.742500",
    "125016.742500",
    "125018.742500",
    "125020.742500",
    "125022.742500",
    "125024.742500",
    "125026.742500",
    "125028.742500",
    "125030.742500",
    "125032.742500",
    "125034.742500",
    "125036.742500",
    "125038.742500",
    "125040.742500",
    "125042.742500",
    "125044.742500",
    "125046.742500",
    "125048.742500",
    "125050.742500",
    "125052.742500",
    "125054.742500",
    "125056.742500",
    "125058.742500",
    "125100.742500",
    "125102.742500",
    "125104.742500",
    "125106.742500",
    "125108.742500",
    "125110.742500",
    "125112.742500",
    "125114.742500",
    "125116.742500",
    "125118.742500",
    "125120.742500",
    "125122.742500",
    "125124.742500",
    "125126.742500",
    "125128.742500",
    "125130.742500",
    "125132.742500",
    "125134.742500",
    "125136.742500",
    "125138.742500",
    "125140.742500",
    "125142.742500",
    "125144.742500",
    "125146.742500",
    "125148.742500",
    "125150.742500",
    "125152.742500",
    "125154.742500",
    "125156.742500",
    "125158.742500",
    "125200.742500",
    "125202.742500",
    "125204.742500",
    "125206.742500",
    "125208.742500",
    "125210.742500",
    "125212.742500",
    "125214.742500",
    "125216.742500",
    "125218.742500",
    "125220.742500",
    "125222.742500",
    "125224.742500",
    "125226.742500",
    "125228.742500",
    "125230.742500",
    "125232.742500",
    "125234.742500",
    "125236.742500",
    "125238.742500",
    "125240.742500",
    "125242.742500",
    "125244.742500",
    "125246.742500",
    "125248.742500",
    "125250.742500",
    "125252.742500",
    "125254.742500",
    "125256.742500",
    "125258.742500",
    "125300.742500",
    "125302.742500",
    "125304.742500",
    "125306.742500",
    "125308.742500",
    "125310.742500",
    "125312.742500",
    "125314.742500",
    "125316.742500",
    "125318.742500",
    "125320.742500",
    "125322.742500",
    "125324.742500",
    "125326.742500",
    "125328.742500",
    "125330.742500",
    "125332.742500",
    "125334.742500",
    "125336.742500",
    "125338.742500",
    "125340.742500",
    "125342.742500",
    "125344.742500",
    "125346.742500",
    "125348.742500",
    "125350.742500",
    "125352.742500",
    "125354.742500",
    "125356.742500",
    "125358.742500",
    "125400.742500",
    "125402.742500",
    "125404.742500",
    "125406.742500",
    "125408.742500",
    "125410.742500",
    "125412.742500",
    "125414.742500",
    "125416.742500",
    "125418.742500",
    "125420.742500",
    "125422.742500",
    "125424.742500",
    "125426.742500",
    "125428.742500",
    "125430.742500",
    "125432.742500",
    "125434.742500",
    "125436.742500",
    "125438.742500",
    "125440.742500",
    "125442.742500",
    "125444.742500",
    "125446.742500",
    "125448.742500",
    "125450.742500",
    "125452.742500",
    "125454.742500",
    "125456.742500",
    "125458.742500",
    "125500.742500",
    "125502.742500",
    "125504.742500",
    "125506.742500",
    "125508.742500",
    "125510.742500",
    "125512.742500",
    "125514.742500",
    "125516.742500",
    "125518.742500",
    "125520.742500",
    "125522.742500",
    "125524.742500"
   ],
   "ContentTime": [
    "124656.942000",
    "124658.437000",
    "124700.436000",
    "124702.436000",
    "124704.437000",
    "124706.436000",
    "124708.437000",
    "124710.437000",
    "124712.437000",
    "124714.437000",
    "124716.438000",
    "124718.436000",
    "124720.437000",
    "124722.436000",
    "124724.436000",
    "124726.437000",
    "124728.437000",
    "124730.437000",
    "124732.437000",
    "124734.437000",
    "124736.436000",
    "124738.436000",
    "124740.437000",
    "124742.437000",
    "124744.437000",
    "124746.438000",
    "124748.437000",
    "124750.438000",
    "124752.437000",
    "124754.437000",
    "124756.436000",
    "124758.437000",
    "124800.438000",
    "124802.437000",
    "124804.438000",
    "124806.437000",
    "124808.437000",
    "124810.436000",
    "124812.436000",
    "124814.437000",
    "124816.436000",
    "124818.438000",
    "124820.437000",
    "124822.437000",
    "124824.437000",
    "124826.438000",
    "124828.436000",
    "124830.436000",
    "124832.436000",
    "124834.437000",
    "124836.438000",
    "124838.438000",
    "124840.437000",
    "124842.437000",
    "124844.437000",
    "124846.436000",
    "124848.437000",
    "124850.436000",
    "124852.436000",
    "124854.437000",
    "124856.437000",
    "124858.437000",
    "124900.438000",
    "124902.436000",
    "124904.437000",
    "124906.437000",
    "124908.437000",
    "124910.438000",
    "124912.438000",
    "124914.438000",
    "124916.438000",
    "124918.437000",
    "124920.436000",
    "124922.436000",
    "124924.437000",
    "124926.436000",
    "124928.437000",
    "124930.438000",
    "124932.437000",
    "124934.438000",
    "124936.437000",
    "124938.436000",
    "124940.437000",
    "124942.437000",
    "124944.437000",
    "124946.438000",
    "124948.437000",
    "124950.438000",
    "124952.438000",
    "124954.438000",
    "124956.436000",
    "124958.436000",
    "125000.437000",
    "125002.436000",
    "125004.438000",
    "125006.437000",
    "125008.438000",
    "125010.437000",
    "125012.436000",
    "125014.436000",
    "125016.437000",
    "125018.436000",
    "125020.438000",
    "125022.437000",
    "125024.437000",
    "125026.438000",
    "125028.437000",
    "125030.437000",
    "125032.437000",
    "125034.436000",
    "125036.436000",
    "125038.438000",
    "125040.438000",
    "125042.438000",
    "125044.438000",
    "125046.438000",
    "125048.437000",
    "125050.437000",
    "125052.436000",
    "125054.437000",
    "125056.438000",
    "125058.448000",
    "125100.437000",
    "125102.437000",
    "125104.437000",
    "125106.436000",
    "125108.436000",
    "125110.436000",
    "125112.437000",
    "125114.437000",
    "125116.437000",
    "125118.438000",
    "125120.438000",
    "125122.436000",
    "125124.437000",
    "125126.436000",
    "125128.437000",
    "125130.438000",
    "125132.438000",
    "125134.438000",
    "125136.438000",
    "125138.437000",
    "125140.437000",
    "125142.437000",
    "125144.437000",
    "125146.437000",
    "125148.438000",
    "125150.438000",
    "125152.438000",
    "125154.438000",
    "125156.438000",
    "125158.436000",
    "125200.437000",
    "125202.436000",
    "125204.437000",
    "125206.437000",
    "125208.437000",
    "125210.437000",
    "125212.438000",
    "125214.438000",
    "125216.437000",
    "125218.436000",
    "125220.436000",
    "125222.438000",
    "125224.438000",
    "125226.438000",
    "125228.437000",
    "125230.438000",
    "125232.436000",
    "125234.436000",
    "125236.436000",
    "125238.436000",
    "125240.438000",
    "125242.437000",
    "125244.438000",
    "125246.437000",
    "125248.438000",
    "125250.436000",
    "125252.436000",
    "125254.436000",
    "125256.437000",
    "125258.438000",
    "125300.438000",
    "125302.438000",
    "125304.438000",
    "125306.438000",
    "125308.436000",
    "125310.437000",
    "125312.436000",
    "125314.436000",
    "125316.438000",
    "125318.437000",
    "125320.438000",
    "125322.437000",
    "125324.438000",
    "125326.436000",
    "125328.437000",
    "125330.437000",
    "125332.438000",
    "125334.437000",
    "125336.438000",
    "125338.437000",
    "125340.437000",
    "125342.437000",
    "125344.436000",
    "125346.436000",
    "125348.436000",
    "125350.438000",
    "125352.438000",
    "125354.437000",
    "125356.438000",
    "125358.438000",
    "125400.437000",
    "125402.436000",
    "125404.437000",
    "125406.437000",
    "125408.438000",
    "125410.438000",
    "125412.437000",
    "125414.437000",
    "125416.438000",
    "125418.436000",
    "125420.437000",
    "125422.436000",
    "125424.437000",
    "125426.438000",
    "125428.438000",
    "125430.438000",
    "125432.437000",
    "125434.437000",
    "125436.437000",
    "125438.437000",
    "125440.437000",
    "125442.438000",
    "125444.437000",
    "125446.438000",
    "125448.438000",
    "125450.438000",
    "125452.437000",
    "125454.437000",
    "125456.437000",
    "125458.437000",
    "125500.438000",
    "125502.437000",
    "125504.438000",
    "125506.438000",
    "125508.438000",
    "125510.437000",
    "125512.436000",
    "125514.436000",
    "125516.436000",
    "125518.438000",
    "125520.437000",
    "125522.438000",
    "125524.438000",
    "125526.165000"
   ],
   "InstanceCreationTime": [
    "124656.942000",
    "124658.437000",
    "124700.436000",
    "124702.436000",
    "124704.437000",
    "124706.436000",
    "124708.437000",
    "124710.437000",
    "124712.437000",
    "124714.437000",
    "124716.438000",
    "124718.436000",
    "124720.437000",
    "124722.436000",
    "124724.436000",
    "124726.437000",
    "124728.437000",
    "124730.437000",
    "124732.437000",
    "124734.437000",
    "124736.436000",
    "124738.436000",
    "124740.437000",
    "124742.437000",
    "124744.437000",
    "124746.438000",
    "124748.437000",
    "124750.438000",
    "124752.437000",
    "124754.437000",
    "124756.436000",
    "124758.437000",
    "124800.438000",
    "124802.437000",
    "124804.438000",
    "124806.437000",
    "124808.437000",
    "124810.436000",
    "124812.436000",
    "124814.437000",
    "124816.436000",
    "124818.438000",
    "124820.437000",
    "124822.437000",
    "124824.437000",
    "124826.438000",
    "124828.436000",
    "124830.436000",
    "124832.436000",
    "124834.437000",
    "124836.438000",
    "124838.438000",
    "124840.437000",
    "124842.437000",
    "124844.437000",
    "124846.436000",
    "124848.437000",
    "124850.436000",
    "124852.436000",
    "124854.437000",
    "124856.437000",
    "124858.437000",
    "124900.438000",
    "124902.436000",
    "124904.437000",
    "124906.437000",
    "124908.437000",
    "124910.438000",
    "124912.438000",
    "124914.438000",
    "124916.438000",
    "124918.437000",
    "124920.436000",
    "124922.436000",
    "124924.437000",
    "124926.436000",
    "124928.437000",
    "124930.438000",
    "124932.437000",
    "124934.438000",
    "124936.437000",
    "124938.436000",
    "124940.437000",
    "124942.437000",
    "124944.437000",
    "124946.438000",
    "124948.437000",
    "124950.438000",
    "124952.438000",
    "124954.438000",
    "124956.436000",
    "124958.436000",
    "125000.437000",
    "125002.436000",
    "125004.438000",
    "125006.437000",
    "125008.438000",
    "125010.437000",
    "125012.436000",
    "125014.436000",
    "125016.437000",
    "125018.436000",
    "125020.438000",
    "125022.437000",
    "125024.437000",
    "125026.438000",
    "125028.437000",
    "125030.437000",
    "125032.437000",
    "125034.436000",
    "125036.436000",
    "125038.438000",
    "125040.438000",
    "125042.438000",
    "125044.438000",
    "125046.438000",
    "125048.437000",
    "125050.437000",
    "125052.436000",
    "125054.437000",
    "125056.438000",
    "125058.448000",
    "125100.437000",
    "125102.437000",
    "125104.437000",
    "125106.436000",
    "125108.436000",
    "125110.436000",
    "125112.437000",
    "125114.437000",
    "125116.437000",
    "125118.438000",
    "125120.438000",
    "125122.436000",
    "125124.437000",
    "125126.436000",
    "125128.437000",
    "125130.438000",
    "125132.438000",
    "125134.438000",
    "125136.438000",
    "125138.437000",
    "125140.437000",
    "125142.437000",
    "125144.437000",
    "125146.437000",
    "125148.438000",
    "125150.438000",
    "125152.438000",
    "125154.438000",
    "125156.438000",
    "125158.436000",
    "125200.437000",
    "125202.436000",
    "125204.437000",
    "125206.437000",
    "125208.437000",
    "125210.437000",
    "125212.438000",
    "125214.438000",
    "125216.437000",
    "125218.436000",
    "125220.436000",
    "125222.438000",
    "125224.438000",
    "125226.438000",
    "125228.437000",
    "125230.438000",
    "125232.436000",
    "125234.436000",
    "125236.436000",
    "125238.436000",
    "125240.438000",
    "125242.437000",
    "125244.438000",
    "125246.437000",
    "125248.438000",
    "125250.436000",
    "125252.436000",
    "125254.436000",
    "125256.437000",
    "125258.438000",
    "125300.438000",
    "125302.438000",
    "125304.438000",
    "125306.438000",
    "125308.436000",
    "125310.437000",
    "125312.436000",
    "125314.436000",
    "125316.438000",
    "125318.437000",
    "125320.438000",
    "125322.437000",
    "125324.438000",
    "125326.436000",
    "125328.437000",
    "125330.437000",
    "125332.438000",
    "125334.437000",
    "125336.438000",
    "125338.437000",
    "125340.437000",
    "125342.437000",
    "125344.436000",
    "125346.436000",
    "125348.436000",
    "125350.438000",
    "125352.438000",
    "125354.437000",
    "125356.438000",
    "125358.438000",
    "125400.437000",
    "125402.436000",
    "125404.437000",
    "125406.437000",
    "125408.438000",
    "125410.438000",
    "125412.437000",
    "125414.437000",
    "125416.438000",
    "125418.436000",
    "125420.437000",
    "125422.436000",
    "125424.437000",
    "125426.438000",
    "125428.438000",
    "125430.438000",
    "125432.437000",
    "125434.437000",
    "125436.437000",
    "125438.437000",
    "125440.437000",
    "125442.438000",
    "125444.437000",
    "125446.438000",
    "125448.438000",
    "125450.438000",
    "125452.437000",
    "125454.437000",
    "125456.437000",
    "125458.437000",
    "125500.438000",
    "125502.437000",
    "125504.438000",
    "125506.438000",
    "125508.438000",
    "125510.437000",
    "125512.436000",
    "125514.436000",
    "125516.436000",
    "125518.438000",
    "125520.437000",
    "125522.438000",
    "125524.438000",
    "125526.165000"
   ],
   "InstanceNumber": [
    1,
    2,
    3,
    4,
    5,
    6,
    7,
    8,
    9,
    10,
    11,
    12,
    13,
    14,
    15,
    16,
    17,
    18,
    19,
    20,
    21,
    22,
    23,
    24,
    25,
    26,
    27,
    28,
    29,
    30,
    31,
    32,
    33,
    34,
    35,
    36,
    37,
    38,
    39,
    40,
    41,
    42,
    43,
    44,
    45,
    46,
    47,
    48,
    49,
    50,
    51,
    52,
    53,
    54,
    55,
    56,
    57,
    58,
    59,
    60,
    61,
    62,
    63,
    64,
    65,
    66,
    67,
    68,
    69,
    70,
    71,
    72,
    73,
    74,
    75,
    76,
    77,
    78,
    79,
    80,
    81,
    82,
    83,
    84,
    85,
    86,
    87,
    88,
    89,
    90,
    91,
    92,
    93,
    94,
    95,
    96,
    97,
    98,
    99,
    100,
    101,
    102,
    103,
    104,
    105,
    106,
    107,
    108,
    109,
    110,
    111,
    112,
    113,
    114,
    115,
    116,
    117,
    118,
    119,
    120,
    121,
    122,
    123,
    124,
    125,
    126,
    127,
    128,
    129,
    130,
    131,
    132,
    133,
    134,
    135,
    136,
    137,
    138,
    139,
    140,
    141,
    142,
    143,
    144,
    145,
    146,
    147,
    148,
    149,
    150,
    151,
    152,
    153,
    154,
    155,
    156,
    157,
    158,
    159,
    160,
    161,
    162,
    163,
    164,
    165,
    166,
    167,
    168,
    169,
    170,
    171,
    172,
    173,
    174,
    175,
    176,
    177,
    178,
    179,
    180,
    181,
    182,
    183,
    184,
    185,
    186,
    187,
    188,
    189,
    190,
    191,
    192,
    193,
    194,
    195,
    196,
    197,
    198,
    199,
    200,
    201,
    202,
    203,
    204,
    205,
    206,
    207,
    208,
    209,
    210,
    211,
    212,
    213,
    214,
    215,
    216,
    217,
    218,
    219,
    220,
    221,
    222,
    223,
    224,
    225,
    226,
    227,
    228,
    229,
    230,
    231,
    232,
    233,
    234,
    235,
    236,
    237,
    238,
    239,
    240,
    241,
    242,
    243,
    244,
    245,
    246,
    247,
    248,
    249,
    250,
    251,
    252,
    253,
    254,
    255,
    256
   ],
   "LargestImagePixelValue": [
    3202,
    3174,
    3160,
    3147,
    3132,
    3112,
    3121,
    3094,
    3129,
    3106,
    3097,
    3143,
    3118,
    3118,
    3089,
    3103,
    3121,
    3117,
    3087,
    3127,
    3117,
    3136,
    3114,
    3118,
    3129,
    3141,
    3112,
    3130,
    3098,
    3132,
    3119,
    3122,
    3143,
    3148,
    3146,
    3130,
    3110,
    3123,
    3129,
    3152,
    3163,
    3151,
    3140,
    3131,
    3132,
    3159,
    3158,
    3155,
    3141,
    3153,
    3130,
    3133,
    3160,
    3154,
    3142,
    3111,
    3146,
    3152,
    3125,
    3148,
    3113,
    3180,
    3120,
    3236,
    3155,
    3123,
    3106,
    3097,
    3138,
    3105,
    3104,
    3121,
    3145,
    3127,
    3102,
    3117,
    3122,
    3129,
    3116,
    3115,
    3138,
    3127,
    3123,
    3083,
    3102,
    3123,
    3116,
    3106,
    3083,
    3104,
    3129,
    3119,
    3130,
    3124,
    3137,
    3149,
    3130,
    3128,
    3118,
    3137,
    3123,
    3125,
    3127,
    3121,
    3132,
    3110,
    3139,
    3123,
    3188,
    3120,
    3133,
    3155,
    3137,
    3145,
    3134,
    3140,
    3141,
    3131,
    3151,
    3138,
    3170,
    3141,
    3143,
    3117,
    3131,
    3145,
    3125,
    3115,
    3127,
    3118,
    3128,
    3116,
    3117,
    3117,
    3120,
    3110,
    3124,
    3107,
    3125,
    3148,
    3128,
    3118,
    3151,
    3162,
    3131,
    3130,
    3128,
    3167,
    3138,
    3118,
    3123,
    3141,
    3146,
    3160,
    3183,
    3165,
    3172,
    3140,
    3122,
    3126,
    3150,
    3157,
    3181,
    3163,
    3160,
    3148,
    3219,
    3144,
    3194,
    3163,
    3212,
    3143,
    3178,
    3165,
    3191,
    3187,
    3153,
    3130,
    3123,
    3111,
    3132,
    3124,
    3121,
    3137,
    3172,
    3149,
    3172,
    3174,
    3126,
    3116,
    3150,
    3134,
    3171,
    3138,
    3131,
    3137,
    3111,
    3115,
    3124,
    3160,
    3068,
    3095,
    3113,
    3106,
    3108,
    3095,
    3304,
    3127,
    3157,
    3096,
    3135,
    3115,
    3135,
    3168,
    3109,
    3120,
    3124,
    3148,
    3155,
    3115,
    3115,
    3138,
    3137,
    3130,
    3154,
    3156,
    3144,
    3108,
    3108,
    3117,
    3139,
    3111,
    3123,
    3133,
    3123,
    3157,
    3130,
    3128,
    3113,
    3109,
    3121,
    3129,
    3109,
    3114,
    3112,
    3133,
    3108,
    3132,
    3092,
    3106,
    3149,
    3118,
    3150,
    3125,
    3119,
    3098
   ],
   "WindowCenter": [
    838.0,
    835.0,
    836.0,
    836.0,
    835.0,
    834.0,
    833.0,
    833.0,
    833.0,
    833.0,
    835.0,
    836.0,
    836.0,
    835.0,
    835.0,
    835.0,
    835.0,
    833.0,
    832.0,
    832.0,
    832.0,
    832.0,
    833.0,
    833.0,
    834.0,
    833.0,
    833.0,
    832.0,
    832.0,
    833.0,
    833.0,
    833.0,
    834.0,
    835.0,
    834.0,
    834.0,
    834.0,
    834.0,
    834.0,
    833.0,
    834.0,
    834.0,
    834.0,
    834.0,
    833.0,
    833.0,
    834.0,
    834.0,
    834.0,
    835.0,
    836.0,
    835.0,
    834.0,
    833.0,
    833.0,
    832.0,
    831.0,
    832.0,
    833.0,
    832.0,
    832.0,
    834.0,
    833.0,
    834.0,
    831.0,
    830.0,
    831.0,
    831.0,
    831.0,
    829.0,
    832.0,
    833.0,
    833.0,
    833.0,
    832.0,
    833.0,
    833.0,
    832.0,
    833.0,
    834.0,
    833.0,
    833.0,
    832.0,
    832.0,
    831.0,
    830.0,
    832.0,
    831.0,
    831.0,
    831.0,
    832.0,
    831.0,
    832.0,
    830.0,
    832.0,
    833.0,
    833.0,
    832.0,
    832.0,
    831.0,
    831.0,
    831.0,
    830.0,
    830.0,
    830.0,
    829.0,
    829.0,
    828.0,
    830.0,
    830.0,
    831.0,
    831.0,
    831.0,
    830.0,
    830.0,
    830.0,
    831.0,
    830.0,
    832.0,
    831.0,
    833.0,
    833.0,
    832.0,
    831.0,
