{
  "AcquisitionMatrixPE": 100,
  "AcquisitionNumber": 1,
  "AcquisitionTime": "11:18:8.985000",
  "BandwidthPerPixelPhaseEncode": 18.519,
  "BaseResolution": 100,
  "BodyPartExamined": "BRAIN",
  "ConsistencyInfo": "N4_VE11C_LATEST_20160120",
  "ConversionSoftware": "dcm2niix",
  "ConversionSoftwareVersion": "v1.0.20180622 GCC4.9.2",
  "DerivedVendorReportedEchoSpacing": 0.000539986,
  "DeviceSerialNumber": "166078",
  "DwellTime": 2.1e-06,
  "EchoTime": 0.034,
  "EchoTrainLength": 100,
  "EffectiveEchoSpacing": 0.000539986,
  "FlipAngle": 90,
  "ImageOrientationPatientDICOM": [0.997684, 0, 0.0680153, 0, 1, 0],
  "ImageType": [
    "ORIGINAL",
    "PRIMARY",
    "M",
    "ND",
    "MOSAIC"
],
  "InPlanePhaseEncodingDirectionDICOM": "COL",
  "InstitutionAddress": "Street_StreetNo_Bei_Jing_District_CN_ZIP",
  "InstitutionName": "BeiJing_Normal_University",
  "InstitutionalDepartmentName": "Department",
  "MRAcquisitionType": "2D",
  "MagneticFieldStrength": 3,
  "Manufacturer": "Siemens",
  "ManufacturersModelName": "Prisma",
  "Modality": "MR",
  "MultibandAccelerationFactor": 3,
  "PartialFourier": 1,
  "PatientPosition": "HFS",
  "PercentPhaseFOV": 100,
  "PhaseEncodingDirection": "j-",
  "PhaseEncodingSteps": 100,
  "PhaseResolution": 1,
  "PixelBandwidth": 2380,
  "ProcedureStepDescription": "BNU_P2018_64CH_Zhen.ZongLei",
  "ProtocolName": "bold_100x100_s3_2x2x2_static_256",
  "PulseSequenceDetails": "%SiemensSeq%_ep2d_bold",
  "ReceiveCoilActiveElements": "HC1-7;NC1",
  "ReceiveCoilName": "HeadNeck_64",
  "ReconMatrixPE": 100,
  "RepetitionTime": 2,
  "SAR": 0.0766288,
  "ScanOptions": "FS",
  "ScanningSequence": "EP",
  "SequenceName": "_epfid2d1_100",
  "SequenceVariant": "SK",
  "SeriesDescription": "bold_100x100_s3_2x2x2_static_256",
  "SeriesNumber": 3,
  "ShimSetting": [-5446, -11509, -1248, 145, -131, -216, -156, 55],
  "SliceThickness": 2,
  "SliceTiming": [1.485, 0, 0.99, 0.0825, 1.0725, 0.165, 1.155, 0.2475, 1.2375, 0.33, 1.32, 0.4125, 1.4025, 0.5775, 1.5675, 0.66, 1.65, 0.7425, 1.7325, 0.825, 1.815, 0.9075, 1.8975, 0.495, 1.485, 0, 0.99, 0.0825, 1.0725, 0.165, 1.155, 0.2475, 1.2375, 0.33, 1.32, 0.4125, 1.4025, 0.5775, 1.5675, 0.66, 1.65, 0.7425, 1.7325, 0.825, 1.815, 0.9075, 1.8975, 0.495, 1.485, 0, 0.99, 0.0825, 1.0725, 0.165, 1.155, 0.2475, 1.2375, 0.33, 1.32, 0.4125, 1.4025, 0.5775, 1.5675, 0.66, 1.65, 0.7425, 1.7325, 0.825, 1.815, 0.9075, 1.8975, 0.495],
  "SoftwareVersions": "syngo_MR_E11",
  "SpacingBetweenSlices": 2,
  "StationName": "AWP166078",
  "TaskName": "naturalvision",
  "TotalReadoutTime": 0.0534586,
  "TxRefAmp": 244.878,
  "dcmmeta_affine": [
    [-1.9953685998916626, 0.0, 0.13603058457374573, 96.28874206542969],
    [0.0, 2.0, 0.0, -89.23373413085938],
    [0.13603058457374573, 0.0, 1.995368480682373, -75.16963958740234],
    [0.0, 0.0, 0.0, 1.0]
],
  "dcmmeta_reorient_transform": [
    [0.0, -1.0, 0.0, 99.0],
    [1.0, 0.0, 0.0, 0.0],
    [0.0, 0.0, 1.0, 0.0],
    [0.0, 0.0, 0.0, 1.0]
],
  "dcmmeta_shape": [100, 100, 72, 256],
  "dcmmeta_slice_dim": 2,
  "dcmmeta_version": 0.6,
  "global": {
    "const": {
      "AcquisitionMatrix": [100, 0, 0, 100],
      "AngioFlag": "N",
      "BitsAllocated": 16,
      "BitsStored": 12,
      "BodyPartExamined": "BRAIN",
      "Columns": 900,
      "EchoNumbers": 1,
      "EchoTime": 34.0,
      "EchoTrainLength": 100,
      "FlipAngle": 90.0,
      "HighBit": 11,
      "ImageOrientationPatient": [0.99768427877948, 0.0, 0.06801529148854, 0.0, 1.0, 0.0],
      "ImagePositionPatient": [-894.43616297238, -908.76626491547, -129.58187299642],
      "ImageType": [
        "ORIGINAL",
        "PRIMARY",
        "M",
        "ND",
        "MOSAIC"
],
      "ImagedNucleus": "1H",
      "ImagingFrequency": 123.257757,
      "InPlanePhaseEncodingDirection": "COL",
      "MRAcquisitionType": "2D",
      "MagneticFieldStrength": 3.0,
      "Manufacturer": "SIEMENS",
      "ManufacturerModelName": "Prisma",
      "Modality": "MR",
      "NumberOfAverages": 1.0,
      "NumberOfPhaseEncodingSteps": 100,
      "PercentPhaseFieldOfView": 100.0,
      "PercentSampling": 100.0,
      "PerformedProcedureStepStartTime": "111400.318000",
      "PhotometricInterpretation": "MONOCHROME2",
      "PixelBandwidth": 2380.0,
      "PixelRepresentation": 0,
      "PixelSpacing": [2.0, 2.0],
      "ProtocolName": "bold_100x100_s3_2x2x2_static_256",
      "RepetitionTime": 2000.0,
      "Rows": 900,
      "SAR": 0.07662884894547,
      "SamplesPerPixel": 1,
      "ScanOptions": "FS",
      "ScanningSequence": "EP",
      "SequenceName": "*epfid2d1_100",
      "SequenceVariant": "SK",
      "SeriesDescription": "bold_100x100_s3_2x2x2_static_256",
      "SeriesNumber": 3,
      "SeriesTime": "111811.413000",
      "SliceLocation": -68.446461160874,
      "SliceThickness": 2.0,
      "SmallestImagePixelValue": 0,
      "SoftwareVersions": "syngo MR E11",
      "SpacingBetweenSlices": 1.9999999697708,
      "SpecificCharacterSet": "ISO_IR 100",
      "StudyID": "1",
      "StudyTime": "111400.216000",
      "TransmitCoilName": "Body",
      "VariableFlipAngleFlag": "N",
      "WindowCenterWidthExplanation": "Algo1",
      "dBdt": 0.0},
    "slices": {}
  },
  "time": {
    "samples": {
      "AcquisitionNumber": [1, 2, 3, 4, 5, 6, 7, 8, 9, 10, 11, 12, 13, 14, 15, 16, 17, 18, 19, 20, 21, 22, 23, 24, 25, 26, 27, 28, 29, 30, 31, 32, 33, 34, 35, 36, 37, 38, 39, 40, 41, 42, 43, 44, 45, 46, 47, 48, 49, 50, 51, 52, 53, 54, 55, 56, 57, 58, 59, 60, 61, 62, 63, 64, 65, 66, 67, 68, 69, 70, 71, 72, 73, 74, 75, 76, 77, 78, 79, 80, 81, 82, 83, 84, 85, 86, 87, 88, 89, 90, 91, 92, 93, 94, 95, 96, 97, 98, 99, 100, 101, 102, 103, 104, 105, 106, 107, 108, 109, 110, 111, 112, 113, 114, 115, 116, 117, 118, 119, 120, 121, 122, 123, 124, 125, 126, 127, 128, 129, 130, 131, 132, 133, 134, 135, 136, 137, 138, 139, 140, 141, 142, 143, 144, 145, 146, 147, 148, 149, 150, 151, 152, 153, 154, 155, 156, 157, 158, 159, 160, 161, 162, 163, 164, 165, 166, 167, 168, 169, 170, 171, 172, 173, 174, 175, 176, 177, 178, 179, 180, 181, 182, 183, 184, 185, 186, 187, 188, 189, 190, 191, 192, 193, 194, 195, 196, 197, 198, 199, 200, 201, 202, 203, 204, 205, 206, 207, 208, 209, 210, 211, 212, 213, 214, 215, 216, 217, 218, 219, 220, 221, 222, 223, 224, 225, 226, 227, 228, 229, 230, 231, 232, 233, 234, 235, 236, 237, 238, 239, 240, 241, 242, 243, 244, 245, 246, 247, 248, 249, 250, 251, 252, 253, 254, 255, 256],
      "AcquisitionTime": ["111808.985000", "111810.985000", "111812.985000", "111814.985000", "111816.985000", "111818.985000", "111820.985000", "111822.985000", "111824.985000", "111826.985000", "111828.985000", "111830.985000", "111832.985000", "111834.985000", "111836.985000", "111838.985000", "111840.985000", "111842.985000", "111844.985000", "111846.985000", "111848.985000", "111850.985000", "111852.985000", "111854.985000", "111856.985000", "111858.985000", "111900.985000", "111902.985000", "111904.985000", "111906.985000", "111908.985000", "111910.985000", "111912.985000", "111914.985000", "111916.985000", "111918.985000", "111920.985000", "111922.985000", "111924.985000", "111926.985000", "111928.985000", "111930.985000", "111932.985000", "111934.985000", "111936.985000", "111938.985000", "111940.985000", "111942.985000", "111944.985000", "111946.985000", "111948.985000", "111950.985000", "111952.985000", "111954.985000", "111956.985000", "111958.985000", "112000.985000", "112002.985000", "112004.985000", "112006.985000", "112008.985000", "112010.985000", "112012.985000", "112014.985000", "112016.985000", "112018.985000", "112020.985000", "112022.985000", "112024.985000", "112026.985000", "112028.985000", "112030.985000", "112032.985000", "112034.985000", "112036.985000", "112038.985000", "112040.985000", "112042.985000", "112044.985000", "112046.985000", "112048.985000", "112050.985000", "112052.985000", "112054.985000", "112056.985000", "112058.985000", "112100.985000", "112102.985000", "112104.985000", "112106.985000", "112108.985000", "112110.985000", "112112.985000", "112114.985000", "112116.985000", "112118.985000", "112120.985000", "112122.985000", "112124.985000", "112126.985000", "112128.985000", "112130.985000", "112132.985000", "112134.985000", "112136.985000", "112138.985000", "112140.985000", "112142.985000", "112144.985000", "112146.985000", "112148.985000", "112150.985000", "112152.985000", "112154.985000", "112156.985000", "112158.985000", "112200.985000", "112202.985000", "112204.985000", "112206.985000", "112208.985000", "112210.985000", "112212.985000", "112214.985000", "112216.985000", "112218.985000", "112220.985000", "112222.985000", "112224.985000", "112226.985000", "112228.985000", "112230.985000", "112232.985000", "112234.985000", "112236.985000", "112238.985000", "112240.985000", "112242.985000", "112244.985000", "112246.985000", "112248.985000", "112250.985000", "112252.985000", "112254.985000", "112256.985000", "112258.985000", "112300.985000", "112302.985000", "112304.985000", "112306.985000", "112308.985000", "112310.985000", "112312.985000", "112314.985000", "112316.985000", "112318.985000", "112320.985000", "112322.985000", "112324.985000", "112326.985000", "112328.985000", "112330.985000", "112332.985000", "112334.985000", "112336.985000", "112338.985000", "112340.985000", "112342.985000", "112344.985000", "112346.985000", "112348.985000", "112350.985000", "112352.985000", "112354.985000", "112356.985000", "112358.985000", "112400.985000", "112402.985000", "112404.985000", "112406.985000", "112408.985000", "112410.985000", "112412.985000", "112414.985000", "112416.985000", "112418.985000", "112420.985000", "112422.985000", "112424.985000", "112426.985000", "112428.985000", "112430.985000", "112432.985000", "112434.985000", "112436.985000", "112438.985000", "112440.985000", "112442.985000", "112444.985000", "112446.985000", "112448.985000", "112450.985000", "112452.985000", "112454.985000", "112456.985000", "112458.985000", "112500.985000", "112502.985000", "112504.985000", "112506.985000", "112508.985000", "112510.985000", "112512.985000", "112514.985000", "112516.985000", "112518.985000", "112520.985000", "112522.985000", "112524.985000", "112526.985000", "112528.985000", "112530.985000", "112532.985000", "112534.985000", "112536.985000", "112538.985000", "112540.985000", "112542.985000", "112544.985000", "112546.985000", "112548.985000", "112550.985000", "112552.985000", "112554.985000", "112556.985000", "112558.985000", "112600.985000", "112602.985000", "112604.985000", "112606.985000", "112608.985000", "112610.985000", "112612.985000", "112614.985000", "112616.985000", "112618.985000", "112620.985000", "112622.985000", "112624.985000", "112626.985000", "112628.985000", "112630.985000", "112632.985000", "112634.985000", "112636.985000", "112638.985000"],
      "ContentTime": ["111811.416000", "111812.912000", "111814.910000", "111816.911000", "111818.911000", "111820.912000", "111822.912000", "111824.911000", "111826.912000", "111828.911000", "111830.912000", "111832.912000", "111834.911000", "111836.911000", "111838.911000", "111840.912000", "111842.911000", "111845.411000", "111847.412000", "111848.911000", "111850.911000", "111852.911000", "111854.912000", "111856.911000", "111858.911000", "111900.911000", "111902.911000", "111904.911000", "111906.910000", "111908.911000", "111910.911000", "111912.911000", "111914.911000", "111916.911000", "111918.912000", "111920.911000", "111922.911000", "111924.910000", "111927.412000", "111928.912000", "111931.412000", "111932.912000", "111935.412000", "111936.912000", "111938.912000", "111940.912000", "111942.911000", "111944.911000", "111946.911000", "111948.912000", "111950.911000", "111952.912000", "111954.911000", "111956.911000", "111958.912000", "112000.911000", "112002.911000", "112004.911000", "112007.411000", "112008.911000", "112010.911000", "112012.912000", "112014.912000", "112016.911000", "112018.911000", "112021.412000", "112022.912000", "112024.911000", "112026.912000", "112028.911000", "112031.411000", "112032.912000", "112034.910000", "112036.912000", "112038.911000", "112040.911000", "112042.911000", "112044.911000", "112046.912000", "112048.912000", "112050.911000", "112052.911000", "112054.912000", "112056.911000", "112058.911000", "112100.912000", "112102.911000", "112104.911000", "112106.912000", "112108.912000", "112110.912000", "112112.911000", "112114.911000", "112116.911000", "112118.911000", "112120.912000", "112122.912000", "112124.912000", "112126.910000", "112128.912000", "112130.912000", "112132.911000", "112134.911000", "112136.911000", "112139.412000", "112140.911000", "112142.911000", "112144.910000", "112146.912000", "112148.911000", "112150.911000", "112153.412000", "112155.411000", "112156.912000", "112158.912000", "112200.912000", "112203.412000", "112204.911000", "112206.911000", "112208.911000", "112211.412000", "112212.912000", "112214.911000", "112216.911000", "112218.912000", "112221.411000", "112222.912000", "112224.911000", "112226.911000", "112229.412000", "112230.911000", "112232.911000", "112234.911000", "112236.911000", "112238.912000", "112240.911000", "112243.412000", "112244.912000", "112246.911000", "112248.912000", "112250.911000", "112252.911000", "112254.912000", "112256.912000", "112258.912000", "112300.912000", "112303.411000", "112304.911000", "112307.412000", "112308.911000", "112310.912000", "112312.911000", "112314.911000", "112316.911000", "112318.911000", "112320.912000", "112323.412000", "112324.912000", "112326.911000", "112328.911000", "112330.911000", "112332.911000", "112335.411000", "112336.911000", "112338.911000", "112340.912000", "112342.912000", "112344.912000", "112346.911000", "112348.911000", "112350.911000", "112353.412000", "112354.911000", "112356.912000", "112358.911000", "112401.412000", "112402.912000", "112405.412000", "112406.911000", "112408.912000", "112410.912000", "112412.911000", "112414.912000", "112416.911000", "112418.911000", "112420.911000", "112422.912000", "112424.924000", "112427.411000", "112428.911000", "112430.911000", "112432.912000", "112434.912000", "112436.912000", "112438.911000", "112441.412000", "112442.911000", "112444.911000", "112446.912000", "112448.911000", "112450.911000", "112452.912000", "112454.911000", "112456.911000", "112458.911000", "112501.411000", "112502.912000", "112504.911000", "112506.911000", "112508.912000", "112510.911000", "112512.911000", "112514.912000", "112516.912000", "112518.912000", "112520.912000", "112522.911000", "112524.911000", "112526.912000", "112528.911000", "112530.912000", "112532.911000", "112534.911000", "112536.912000", "112538.912000", "112540.911000", "112542.912000", "112544.912000", "112546.911000", "112548.911000", "112550.911000", "112552.912000", "112554.912000", "112556.912000", "112558.911000", "112600.911000", "112602.911000", "112604.911000", "112606.911000", "112609.411000", "112610.911000", "112612.912000", "112614.912000", "112616.911000", "112618.912000", "112620.912000", "112623.412000", "112624.912000", "112626.912000", "112628.912000", "112630.911000", "112632.912000", "112634.912000", "112636.911000", "112638.911000", "112640.865000"],
      "InstanceCreationTime": ["111811.416000", "111812.912000", "111814.910000", "111816.911000", "111818.911000", "111820.912000", "111822.912000", "111824.911000", "111826.912000", "111828.911000", "111830.912000", "111832.912000", "111834.911000", "111836.911000", "111838.911000", "111840.912000", "111842.911000", "111845.411000", "111847.412000", "111848.911000", "111850.911000", "111852.911000", "111854.912000", "111856.911000", "111858.911000", "111900.911000", "111902.911000", "111904.911000", "111906.910000", "111908.911000", "111910.911000", "111912.911000", "111914.911000", "111916.911000", "111918.912000", "111920.911000", "111922.911000", "111924.910000", "111927.412000", "111928.912000", "111931.412000", "111932.912000", "111935.412000", "111936.912000", "111938.912000", "111940.912000", "111942.911000", "111944.911000", "111946.911000", "111948.912000", "111950.911000", "111952.912000", "111954.911000", "111956.911000", "111958.912000", "112000.911000", "112002.911000", "112004.911000", "112007.411000", "112008.911000", "112010.911000", "112012.912000", "112014.912000", "112016.911000", "112018.911000", "112021.412000", "112022.912000", "112024.911000", "112026.912000", "112028.911000", "112031.411000", "112032.912000", "112034.910000", "112036.912000", "112038.911000", "112040.911000", "112042.911000", "112044.911000", "112046.912000", "112048.912000", "112050.911000", "112052.911000", "112054.912000", "112056.911000", "112058.911000", "112100.912000", "112102.911000", "112104.911000", "112106.912000", "112108.912000", "112110.912000", "112112.911000", "112114.911000", "112116.911000", "112118.911000", "112120.912000", "112122.912000", "112124.912000", "112126.910000", "112128.912000", "112130.912000", "112132.911000", "112134.911000", "112136.911000", "112139.412000", "112140.911000", "112142.911000", "112144.910000", "112146.912000", "112148.911000", "112150.911000", "112153.412000", "112155.411000", "112156.912000", "112158.912000", "112200.912000", "112203.412000", "112204.911000", "112206.911000", "112208.911000", "112211.412000", "112212.912000", "112214.911000", "112216.911000", "112218.912000", "112221.411000", "112222.912000", "112224.911000", "112226.911000", "112229.412000", "112230.911000", "112232.911000", "112234.911000", "112236.911000", "112238.912000", "112240.911000", "112243.412000", "112244.912000", "112246.911000", "112248.912000", "112250.911000", "112252.911000", "112254.912000", "112256.912000", "112258.912000", "112300.912000", "112303.411000", "112304.911000", "112307.412000", "112308.911000", "112310.912000", "112312.911000", "112314.911000", "112316.911000", "112318.911000", "112320.912000", "112323.412000", "112324.912000", "112326.911000", "112328.911000", "112330.911000", "112332.911000", "112335.411000", "112336.911000", "112338.911000", "112340.912000", "112342.912000", "112344.912000", "112346.911000", "112348.911000", "112350.911000", "112353.412000", "112354.911000", "112356.912000", "112358.911000", "112401.412000", "112402.912000", "112405.412000", "112406.911000", "112408.912000", "112410.912000", "112412.911000", "112414.912000", "112416.911000", "112418.911000", "112420.911000", "112422.912000", "112424.924000", "112427.411000", "112428.911000", "112430.911000", "112432.912000", "112434.912000", "112436.912000", "112438.911000", "112441.412000", "112442.911000", "112444.911000", "112446.912000", "112448.911000", "112450.911000", "112452.912000", "112454.911000", "112456.911000", "112458.911000", "112501.411000", "112502.912000", "112504.911000", "112506.911000", "112508.912000", "112510.911000", "112512.911000", "112514.912000", "112516.912000", "112518.912000", "112520.912000", "112522.911000", "112524.911000", "112526.912000", "112528.911000", "112530.912000", "112532.911000", "112534.911000", "112536.912000", "112538.912000", "112540.911000", "112542.912000", "112544.912000", "112546.911000", "112548.911000", "112550.911000", "112552.912000", "112554.912000", "112556.912000", "112558.911000", "112600.911000", "112602.911000", "112604.911000", "112606.911000", "112609.411000", "112610.911000", "112612.912000", "112614.912000", "112616.911000", "112618.912000", "112620.912000", "112623.412000", "112624.912000", "112626.912000", "112628.912000", "112630.911000", "112632.912000", "112634.912000", "112636.911000", "112638.911000", "112640.865000"],
      "InstanceNumber": [1, 2, 3, 4, 5, 6, 7, 8, 9, 10, 11, 12, 13, 14, 15, 16, 17, 18, 19, 20, 21, 22, 23, 24, 25, 26, 27, 28, 29, 30, 31, 32, 33, 34, 35, 36, 37, 38, 39, 40, 41, 42, 43, 44, 45, 46, 47, 48, 49, 50, 51, 52, 53, 54, 55, 56, 57, 58, 59, 60, 61, 62, 63, 64, 65, 66, 67, 68, 69, 70, 71, 72, 73, 74, 75, 76, 77, 78, 79, 80, 81, 82, 83, 84, 85, 86, 87, 88, 89, 90, 91, 92, 93, 94, 95, 96, 97, 98, 99, 100, 101, 102, 103, 104, 105, 106, 107, 108, 109, 110, 111, 112, 113, 114, 115, 116, 117, 118, 119, 120, 121, 122, 123, 124, 125, 126, 127, 128, 129, 130, 131, 132, 133, 134, 135, 136, 137, 138, 139, 140, 141, 142, 143, 144, 145, 146, 147, 148, 149, 150, 151, 152, 153, 154, 155, 156, 157, 158, 159, 160, 161, 162, 163, 164, 165, 166, 167, 168, 169, 170, 171, 172, 173, 174, 175, 176, 177, 178, 179, 180, 181, 182, 183, 184, 185, 186, 187, 188, 189, 190, 191, 192, 193, 194, 195, 196, 197, 198, 199, 200, 201, 202, 203, 204, 205, 206, 207, 208, 209, 210, 211, 212, 213, 214, 215, 216, 217, 218, 219, 220, 221, 222, 223, 224, 225, 226, 227, 228, 229, 230, 231, 232, 233, 234, 235, 236, 237, 238, 239, 240, 241, 242, 243, 244, 245, 246, 247, 248, 249, 250, 251, 252, 253, 254, 255, 256],
      "LargestImagePixelValue": [3599, 3531, 3514, 3503, 3505, 3506, 3459, 3473, 3496, 3553, 3554, 3508, 3464, 3459, 3447, 3477, 3446, 3430, 3421, 3478, 3448, 3415, 3432, 3414, 3431, 3418, 3461, 3434, 3413, 3415, 3413, 3428, 3419, 3411, 3416, 3418, 3435, 3432, 3438, 3472, 3437, 3440, 3462, 3448, 3467, 3462, 3445, 3442, 3440, 3421, 3462, 3449, 3490, 3472, 3441, 3453, 3444, 3422, 3437, 3435, 3459, 3416, 3468, 3471, 3454, 3444, 3432, 3434, 3473, 3473, 3476, 3434, 3472, 3476, 3472, 3528, 3532, 3498, 3511, 3500, 3523, 3514, 3505, 3496, 3529, 3508, 3491, 3491, 3490, 3499, 3496, 3440, 3508, 3499, 3474, 3474, 3468, 3482, 3481, 3506, 3487, 3525, 3487, 3516, 3504, 3517, 3517, 3517, 3498, 3504, 3533, 3496, 3510, 3486, 3491, 3512, 3513, 3531, 3465, 3504, 3502, 3490, 3523, 3495, 3519, 3536, 3480, 3510, 3507, 3525, 3480, 3501, 3502, 3493, 3513, 3514, 3532, 3523, 3523, 3515, 3530, 3502, 3520, 3515, 3503, 3477, 3507, 3511, 3547, 3508, 3499, 3510, 3502, 3508, 3523, 3507, 3518, 3554, 3521, 3501, 3523, 3535, 3525, 3545, 3530, 3538, 3503, 3529, 3540, 3556, 3518, 3508, 3536, 3561, 3549, 3570, 3535, 3512, 3525, 3521, 3580, 3551, 3549, 3540, 3535, 3538, 3552, 3515, 3535, 3546, 3511, 3569, 3549, 3529, 3573, 3529, 3517, 3554, 3546, 3543, 3549, 3542, 3545, 3546, 3591, 3587, 3551, 3555, 3560, 3539, 3550, 3555, 3530, 3513, 3553, 3545, 3536, 3570, 3566, 3556, 3559, 3555, 3548, 3528, 3553, 3573, 3562, 3553, 3514, 3519, 3538, 3561, 3542, 3545, 3539, 3528, 3519, 3554, 3553, 3546, 3542, 3516, 3560, 3548, 3560, 3541, 3550, 3544, 3540, 3540, 3574, 3548, 3516, 3551, 3541, 3530],
      "WindowCenter": [848.0, 845.0, 845.0, 846.0, 845.0, 843.0, 843.0, 843.0, 845.0, 846.0, 848.0, 847.0, 846.0, 844.0, 843.0, 843.0, 843.0, 842.0, 842.0, 841.0, 841.0, 843.0, 843.0, 843.0, 842.0, 842.0, 843.0, 844.0, 843.0, 841.0, 839.0, 839.0, 840.0, 840.0, 841.0, 842.0, 843.0, 844.0, 844.0, 844.0, 844.0, 844.0, 845.0, 845.0, 843.0, 842.0, 842.0, 843.0, 842.0, 841.0, 842.0, 842.0, 843.0, 843.0, 844.0, 845.0, 843.0, 841.0, 841.0, 840.0, 843.0, 844.0, 845.0, 843.0, 842.0, 841.0, 843.0, 842.0, 843.0, 843.0, 844.0, 844.0, 845.0, 845.0, 845.0, 844.0, 845.0, 846.0, 845.0, 844.0, 843.0, 843.0, 844.0, 845.0, 844.0, 844.0, 844.0, 842.0, 843.0, 844.0, 844.0, 843.0, 843.0, 843.0, 842.0, 845.0, 845.0, 844.0, 844.0, 844.0, 844.0, 845.0, 845.0, 844.0, 844.0, 844.0, 844.0, 845.0, 846.0, 846.0, 848.0, 849.0, 848.0, 846.0, 846.0, 845.0, 845.0, 845.0, 844.0, 843.0, 843.0, 842.0, 843.0, 843.0, 844.0, 846.0, 845.0, 845.0, 844.0, 845.0, 845.0, 844.0, 845.0, 846.0, 845.0, 844.0, 844.0, 845.0, 846.0, 846.0, 845.0, 844.0, 845.0, 846.0, 846.0, 846.0, 846.0, 847.0, 848.0, 848.0, 847.0, 845.0, 844.0, 847.0, 847.0, 846.0, 845.0, 844.0, 844.0, 845.0, 846.0, 846.0, 846.0, 846.0, 846.0, 847.0, 849.0, 848.0, 848.0, 847.0, 847.0, 846.0, 846.0, 847.0, 846.0, 845.0, 843.0, 841.0, 843.0, 844.0, 845.0, 845.0, 844.0, 844.0, 844.0, 845.0, 845.0, 845.0, 846.0, 846.0, 847.0, 848.0, 848.0, 848.0, 847.0, 845.0, 845.0, 846.0, 846.0, 846.0, 845.0, 846.0, 848.0, 848.0, 848.0, 848.0, 851.0, 851.0, 849.0, 849.0, 848.0, 847.0, 846.0, 847.0, 849.0, 849.0, 848.0, 847.0, 847.0, 846.0, 846.0, 846.0, 847.0, 847.0, 848.0, 848.0, 849.0, 849.0, 848.0, 847.0, 847.0, 847.0, 848.0, 846.0, 846.0, 845.0, 845.0, 846.0, 847.0, 846.0, 848.0, 848.0, 848.0, 849.0, 849.0, 849.0, 849.0, 848.0, 848.0, 848.0, 847.0, 846.0, 846.0, 847.0, 849.0, 849.0],
      "WindowWidth": [1805.0, 1797.0, 1797.0, 1798.0, 1795.0, 1791.0, 1790.0, 1792.0, 1796.0, 1799.0, 1804.0, 1802.0, 1798.0, 1793.0, 1791.0, 1790.0, 1791.0, 1789.0, 1788.0, 1787.0, 1787.0, 1790.0, 1791.0, 1790.0, 1789.0, 1788.0, 1791.0, 1794.0, 1792.0, 1787.0, 1781.0, 1780.0, 1784.0, 1784.0, 1787.0, 1788.0, 1790.0, 1792.0, 1793.0, 1793.0, 1794.0, 1795.0, 1796.0, 1795.0, 1791.0, 1787.0, 1790.0, 1790.0, 1789.0, 1787.0, 1789.0, 1789.0, 1791.0, 1790.0, 1794.0, 1797.0, 1792.0, 1786.0, 1785.0, 1784.0, 1791.0, 1794.0, 1795.0, 1791.0, 1789.0, 1787.0, 1789.0, 1789.0, 1791.0, 1791.0, 1792.0, 1791.0, 1795.0, 1796.0, 1795.0, 1794.0, 1796.0, 1797.0, 1795.0, 1792.0, 1790.0, 1790.0, 1793.0, 1795.0, 1794.0, 1793.0, 1791.0, 1789.0, 1791.0, 1791.0, 1791.0, 1789.0, 1789.0, 1788.0, 1788.0, 1794.0, 1794.0, 1793.0, 1791.0, 1792.0, 1793.0, 1795.0, 1793.0, 1792.0, 1791.0, 1792.0, 1793.0, 1794.0, 1796.0, 1798.0, 1802.0, 1803.0, 1801.0, 1796.0, 1796.0, 1794.0, 1794.0, 1794.0, 1792.0, 1790.0, 1789.0, 1786.0, 1789.0, 1790.0, 1792.0, 1795.0, 1794.0, 1794.0, 1792.0, 1793.0, 1795.0, 1793.0, 1796.0, 1796.0, 1795.0, 1792.0, 1793.0, 1794.0, 1796.0, 1796.0, 1794.0, 1793.0, 1795.0, 1796.0, 1796.0, 1795.0, 1796.0, 1799.0, 1802.0, 1801.0, 1798.0, 1794.0, 1793.0, 1798.0, 1799.0, 1796.0, 1793.0, 1792.0, 1791.0, 1794.0, 1797.0, 1797.0, 1797.0, 1797.0, 1798.0, 1800.0, 1803.0, 1801.0, 1801.0, 1799.0, 1798.0, 1797.0, 1798.0, 1799.0, 1798.0, 1795.0, 1790.0, 1786.0, 1789.0, 1791.0, 1794.0, 1794.0, 1792.0, 1792.0, 1793.0, 1793.0, 1795.0, 1795.0, 1796.0, 1797.0, 1799.0, 1802.0, 1802.0, 1801.0, 1799.0, 1795.0, 1794.0, 1796.0, 1796.0, 1795.0, 1795.0, 1797.0, 1801.0, 1802.0, 1802.0, 1802.0, 1808.0, 1808.0, 1805.0, 1803.0, 1802.0, 1800.0, 1797.0, 1799.0, 1804.0, 1803.0, 1800.0, 1800.0, 1798.0, 1796.0, 1796.0, 1797.0, 1798.0, 1800.0, 1802.0, 1801.0, 1803.0, 1802.0, 1801.0, 1798.0, 1799.0, 1799.0, 1800.0, 1797.0, 1796.0, 1795.0, 1793.0, 1796.0, 1799.0, 1797.0, 1801.0, 1800.0, 1802.0, 1803.0, 1805.0, 1804.0, 1802.0, 1801.0, 1801.0, 1800.0, 1799.0, 1796.0, 1797.0, 1800.0, 1804.0, 1804.0]
    },
    "slices": {}
  }
}