{
 "AcquisitionMatrixPE": 100,
 "AcquisitionNumber": 1,
 "AcquisitionTime": "12:09:1.852500",
 "BandwidthPerPixelPhaseEncode": 18.519,
 "BaseResolution": 100,
 "BodyPartExamined": "BRAIN",
 "ConsistencyInfo": "N4_VE11C_LATEST_20160120",
 "ConversionSoftware": "dcm2niix",
 "ConversionSoftwareVersion": "v1.0.20180622 GCC4.9.2",
 "DerivedVendorReportedEchoSpacing": 0.000539986,
 "DeviceSerialNumber": "166078",
 "DwellTime": 2.1e-06,
 "EchoTime": 0.034,
 "EchoTrainLength": 100,
 "EffectiveEchoSpacing": 0.000539986,
 "FlipAngle": 90,
 "ImageOrientationPatientDICOM": [
  0.997684,
  0,
  0.0680153,
  0,
  1,
  0
 ],
 "ImageType": [
  "ORIGINAL",
  "PRIMARY",
  "M",
  "ND",
  "MOSAIC"
 ],
 "InPlanePhaseEncodingDirectionDICOM": "COL",
 "InstitutionAddress": "Street_StreetNo_Bei_Jing_District_CN_ZIP",
 "InstitutionName": "BeiJing_Normal_University",
 "InstitutionalDepartmentName": "Department",
 "MRAcquisitionType": "2D",
 "MagneticFieldStrength": 3,
 "Manufacturer": "Siemens",
 "ManufacturersModelName": "Prisma",
 "Modality": "MR",
 "MultibandAccelerationFactor": 3,
 "PartialFourier": 1,
 "PatientPosition": "HFS",
 "PercentPhaseFOV": 100,
 "PhaseEncodingDirection": "j-",
 "PhaseEncodingSteps": 100,
 "PhaseResolution": 1,
 "PixelBandwidth": 2380,
 "ProcedureStepDescription": "BNU_P2018_64CH_Zhen.ZongLei",
 "ProtocolName": "bold_100x100_s3_2x2x2_static_256",
 "PulseSequenceDetails": "%SiemensSeq%_ep2d_bold",
 "ReceiveCoilActiveElements": "HC1-7;NC1",
 "ReceiveCoilName": "HeadNeck_64",
 "ReconMatrixPE": 100,
 "RepetitionTime": 2,
 "SAR": 0.0766288,
 "ScanOptions": "FS",
 "ScanningSequence": "EP",
 "SequenceName": "_epfid2d1_100",
 "SequenceVariant": "SK",
 "SeriesDescription": "bold_100x100_s3_2x2x2_static_256",
 "SeriesNumber": 10,
 "ShimSetting": [
  -5446,
  -11509,
  -1248,
  145,
  -131,
  -216,
  -156,
  55
 ],
 "SliceThickness": 2,
 "SliceTiming": [
  1.485,
  0,
  0.99,
  0.0825,
  1.0725,
  0.165,
  1.155,
  0.2475,
  1.2375,
  0.33,
  1.32,
  0.4125,
  1.4025,
  0.5775,
  1.5675,
  0.66,
  1.65,
  0.7425,
  1.7325,
  0.825,
  1.815,
  0.9075,
  1.8975,
  0.495,
  1.485,
  0,
  0.99,
  0.0825,
  1.0725,
  0.165,
  1.155,
  0.2475,
  1.2375,
  0.33,
  1.32,
  0.4125,
  1.4025,
  0.5775,
  1.5675,
  0.66,
  1.65,
  0.7425,
  1.7325,
  0.825,
  1.815,
  0.9075,
  1.8975,
  0.495,
  1.485,
  0,
  0.99,
  0.0825,
  1.0725,
  0.165,
  1.155,
  0.2475,
  1.2375,
  0.33,
  1.32,
  0.4125,
  1.4025,
  0.5775,
  1.5675,
  0.66,
  1.65,
  0.7425,
  1.7325,
  0.825,
  1.815,
  0.9075,
  1.8975,
  0.495
 ],
 "SoftwareVersions": "syngo_MR_E11",
 "SpacingBetweenSlices": 2,
 "StationName": "AWP166078",
 "TaskName": "imagenet",
 "TotalReadoutTime": 0.0534586,
 "TxRefAmp": 244.878,
 "dcmmeta_affine": [
  [
   -1.9953685998916626,
   0.0,
   0.13603058457374573,
   96.28874206542969
  ],
  [
   0.0,
   2.0,
   0.0,
   -89.23373413085938
  ],
  [
   0.13603058457374573,
   0.0,
   1.995368480682373,
   -75.16963958740234
  ],
  [
   0.0,
   0.0,
   0.0,
   1.0
  ]
 ],
 "dcmmeta_reorient_transform": [
  [
   0.0,
   -1.0,
   0.0,
   99.0
  ],
  [
   1.0,
   0.0,
   0.0,
   0.0
  ],
  [
   0.0,
   0.0,
   1.0,
   0.0
  ],
  [
   0.0,
   0.0,
   0.0,
   1.0
  ]
 ],
 "dcmmeta_shape": [
  100,
  100,
  72,
  256
 ],
 "dcmmeta_slice_dim": 2,
 "dcmmeta_version": 0.6,
 "global": {
  "const": {
   "AcquisitionMatrix": [
    100,
    0,
    0,
    100
   ],
   "AngioFlag": "N",
   "BitsAllocated": 16,
   "BitsStored": 12,
   "BodyPartExamined": "BRAIN",
   "Columns": 900,
   "EchoNumbers": 1,
   "EchoTime": 34.0,
   "EchoTrainLength": 100,
   "FlipAngle": 90.0,
   "HighBit": 11,
   "ImageOrientationPatient": [
    0.99768427877948,
    0.0,
    0.06801529148854,
    0.0,
    1.0,
    0.0
   ],
   "ImagePositionPatient": [
    -894.43616297238,
    -908.76626491547,
    -129.58187299642
   ],
   "ImageType": [
    "ORIGINAL",
    "PRIMARY",
    "M",
    "ND",
    "MOSAIC"
   ],
   "ImagedNucleus": "1H",
   "ImagingFrequency": 123.257765,
   "InPlanePhaseEncodingDirection": "COL",
   "MRAcquisitionType": "2D",
   "MagneticFieldStrength": 3.0,
   "Manufacturer": "SIEMENS",
   "ManufacturerModelName": "Prisma",
   "Modality": "MR",
   "NumberOfAverages": 1.0,
   "NumberOfPhaseEncodingSteps": 100,
   "PercentPhaseFieldOfView": 100.0,
   "PercentSampling": 100.0,
   "PerformedProcedureStepStartTime": "111400.318000",
   "PhotometricInterpretation": "MONOCHROME2",
   "PixelBandwidth": 2380.0,
   "PixelRepresentation": 0,
   "PixelSpacing": [
    2.0,
    2.0
   ],
   "ProtocolName": "bold_100x100_s3_2x2x2_static_256",
   "RepetitionTime": 2000.0,
   "Rows": 900,
   "SAR": 0.07662884894547,
   "SamplesPerPixel": 1,
   "ScanOptions": "FS",
   "ScanningSequence": "EP",
   "SequenceName": "*epfid2d1_100",
   "SequenceVariant": "SK",
   "SeriesDescription": "bold_100x100_s3_2x2x2_static_256",
   "SeriesNumber": 10,
   "SeriesTime": "120904.433000",
   "SliceLocation": -68.446461160874,
   "SliceThickness": 2.0,
   "SmallestImagePixelValue": 0,
   "SoftwareVersions": "syngo MR E11",
   "SpacingBetweenSlices": 1.9999999697708,
   "SpecificCharacterSet": "ISO_IR 100",
   "StudyID": "1",
   "StudyTime": "111400.216000",
   "TransmitCoilName": "Body",
   "VariableFlipAngleFlag": "N",
   "WindowCenterWidthExplanation": "Algo1",
   "dBdt": 0.0
  },
  "slices": {}
 },
 "time": {
  "samples": {
   "AcquisitionNumber": [
    1,
    2,
    3,
    4,
    5,
    6,
    7,
    8,
    9,
    10,
    11,
    12,
    13,
    14,
    15,
    16,
    17,
    18,
    19,
    20,
    21,
    22,
    23,
    24,
    25,
    26,
    27,
    28,
    29,
    30,
    31,
    32,
    33,
    34,
    35,
    36,
    37,
    38,
    39,
    40,
    41,
    42,
    43,
    44,
    45,
    46,
    47,
    48,
    49,
    50,
    51,
    52,
    53,
    54,
    55,
    56,
    57,
    58,
    59,
    60,
    61,
    62,
    63,
    64,
    65,
    66,
    67,
    68,
    69,
    70,
    71,
    72,
    73,
    74,
    75,
    76,
    77,
    78,
    79,
    80,
    81,
    82,
    83,
    84,
    85,
    86,
    87,
    88,
    89,
    90,
    91,
    92,
    93,
    94,
    95,
    96,
    97,
    98,
    99,
    100,
    101,
    102,
    103,
    104,
    105,
    106,
    107,
    108,
    109,
    110,
    111,
    112,
    113,
    114,
    115,
    116,
    117,
    118,
    119,
    120,
    121,
    122,
    123,
    124,
    125,
    126,
    127,
    128,
    129,
    130,
    131,
    132,
    133,
    134,
    135,
    136,
    137,
    138,
    139,
    140,
    141,
    142,
    143,
    144,
    145,
    146,
    147,
    148,
    149,
    150,
    151,
    152,
    153,
    154,
    155,
    156,
    157,
    158,
    159,
    160,
    161,
    162,
    163,
    164,
    165,
    166,
    167,
    168,
    169,
    170,
    171,
    172,
    173,
    174,
    175,
    176,
    177,
    178,
    179,
    180,
    181,
    182,
    183,
    184,
    185,
    186,
    187,
    188,
    189,
    190,
    191,
    192,
    193,
    194,
    195,
    196,
    197,
    198,
    199,
    200,
    201,
    202,
    203,
    204,
    205,
    206,
    207,
    208,
    209,
    210,
    211,
    212,
    213,
    214,
    215,
    216,
    217,
    218,
    219,
    220,
    221,
    222,
    223,
    224,
    225,
    226,
    227,
    228,
    229,
    230,
    231,
    232,
    233,
    234,
    235,
    236,
    237,
    238,
    239,
    240,
    241,
    242,
    243,
    244,
    245,
    246,
    247,
    248,
    249,
    250,
    251,
    252,
    253,
    254,
    255,
    256
   ],
   "AcquisitionTime": [
    "120901.852500",
    "120903.852500",
    "120905.852500",
    "120907.852500",
    "120909.852500",
    "120911.852500",
    "120913.852500",
    "120915.852500",
    "120917.852500",
    "120919.852500",
    "120921.852500",
    "120923.852500",
    "120925.852500",
    "120927.852500",
    "120929.852500",
    "120931.852500",
    "120933.852500",
    "120935.852500",
    "120937.852500",
    "120939.852500",
    "120941.852500",
    "120943.852500",
    "120945.852500",
    "120947.852500",
    "120949.852500",
    "120951.852500",
    "120953.852500",
    "120955.852500",
    "120957.852500",
    "120959.852500",
    "121001.852500",
    "121003.852500",
    "121005.852500",
    "121007.852500",
    "121009.852500",
    "121011.852500",
    "121013.852500",
    "121015.852500",
    "121017.852500",
    "121019.852500",
    "121021.852500",
    "121023.852500",
    "121025.852500",
    "121027.852500",
    "121029.852500",
    "121031.852500",
    "121033.852500",
    "121035.852500",
    "121037.852500",
    "121039.852500",
    "121041.852500",
    "121043.852500",
    "121045.852500",
    "121047.852500",
    "121049.852500",
    "121051.852500",
    "121053.852500",
    "121055.852500",
    "121057.852500",
    "121059.852500",
    "121101.852500",
    "121103.852500",
    "121105.852500",
    "121107.852500",
    "121109.852500",
    "121111.852500",
    "121113.852500",
    "121115.852500",
    "121117.852500",
    "121119.852500",
    "121121.852500",
    "121123.852500",
    "121125.852500",
    "121127.852500",
    "121129.852500",
    "121131.852500",
    "121133.852500",
    "121135.852500",
    "121137.852500",
    "121139.852500",
    "121141.852500",
    "121143.852500",
    "121145.852500",
    "121147.852500",
    "121149.852500",
    "121151.852500",
    "121153.852500",
    "121155.852500",
    "121157.852500",
    "121159.852500",
    "121201.852500",
    "121203.852500",
    "121205.852500",
    "121207.852500",
    "121209.852500",
    "121211.852500",
    "121213.852500",
    "121215.852500",
    "121217.852500",
    "121219.852500",
    "121221.852500",
    "121223.852500",
    "121225.852500",
    "121227.852500",
    "121229.852500",
    "121231.852500",
    "121233.852500",
    "121235.852500",
    "121237.852500",
    "121239.852500",
    "121241.852500",
    "121243.852500",
    "121245.852500",
    "121247.852500",
    "121249.852500",
    "121251.852500",
    "121253.852500",
    "121255.852500",
    "121257.852500",
    "121259.852500",
    "121301.852500",
    "121303.852500",
    "121305.852500",
    "121307.852500",
    "121309.852500",
    "121311.852500",
    "121313.852500",
    "121315.852500",
    "121317.852500",
    "121319.852500",
    "121321.852500",
    "121323.852500",
    "121325.852500",
    "121327.852500",
    "121329.852500",
    "121331.852500",
    "121333.852500",
    "121335.852500",
    "121337.852500",
    "121339.852500",
    "121341.852500",
    "121343.852500",
    "121345.852500",
    "121347.852500",
    "121349.852500",
    "121351.852500",
    "121353.852500",
    "121355.852500",
    "121357.852500",
    "121359.852500",
    "121401.852500",
    "121403.852500",
    "121405.852500",
    "121407.852500",
    "121409.852500",
    "121411.852500",
    "121413.852500",
    "121415.852500",
    "121417.852500",
    "121419.852500",
    "121421.852500",
    "121423.852500",
    "121425.852500",
    "121427.852500",
    "121429.852500",
    "121431.852500",
    "121433.852500",
    "121435.852500",
    "121437.852500",
    "121439.852500",
    "121441.852500",
    "121443.852500",
    "121445.852500",
    "121447.852500",
    "121449.852500",
    "121451.852500",
    "121453.852500",
    "121455.852500",
    "121457.852500",
    "121459.852500",
    "121501.852500",
    "121503.852500",
    "121505.852500",
    "121507.852500",
    "121509.852500",
    "121511.852500",
    "121513.852500",
    "121515.852500",
    "121517.852500",
    "121519.852500",
    "121521.852500",
    "121523.852500",
    "121525.852500",
    "121527.852500",
    "121529.852500",
    "121531.852500",
    "121533.852500",
    "121535.852500",
    "121537.852500",
    "121539.852500",
    "121541.852500",
    "121543.852500",
    "121545.852500",
    "121547.852500",
    "121549.852500",
    "121551.852500",
    "121553.852500",
    "121555.852500",
    "121557.852500",
    "121559.852500",
    "121601.852500",
    "121603.852500",
    "121605.852500",
    "121607.852500",
    "121609.852500",
    "121611.852500",
    "121613.852500",
    "121615.852500",
    "121617.852500",
    "121619.852500",
    "121621.852500",
    "121623.852500",
    "121625.852500",
    "121627.852500",
    "121629.852500",
    "121631.852500",
    "121633.852500",
    "121635.852500",
    "121637.852500",
    "121639.852500",
    "121641.852500",
    "121643.852500",
    "121645.852500",
    "121647.852500",
    "121649.852500",
    "121651.852500",
    "121653.852500",
    "121655.852500",
    "121657.852500",
    "121659.852500",
    "121701.852500",
    "121703.852500",
    "121705.852500",
    "121707.852500",
    "121709.852500",
    "121711.852500",
    "121713.852500",
    "121715.852500",
    "121717.852500",
    "121719.852500",
    "121721.852500",
    "121723.852500",
    "121725.852500",
    "121727.852500",
    "121729.852500",
    "121731.852500"
   ],
   "ContentTime": [
    "120904.437000",
    "120905.932000",
    "120907.932000",
    "120909.933000",
    "120911.933000",
    "120913.932000",
    "120915.932000",
    "120917.932000",
    "120919.933000",
    "120921.932000",
    "120923.932000",
    "120925.932000",
    "120927.933000",
    "120929.932000",
    "120931.931000",
    "120933.932000",
    "120935.932000",
    "120937.932000",
    "120939.933000",
    "120941.932000",
    "120943.932000",
    "120945.932000",
    "120947.932000",
    "120949.933000",
    "120951.932000",
    "120953.932000",
    "120955.933000",
    "120957.932000",
    "120959.932000",
    "121001.932000",
    "121003.932000",
    "121005.931000",
    "121007.932000",
    "121009.933000",
    "121011.933000",
    "121013.932000",
    "121015.933000",
    "121017.932000",
    "121019.932000",
    "121021.933000",
    "121023.931000",
    "121025.932000",
    "121027.932000",
    "121029.933000",
    "121031.933000",
    "121033.933000",
    "121035.933000",
    "121037.933000",
    "121039.932000",
    "121041.931000",
    "121043.932000",
    "121045.932000",
    "121047.932000",
    "121049.932000",
    "121051.933000",
    "121053.933000",
    "121055.932000",
    "121057.932000",
    "121059.932000",
    "121101.933000",
    "121103.933000",
    "121105.932000",
    "121107.933000",
    "121109.932000",
    "121111.933000",
    "121113.932000",
    "121115.932000",
    "121117.933000",
    "121119.932000",
    "121121.932000",
    "121123.933000",
    "121125.932000",
    "121127.932000",
    "121129.933000",
    "121131.933000",
    "121133.932000",
    "121135.932000",
    "121137.933000",
    "121139.932000",
    "121141.932000",
    "121143.933000",
    "121145.932000",
    "121147.932000",
    "121149.932000",
    "121151.931000",
    "121153.932000",
    "121155.933000",
    "121157.932000",
    "121159.933000",
    "121201.933000",
    "121203.933000",
    "121205.932000",
    "121207.932000",
    "121209.932000",
    "121211.933000",
    "121213.933000",
    "121215.933000",
    "121217.932000",
    "121219.932000",
    "121221.933000",
    "121223.932000",
    "121225.931000",
    "121227.932000",
    "121229.932000",
    "121231.933000",
    "121233.933000",
    "121235.932000",
    "121237.933000",
    "121239.932000",
    "121241.932000",
    "121243.931000",
    "121245.933000",
    "121247.932000",
    "121249.932000",
    "121251.933000",
    "121253.932000",
    "121255.932000",
    "121257.933000",
    "121259.933000",
    "121301.931000",
    "121303.933000",
    "121305.933000",
    "121307.932000",
    "121309.933000",
    "121311.932000",
    "121313.933000",
    "121315.932000",
    "121317.932000",
    "121319.933000",
    "121321.933000",
    "121323.932000",
    "121325.933000",
    "121327.933000",
    "121329.933000",
    "121331.933000",
    "121333.932000",
    "121335.932000",
    "121337.932000",
    "121339.933000",
    "121341.933000",
    "121343.933000",
    "121345.933000",
    "121347.932000",
    "121349.932000",
    "121351.932000",
    "121353.931000",
    "121355.933000",
    "121357.933000",
    "121359.933000",
    "121401.932000",
    "121403.932000",
    "121405.932000",
    "121407.933000",
    "121409.933000",
    "121411.932000",
    "121413.933000",
    "121415.933000",
    "121417.933000",
    "121419.932000",
    "121421.932000",
    "121423.933000",
    "121425.932000",
    "121427.932000",
    "121429.932000",
    "121431.933000",
    "121433.933000",
    "121435.932000",
    "121437.933000",
    "121439.933000",
    "121441.932000",
    "121443.933000",
    "121445.932000",
    "121447.932000",
    "121449.933000",
    "121451.932000",
    "121453.933000",
    "121455.932000",
    "121457.932000",
    "121459.933000",
    "121501.932000",
    "121503.932000",
    "121505.932000",
    "121507.933000",
    "121509.933000",
    "121511.932000",
    "121513.932000",
    "121515.932000",
    "121517.933000",
    "121519.932000",
    "121521.931000",
    "121523.933000",
    "121525.933000",
    "121527.933000",
    "121529.932000",
    "121531.933000",
    "121533.932000",
    "121535.932000",
    "121537.932000",
    "121539.932000",
    "121541.932000",
    "121543.933000",
    "121545.932000",
    "121547.932000",
    "121549.932000",
    "121551.932000",
    "121553.932000",
    "121555.931000",
    "121557.932000",
    "121559.933000",
    "121601.932000",
    "121603.933000",
    "121605.932000",
    "121607.933000",
    "121609.933000",
    "121611.933000",
    "121613.932000",
    "121615.933000",
    "121617.933000",
    "121619.932000",
    "121621.933000",
    "121623.932000",
    "121625.932000",
    "121627.933000",
    "121629.932000",
    "121631.932000",
    "121633.932000",
    "121635.933000",
    "121637.932000",
    "121639.933000",
    "121641.933000",
    "121643.932000",
    "121645.932000",
    "121647.933000",
    "121649.933000",
    "121651.933000",
    "121653.933000",
    "121655.933000",
    "121657.933000",
    "121659.933000",
    "121701.933000",
    "121703.933000",
    "121705.932000",
    "121707.932000",
    "121709.933000",
    "121711.933000",
    "121713.932000",
    "121715.933000",
    "121717.933000",
    "121719.932000",
    "121721.932000",
    "121723.931000",
    "121725.932000",
    "121727.932000",
    "121729.932000",
    "121731.933000",
    "121733.745000"
   ],
   "InstanceCreationTime": [
    "120904.437000",
    "120905.932000",
    "120907.932000",
    "120909.933000",
    "120911.933000",
    "120913.932000",
    "120915.932000",
    "120917.932000",
    "120919.933000",
    "120921.932000",
    "120923.932000",
    "120925.932000",
    "120927.933000",
    "120929.932000",
    "120931.931000",
    "120933.932000",
    "120935.932000",
    "120937.932000",
    "120939.933000",
    "120941.932000",
    "120943.932000",
    "120945.932000",
    "120947.932000",
    "120949.933000",
    "120951.932000",
    "120953.932000",
    "120955.933000",
    "120957.932000",
    "120959.932000",
    "121001.932000",
    "121003.932000",
    "121005.931000",
    "121007.932000",
    "121009.933000",
    "121011.933000",
    "121013.932000",
    "121015.933000",
    "121017.932000",
    "121019.932000",
    "121021.933000",
    "121023.931000",
    "121025.932000",
    "121027.932000",
    "121029.933000",
    "121031.933000",
    "121033.933000",
    "121035.933000",
    "121037.933000",
    "121039.932000",
    "121041.931000",
    "121043.932000",
    "121045.932000",
    "121047.932000",
    "121049.932000",
    "121051.933000",
    "121053.933000",
    "121055.932000",
    "121057.932000",
    "121059.932000",
    "121101.933000",
    "121103.933000",
    "121105.932000",
    "121107.933000",
    "121109.932000",
    "121111.933000",
    "121113.932000",
    "121115.932000",
    "121117.933000",
    "121119.932000",
    "121121.932000",
    "121123.933000",
    "121125.932000",
    "121127.932000",
    "121129.933000",
    "121131.933000",
    "121133.932000",
    "121135.932000",
    "121137.933000",
    "121139.932000",
    "121141.932000",
    "121143.933000",
    "121145.932000",
    "121147.932000",
    "121149.932000",
    "121151.931000",
    "121153.932000",
    "121155.933000",
    "121157.932000",
    "121159.933000",
    "121201.933000",
    "121203.933000",
    "121205.932000",
    "121207.932000",
    "121209.932000",
    "121211.933000",
    "121213.933000",
    "121215.933000",
    "121217.932000",
    "121219.932000",
    "121221.933000",
    "121223.932000",
    "121225.931000",
    "121227.932000",
    "121229.932000",
    "121231.933000",
    "121233.933000",
    "121235.932000",
    "121237.933000",
    "121239.932000",
    "121241.932000",
    "121243.931000",
    "121245.933000",
    "121247.932000",
    "121249.932000",
    "121251.933000",
    "121253.932000",
    "121255.932000",
    "121257.933000",
    "121259.933000",
    "121301.931000",
    "121303.933000",
    "121305.933000",
    "121307.932000",
    "121309.933000",
    "121311.932000",
    "121313.933000",
    "121315.932000",
    "121317.932000",
    "121319.933000",
    "121321.933000",
    "121323.932000",
    "121325.933000",
    "121327.933000",
    "121329.933000",
    "121331.933000",
    "121333.932000",
    "121335.932000",
    "121337.932000",
    "121339.933000",
    "121341.933000",
    "121343.933000",
    "121345.933000",
    "121347.932000",
    "121349.932000",
    "121351.932000",
    "121353.931000",
    "121355.933000",
    "121357.933000",
    "121359.933000",
    "121401.932000",
    "121403.932000",
    "121405.932000",
    "121407.933000",
    "121409.933000",
    "121411.932000",
    "121413.933000",
    "121415.933000",
    "121417.933000",
    "121419.932000",
    "121421.932000",
    "121423.933000",
    "121425.932000",
    "121427.932000",
    "121429.932000",
    "121431.933000",
    "121433.933000",
    "121435.932000",
    "121437.933000",
    "121439.933000",
    "121441.932000",
    "121443.933000",
    "121445.932000",
    "121447.932000",
    "121449.933000",
    "121451.932000",
    "121453.933000",
    "121455.932000",
    "121457.932000",
    "121459.933000",
    "121501.932000",
    "121503.932000",
    "121505.932000",
    "121507.933000",
    "121509.933000",
    "121511.932000",
    "121513.932000",
    "121515.932000",
    "121517.933000",
    "121519.932000",
    "121521.931000",
    "121523.933000",
    "121525.933000",
    "121527.933000",
    "121529.932000",
    "121531.933000",
    "121533.932000",
    "121535.932000",
    "121537.932000",
    "121539.932000",
    "121541.932000",
    "121543.933000",
    "121545.932000",
    "121547.932000",
    "121549.932000",
    "121551.932000",
    "121553.932000",
    "121555.931000",
    "121557.932000",
    "121559.933000",
    "121601.932000",
    "121603.933000",
    "121605.932000",
    "121607.933000",
    "121609.933000",
    "121611.933000",
    "121613.932000",
    "121615.933000",
    "121617.933000",
    "121619.932000",
    "121621.933000",
    "121623.932000",
    "121625.932000",
    "121627.933000",
    "121629.932000",
    "121631.932000",
    "121633.932000",
    "121635.933000",
    "121637.932000",
    "121639.933000",
    "121641.933000",
    "121643.932000",
    "121645.932000",
    "121647.933000",
    "121649.933000",
    "121651.933000",
    "121653.933000",
    "121655.933000",
    "121657.933000",
    "121659.933000",
    "121701.933000",
    "121703.933000",
    "121705.932000",
    "121707.932000",
    "121709.933000",
    "121711.933000",
    "121713.932000",
    "121715.933000",
    "121717.933000",
    "121719.932000",
    "121721.932000",
    "121723.931000",
    "121725.932000",
    "121727.932000",
    "121729.932000",
    "121731.933000",
    "121733.745000"
   ],
   "InstanceNumber": [
    1,
    2,
    3,
    4,
    5,
    6,
    7,
    8,
    9,
    10,
    11,
    12,
    13,
    14,
    15,
    16,
    17,
    18,
    19,
    20,
    21,
    22,
    23,
    24,
    25,
    26,
    27,
    28,
    29,
    30,
    31,
    32,
    33,
    34,
    35,
    36,
    37,
    38,
    39,
    40,
    41,
    42,
    43,
    44,
    45,
    46,
    47,
    48,
    49,
    50,
    51,
    52,
    53,
    54,
    55,
    56,
    57,
    58,
    59,
    60,
    61,
    62,
    63,
    64,
    65,
    66,
    67,
    68,
    69,
    70,
    71,
    72,
    73,
    74,
    75,
    76,
    77,
    78,
    79,
    80,
    81,
    82,
    83,
    84,
    85,
    86,
    87,
    88,
    89,
    90,
    91,
    92,
    93,
    94,
    95,
    96,
    97,
    98,
    99,
    100,
    101,
    102,
    103,
    104,
    105,
    106,
    107,
    108,
    109,
    110,
    111,
    112,
    113,
    114,
    115,
    116,
    117,
    118,
    119,
    120,
    121,
    122,
    123,
    124,
    125,
    126,
    127,
    128,
    129,
    130,
    131,
    132,
    133,
    134,
    135,
    136,
    137,
    138,
    139,
    140,
    141,
    142,
    143,
    144,
    145,
    146,
    147,
    148,
    149,
    150,
    151,
    152,
    153,
    154,
    155,
    156,
    157,
    158,
    159,
    160,
    161,
    162,
    163,
    164,
    165,
    166,
    167,
    168,
    169,
    170,
    171,
    172,
    173,
    174,
    175,
    176,
    177,
    178,
    179,
    180,
    181,
    182,
    183,
    184,
    185,
    186,
    187,
    188,
    189,
    190,
    191,
    192,
    193,
    194,
    195,
    196,
    197,
    198,
    199,
    200,
    201,
    202,
    203,
    204,
    205,
    206,
    207,
    208,
    209,
    210,
    211,
    212,
    213,
    214,
    215,
    216,
    217,
    218,
    219,
    220,
    221,
    222,
    223,
    224,
    225,
    226,
    227,
    228,
    229,
    230,
    231,
    232,
    233,
    234,
    235,
    236,
    237,
    238,
    239,
    240,
    241,
    242,
    243,
    244,
    245,
    246,
    247,
    248,
    249,
    250,
    251,
    252,
    253,
    254,
    255,
    256
   ],
   "LargestImagePixelValue": [
    3445,
    3346,
    3374,
    3337,
    3360,
    3373,
    3379,
    3341,
    3338,
    3381,
    3381,
    3363,
    3340,
    3339,
    3350,
    3326,
    3348,
    3328,
    3344,
    3329,
    3344,
    3346,
    3362,
    3317,
    3367,
    3348,
    3323,
    3343,
    3368,
    3314,
    3331,
    3357,
    3325,
    3327,
    3319,
    3325,
    3348,
    3352,
    3340,
    3318,
    3335,
    3357,
    3326,
    3325,
    3330,
    3311,
    3338,
    3338,
    3376,
    3358,
    3338,
    3353,
    3386,
    3382,
    3329,
    3404,
    3357,
    3371,
    3397,
    3365,
    3361,
    3358,
    3351,
    3359,
    3321,
    3354,
    3363,
    3342,
    3360,
    3376,
    3349,
    3365,
    3351,
    3365,
    3333,
    3347,
    3381,
    3359,
    3370,
    3397,
    3352,
    3380,
    3395,
    3373,
    3321,
    3346,
    3340,
    3352,
    3395,
    3360,
    3390,
    3371,
    3372,
    3363,
    3360,
    3410,
    3328,
    3335,
    3363,
    3339,
    3346,
    3342,
    3361,
    3345,
    3346,
    3388,
    3327,
    3375,
    3349,
    3379,
    3338,
    3373,
    3365,
    3394,
    3351,
    3356,
    3390,
    3357,
    3368,
    3366,
    3376,
    3364,
    3345,
    3349,
    3354,
    3349,
    3379,
    3363,
    3362,
    3363,
    3336,
    3424,
    3365,
    3387,
    3373,
    3358,
    3348,
    3357,
    3373,
    3379,
    3343,
    3337,
    3367,
    3380,
    3336,
    3366,
    3335,
    3358,
    3337,
    3373,
    3334,
    3386,
    3348,
    3345,
    3327,
    3340,
    3380,
    3355,
    3368,
    3373,
    3320,
    3343,
    3388,
    3350,
    3337,
    3355,
    3345,
    3315,
    3345,
    3324,
    3318,
    3304,
    3332,
    3352,
    3373,
    3289,
    3355,
    3352,
    3344,
    3360,
    3362,
    3319,
    3375,
    3349,
    3325,
    3329,
    3369,
    3346,
    3362,
    3324,
    3303,
    3383,
    3368,
    3328,
    3341,
    3407,
    3348,
    3323,
    3347,
    3319,
    3344,
    3362,
    3373,
    3360,
    3375,
    3360,
    3386,
    3372,
    3360,
    3362,
    3394,
    3363,
    3361,
    3370,
    3383,
    3366,
    3323,
    3336,
    3395,
    3374,
    3372,
    3347,
    3365,
    3342,
    3384,
    3372,
    3349,
    3321,
    3359,
    3351,
    3346,
    3352,
    3382,
    3368,
    3366,
    3370,
    3362,
    3346,
    3325,
    3344,
    3389,
    3373,
    3351,
    3337,
    3369,
    3373,
    3339,
    3322,
    3309,
    3294,
    3331,
    3346,
    3287,
    3288,
    3315,
    3313
   ],
   "WindowCenter": [
    852.0,
    849.0,
    849.0,
    848.0,
    848.0,
    847.0,
    848.0,
    848.0,
    848.0,
    848.0,
    849.0,
    849.0,
    849.0,
    848.0,
    847.0,
    846.0,
    846.0,
    846.0,
    845.0,
    845.0,
    845.0,
    845.0,
    845.0,
    844.0,
    844.0,
    844.0,
    844.0,
    844.0,
    844.0,
    845.0,
    845.0,
    845.0,
    843.0,
    844.0,
    844.0,
    844.0,
    845.0,
    845.0,
    845.0,
    846.0,
    846.0,
    845.0,
    844.0,
    843.0,
    844.0,
    843.0,
    844.0,
    844.0,
    845.0,
    845.0,
    845.0,
    843.0,
    844.0,
    844.0,
    844.0,
    844.0,
    844.0,
    844.0,
    845.0,
    846.0,
    846.0,
    845.0,
    844.0,
    843.0,
    843.0,
    844.0,
    845.0,
    845.0,
    845.0,
    845.0,
    845.0,
    844.0,
    843.0,
    844.0,
    844.0,
    844.0,
    844.0,
    843.0,
    844.0,
    844.0,
    844.0,
    844.0,
    843.0,
    844.0,
    844.0,
    844.0,
    844.0,
    844.0,
    845.0,
    845.0,
    844.0,
    844.0,
    843.0,
    845.0,
    845.0,
    845.0,
    844.0,
    844.0,
    844.0,
    844.0,
    845.0,
    844.0,
    844.0,
    844.0,
    843.0,
    844.0,
    844.0,
    845.0,
    845.0,
    845.0,
    845.0,
    847.0,
    847.0,
    847.0,
    845.0,
    844.0,
    845.0,
    844.0,
    844.0,
    845.0,
    846.0,
    847.0,
    846.0,
    846.0,
