{
  "AcquisitionMatrixPE": 100,
  "AcquisitionNumber": 1,
  "AcquisitionTime": "12:18:39.010000",
  "BandwidthPerPixelPhaseEncode": 18.519,
  "BaseResolution": 100,
  "BodyPartExamined": "BRAIN",
  "ConsistencyInfo": "N4_VE11C_LATEST_20160120",
  "ConversionSoftware": "dcm2niix",
  "ConversionSoftwareVersion": "v1.0.20180622 GCC4.9.2",
  "DerivedVendorReportedEchoSpacing": 0.000539986,
  "DeviceSerialNumber": "166078",
  "DwellTime": 2.1e-06,
  "EchoTime": 0.034,
  "EchoTrainLength": 100,
  "EffectiveEchoSpacing": 0.000539986,
  "FlipAngle": 90,
  "ImageOrientationPatientDICOM": [0.997684, 0, 0.0680153, 0, 1, 0],
  "ImageType": [
    "ORIGINAL",
    "PRIMARY",
    "M",
    "ND",
    "MOSAIC"
],
  "InPlanePhaseEncodingDirectionDICOM": "COL",
  "InstitutionAddress": "Street_StreetNo_Bei_Jing_District_CN_ZIP",
  "InstitutionName": "BeiJing_Normal_University",
  "InstitutionalDepartmentName": "Department",
  "MRAcquisitionType": "2D",
  "MagneticFieldStrength": 3,
  "Manufacturer": "Siemens",
  "ManufacturersModelName": "Prisma",
  "Modality": "MR",
  "MultibandAccelerationFactor": 3,
  "PartialFourier": 1,
  "PatientPosition": "HFS",
  "PercentPhaseFOV": 100,
  "PhaseEncodingDirection": "j-",
  "PhaseEncodingSteps": 100,
  "PhaseResolution": 1,
  "PixelBandwidth": 2380,
  "ProcedureStepDescription": "BNU_P2018_64CH_Zhen.ZongLei",
  "ProtocolName": "bold_100x100_s3_2x2x2_static_256",
  "PulseSequenceDetails": "%SiemensSeq%_ep2d_bold",
  "ReceiveCoilActiveElements": "HC1-7;NC1",
  "ReceiveCoilName": "HeadNeck_64",
  "ReconMatrixPE": 100,
  "RepetitionTime": 2,
  "SAR": 0.0766288,
  "ScanOptions": "FS",
  "ScanningSequence": "EP",
  "SequenceName": "_epfid2d1_100",
  "SequenceVariant": "SK",
  "SeriesDescription": "bold_100x100_s3_2x2x2_static_256",
  "SeriesNumber": 11,
  "ShimSetting": [-5446, -11509, -1248, 145, -131, -216, -156, 55],
  "SliceThickness": 2,
  "SliceTiming": [1.485, 0, 0.99, 0.0825, 1.0725, 0.165, 1.155, 0.2475, 1.2375, 0.33, 1.32, 0.4125, 1.4025, 0.5775, 1.5675, 0.66, 1.65, 0.7425, 1.7325, 0.825, 1.815, 0.9075, 1.8975, 0.495, 1.485, 0, 0.99, 0.0825, 1.0725, 0.165, 1.155, 0.2475, 1.2375, 0.33, 1.32, 0.4125, 1.4025, 0.5775, 1.5675, 0.66, 1.65, 0.7425, 1.7325, 0.825, 1.815, 0.9075, 1.8975, 0.495, 1.485, 0, 0.99, 0.0825, 1.0725, 0.165, 1.155, 0.2475, 1.2375, 0.33, 1.32, 0.4125, 1.4025, 0.5775, 1.5675, 0.66, 1.65, 0.7425, 1.7325, 0.825, 1.815, 0.9075, 1.8975, 0.495],
  "SoftwareVersions": "syngo_MR_E11",
  "SpacingBetweenSlices": 2,
  "StationName": "AWP166078",
  "TaskName": "naturalvision",
  "TotalReadoutTime": 0.0534586,
  "TxRefAmp": 244.878,
  "dcmmeta_affine": [
    [-1.9953685998916626, 0.0, 0.13603058457374573, 96.28874206542969],
    [0.0, 2.0, 0.0, -89.23373413085938],
    [0.13603058457374573, 0.0, 1.995368480682373, -75.16963958740234],
    [0.0, 0.0, 0.0, 1.0]
],
  "dcmmeta_reorient_transform": [
    [0.0, -1.0, 0.0, 99.0],
    [1.0, 0.0, 0.0, 0.0],
    [0.0, 0.0, 1.0, 0.0],
    [0.0, 0.0, 0.0, 1.0]
],
  "dcmmeta_shape": [100, 100, 72, 256],
  "dcmmeta_slice_dim": 2,
  "dcmmeta_version": 0.6,
  "global": {
    "const": {
      "AcquisitionMatrix": [100, 0, 0, 100],
      "AngioFlag": "N",
      "BitsAllocated": 16,
      "BitsStored": 12,
      "BodyPartExamined": "BRAIN",
      "Columns": 900,
      "EchoNumbers": 1,
      "EchoTime": 34.0,
      "EchoTrainLength": 100,
      "FlipAngle": 90.0,
      "HighBit": 11,
      "ImageOrientationPatient": [0.99768427877948, 0.0, 0.06801529148854, 0.0, 1.0, 0.0],
      "ImagePositionPatient": [-894.43616297238, -908.76626491547, -129.58187299642],
      "ImageType": [
        "ORIGINAL",
        "PRIMARY",
        "M",
        "ND",
        "MOSAIC"
],
      "ImagedNucleus": "1H",
      "ImagingFrequency": 123.257771,
      "InPlanePhaseEncodingDirection": "COL",
      "MRAcquisitionType": "2D",
      "MagneticFieldStrength": 3.0,
      "Manufacturer": "SIEMENS",
      "ManufacturerModelName": "Prisma",
      "Modality": "MR",
      "NumberOfAverages": 1.0,
      "NumberOfPhaseEncodingSteps": 100,
      "PercentPhaseFieldOfView": 100.0,
      "PercentSampling": 100.0,
      "PerformedProcedureStepStartTime": "111400.318000",
      "PhotometricInterpretation": "MONOCHROME2",
      "PixelBandwidth": 2380.0,
      "PixelRepresentation": 0,
      "PixelSpacing": [2.0, 2.0],
      "ProtocolName": "bold_100x100_s3_2x2x2_static_256",
      "RepetitionTime": 2000.0,
      "Rows": 900,
      "SAR": 0.07662884894547,
      "SamplesPerPixel": 1,
      "ScanOptions": "FS",
      "ScanningSequence": "EP",
      "SequenceName": "*epfid2d1_100",
      "SequenceVariant": "SK",
      "SeriesDescription": "bold_100x100_s3_2x2x2_static_256",
      "SeriesNumber": 11,
      "SeriesTime": "121842.060000",
      "SliceLocation": -68.446461160874,
      "SliceThickness": 2.0,
      "SmallestImagePixelValue": 0,
      "SoftwareVersions": "syngo MR E11",
      "SpacingBetweenSlices": 1.9999999697708,
      "SpecificCharacterSet": "ISO_IR 100",
      "StudyID": "1",
      "StudyTime": "111400.216000",
      "TransmitCoilName": "Body",
      "VariableFlipAngleFlag": "N",
      "WindowCenterWidthExplanation": "Algo1",
      "dBdt": 0.0},
    "slices": {}
  },
  "time": {
    "samples": {
      "AcquisitionNumber": [1, 2, 3, 4, 5, 6, 7, 8, 9, 10, 11, 12, 13, 14, 15, 16, 17, 18, 19, 20, 21, 22, 23, 24, 25, 26, 27, 28, 29, 30, 31, 32, 33, 34, 35, 36, 37, 38, 39, 40, 41, 42, 43, 44, 45, 46, 47, 48, 49, 50, 51, 52, 53, 54, 55, 56, 57, 58, 59, 60, 61, 62, 63, 64, 65, 66, 67, 68, 69, 70, 71, 72, 73, 74, 75, 76, 77, 78, 79, 80, 81, 82, 83, 84, 85, 86, 87, 88, 89, 90, 91, 92, 93, 94, 95, 96, 97, 98, 99, 100, 101, 102, 103, 104, 105, 106, 107, 108, 109, 110, 111, 112, 113, 114, 115, 116, 117, 118, 119, 120, 121, 122, 123, 124, 125, 126, 127, 128, 129, 130, 131, 132, 133, 134, 135, 136, 137, 138, 139, 140, 141, 142, 143, 144, 145, 146, 147, 148, 149, 150, 151, 152, 153, 154, 155, 156, 157, 158, 159, 160, 161, 162, 163, 164, 165, 166, 167, 168, 169, 170, 171, 172, 173, 174, 175, 176, 177, 178, 179, 180, 181, 182, 183, 184, 185, 186, 187, 188, 189, 190, 191, 192, 193, 194, 195, 196, 197, 198, 199, 200, 201, 202, 203, 204, 205, 206, 207, 208, 209, 210, 211, 212, 213, 214, 215, 216, 217, 218, 219, 220, 221, 222, 223, 224, 225, 226, 227, 228, 229, 230, 231, 232, 233, 234, 235, 236, 237, 238, 239, 240, 241, 242, 243, 244, 245, 246, 247, 248, 249, 250, 251, 252, 253, 254, 255, 256],
      "AcquisitionTime": ["121839.010000", "121841.010000", "121843.010000", "121845.010000", "121847.010000", "121849.010000", "121851.010000", "121853.010000", "121855.010000", "121857.010000", "121859.010000", "121901.010000", "121903.010000", "121905.010000", "121907.010000", "121909.010000", "121911.010000", "121913.010000", "121915.010000", "121917.010000", "121919.010000", "121921.010000", "121923.010000", "121925.010000", "121927.010000", "121929.010000", "121931.010000", "121933.010000", "121935.010000", "121937.010000", "121939.010000", "121941.010000", "121943.010000", "121945.010000", "121947.010000", "121949.010000", "121951.010000", "121953.010000", "121955.010000", "121957.010000", "121959.010000", "122001.010000", "122003.010000", "122005.010000", "122007.010000", "122009.010000", "122011.010000", "122013.010000", "122015.010000", "122017.010000", "122019.010000", "122021.010000", "122023.010000", "122025.010000", "122027.010000", "122029.010000", "122031.010000", "122033.010000", "122035.010000", "122037.010000", "122039.010000", "122041.010000", "122043.010000", "122045.010000", "122047.010000", "122049.010000", "122051.010000", "122053.010000", "122055.010000", "122057.010000", "122059.010000", "122101.010000", "122103.010000", "122105.010000", "122107.010000", "122109.010000", "122111.010000", "122113.010000", "122115.010000", "122117.010000", "122119.010000", "122121.010000", "122123.010000", "122125.010000", "122127.010000", "122129.010000", "122131.010000", "122133.010000", "122135.010000", "122137.010000", "122139.010000", "122141.010000", "122143.010000", "122145.010000", "122147.010000", "122149.010000", "122151.010000", "122153.010000", "122155.010000", "122157.010000", "122159.010000", "122201.010000", "122203.010000", "122205.010000", "122207.010000", "122209.010000", "122211.010000", "122213.010000", "122215.010000", "122217.010000", "122219.010000", "122221.010000", "122223.010000", "122225.010000", "122227.010000", "122229.010000", "122231.010000", "122233.010000", "122235.010000", "122237.010000", "122239.010000", "122241.010000", "122243.010000", "122245.010000", "122247.010000", "122249.010000", "122251.010000", "122253.010000", "122255.010000", "122257.010000", "122259.010000", "122301.010000", "122303.010000", "122305.010000", "122307.010000", "122309.010000", "122311.010000", "122313.010000", "122315.010000", "122317.010000", "122319.010000", "122321.010000", "122323.010000", "122325.010000", "122327.010000", "122329.010000", "122331.010000", "122333.010000", "122335.010000", "122337.010000", "122339.010000", "122341.010000", "122343.010000", "122345.010000", "122347.010000", "122349.010000", "122351.010000", "122353.010000", "122355.010000", "122357.010000", "122359.010000", "122401.010000", "122403.010000", "122405.010000", "122407.010000", "122409.010000", "122411.010000", "122413.010000", "122415.010000", "122417.010000", "122419.010000", "122421.010000", "122423.010000", "122425.010000", "122427.010000", "122429.010000", "122431.010000", "122433.010000", "122435.010000", "122437.010000", "122439.010000", "122441.010000", "122443.010000", "122445.010000", "122447.010000", "122449.010000", "122451.010000", "122453.010000", "122455.010000", "122457.010000", "122459.010000", "122501.010000", "122503.010000", "122505.010000", "122507.010000", "122509.010000", "122511.010000", "122513.010000", "122515.010000", "122517.010000", "122519.010000", "122521.010000", "122523.010000", "122525.010000", "122527.010000", "122529.010000", "122531.010000", "122533.010000", "122535.010000", "122537.010000", "122539.010000", "122541.010000", "122543.010000", "122545.010000", "122547.010000", "122549.010000", "122551.010000", "122553.010000", "122555.010000", "122557.010000", "122559.010000", "122601.010000", "122603.010000", "122605.010000", "122607.010000", "122609.010000", "122611.010000", "122613.010000", "122615.010000", "122617.010000", "122619.010000", "122621.010000", "122623.010000", "122625.010000", "122627.010000", "122629.010000", "122631.010000", "122633.010000", "122635.010000", "122637.010000", "122639.010000", "122641.010000", "122643.010000", "122645.010000", "122647.010000", "122649.010000", "122651.010000", "122653.010000", "122655.010000", "122657.010000", "122659.010000", "122701.010000", "122703.010000", "122705.010000", "122707.010000", "122709.010000"],
      "ContentTime": ["121842.064000", "121843.046000", "121845.045000", "121847.546000", "121849.545000", "121851.546000", "121853.046000", "121855.046000", "121857.547000", "121859.546000", "121901.046000", "121903.046000", "121905.045000", "121907.045000", "121909.549000", "121911.547000", "121913.549000", "121915.546000", "121917.547000", "121919.046000", "121921.045000", "121923.546000", "121925.045000", "121927.546000", "121929.046000", "121931.547000", "121933.546000", "121935.047000", "121937.546000", "121939.545000", "121941.546000", "121943.545000", "121945.047000", "121947.047000", "121949.547000", "121951.046000", "121953.046000", "121955.046000", "121957.545000", "121959.546000", "122001.545000", "122003.066000", "122005.546000", "122007.546000", "122009.046000", "122011.047000", "122013.046000", "122015.046000", "122017.045000", "122019.045000", "122021.047000", "122023.546000", "122025.047000", "122027.547000", "122029.546000", "122031.045000", "122033.046000", "122035.545000", "122037.546000", "122039.046000", "122041.047000", "122043.546000", "122045.047000", "122047.047000", "122049.046000", "122051.546000", "122053.545000", "122055.046000", "122057.547000", "122059.547000", "122101.046000", "122103.547000", "122105.045000", "122107.546000", "122109.046000", "122111.045000", "122113.547000", "122115.046000", "122117.546000", "122119.547000", "122121.047000", "122123.546000", "122125.046000", "122127.046000", "122129.547000", "122131.547000", "122133.546000", "122135.047000", "122137.546000", "122139.047000", "122141.546000", "122143.046000", "122145.545000", "122147.547000", "122149.046000", "122151.546000", "122153.546000", "122155.547000", "122157.046000", "122159.046000", "122201.545000", "122203.545000", "122205.047000", "122207.547000", "122209.547000", "122211.547000", "122213.546000", "122215.045000", "122217.545000", "122219.545000", "122221.545000", "122223.047000", "122225.547000", "122227.546000", "122229.546000", "122231.547000", "122233.545000", "122235.045000", "122237.545000", "122239.546000", "122241.546000", "122243.046000", "122245.046000", "122247.546000", "122249.047000", "122251.545000", "122253.545000", "122255.045000", "122257.547000", "122259.546000", "122301.547000", "122303.554000", "122305.561000", "122307.545000", "122309.545000", "122311.545000", "122313.045000", "122315.046000", "122317.046000", "122319.546000", "122321.546000", "122323.047000", "122325.045000", "122327.775000", "122329.545000", "122331.546000", "122333.046000", "122335.046000", "122337.547000", "122339.547000", "122341.546000", "122343.045000", "122345.065000", "122347.045000", "122349.047000", "122351.047000", "122353.046000", "122355.047000", "122357.547000", "122359.047000", "122401.046000", "122403.045000", "122405.045000", "122407.047000", "122409.047000", "122411.047000", "122413.546000", "122415.546000", "122417.046000", "122419.546000", "122421.545000", "122423.545000", "122425.046000", "122427.547000", "122429.046000", "122431.046000", "122433.547000", "122435.545000", "122437.546000", "122439.546000", "122441.046000", "122443.546000", "122445.547000", "122447.546000", "122449.047000", "122451.046000", "122453.546000", "122455.046000", "122457.545000", "122459.547000", "122501.046000", "122503.046000", "122505.046000", "122507.547000", "122509.547000", "122511.045000", "122513.046000", "122515.546000", "122517.547000", "122519.547000", "122521.547000", "122523.547000", "122525.547000", "122527.046000", "122529.546000", "122531.045000", "122533.045000", "122535.047000", "122537.546000", "122539.048000", "122541.046000", "122543.047000", "122545.045000", "122547.545000", "122549.548000", "122551.045000", "122553.547000", "122555.547000", "122557.046000", "122559.046000", "122601.547000", "122603.046000", "122605.045000", "122607.046000", "122609.546000", "122611.066000", "122613.546000", "122615.546000", "122617.047000", "122619.047000", "122621.045000", "122623.046000", "122625.546000", "122627.547000", "122629.046000", "122631.046000", "122633.046000", "122635.047000", "122637.546000", "122639.546000", "122641.545000", "122643.046000", "122645.547000", "122647.547000", "122649.546000", "122651.546000", "122653.047000", "122655.545000", "122657.046000", "122659.546000", "122701.046000", "122703.046000", "122705.546000", "122707.547000", "122709.046000", "122711.192000"],
      "InstanceCreationTime": ["121842.064000", "121843.046000", "121845.045000", "121847.546000", "121849.545000", "121851.546000", "121853.046000", "121855.046000", "121857.547000", "121859.546000", "121901.046000", "121903.046000", "121905.045000", "121907.045000", "121909.549000", "121911.547000", "121913.549000", "121915.546000", "121917.547000", "121919.046000", "121921.045000", "121923.546000", "121925.045000", "121927.546000", "121929.046000", "121931.547000", "121933.546000", "121935.047000", "121937.546000", "121939.545000", "121941.546000", "121943.545000", "121945.047000", "121947.047000", "121949.547000", "121951.046000", "121953.046000", "121955.046000", "121957.545000", "121959.546000", "122001.545000", "122003.066000", "122005.546000", "122007.546000", "122009.046000", "122011.047000", "122013.046000", "122015.046000", "122017.045000", "122019.045000", "122021.047000", "122023.546000", "122025.047000", "122027.547000", "122029.546000", "122031.045000", "122033.046000", "122035.545000", "122037.546000", "122039.046000", "122041.047000", "122043.546000", "122045.047000", "122047.047000", "122049.046000", "122051.546000", "122053.545000", "122055.046000", "122057.547000", "122059.547000", "122101.046000", "122103.547000", "122105.045000", "122107.546000", "122109.046000", "122111.045000", "122113.547000", "122115.046000", "122117.546000", "122119.547000", "122121.047000", "122123.546000", "122125.046000", "122127.046000", "122129.547000", "122131.547000", "122133.546000", "122135.047000", "122137.546000", "122139.047000", "122141.546000", "122143.046000", "122145.545000", "122147.547000", "122149.046000", "122151.546000", "122153.546000", "122155.547000", "122157.046000", "122159.046000", "122201.545000", "122203.545000", "122205.047000", "122207.547000", "122209.547000", "122211.547000", "122213.546000", "122215.045000", "122217.545000", "122219.545000", "122221.545000", "122223.047000", "122225.547000", "122227.546000", "122229.546000", "122231.547000", "122233.545000", "122235.045000", "122237.545000", "122239.546000", "122241.546000", "122243.046000", "122245.046000", "122247.546000", "122249.047000", "122251.545000", "122253.545000", "122255.045000", "122257.547000", "122259.546000", "122301.547000", "122303.554000", "122305.561000", "122307.545000", "122309.545000", "122311.545000", "122313.045000", "122315.046000", "122317.046000", "122319.546000", "122321.546000", "122323.047000", "122325.045000", "122327.775000", "122329.545000", "122331.546000", "122333.046000", "122335.046000", "122337.547000", "122339.547000", "122341.546000", "122343.045000", "122345.065000", "122347.045000", "122349.047000", "122351.047000", "122353.046000", "122355.047000", "122357.547000", "122359.047000", "122401.046000", "122403.045000", "122405.045000", "122407.047000", "122409.047000", "122411.047000", "122413.546000", "122415.546000", "122417.046000", "122419.546000", "122421.545000", "122423.545000", "122425.046000", "122427.547000", "122429.046000", "122431.046000", "122433.547000", "122435.545000", "122437.546000", "122439.546000", "122441.046000", "122443.546000", "122445.547000", "122447.546000", "122449.047000", "122451.046000", "122453.546000", "122455.046000", "122457.545000", "122459.547000", "122501.046000", "122503.046000", "122505.046000", "122507.547000", "122509.547000", "122511.045000", "122513.046000", "122515.546000", "122517.547000", "122519.547000", "122521.547000", "122523.547000", "122525.547000", "122527.046000", "122529.546000", "122531.045000", "122533.045000", "122535.047000", "122537.546000", "122539.048000", "122541.046000", "122543.047000", "122545.045000", "122547.545000", "122549.548000", "122551.045000", "122553.547000", "122555.547000", "122557.046000", "122559.046000", "122601.547000", "122603.046000", "122605.045000", "122607.046000", "122609.546000", "122611.066000", "122613.546000", "122615.546000", "122617.047000", "122619.047000", "122621.045000", "122623.046000", "122625.546000", "122627.547000", "122629.046000", "122631.046000", "122633.046000", "122635.047000", "122637.546000", "122639.546000", "122641.545000", "122643.046000", "122645.547000", "122647.547000", "122649.546000", "122651.546000", "122653.047000", "122655.545000", "122657.046000", "122659.546000", "122701.046000", "122703.046000", "122705.546000", "122707.547000", "122709.046000", "122711.192000"],
      "InstanceNumber": [1, 2, 3, 4, 5, 6, 7, 8, 9, 10, 11, 12, 13, 14, 15, 16, 17, 18, 19, 20, 21, 22, 23, 24, 25, 26, 27, 28, 29, 30, 31, 32, 33, 34, 35, 36, 37, 38, 39, 40, 41, 42, 43, 44, 45, 46, 47, 48, 49, 50, 51, 52, 53, 54, 55, 56, 57, 58, 59, 60, 61, 62, 63, 64, 65, 66, 67, 68, 69, 70, 71, 72, 73, 74, 75, 76, 77, 78, 79, 80, 81, 82, 83, 84, 85, 86, 87, 88, 89, 90, 91, 92, 93, 94, 95, 96, 97, 98, 99, 100, 101, 102, 103, 104, 105, 106, 107, 108, 109, 110, 111, 112, 113, 114, 115, 116, 117, 118, 119, 120, 121, 122, 123, 124, 125, 126, 127, 128, 129, 130, 131, 132, 133, 134, 135, 136, 137, 138, 139, 140, 141, 142, 143, 144, 145, 146, 147, 148, 149, 150, 151, 152, 153, 154, 155, 156, 157, 158, 159, 160, 161, 162, 163, 164, 165, 166, 167, 168, 169, 170, 171, 172, 173, 174, 175, 176, 177, 178, 179, 180, 181, 182, 183, 184, 185, 186, 187, 188, 189, 190, 191, 192, 193, 194, 195, 196, 197, 198, 199, 200, 201, 202, 203, 204, 205, 206, 207, 208, 209, 210, 211, 212, 213, 214, 215, 216, 217, 218, 219, 220, 221, 222, 223, 224, 225, 226, 227, 228, 229, 230, 231, 232, 233, 234, 235, 236, 237, 238, 239, 240, 241, 242, 243, 244, 245, 246, 247, 248, 249, 250, 251, 252, 253, 254, 255, 256],
      "LargestImagePixelValue": [3324, 3245, 3242, 3267, 3224, 3239, 3226, 3251, 3220, 3201, 3242, 3230, 3235, 3235, 3243, 3217, 3230, 3256, 3208, 3245, 3236, 3213, 3211, 3196, 3221, 3218, 3212, 3223, 3186, 3217, 3224, 3223, 3215, 3243, 3229, 3231, 3250, 3223, 3212, 3219, 3227, 3236, 3229, 3226, 3217, 3216, 3218, 3211, 3208, 3210, 3210, 3231, 3220, 3225, 3242, 3232, 3246, 3227, 3238, 3234, 3216, 3250, 3244, 3240, 3258, 3219, 3215, 3218, 3229, 3208, 3231, 3232, 3210, 3204, 3222, 3213, 3222, 3209, 3189, 3197, 3237, 3286, 3209, 3240, 3222, 3231, 3224, 3215, 3237, 3208, 3243, 3277, 3269, 3258, 3268, 3241, 3257, 3203, 3237, 3243, 3255, 3236, 3216, 3255, 3259, 3255, 3261, 3295, 3267, 3261, 3287, 3281, 3321, 3248, 3244, 3194, 3176, 3238, 3234, 3221, 3232, 3213, 3220, 3245, 3235, 3276, 3242, 3233, 3228, 3243, 3281, 3221, 3247, 3242, 3281, 3282, 3285, 3279, 3258, 3261, 3249, 3252, 3253, 3261, 3211, 3216, 3264, 3239, 3254, 3259, 3248, 3233, 3263, 3228, 3249, 3264, 3219, 3230, 3250, 3264, 3235, 3281, 3257, 3275, 3286, 3221, 3217, 3276, 3244, 3244, 3226, 3267, 3277, 3252, 3295, 3276, 3259, 3309, 3240, 3227, 3275, 3266, 3294, 3288, 3312, 3243, 3256, 3286, 3296, 3337, 3295, 3256, 3260, 3250, 3233, 3246, 3326, 3310, 3291, 3273, 3294, 3264, 3259, 3290, 3278, 3249, 3272, 3286, 3292, 3235, 3239, 3292, 3278, 3256, 3298, 3277, 3289, 3256, 3300, 3219, 3261, 3228, 3218, 3244, 3239, 3289, 3252, 3268, 3271, 3279, 3285, 3239, 3259, 3250, 3251, 3255, 3275, 3233, 3222, 3257, 3261, 3233, 3225, 3232, 3226, 3259, 3226, 3197, 3259, 3234, 3240, 3225, 3216, 3237, 3247, 3227],
      "WindowCenter": [843.0, 841.0, 839.0, 839.0, 838.0, 838.0, 837.0, 838.0, 839.0, 838.0, 839.0, 839.0, 839.0, 840.0, 840.0, 839.0, 839.0, 840.0, 839.0, 838.0, 838.0, 839.0, 839.0, 839.0, 839.0, 839.0, 839.0, 839.0, 839.0, 840.0, 840.0, 840.0, 839.0, 838.0, 838.0, 838.0, 839.0, 839.0, 839.0, 840.0, 840.0, 839.0, 839.0, 839.0, 839.0, 838.0, 838.0, 839.0, 838.0, 839.0, 838.0, 837.0, 838.0, 839.0, 839.0, 839.0, 839.0, 839.0, 840.0, 839.0, 839.0, 840.0, 839.0, 838.0, 841.0, 839.0, 839.0, 840.0, 839.0, 838.0, 838.0, 838.0, 838.0, 837.0, 838.0, 837.0, 838.0, 839.0, 838.0, 838.0, 838.0, 839.0, 839.0, 838.0, 838.0, 839.0, 839.0, 839.0, 840.0, 839.0, 839.0, 839.0, 839.0, 840.0, 840.0, 838.0, 838.0, 838.0, 838.0, 838.0, 838.0, 837.0, 839.0, 840.0, 840.0, 839.0, 840.0, 840.0, 841.0, 840.0, 840.0, 838.0, 839.0, 839.0, 840.0, 840.0, 839.0, 841.0, 840.0, 841.0, 842.0, 842.0, 842.0, 842.0, 842.0, 842.0, 842.0, 840.0, 841.0, 841.0, 842.0, 841.0, 841.0, 842.0, 842.0, 840.0, 839.0, 838.0, 838.0, 838.0, 839.0, 839.0, 840.0, 841.0, 841.0, 842.0, 842.0, 842.0, 842.0, 842.0, 842.0, 841.0, 841.0, 841.0, 842.0, 842.0, 842.0, 841.0, 841.0, 842.0, 842.0, 841.0, 840.0, 839.0, 839.0, 840.0, 840.0, 840.0, 840.0, 839.0, 840.0, 839.0, 839.0, 840.0, 840.0, 840.0, 840.0, 839.0, 840.0, 841.0, 842.0, 842.0, 840.0, 838.0, 839.0, 838.0, 839.0, 840.0, 840.0, 840.0, 840.0, 839.0, 840.0, 842.0, 841.0, 840.0, 838.0, 835.0, 834.0, 834.0, 833.0, 834.0, 837.0, 838.0, 839.0, 838.0, 839.0, 841.0, 842.0, 841.0, 841.0, 841.0, 841.0, 841.0, 841.0, 841.0, 841.0, 842.0, 841.0, 840.0, 841.0, 841.0, 842.0, 841.0, 842.0, 843.0, 841.0, 838.0, 836.0, 834.0, 836.0, 837.0, 838.0, 838.0, 838.0, 838.0, 838.0, 838.0, 838.0, 839.0, 840.0, 840.0, 840.0, 840.0, 840.0, 839.0, 838.0, 838.0, 839.0, 838.0, 838.0, 838.0, 840.0, 838.0, 839.0, 838.0],
      "WindowWidth": [1782.0, 1776.0, 1771.0, 1772.0, 1769.0, 1768.0, 1767.0, 1768.0, 1771.0, 1770.0, 1772.0, 1772.0, 1772.0, 1774.0, 1773.0, 1771.0, 1771.0, 1774.0, 1771.0, 1770.0, 1770.0, 1771.0, 1773.0, 1772.0, 1772.0, 1772.0, 1771.0, 1772.0, 1772.0, 1774.0, 1775.0, 1774.0, 1771.0, 1770.0, 1768.0, 1770.0, 1772.0, 1772.0, 1772.0, 1773.0, 1773.0, 1773.0, 1772.0, 1771.0, 1771.0, 1769.0, 1769.0, 1772.0, 1770.0, 1771.0, 1770.0, 1766.0, 1769.0, 1771.0, 1772.0, 1772.0, 1771.0, 1772.0, 1773.0, 1772.0, 1772.0, 1774.0, 1772.0, 1769.0, 1775.0, 1771.0, 1772.0, 1775.0, 1772.0, 1769.0, 1769.0, 1769.0, 1769.0, 1767.0, 1769.0, 1767.0, 1770.0, 1771.0, 1770.0, 1770.0, 1770.0, 1772.0, 1771.0, 1770.0, 1769.0, 1771.0, 1772.0, 1772.0, 1772.0, 1770.0, 1771.0, 1771.0, 1772.0, 1774.0, 1773.0, 1769.0, 1769.0, 1767.0, 1768.0, 1768.0, 1768.0, 1767.0, 1771.0, 1774.0, 1774.0, 1772.0, 1774.0, 1774.0, 1776.0, 1774.0, 1772.0, 1769.0, 1770.0, 1770.0, 1772.0, 1773.0, 1770.0, 1775.0, 1773.0, 1775.0, 1778.0, 1777.0, 1777.0, 1777.0, 1778.0, 1777.0, 1776.0, 1773.0, 1774.0, 1775.0, 1776.0, 1775.0, 1774.0, 1777.0, 1777.0, 1773.0, 1770.0, 1767.0, 1767.0, 1767.0, 1770.0, 1771.0, 1773.0, 1775.0, 1775.0, 1778.0, 1779.0, 1777.0, 1779.0, 1779.0, 1779.0, 1776.0, 1774.0, 1776.0, 1778.0, 1779.0, 1778.0, 1777.0, 1777.0, 1778.0, 1778.0, 1776.0, 1773.0, 1770.0, 1772.0, 1772.0, 1773.0, 1773.0, 1772.0, 1772.0, 1773.0, 1772.0, 1772.0, 1773.0, 1775.0, 1773.0, 1773.0, 1771.0, 1773.0, 1775.0, 1778.0, 1778.0, 1773.0, 1768.0, 1770.0, 1768.0, 1771.0, 1773.0, 1773.0, 1773.0, 1773.0, 1770.0, 1774.0, 1778.0, 1776.0, 1773.0, 1769.0, 1762.0, 1759.0, 1758.0, 1757.0, 1759.0, 1765.0, 1768.0, 1771.0, 1769.0, 1772.0, 1776.0, 1778.0, 1775.0, 1777.0, 1777.0, 1776.0, 1775.0, 1776.0, 1777.0, 1776.0, 1777.0, 1776.0, 1772.0, 1775.0, 1777.0, 1779.0, 1776.0, 1779.0, 1781.0, 1776.0, 1768.0, 1763.0, 1759.0, 1764.0, 1767.0, 1767.0, 1768.0, 1768.0, 1769.0, 1769.0, 1768.0, 1768.0, 1769.0, 1772.0, 1772.0, 1772.0, 1772.0, 1773.0, 1771.0, 1767.0, 1769.0, 1771.0, 1767.0, 1769.0, 1768.0, 1772.0, 1769.0, 1770.0, 1769.0]
    },
    "slices": {}
  }
}