{
 "AcquisitionMatrixPE": 100,
 "AcquisitionNumber": 1,
 "AcquisitionTime": "11:47:12.952500",
 "BandwidthPerPixelPhaseEncode": 18.519,
 "BaseResolution": 100,
 "BodyPartExamined": "BRAIN",
 "ConsistencyInfo": "N4_VE11C_LATEST_20160120",
 "ConversionSoftware": "dcm2niix",
 "ConversionSoftwareVersion": "v1.0.20180622 GCC4.9.2",
 "DerivedVendorReportedEchoSpacing": 0.000539986,
 "DeviceSerialNumber": "166078",
 "DwellTime": 2.1e-06,
 "EchoTime": 0.034,
 "EchoTrainLength": 100,
 "EffectiveEchoSpacing": 0.000539986,
 "FlipAngle": 90,
 "ImageOrientationPatientDICOM": [
  0.997684,
  0,
  0.0680153,
  0,
  1,
  0
 ],
 "ImageType": [
  "ORIGINAL",
  "PRIMARY",
  "M",
  "ND",
  "MOSAIC"
 ],
 "InPlanePhaseEncodingDirectionDICOM": "COL",
 "InstitutionAddress": "Street_StreetNo_Bei_Jing_District_CN_ZIP",
 "InstitutionName": "BeiJing_Normal_University",
 "InstitutionalDepartmentName": "Department",
 "MRAcquisitionType": "2D",
 "MagneticFieldStrength": 3,
 "Manufacturer": "Siemens",
 "ManufacturersModelName": "Prisma",
 "Modality": "MR",
 "MultibandAccelerationFactor": 3,
 "PartialFourier": 1,
 "PatientPosition": "HFS",
 "PercentPhaseFOV": 100,
 "PhaseEncodingDirection": "j-",
 "PhaseEncodingSteps": 100,
 "PhaseResolution": 1,
 "PixelBandwidth": 2380,
 "ProcedureStepDescription": "BNU_P2018_64CH_Zhen.ZongLei",
 "ProtocolName": "bold_100x100_s3_2x2x2_static_256",
 "PulseSequenceDetails": "%SiemensSeq%_ep2d_bold",
 "ReceiveCoilActiveElements": "HC1-7;NC1",
 "ReceiveCoilName": "HeadNeck_64",
 "ReconMatrixPE": 100,
 "RepetitionTime": 2,
 "SAR": 0.0766288,
 "ScanOptions": "FS",
 "ScanningSequence": "EP",
 "SequenceName": "_epfid2d1_100",
 "SequenceVariant": "SK",
 "SeriesDescription": "bold_100x100_s3_2x2x2_static_256",
 "SeriesNumber": 6,
 "ShimSetting": [
  -5446,
  -11509,
  -1248,
  145,
  -131,
  -216,
  -156,
  55
 ],
 "SliceThickness": 2,
 "SliceTiming": [
  1.485,
  0,
  0.99,
  0.0825,
  1.0725,
  0.165,
  1.155,
  0.2475,
  1.2375,
  0.33,
  1.32,
  0.4125,
  1.4025,
  0.5775,
  1.5675,
  0.66,
  1.65,
  0.7425,
  1.7325,
  0.825,
  1.815,
  0.9075,
  1.8975,
  0.495,
  1.485,
  0,
  0.99,
  0.0825,
  1.0725,
  0.165,
  1.155,
  0.2475,
  1.2375,
  0.33,
  1.32,
  0.4125,
  1.4025,
  0.5775,
  1.5675,
  0.66,
  1.65,
  0.7425,
  1.7325,
  0.825,
  1.815,
  0.9075,
  1.8975,
  0.495,
  1.485,
  0,
  0.99,
  0.0825,
  1.0725,
  0.165,
  1.155,
  0.2475,
  1.2375,
  0.33,
  1.32,
  0.4125,
  1.4025,
  0.5775,
  1.5675,
  0.66,
  1.65,
  0.7425,
  1.7325,
  0.825,
  1.815,
  0.9075,
  1.8975,
  0.495
 ],
 "SoftwareVersions": "syngo_MR_E11",
 "SpacingBetweenSlices": 2,
 "StationName": "AWP166078",
 "TaskName": "imagenet",
 "TotalReadoutTime": 0.0534586,
 "TxRefAmp": 244.878,
 "dcmmeta_affine": [
  [
   -1.9953685998916626,
   0.0,
   0.13603058457374573,
   96.28874206542969
  ],
  [
   0.0,
   2.0,
   0.0,
   -89.23373413085938
  ],
  [
   0.13603058457374573,
   0.0,
   1.995368480682373,
   -75.16963958740234
  ],
  [
   0.0,
   0.0,
   0.0,
   1.0
  ]
 ],
 "dcmmeta_reorient_transform": [
  [
   0.0,
   -1.0,
   0.0,
   99.0
  ],
  [
   1.0,
   0.0,
   0.0,
   0.0
  ],
  [
   0.0,
   0.0,
   1.0,
   0.0
  ],
  [
   0.0,
   0.0,
   0.0,
   1.0
  ]
 ],
 "dcmmeta_shape": [
  100,
  100,
  72,
  256
 ],
 "dcmmeta_slice_dim": 2,
 "dcmmeta_version": 0.6,
 "global": {
  "const": {
   "AcquisitionMatrix": [
    100,
    0,
    0,
    100
   ],
   "AngioFlag": "N",
   "BitsAllocated": 16,
   "BitsStored": 12,
   "BodyPartExamined": "BRAIN",
   "Columns": 900,
   "EchoNumbers": 1,
   "EchoTime": 34.0,
   "EchoTrainLength": 100,
   "FlipAngle": 90.0,
   "HighBit": 11,
   "ImageOrientationPatient": [
    0.99768427877948,
    0.0,
    0.06801529148854,
    0.0,
    1.0,
    0.0
   ],
   "ImagePositionPatient": [
    -894.43616297238,
    -908.76626491547,
    -129.58187299642
   ],
   "ImageType": [
    "ORIGINAL",
    "PRIMARY",
    "M",
    "ND",
    "MOSAIC"
   ],
   "ImagedNucleus": "1H",
   "ImagingFrequency": 123.257766,
   "InPlanePhaseEncodingDirection": "COL",
   "MRAcquisitionType": "2D",
   "MagneticFieldStrength": 3.0,
   "Manufacturer": "SIEMENS",
   "ManufacturerModelName": "Prisma",
   "Modality": "MR",
   "NumberOfAverages": 1.0,
   "NumberOfPhaseEncodingSteps": 100,
   "PercentPhaseFieldOfView": 100.0,
   "PercentSampling": 100.0,
   "PerformedProcedureStepStartTime": "111400.318000",
   "PhotometricInterpretation": "MONOCHROME2",
   "PixelBandwidth": 2380.0,
   "PixelRepresentation": 0,
   "PixelSpacing": [
    2.0,
    2.0
   ],
   "ProtocolName": "bold_100x100_s3_2x2x2_static_256",
   "RepetitionTime": 2000.0,
   "Rows": 900,
   "SAR": 0.07662884894547,
   "SamplesPerPixel": 1,
   "ScanOptions": "FS",
   "ScanningSequence": "EP",
   "SequenceName": "*epfid2d1_100",
   "SequenceVariant": "SK",
   "SeriesDescription": "bold_100x100_s3_2x2x2_static_256",
   "SeriesNumber": 6,
   "SeriesTime": "114715.304000",
   "SliceLocation": -68.446461160874,
   "SliceThickness": 2.0,
   "SmallestImagePixelValue": 0,
   "SoftwareVersions": "syngo MR E11",
   "SpacingBetweenSlices": 1.9999999697708,
   "SpecificCharacterSet": "ISO_IR 100",
   "StudyID": "1",
   "StudyTime": "111400.216000",
   "TransmitCoilName": "Body",
   "VariableFlipAngleFlag": "N",
   "WindowCenterWidthExplanation": "Algo1",
   "dBdt": 0.0
  },
  "slices": {}
 },
 "time": {
  "samples": {
   "AcquisitionNumber": [
    1,
    2,
    3,
    4,
    5,
    6,
    7,
    8,
    9,
    10,
    11,
    12,
    13,
    14,
    15,
    16,
    17,
    18,
    19,
    20,
    21,
    22,
    23,
    24,
    25,
    26,
    27,
    28,
    29,
    30,
    31,
    32,
    33,
    34,
    35,
    36,
    37,
    38,
    39,
    40,
    41,
    42,
    43,
    44,
    45,
    46,
    47,
    48,
    49,
    50,
    51,
    52,
    53,
    54,
    55,
    56,
    57,
    58,
    59,
    60,
    61,
    62,
    63,
    64,
    65,
    66,
    67,
    68,
    69,
    70,
    71,
    72,
    73,
    74,
    75,
    76,
    77,
    78,
    79,
    80,
    81,
    82,
    83,
    84,
    85,
    86,
    87,
    88,
    89,
    90,
    91,
    92,
    93,
    94,
    95,
    96,
    97,
    98,
    99,
    100,
    101,
    102,
    103,
    104,
    105,
    106,
    107,
    108,
    109,
    110,
    111,
    112,
    113,
    114,
    115,
    116,
    117,
    118,
    119,
    120,
    121,
    122,
    123,
    124,
    125,
    126,
    127,
    128,
    129,
    130,
    131,
    132,
    133,
    134,
    135,
    136,
    137,
    138,
    139,
    140,
    141,
    142,
    143,
    144,
    145,
    146,
    147,
    148,
    149,
    150,
    151,
    152,
    153,
    154,
    155,
    156,
    157,
    158,
    159,
    160,
    161,
    162,
    163,
    164,
    165,
    166,
    167,
    168,
    169,
    170,
    171,
    172,
    173,
    174,
    175,
    176,
    177,
    178,
    179,
    180,
    181,
    182,
    183,
    184,
    185,
    186,
    187,
    188,
    189,
    190,
    191,
    192,
    193,
    194,
    195,
    196,
    197,
    198,
    199,
    200,
    201,
    202,
    203,
    204,
    205,
    206,
    207,
    208,
    209,
    210,
    211,
    212,
    213,
    214,
    215,
    216,
    217,
    218,
    219,
    220,
    221,
    222,
    223,
    224,
    225,
    226,
    227,
    228,
    229,
    230,
    231,
    232,
    233,
    234,
    235,
    236,
    237,
    238,
    239,
    240,
    241,
    242,
    243,
    244,
    245,
    246,
    247,
    248,
    249,
    250,
    251,
    252,
    253,
    254,
    255,
    256
   ],
   "AcquisitionTime": [
    "114712.952500",
    "114714.952500",
    "114716.952500",
    "114718.952500",
    "114720.952500",
    "114722.952500",
    "114724.952500",
    "114726.952500",
    "114728.952500",
    "114730.952500",
    "114732.952500",
    "114734.952500",
    "114736.952500",
    "114738.952500",
    "114740.952500",
    "114742.952500",
    "114744.952500",
    "114746.952500",
    "114748.952500",
    "114750.952500",
    "114752.952500",
    "114754.952500",
    "114756.952500",
    "114758.952500",
    "114800.952500",
    "114802.952500",
    "114804.952500",
    "114806.952500",
    "114808.952500",
    "114810.952500",
    "114812.952500",
    "114814.952500",
    "114816.952500",
    "114818.952500",
    "114820.952500",
    "114822.952500",
    "114824.952500",
    "114826.952500",
    "114828.952500",
    "114830.952500",
    "114832.952500",
    "114834.952500",
    "114836.952500",
    "114838.952500",
    "114840.952500",
    "114842.952500",
    "114844.952500",
    "114846.952500",
    "114848.952500",
    "114850.952500",
    "114852.952500",
    "114854.952500",
    "114856.952500",
    "114858.952500",
    "114900.952500",
    "114902.952500",
    "114904.952500",
    "114906.952500",
    "114908.952500",
    "114910.952500",
    "114912.952500",
    "114914.952500",
    "114916.952500",
    "114918.952500",
    "114920.952500",
    "114922.952500",
    "114924.952500",
    "114926.952500",
    "114928.952500",
    "114930.952500",
    "114932.952500",
    "114934.952500",
    "114936.952500",
    "114938.952500",
    "114940.952500",
    "114942.952500",
    "114944.952500",
    "114946.952500",
    "114948.952500",
    "114950.952500",
    "114952.952500",
    "114954.952500",
    "114956.952500",
    "114958.952500",
    "115000.952500",
    "115002.952500",
    "115004.952500",
    "115006.952500",
    "115008.952500",
    "115010.952500",
    "115012.952500",
    "115014.952500",
    "115016.952500",
    "115018.952500",
    "115020.952500",
    "115022.952500",
    "115024.952500",
    "115026.952500",
    "115028.952500",
    "115030.952500",
    "115032.952500",
    "115034.952500",
    "115036.952500",
    "115038.952500",
    "115040.952500",
    "115042.952500",
    "115044.952500",
    "115046.952500",
    "115048.952500",
    "115050.952500",
    "115052.952500",
    "115054.952500",
    "115056.952500",
    "115058.952500",
    "115100.952500",
    "115102.952500",
    "115104.952500",
    "115106.952500",
    "115108.952500",
    "115110.952500",
    "115112.952500",
    "115114.952500",
    "115116.952500",
    "115118.952500",
    "115120.952500",
    "115122.952500",
    "115124.952500",
    "115126.952500",
    "115128.952500",
    "115130.952500",
    "115132.952500",
    "115134.952500",
    "115136.952500",
    "115138.952500",
    "115140.952500",
    "115142.952500",
    "115144.952500",
    "115146.952500",
    "115148.952500",
    "115150.952500",
    "115152.952500",
    "115154.952500",
    "115156.952500",
    "115158.952500",
    "115200.952500",
    "115202.952500",
    "115204.952500",
    "115206.952500",
    "115208.952500",
    "115210.952500",
    "115212.952500",
    "115214.952500",
    "115216.952500",
    "115218.952500",
    "115220.952500",
    "115222.952500",
    "115224.952500",
    "115226.952500",
    "115228.952500",
    "115230.952500",
    "115232.952500",
    "115234.952500",
    "115236.952500",
    "115238.952500",
    "115240.952500",
    "115242.952500",
    "115244.952500",
    "115246.952500",
    "115248.952500",
    "115250.952500",
    "115252.952500",
    "115254.952500",
    "115256.952500",
    "115258.952500",
    "115300.952500",
    "115302.952500",
    "115304.952500",
    "115306.952500",
    "115308.952500",
    "115310.952500",
    "115312.952500",
    "115314.952500",
    "115316.952500",
    "115318.952500",
    "115320.952500",
    "115322.952500",
    "115324.952500",
    "115326.952500",
    "115328.952500",
    "115330.952500",
    "115332.952500",
    "115334.952500",
    "115336.952500",
    "115338.952500",
    "115340.952500",
    "115342.952500",
    "115344.952500",
    "115346.952500",
    "115348.952500",
    "115350.952500",
    "115352.952500",
    "115354.952500",
    "115356.952500",
    "115358.952500",
    "115400.952500",
    "115402.952500",
    "115404.952500",
    "115406.952500",
    "115408.952500",
    "115410.952500",
    "115412.952500",
    "115414.952500",
    "115416.952500",
    "115418.952500",
    "115420.952500",
    "115422.952500",
    "115424.952500",
    "115426.952500",
    "115428.952500",
    "115430.952500",
    "115432.952500",
    "115434.952500",
    "115436.952500",
    "115438.952500",
    "115440.952500",
    "115442.952500",
    "115444.952500",
    "115446.952500",
    "115448.952500",
    "115450.952500",
    "115452.952500",
    "115454.952500",
    "115456.952500",
    "115458.952500",
    "115500.952500",
    "115502.952500",
    "115504.952500",
    "115506.952500",
    "115508.952500",
    "115510.952500",
    "115512.952500",
    "115514.952500",
    "115516.952500",
    "115518.952500",
    "115520.952500",
    "115522.952500",
    "115524.952500",
    "115526.952500",
    "115528.952500",
    "115530.952500",
    "115532.952500",
    "115534.952500",
    "115536.952500",
    "115538.952500",
    "115540.952500",
    "115542.952500"
   ],
   "ContentTime": [
    "114715.308000",
    "114716.803000",
    "114719.303000",
    "114720.803000",
    "114722.803000",
    "114724.804000",
    "114726.804000",
    "114728.804000",
    "114730.804000",
    "114732.804000",
    "114734.803000",
    "114736.803000",
    "114738.803000",
    "114741.304000",
    "114742.805000",
    "114744.805000",
    "114746.804000",
    "114748.804000",
    "114750.804000",
    "114752.803000",
    "114754.803000",
    "114756.803000",
    "114758.805000",
    "114800.805000",
    "114802.804000",
    "114804.804000",
    "114806.805000",
    "114808.804000",
    "114810.804000",
    "114812.803000",
    "114814.803000",
    "114816.804000",
    "114818.804000",
    "114820.804000",
    "114822.804000",
    "114824.804000",
    "114826.804000",
    "114829.303000",
    "114830.803000",
    "114832.803000",
    "114835.305000",
    "114836.804000",
    "114838.804000",
    "114840.804000",
    "114843.304000",
    "114844.804000",
    "114846.803000",
    "114848.803000",
    "114850.803000",
    "114853.305000",
    "114854.804000",
    "114856.805000",
    "114858.804000",
    "114900.803000",
    "114902.803000",
    "114904.803000",
    "114906.804000",
    "114908.804000",
    "114910.805000",
    "114912.805000",
    "114914.805000",
    "114916.805000",
    "114918.803000",
    "114921.304000",
    "114922.803000",
    "114924.803000",
    "114926.804000",
    "114928.804000",
    "114930.805000",
    "114932.805000",
    "114934.805000",
    "114937.303000",
    "114938.803000",
    "114940.803000",
    "114943.304000",
    "114944.804000",
    "114946.805000",
    "114948.805000",
    "114950.804000",
    "114952.804000",
    "114955.304000",
    "114957.303000",
    "114958.803000",
    "115000.803000",
    "115002.805000",
    "115004.804000",
    "115006.804000",
    "115008.804000",
    "115010.803000",
    "115012.803000",
    "115014.804000",
    "115016.804000",
    "115018.804000",
    "115021.304000",
    "115022.805000",
    "115024.804000",
    "115026.805000",
    "115028.803000",
    "115030.803000",
    "115032.803000",
    "115034.804000",
    "115036.805000",
    "115038.804000",
    "115040.804000",
    "115042.804000",
    "115044.805000",
    "115047.304000",
    "115048.804000",
    "115050.804000",
    "115053.304000",
    "115054.805000",
    "115056.804000",
    "115058.804000",
    "115100.804000",
    "115102.803000",
    "115104.804000",
    "115106.803000",
    "115108.803000",
    "115110.803000",
    "115112.804000",
    "115114.805000",
    "115116.804000",
    "115118.804000",
    "115120.803000",
    "115122.803000",
    "115124.804000",
    "115126.803000",
    "115128.804000",
    "115130.804000",
    "115132.805000",
    "115134.804000",
    "115136.805000",
    "115138.804000",
    "115140.804000",
    "115142.803000",
    "115144.804000",
    "115146.805000",
    "115148.805000",
    "115151.305000",
    "115152.804000",
    "115154.804000",
    "115156.803000",
    "115158.804000",
    "115201.304000",
    "115202.803000",
    "115204.805000",
    "115206.805000",
    "115208.805000",
    "115210.805000",
    "115212.804000",
    "115214.803000",
    "115217.304000",
    "115218.804000",
    "115221.305000",
    "115222.804000",
    "115224.804000",
    "115226.804000",
    "115228.804000",
    "115230.803000",
    "115232.803000",
    "115234.804000",
    "115236.803000",
    "115238.804000",
    "115240.804000",
    "115242.804000",
    "115244.804000",
    "115246.804000",
    "115248.803000",
    "115250.804000",
    "115252.804000",
    "115254.803000",
    "115256.805000",
    "115258.805000",
    "115300.804000",
    "115302.804000",
    "115305.303000",
    "115306.804000",
    "115308.804000",
    "115310.803000",
    "115312.804000",
    "115314.804000",
    "115316.804000",
    "115318.804000",
    "115320.804000",
    "115322.803000",
    "115324.803000",
    "115326.803000",
    "115328.803000",
    "115330.805000",
    "115332.804000",
    "115334.804000",
    "115336.805000",
    "115338.804000",
    "115340.803000",
    "115342.803000",
    "115344.804000",
    "115346.804000",
    "115348.804000",
    "115351.305000",
    "115352.805000",
    "115354.804000",
    "115356.805000",
    "115358.803000",
    "115400.803000",
    "115402.804000",
    "115404.804000",
    "115407.305000",
    "115408.805000",
    "115410.805000",
    "115412.804000",
    "115414.805000",
    "115416.803000",
    "115418.803000",
    "115420.804000",
    "115422.803000",
    "115424.804000",
    "115426.805000",
    "115428.804000",
    "115430.804000",
    "115432.804000",
    "115434.816000",
    "115436.803000",
    "115438.803000",
    "115440.805000",
    "115442.805000",
    "115444.804000",
    "115446.804000",
    "115448.804000",
    "115450.804000",
    "115452.803000",
    "115455.304000",
    "115456.803000",
    "115458.804000",
    "115500.805000",
    "115502.804000",
    "115504.804000",
    "115506.804000",
    "115508.803000",
    "115510.804000",
    "115512.804000",
    "115514.803000",
    "115516.805000",
    "115518.805000",
    "115520.805000",
    "115522.804000",
    "115524.805000",
    "115526.803000",
    "115528.804000",
    "115530.803000",
    "115532.803000",
    "115534.805000",
    "115536.804000",
    "115538.804000",
    "115540.804000",
    "115542.804000",
    "115544.763000"
   ],
   "InstanceCreationTime": [
    "114715.308000",
    "114716.803000",
    "114719.303000",
    "114720.803000",
    "114722.803000",
    "114724.804000",
    "114726.804000",
    "114728.804000",
    "114730.804000",
    "114732.804000",
    "114734.803000",
    "114736.803000",
    "114738.803000",
    "114741.304000",
    "114742.805000",
    "114744.805000",
    "114746.804000",
    "114748.804000",
    "114750.804000",
    "114752.803000",
    "114754.803000",
    "114756.803000",
    "114758.805000",
    "114800.805000",
    "114802.804000",
    "114804.804000",
    "114806.805000",
    "114808.804000",
    "114810.804000",
    "114812.803000",
    "114814.803000",
    "114816.804000",
    "114818.804000",
    "114820.804000",
    "114822.804000",
    "114824.804000",
    "114826.804000",
    "114829.303000",
    "114830.803000",
    "114832.803000",
    "114835.305000",
    "114836.804000",
    "114838.804000",
    "114840.804000",
    "114843.304000",
    "114844.804000",
    "114846.803000",
    "114848.803000",
    "114850.803000",
    "114853.305000",
    "114854.804000",
    "114856.805000",
    "114858.804000",
    "114900.803000",
    "114902.803000",
    "114904.803000",
    "114906.804000",
    "114908.804000",
    "114910.805000",
    "114912.805000",
    "114914.805000",
    "114916.805000",
    "114918.803000",
    "114921.304000",
    "114922.803000",
    "114924.803000",
    "114926.804000",
    "114928.804000",
    "114930.805000",
    "114932.805000",
    "114934.805000",
    "114937.303000",
    "114938.803000",
    "114940.803000",
    "114943.304000",
    "114944.804000",
    "114946.805000",
    "114948.805000",
    "114950.804000",
    "114952.804000",
    "114955.304000",
    "114957.303000",
    "114958.803000",
    "115000.803000",
    "115002.805000",
    "115004.804000",
    "115006.804000",
    "115008.804000",
    "115010.803000",
    "115012.803000",
    "115014.804000",
    "115016.804000",
    "115018.804000",
    "115021.304000",
    "115022.805000",
    "115024.804000",
    "115026.805000",
    "115028.803000",
    "115030.803000",
    "115032.803000",
    "115034.804000",
    "115036.805000",
    "115038.804000",
    "115040.804000",
    "115042.804000",
    "115044.805000",
    "115047.304000",
    "115048.804000",
    "115050.804000",
    "115053.304000",
    "115054.805000",
    "115056.804000",
    "115058.804000",
    "115100.804000",
    "115102.803000",
    "115104.804000",
    "115106.803000",
    "115108.803000",
    "115110.803000",
    "115112.804000",
    "115114.805000",
    "115116.804000",
    "115118.804000",
    "115120.803000",
    "115122.803000",
    "115124.804000",
    "115126.803000",
    "115128.804000",
    "115130.804000",
    "115132.805000",
    "115134.804000",
    "115136.805000",
    "115138.804000",
    "115140.804000",
    "115142.803000",
    "115144.804000",
    "115146.805000",
    "115148.805000",
    "115151.305000",
    "115152.804000",
    "115154.804000",
    "115156.803000",
    "115158.804000",
    "115201.304000",
    "115202.803000",
    "115204.805000",
    "115206.805000",
    "115208.805000",
    "115210.805000",
    "115212.804000",
    "115214.803000",
    "115217.304000",
    "115218.804000",
    "115221.305000",
    "115222.804000",
    "115224.804000",
    "115226.804000",
    "115228.804000",
    "115230.803000",
    "115232.803000",
    "115234.804000",
    "115236.803000",
    "115238.804000",
    "115240.804000",
    "115242.804000",
    "115244.804000",
    "115246.804000",
    "115248.803000",
    "115250.804000",
    "115252.804000",
    "115254.803000",
    "115256.805000",
    "115258.805000",
    "115300.804000",
    "115302.804000",
    "115305.303000",
    "115306.804000",
    "115308.804000",
    "115310.803000",
    "115312.804000",
    "115314.804000",
    "115316.804000",
    "115318.804000",
    "115320.804000",
    "115322.803000",
    "115324.803000",
    "115326.803000",
    "115328.803000",
    "115330.805000",
    "115332.804000",
    "115334.804000",
    "115336.805000",
    "115338.804000",
    "115340.803000",
    "115342.803000",
    "115344.804000",
    "115346.804000",
    "115348.804000",
    "115351.305000",
    "115352.805000",
    "115354.804000",
    "115356.805000",
    "115358.803000",
    "115400.803000",
    "115402.804000",
    "115404.804000",
    "115407.305000",
    "115408.805000",
    "115410.805000",
    "115412.804000",
    "115414.805000",
    "115416.803000",
    "115418.803000",
    "115420.804000",
    "115422.803000",
    "115424.804000",
    "115426.805000",
    "115428.804000",
    "115430.804000",
    "115432.804000",
    "115434.816000",
    "115436.803000",
    "115438.803000",
    "115440.805000",
    "115442.805000",
    "115444.804000",
    "115446.804000",
    "115448.804000",
    "115450.804000",
    "115452.803000",
    "115455.304000",
    "115456.803000",
    "115458.804000",
    "115500.805000",
    "115502.804000",
    "115504.804000",
    "115506.804000",
    "115508.803000",
    "115510.804000",
    "115512.804000",
    "115514.803000",
    "115516.805000",
    "115518.805000",
    "115520.805000",
    "115522.804000",
    "115524.805000",
    "115526.803000",
    "115528.804000",
    "115530.803000",
    "115532.803000",
    "115534.805000",
    "115536.804000",
    "115538.804000",
    "115540.804000",
    "115542.804000",
    "115544.763000"
   ],
   "InstanceNumber": [
    1,
    2,
    3,
    4,
    5,
    6,
    7,
    8,
    9,
    10,
    11,
    12,
    13,
    14,
    15,
    16,
    17,
    18,
    19,
    20,
    21,
    22,
    23,
    24,
    25,
    26,
    27,
    28,
    29,
    30,
    31,
    32,
    33,
    34,
    35,
    36,
    37,
    38,
    39,
    40,
    41,
    42,
    43,
    44,
    45,
    46,
    47,
    48,
    49,
    50,
    51,
    52,
    53,
    54,
    55,
    56,
    57,
    58,
    59,
    60,
    61,
    62,
    63,
    64,
    65,
    66,
    67,
    68,
    69,
    70,
    71,
    72,
    73,
    74,
    75,
    76,
    77,
    78,
    79,
    80,
    81,
    82,
    83,
    84,
    85,
    86,
    87,
    88,
    89,
    90,
    91,
    92,
    93,
    94,
    95,
    96,
    97,
    98,
    99,
    100,
    101,
    102,
    103,
    104,
    105,
    106,
    107,
    108,
    109,
    110,
    111,
    112,
    113,
    114,
    115,
    116,
    117,
    118,
    119,
    120,
    121,
    122,
    123,
    124,
    125,
    126,
    127,
    128,
    129,
    130,
    131,
    132,
    133,
    134,
    135,
    136,
    137,
    138,
    139,
    140,
    141,
    142,
    143,
    144,
    145,
    146,
    147,
    148,
    149,
    150,
    151,
    152,
    153,
    154,
    155,
    156,
    157,
    158,
    159,
    160,
    161,
    162,
    163,
    164,
    165,
    166,
    167,
    168,
    169,
    170,
    171,
    172,
    173,
    174,
    175,
    176,
    177,
    178,
    179,
    180,
    181,
    182,
    183,
    184,
    185,
    186,
    187,
    188,
    189,
    190,
    191,
    192,
    193,
    194,
    195,
    196,
    197,
    198,
    199,
    200,
    201,
    202,
    203,
    204,
    205,
    206,
    207,
    208,
    209,
    210,
    211,
    212,
    213,
    214,
    215,
    216,
    217,
    218,
    219,
    220,
    221,
    222,
    223,
    224,
    225,
    226,
    227,
    228,
    229,
    230,
    231,
    232,
    233,
    234,
    235,
    236,
    237,
    238,
    239,
    240,
    241,
    242,
    243,
    244,
    245,
    246,
    247,
    248,
    249,
    250,
    251,
    252,
    253,
    254,
    255,
    256
   ],
   "LargestImagePixelValue": [
    3445,
    3405,
    3357,
    3393,
    3371,
    3355,
    3371,
    3388,
    3340,
    3370,
    3389,
    3407,
    3387,
    3415,
    3371,
    3363,
    3353,
    3390,
    3369,
    3379,
    3393,
    3375,
    3381,
    3377,
    3374,
    3407,
    3387,
    3398,
    3386,
    3388,
    3405,
    3373,
    3399,
    3375,
    3425,
    3375,
    3371,
    3369,
    3367,
    3384,
    3393,
    3382,
    3403,
    3372,
    3386,
    3396,
    3410,
    3390,
    3383,
    3397,
    3390,
    3395,
    3399,
    3405,
    3395,
    3390,
    3388,
    3380,
    3404,
    3393,
    3390,
    3398,
    3366,
    3387,
    3414,
    3395,
    3388,
    3384,
    3400,
    3396,
    3393,
    3361,
    3357,
    3408,
    3387,
    3365,
    3407,
    3362,
    3412,
    3383,
    3416,
    3377,
    3396,
    3392,
    3369,
    3393,
    3389,
    3388,
    3409,
    3403,
    3376,
    3405,
    3410,
    3376,
    3390,
    3414,
    3412,
    3400,
    3395,
    3452,
    3389,
    3394,
    3402,
    3399,
    3385,
    3406,
    3421,
    3422,
    3419,
    3404,
    3406,
    3410,
    3425,
    3401,
    3455,
    3408,
    3422,
    3413,
    3409,
    3428,
    3380,
    3419,
    3455,
    3416,
    3419,
    3447,
    3410,
    3428,
    3398,
    3451,
    3399,
    3408,
    3405,
    3410,
    3419,
    3419,
    3420,
    3417,
    3439,
    3422,
    3429,
    3437,
    3448,
    3425,
    3435,
    3413,
    3415,
    3445,
    3441,
    3437,
    3496,
    3443,
    3500,
    3427,
    3431,
    3437,
    3424,
    3453,
    3424,
    3409,
    3412,
    3406,
    3450,
    3431,
    3405,
    3429,
    3406,
    3423,
    3407,
    3428,
    3436,
    3405,
    3439,
    3430,
    3431,
    3445,
    3439,
    3432,
    3442,
    3443,
    3457,
    3449,
    3452,
    3434,
    3463,
    3500,
    3502,
    3448,
    3447,
    3433,
    3444,
    3452,
    3435,
    3486,
    3460,
    3452,
    3466,
    3465,
    3434,
    3468,
    3443,
    3444,
    3455,
    3468,
    3441,
    3445,
    3452,
    3487,
    3460,
    3479,
    3463,
    3455,
    3468,
    3483,
    3454,
    3500,
    3496,
    3485,
    3472,
    3470,
    3502,
    3475,
    3498,
    3494,
    3471,
    3493,
    3442,
    3464,
    3418,
    3427,
    3443,
    3443,
    3436,
    3460,
    3435,
    3434,
    3460,
    3448,
    3473,
    3469,
    3436,
    3439,
    3437,
    3481,
    3458,
    3445,
    3437,
    3447,
    3485,
    3455,
    3499,
    3461,
    3449,
    3474,
    3449,
    3456
   ],
   "WindowCenter": [
    852.0,
    850.0,
    850.0,
    849.0,
    849.0,
    849.0,
    849.0,
    850.0,
    850.0,
    850.0,
    851.0,
    852.0,
    850.0,
    849.0,
    849.0,
    849.0,
    849.0,
    849.0,
    849.0,
    849.0,
    849.0,
    848.0,
    848.0,
    848.0,
    849.0,
    851.0,
    850.0,
    848.0,
    848.0,
    847.0,
    848.0,
    848.0,
    848.0,
    847.0,
    847.0,
    846.0,
    847.0,
    848.0,
    848.0,
    848.0,
    847.0,
    847.0,
    847.0,
    848.0,
    847.0,
    847.0,
    847.0,
    849.0,
    850.0,
    849.0,
    848.0,
    847.0,
    848.0,
    849.0,
    850.0,
    849.0,
    849.0,
    848.0,
    849.0,
    849.0,
    848.0,
    848.0,
    848.0,
    848.0,
    846.0,
    844.0,
    844.0,
    844.0,
    844.0,
    845.0,
    847.0,
    849.0,
    850.0,
    850.0,
    850.0,
    850.0,
    849.0,
    848.0,
    848.0,
    849.0,
    850.0,
    850.0,
    850.0,
    852.0,
    852.0,
    852.0,
    850.0,
    850.0,
    850.0,
    849.0,
    848.0,
    847.0,
    847.0,
    846.0,
    847.0,
    848.0,
    849.0,
    851.0,
    852.0,
    851.0,
    848.0,
    847.0,
    847.0,
    847.0,
    847.0,
    848.0,
    849.0,
    849.0,
    849.0,
    849.0,
    849.0,
    848.0,
    848.0,
    848.0,
    850.0,
    850.0,
    849.0,
    849.0,
    850.0,
    851.0,
    851.0,
    850.0,
    850.0,
    849.0,
