{
 "AcquisitionMatrixPE": 100,
 "AcquisitionNumber": 1,
 "AcquisitionTime": "13:20:39.925000",
 "BandwidthPerPixelPhaseEncode": 18.519,
 "BaseResolution": 100,
 "BodyPartExamined": "BRAIN",
 "ConsistencyInfo": "N4_VE11C_LATEST_20160120",
 "ConversionSoftware": "dcm2niix",
 "ConversionSoftwareVersion": "v1.0.20180622 GCC4.9.2",
 "DerivedVendorReportedEchoSpacing": 0.000539986,
 "DeviceSerialNumber": "166078",
 "DwellTime": 2.1e-06,
 "EchoTime": 0.034,
 "EchoTrainLength": 100,
 "EffectiveEchoSpacing": 0.000539986,
 "FlipAngle": 90,
 "ImageOrientationPatientDICOM": [
  1,
  0,
  0,
  0,
  0.988228,
  -0.152986
 ],
 "ImageType": [
  "ORIGINAL",
  "PRIMARY",
  "M",
  "ND",
  "MOSAIC"
 ],
 "InPlanePhaseEncodingDirectionDICOM": "COL",
 "InstitutionAddress": "Street_StreetNo_Bei_Jing_District_CN_ZIP",
 "InstitutionName": "BeiJing_Normal_University",
 "InstitutionalDepartmentName": "Department",
 "MRAcquisitionType": "2D",
 "MagneticFieldStrength": 3,
 "Manufacturer": "Siemens",
 "ManufacturersModelName": "Prisma",
 "Modality": "MR",
 "MultibandAccelerationFactor": 3,
 "PartialFourier": 1,
 "PatientPosition": "HFS",
 "PercentPhaseFOV": 100,
 "PhaseEncodingDirection": "j-",
 "PhaseEncodingSteps": 100,
 "PhaseResolution": 1,
 "PixelBandwidth": 2380,
 "ProcedureStepDescription": "BNU_P2018_64CH_Zhen.ZongLei",
 "ProtocolName": "bold_100x100_s3_2x2x2_static_256",
 "PulseSequenceDetails": "%SiemensSeq%_ep2d_bold",
 "ReceiveCoilActiveElements": "HC1-7;NC1",
 "ReceiveCoilName": "HeadNeck_64",
 "ReconMatrixPE": 100,
 "RepetitionTime": 2,
 "SAR": 0.073769,
 "ScanOptions": "FS",
 "ScanningSequence": "EP",
 "SequenceName": "_epfid2d1_100",
 "SequenceVariant": "SK",
 "SeriesDescription": "bold_100x100_s3_2x2x2_static_256",
 "SeriesNumber": 6,
 "ShimSetting": [
  -5449,
  -11493,
  -1257,
  267,
  -29,
  -269,
  -251,
  68
 ],
 "SliceThickness": 2,
 "SliceTiming": [
  1.485,
  0,
  0.99,
  0.0825,
  1.0725,
  0.165,
  1.155,
  0.2475,
  1.2375,
  0.33,
  1.32,
  0.4125,
  1.4025,
  0.5775,
  1.5675,
  0.66,
  1.65,
  0.7425,
  1.7325,
  0.825,
  1.815,
  0.9075,
  1.8975,
  0.495,
  1.485,
  0,
  0.99,
  0.0825,
  1.0725,
  0.165,
  1.155,
  0.2475,
  1.2375,
  0.33,
  1.32,
  0.4125,
  1.4025,
  0.5775,
  1.5675,
  0.66,
  1.65,
  0.7425,
  1.7325,
  0.825,
  1.815,
  0.9075,
  1.8975,
  0.495,
  1.485,
  0,
  0.99,
  0.0825,
  1.0725,
  0.165,
  1.155,
  0.2475,
  1.2375,
  0.33,
  1.32,
  0.4125,
  1.4025,
  0.5775,
  1.5675,
  0.66,
  1.65,
  0.7425,
  1.7325,
  0.825,
  1.815,
  0.9075,
  1.8975,
  0.495
 ],
 "SoftwareVersions": "syngo_MR_E11",
 "SpacingBetweenSlices": 2,
 "StationName": "AWP166078",
 "TaskName": "imagenet",
 "TotalReadoutTime": 0.0534586,
 "TxRefAmp": 220.938,
 "dcmmeta_affine": [
  [
   -2.0,
   0.0,
   0.0,
   102.69879150390625
  ],
  [
   0.0,
   1.9764567613601685,
   -0.3059716820716858,
   -85.02535247802734
  ],
  [
   0.0,
   0.3059716820716858,
   1.9764567613601685,
   -82.86285400390625
  ],
  [
   0.0,
   0.0,
   0.0,
   1.0
  ]
 ],
 "dcmmeta_reorient_transform": [
  [
   0.0,
   -1.0,
   0.0,
   99.0
  ],
  [
   1.0,
   0.0,
   0.0,
   0.0
  ],
  [
   0.0,
   0.0,
   1.0,
   0.0
  ],
  [
   0.0,
   0.0,
   0.0,
   1.0
  ]
 ],
 "dcmmeta_shape": [
  100,
  100,
  72,
  256
 ],
 "dcmmeta_slice_dim": 2,
 "dcmmeta_version": 0.6,
 "global": {
  "const": {
   "AcquisitionMatrix": [
    100,
    0,
    0,
    100
   ],
   "AngioFlag": "N",
   "BitsAllocated": 16,
   "BitsStored": 12,
   "BodyPartExamined": "BRAIN",
   "Columns": 900,
   "EchoNumbers": 1,
   "EchoTime": 34.0,
   "EchoTrainLength": 100,
   "FlipAngle": 90.0,
   "HighBit": 11,
   "ImageOrientationPatient": [
    1.0,
    0.0,
    0.0,
    0.0,
    0.9882283809914,
    -0.1529858392241
   ],
   "ImagePositionPatient": [
    -902.69879508018,
    -901.22657350902,
    69.817016043896
   ],
   "ImageType": [
    "ORIGINAL",
    "PRIMARY",
    "M",
    "ND",
    "MOSAIC"
   ],
   "ImagedNucleus": "1H",
   "ImagingFrequency": 123.257778,
   "InPlanePhaseEncodingDirection": "COL",
   "LargestImagePixelValue": 4095,
   "MRAcquisitionType": "2D",
   "MagneticFieldStrength": 3.0,
   "Manufacturer": "SIEMENS",
   "ManufacturerModelName": "Prisma",
   "Modality": "MR",
   "NumberOfAverages": 1.0,
   "NumberOfPhaseEncodingSteps": 100,
   "PercentPhaseFieldOfView": 100.0,
   "PercentSampling": 100.0,
   "PerformedProcedureStepStartTime": "124405.346000",
   "PhotometricInterpretation": "MONOCHROME2",
   "PixelBandwidth": 2380.0,
   "PixelRepresentation": 0,
   "PixelSpacing": [
    2.0,
    2.0
   ],
   "ProtocolName": "bold_100x100_s3_2x2x2_static_256",
   "RepetitionTime": 2000.0,
   "Rows": 900,
   "SAR": 0.07376897197904,
   "SamplesPerPixel": 1,
   "ScanOptions": "FS",
   "ScanningSequence": "EP",
   "SequenceName": "*epfid2d1_100",
   "SequenceVariant": "SK",
   "SeriesDescription": "bold_100x100_s3_2x2x2_static_256",
   "SeriesNumber": 6,
   "SeriesTime": "132042.200000",
   "SliceLocation": -68.879746948646,
   "SliceThickness": 2.0,
   "SmallestImagePixelValue": 0,
   "SoftwareVersions": "syngo MR E11",
   "SpacingBetweenSlices": 1.9999999996718,
   "SpecificCharacterSet": "ISO_IR 100",
   "StudyID": "1",
   "StudyTime": "124405.231000",
   "TransmitCoilName": "Body",
   "VariableFlipAngleFlag": "N",
   "WindowCenterWidthExplanation": "Algo1",
   "dBdt": 0.0
  },
  "slices": {}
 },
 "time": {
  "samples": {
   "AcquisitionNumber": [
    1,
    2,
    3,
    4,
    5,
    6,
    7,
    8,
    9,
    10,
    11,
    12,
    13,
    14,
    15,
    16,
    17,
    18,
    19,
    20,
    21,
    22,
    23,
    24,
    25,
    26,
    27,
    28,
    29,
    30,
    31,
    32,
    33,
    34,
    35,
    36,
    37,
    38,
    39,
    40,
    41,
    42,
    43,
    44,
    45,
    46,
    47,
    48,
    49,
    50,
    51,
    52,
    53,
    54,
    55,
    56,
    57,
    58,
    59,
    60,
    61,
    62,
    63,
    64,
    65,
    66,
    67,
    68,
    69,
    70,
    71,
    72,
    73,
    74,
    75,
    76,
    77,
    78,
    79,
    80,
    81,
    82,
    83,
    84,
    85,
    86,
    87,
    88,
    89,
    90,
    91,
    92,
    93,
    94,
    95,
    96,
    97,
    98,
    99,
    100,
    101,
    102,
    103,
    104,
    105,
    106,
    107,
    108,
    109,
    110,
    111,
    112,
    113,
    114,
    115,
    116,
    117,
    118,
    119,
    120,
    121,
    122,
    123,
    124,
    125,
    126,
    127,
    128,
    129,
    130,
    131,
    132,
    133,
    134,
    135,
    136,
    137,
    138,
    139,
    140,
    141,
    142,
    143,
    144,
    145,
    146,
    147,
    148,
    149,
    150,
    151,
    152,
    153,
    154,
    155,
    156,
    157,
    158,
    159,
    160,
    161,
    162,
    163,
    164,
    165,
    166,
    167,
    168,
    169,
    170,
    171,
    172,
    173,
    174,
    175,
    176,
    177,
    178,
    179,
    180,
    181,
    182,
    183,
    184,
    185,
    186,
    187,
    188,
    189,
    190,
    191,
    192,
    193,
    194,
    195,
    196,
    197,
    198,
    199,
    200,
    201,
    202,
    203,
    204,
    205,
    206,
    207,
    208,
    209,
    210,
    211,
    212,
    213,
    214,
    215,
    216,
    217,
    218,
    219,
    220,
    221,
    222,
    223,
    224,
    225,
    226,
    227,
    228,
    229,
    230,
    231,
    232,
    233,
    234,
    235,
    236,
    237,
    238,
    239,
    240,
    241,
    242,
    243,
    244,
    245,
    246,
    247,
    248,
    249,
    250,
    251,
    252,
    253,
    254,
    255,
    256
   ],
   "AcquisitionTime": [
    "132039.925000",
    "132041.925000",
    "132043.925000",
    "132045.925000",
    "132047.925000",
    "132049.925000",
    "132051.925000",
    "132053.925000",
    "132055.925000",
    "132057.925000",
    "132059.925000",
    "132101.925000",
    "132103.925000",
    "132105.925000",
    "132107.925000",
    "132109.925000",
    "132111.925000",
    "132113.925000",
    "132115.925000",
    "132117.925000",
    "132119.925000",
    "132121.925000",
    "132123.925000",
    "132125.925000",
    "132127.925000",
    "132129.925000",
    "132131.925000",
    "132133.925000",
    "132135.925000",
    "132137.925000",
    "132139.925000",
    "132141.925000",
    "132143.925000",
    "132145.925000",
    "132147.925000",
    "132149.925000",
    "132151.925000",
    "132153.925000",
    "132155.925000",
    "132157.925000",
    "132159.925000",
    "132201.925000",
    "132203.925000",
    "132205.925000",
    "132207.925000",
    "132209.925000",
    "132211.925000",
    "132213.925000",
    "132215.925000",
    "132217.925000",
    "132219.925000",
    "132221.925000",
    "132223.925000",
    "132225.925000",
    "132227.925000",
    "132229.925000",
    "132231.925000",
    "132233.925000",
    "132235.925000",
    "132237.925000",
    "132239.925000",
    "132241.925000",
    "132243.925000",
    "132245.925000",
    "132247.925000",
    "132249.925000",
    "132251.925000",
    "132253.925000",
    "132255.925000",
    "132257.925000",
    "132259.925000",
    "132301.925000",
    "132303.925000",
    "132305.925000",
    "132307.925000",
    "132309.925000",
    "132311.925000",
    "132313.925000",
    "132315.925000",
    "132317.925000",
    "132319.925000",
    "132321.925000",
    "132323.925000",
    "132325.925000",
    "132327.925000",
    "132329.925000",
    "132331.925000",
    "132333.925000",
    "132335.925000",
    "132337.925000",
    "132339.925000",
    "132341.925000",
    "132343.925000",
    "132345.925000",
    "132347.925000",
    "132349.925000",
    "132351.925000",
    "132353.925000",
    "132355.925000",
    "132357.925000",
    "132359.925000",
    "132401.925000",
    "132403.925000",
    "132405.925000",
    "132407.925000",
    "132409.925000",
    "132411.925000",
    "132413.925000",
    "132415.925000",
    "132417.925000",
    "132419.925000",
    "132421.925000",
    "132423.925000",
    "132425.925000",
    "132427.925000",
    "132429.925000",
    "132431.925000",
    "132433.925000",
    "132435.925000",
    "132437.925000",
    "132439.925000",
    "132441.925000",
    "132443.925000",
    "132445.925000",
    "132447.925000",
    "132449.925000",
    "132451.925000",
    "132453.925000",
    "132455.925000",
    "132457.925000",
    "132459.925000",
    "132501.925000",
    "132503.925000",
    "132505.925000",
    "132507.925000",
    "132509.925000",
    "132511.925000",
    "132513.925000",
    "132515.925000",
    "132517.925000",
    "132519.925000",
    "132521.925000",
    "132523.925000",
    "132525.925000",
    "132527.925000",
    "132529.925000",
    "132531.925000",
    "132533.925000",
    "132535.925000",
    "132537.925000",
    "132539.925000",
    "132541.925000",
    "132543.925000",
    "132545.925000",
    "132547.925000",
    "132549.925000",
    "132551.925000",
    "132553.925000",
    "132555.925000",
    "132557.925000",
    "132559.925000",
    "132601.925000",
    "132603.925000",
    "132605.925000",
    "132607.925000",
    "132609.925000",
    "132611.925000",
    "132613.925000",
    "132615.925000",
    "132617.925000",
    "132619.925000",
    "132621.925000",
    "132623.925000",
    "132625.925000",
    "132627.925000",
    "132629.925000",
    "132631.925000",
    "132633.925000",
    "132635.925000",
    "132637.925000",
    "132639.925000",
    "132641.925000",
    "132643.925000",
    "132645.925000",
    "132647.925000",
    "132649.925000",
    "132651.925000",
    "132653.925000",
    "132655.925000",
    "132657.925000",
    "132659.925000",
    "132701.925000",
    "132703.925000",
    "132705.925000",
    "132707.925000",
    "132709.925000",
    "132711.925000",
    "132713.925000",
    "132715.925000",
    "132717.925000",
    "132719.925000",
    "132721.925000",
    "132723.925000",
    "132725.925000",
    "132727.925000",
    "132729.925000",
    "132731.925000",
    "132733.925000",
    "132735.925000",
    "132737.925000",
    "132739.925000",
    "132741.925000",
    "132743.925000",
    "132745.925000",
    "132747.925000",
    "132749.925000",
    "132751.925000",
    "132753.925000",
    "132755.925000",
    "132757.925000",
    "132759.925000",
    "132801.925000",
    "132803.925000",
    "132805.925000",
    "132807.925000",
    "132809.925000",
    "132811.925000",
    "132813.925000",
    "132815.925000",
    "132817.925000",
    "132819.925000",
    "132821.925000",
    "132823.925000",
    "132825.925000",
    "132827.925000",
    "132829.925000",
    "132831.925000",
    "132833.925000",
    "132835.925000",
    "132837.925000",
    "132839.925000",
    "132841.925000",
    "132843.925000",
    "132845.925000",
    "132847.925000",
    "132849.925000",
    "132851.925000",
    "132853.925000",
    "132855.925000",
    "132857.925000",
    "132859.925000",
    "132901.925000",
    "132903.925000",
    "132905.925000",
    "132907.925000",
    "132909.925000"
   ],
   "ContentTime": [
    "132042.203000",
    "132043.684000",
    "132045.684000",
    "132047.684000",
    "132049.684000",
    "132051.684000",
    "132053.685000",
    "132055.684000",
    "132057.684000",
    "132059.684000",
    "132101.684000",
    "132103.685000",
    "132105.685000",
    "132107.684000",
    "132109.685000",
    "132111.684000",
    "132113.684000",
    "132115.684000",
    "132117.684000",
    "132119.684000",
    "132121.684000",
    "132123.684000",
    "132125.685000",
    "132127.686000",
    "132129.685000",
    "132131.684000",
    "132133.685000",
    "132135.685000",
    "132137.684000",
    "132139.685000",
    "132141.684000",
    "132143.685000",
    "132145.684000",
    "132147.685000",
    "132149.684000",
    "132151.685000",
    "132153.684000",
    "132155.684000",
    "132157.685000",
    "132159.684000",
    "132201.684000",
    "132203.684000",
    "132205.685000",
    "132207.685000",
    "132210.185000",
    "132211.684000",
    "132213.685000",
    "132215.685000",
    "132217.684000",
    "132219.686000",
    "132221.684000",
    "132223.684000",
    "132225.685000",
    "132227.684000",
    "132229.684000",
    "132231.684000",
    "132233.685000",
    "132235.685000",
    "132237.685000",
    "132239.684000",
    "132241.684000",
    "132243.685000",
    "132245.685000",
    "132247.684000",
    "132249.685000",
    "132251.685000",
    "132253.685000",
    "132255.685000",
    "132257.685000",
    "132259.684000",
    "132301.684000",
    "132303.684000",
    "132305.685000",
    "132307.685000",
    "132309.685000",
    "132311.685000",
    "132313.684000",
    "132315.685000",
    "132317.685000",
    "132319.684000",
    "132322.185000",
    "132323.685000",
    "132325.684000",
    "132327.684000",
    "132329.685000",
    "132331.684000",
    "132333.684000",
    "132335.684000",
    "132337.685000",
    "132339.684000",
    "132341.685000",
    "132343.684000",
    "132345.685000",
    "132347.686000",
    "132349.684000",
    "132351.684000",
    "132353.685000",
    "132355.684000",
    "132357.684000",
    "132359.685000",
    "132401.685000",
    "132403.685000",
    "132405.685000",
    "132407.685000",
    "132409.685000",
    "132411.684000",
    "132413.685000",
    "132415.684000",
    "132417.685000",
    "132419.685000",
    "132421.685000",
    "132423.685000",
    "132425.685000",
    "132427.684000",
    "132429.684000",
    "132431.684000",
    "132433.684000",
    "132435.684000",
    "132437.684000",
    "132440.186000",
    "132441.684000",
    "132443.685000",
    "132445.684000",
    "132447.684000",
    "132449.685000",
    "132451.684000",
    "132453.685000",
    "132455.684000",
    "132457.685000",
    "132459.685000",
    "132501.685000",
    "132503.684000",
    "132505.685000",
    "132507.685000",
    "132509.684000",
    "132511.685000",
    "132513.685000",
    "132515.684000",
    "132517.685000",
    "132519.685000",
    "132521.685000",
    "132523.684000",
    "132525.684000",
    "132527.684000",
    "132529.684000",
    "132531.685000",
    "132533.684000",
    "132535.684000",
    "132538.184000",
    "132539.684000",
    "132541.684000",
    "132543.684000",
    "132545.685000",
    "132547.684000",
    "132549.685000",
    "132551.684000",
    "132553.685000",
    "132555.684000",
    "132557.685000",
    "132559.685000",
    "132601.684000",
    "132603.685000",
    "132605.684000",
    "132607.685000",
    "132609.685000",
    "132611.692000",
    "132613.685000",
    "132615.684000",
    "132617.685000",
    "132619.685000",
    "132621.684000",
    "132623.684000",
    "132625.684000",
    "132627.685000",
    "132629.685000",
    "132631.684000",
    "132633.685000",
    "132635.685000",
    "132637.685000",
    "132639.684000",
    "132641.685000",
    "132643.685000",
    "132646.185000",
    "132647.685000",
    "132650.184000",
    "132651.684000",
    "132653.684000",
    "132655.685000",
    "132657.685000",
    "132659.686000",
    "132701.685000",
    "132703.684000",
    "132705.684000",
    "132707.684000",
    "132709.684000",
    "132711.684000",
    "132713.685000",
    "132715.684000",
    "132717.685000",
    "132719.685000",
    "132721.685000",
    "132723.684000",
    "132725.685000",
    "132727.685000",
    "132729.684000",
    "132731.684000",
    "132733.685000",
    "132735.684000",
    "132737.685000",
    "132739.685000",
    "132741.684000",
    "132743.684000",
    "132745.684000",
    "132747.685000",
    "132749.684000",
    "132751.685000",
    "132753.685000",
    "132755.684000",
    "132757.685000",
    "132759.684000",
    "132801.684000",
    "132803.685000",
    "132805.684000",
    "132807.684000",
    "132809.686000",
    "132811.685000",
    "132813.685000",
    "132815.685000",
    "132817.684000",
    "132819.684000",
    "132821.684000",
    "132823.685000",
    "132825.685000",
    "132827.686000",
    "132829.685000",
    "132831.684000",
    "132833.685000",
    "132835.684000",
    "132837.684000",
    "132839.684000",
    "132841.685000",
    "132843.685000",
    "132845.685000",
    "132847.685000",
    "132849.685000",
    "132851.684000",
    "132853.684000",
    "132855.685000",
    "132857.684000",
    "132859.685000",
    "132901.686000",
    "132903.684000",
    "132906.184000",
    "132907.684000",
    "132909.685000",
    "132911.537000"
   ],
   "InstanceCreationTime": [
    "132042.203000",
    "132043.684000",
    "132045.684000",
    "132047.684000",
    "132049.684000",
    "132051.684000",
    "132053.685000",
    "132055.684000",
    "132057.684000",
    "132059.684000",
    "132101.684000",
    "132103.685000",
    "132105.685000",
    "132107.684000",
    "132109.685000",
    "132111.684000",
    "132113.684000",
    "132115.684000",
    "132117.684000",
    "132119.684000",
    "132121.684000",
    "132123.684000",
    "132125.685000",
    "132127.686000",
    "132129.685000",
    "132131.684000",
    "132133.685000",
    "132135.685000",
    "132137.684000",
    "132139.685000",
    "132141.684000",
    "132143.685000",
    "132145.684000",
    "132147.685000",
    "132149.684000",
    "132151.685000",
    "132153.684000",
    "132155.684000",
    "132157.685000",
    "132159.684000",
    "132201.684000",
    "132203.684000",
    "132205.685000",
    "132207.685000",
    "132210.185000",
    "132211.684000",
    "132213.685000",
    "132215.685000",
    "132217.684000",
    "132219.686000",
    "132221.684000",
    "132223.684000",
    "132225.685000",
    "132227.684000",
    "132229.684000",
    "132231.684000",
    "132233.685000",
    "132235.685000",
    "132237.685000",
    "132239.684000",
    "132241.684000",
    "132243.685000",
    "132245.685000",
    "132247.684000",
    "132249.685000",
    "132251.685000",
    "132253.685000",
    "132255.685000",
    "132257.685000",
    "132259.684000",
    "132301.684000",
    "132303.684000",
    "132305.685000",
    "132307.685000",
    "132309.685000",
    "132311.685000",
    "132313.684000",
    "132315.685000",
    "132317.685000",
    "132319.684000",
    "132322.185000",
    "132323.685000",
    "132325.684000",
    "132327.684000",
    "132329.685000",
    "132331.684000",
    "132333.684000",
    "132335.684000",
    "132337.685000",
    "132339.684000",
    "132341.685000",
    "132343.684000",
    "132345.685000",
    "132347.686000",
    "132349.684000",
    "132351.684000",
    "132353.685000",
    "132355.684000",
    "132357.684000",
    "132359.685000",
    "132401.685000",
    "132403.685000",
    "132405.685000",
    "132407.685000",
    "132409.685000",
    "132411.684000",
    "132413.685000",
    "132415.684000",
    "132417.685000",
    "132419.685000",
    "132421.685000",
    "132423.685000",
    "132425.685000",
    "132427.684000",
    "132429.684000",
    "132431.684000",
    "132433.684000",
    "132435.684000",
    "132437.684000",
    "132440.186000",
    "132441.684000",
    "132443.685000",
    "132445.684000",
    "132447.684000",
    "132449.685000",
    "132451.684000",
    "132453.685000",
    "132455.684000",
    "132457.685000",
    "132459.685000",
    "132501.685000",
    "132503.684000",
    "132505.685000",
    "132507.685000",
    "132509.684000",
    "132511.685000",
    "132513.685000",
    "132515.684000",
    "132517.685000",
    "132519.685000",
    "132521.685000",
    "132523.684000",
    "132525.684000",
    "132527.684000",
    "132529.684000",
    "132531.685000",
    "132533.684000",
    "132535.684000",
    "132538.184000",
    "132539.684000",
    "132541.684000",
    "132543.684000",
    "132545.685000",
    "132547.684000",
    "132549.685000",
    "132551.684000",
    "132553.685000",
    "132555.684000",
    "132557.685000",
    "132559.685000",
    "132601.684000",
    "132603.685000",
    "132605.684000",
    "132607.685000",
    "132609.685000",
    "132611.692000",
    "132613.685000",
    "132615.684000",
    "132617.685000",
    "132619.685000",
    "132621.684000",
    "132623.684000",
    "132625.684000",
    "132627.685000",
    "132629.685000",
    "132631.684000",
    "132633.685000",
    "132635.685000",
    "132637.685000",
    "132639.684000",
    "132641.685000",
    "132643.685000",
    "132646.185000",
    "132647.685000",
    "132650.184000",
    "132651.684000",
    "132653.684000",
    "132655.685000",
    "132657.685000",
    "132659.686000",
    "132701.685000",
    "132703.684000",
    "132705.684000",
    "132707.684000",
    "132709.684000",
    "132711.684000",
    "132713.685000",
    "132715.684000",
    "132717.685000",
    "132719.685000",
    "132721.685000",
    "132723.684000",
    "132725.685000",
    "132727.685000",
    "132729.684000",
    "132731.684000",
    "132733.685000",
    "132735.684000",
    "132737.685000",
    "132739.685000",
    "132741.684000",
    "132743.684000",
    "132745.684000",
    "132747.685000",
    "132749.684000",
    "132751.685000",
    "132753.685000",
    "132755.684000",
    "132757.685000",
    "132759.684000",
    "132801.684000",
    "132803.685000",
    "132805.684000",
    "132807.684000",
    "132809.686000",
    "132811.685000",
    "132813.685000",
    "132815.685000",
    "132817.684000",
    "132819.684000",
    "132821.684000",
    "132823.685000",
    "132825.685000",
    "132827.686000",
    "132829.685000",
    "132831.684000",
    "132833.685000",
    "132835.684000",
    "132837.684000",
    "132839.684000",
    "132841.685000",
    "132843.685000",
    "132845.685000",
    "132847.685000",
    "132849.685000",
    "132851.684000",
    "132853.684000",
    "132855.685000",
    "132857.684000",
    "132859.685000",
    "132901.686000",
    "132903.684000",
    "132906.184000",
    "132907.684000",
    "132909.685000",
    "132911.537000"
   ],
   "InstanceNumber": [
    1,
    2,
    3,
    4,
    5,
    6,
    7,
    8,
    9,
    10,
    11,
    12,
    13,
    14,
    15,
    16,
    17,
    18,
    19,
    20,
    21,
    22,
    23,
    24,
    25,
    26,
    27,
    28,
    29,
    30,
    31,
    32,
    33,
    34,
    35,
    36,
    37,
    38,
    39,
    40,
    41,
    42,
    43,
    44,
    45,
    46,
    47,
    48,
    49,
    50,
    51,
    52,
    53,
    54,
    55,
    56,
    57,
    58,
    59,
    60,
    61,
    62,
    63,
    64,
    65,
    66,
    67,
    68,
    69,
    70,
    71,
    72,
    73,
    74,
    75,
    76,
    77,
    78,
    79,
    80,
    81,
    82,
    83,
    84,
    85,
    86,
    87,
    88,
    89,
    90,
    91,
    92,
    93,
    94,
    95,
    96,
    97,
    98,
    99,
    100,
    101,
    102,
    103,
    104,
    105,
    106,
    107,
    108,
    109,
    110,
    111,
    112,
    113,
    114,
    115,
    116,
    117,
    118,
    119,
    120,
    121,
    122,
    123,
    124,
    125,
    126,
    127,
    128,
    129,
    130,
    131,
    132,
    133,
    134,
    135,
    136,
    137,
    138,
    139,
    140,
    141,
    142,
    143,
    144,
    145,
    146,
    147,
    148,
    149,
    150,
    151,
    152,
    153,
    154,
    155,
    156,
    157,
    158,
    159,
    160,
    161,
    162,
    163,
    164,
    165,
    166,
    167,
    168,
    169,
    170,
    171,
    172,
    173,
    174,
    175,
    176,
    177,
    178,
    179,
    180,
    181,
    182,
    183,
    184,
    185,
    186,
    187,
    188,
    189,
    190,
    191,
    192,
    193,
    194,
    195,
    196,
    197,
    198,
    199,
    200,
    201,
    202,
    203,
    204,
    205,
    206,
    207,
    208,
    209,
    210,
    211,
    212,
    213,
    214,
    215,
    216,
    217,
    218,
    219,
    220,
    221,
    222,
    223,
    224,
    225,
    226,
    227,
    228,
    229,
    230,
    231,
    232,
    233,
    234,
    235,
    236,
    237,
    238,
    239,
    240,
    241,
    242,
    243,
    244,
    245,
    246,
    247,
    248,
    249,
    250,
    251,
    252,
    253,
    254,
    255,
    256
   ],
   "WindowCenter": [
    828.0,
    827.0,
    828.0,
    828.0,
    827.0,
    826.0,
    826.0,
    825.0,
    824.0,
    825.0,
    825.0,
    825.0,
    825.0,
    824.0,
    823.0,
    823.0,
    823.0,
    822.0,
    823.0,
    822.0,
    822.0,
    822.0,
    823.0,
    823.0,
    823.0,
    822.0,
    822.0,
    822.0,
    823.0,
    822.0,
    823.0,
    823.0,
    821.0,
    821.0,
    822.0,
    823.0,
    823.0,
    822.0,
    823.0,
    823.0,
    824.0,
    824.0,
    824.0,
    824.0,
    823.0,
    823.0,
    824.0,
    824.0,
    825.0,
    824.0,
    825.0,
    825.0,
    826.0,
    825.0,
    824.0,
    824.0,
    824.0,
    824.0,
    824.0,
    824.0,
    824.0,
    825.0,
    825.0,
    824.0,
    825.0,
    825.0,
    826.0,
    826.0,
    825.0,
    825.0,
    825.0,
    825.0,
    825.0,
    825.0,
    824.0,
    823.0,
    824.0,
    824.0,
    824.0,
    824.0,
    824.0,
    823.0,
    824.0,
    824.0,
    824.0,
    825.0,
    826.0,
    825.0,
    825.0,
    825.0,
    824.0,
    824.0,
    824.0,
    825.0,
    825.0,
    824.0,
    824.0,
    825.0,
    825.0,
    826.0,
    826.0,
    825.0,
    825.0,
    824.0,
    824.0,
    825.0,
    826.0,
    826.0,
    826.0,
    825.0,
    825.0,
    826.0,
    826.0,
    825.0,
    825.0,
    825.0,
    824.0,
    824.0,
    824.0,
    825.0,
    825.0,
    824.0,
    826.0,
    826.0,
    825.0,
    824.0,
    825.0,
    825.0,
    824.0,
    824.0,
    825.0,
    826.0,
    826.0,
    825.0,
    826.0,
    826.0,
    826.0,
    826.0,
    827.0,
    826.0,
    826.0,
    825.0,
    825.0,
    825.0,
    825.0,
    824.0,
    825.0,
    824.0,
    824.0,
    825.0,
    826.0,
    826.0,
    826.0,
    824.0,
    824.0,
    824.0,
    825.0,
    826.0,
    826.0,
    825.0,
    824.0,
    824.0,
    825.0,
    826.0,
    825.0,
    825.0,
    825.0,
    825.0,
    825.0,
    825.0,
    825.0,
    824.0,
    824.0,
    824.0,
    824.0,
    825.0,
    825.0,
    825.0,
    825.0,
    826.0,
    826.0,
    827.0,
    828.0,
    827.0,
    825.0,
    824.0,
    824.0,
    824.0,
    825.0,
    825.0,
    826.0,
    827.0,
    827.0,
    828.0,
    826.0,
    825.0,
    825.0,
    825.0,
    826.0,
    825.0,
    825.0,
    826.0,
    828.0,
    828.0,
    827.0,
    826.0,
    827.0,
    828.0,
    827.0,
    826.0,
    825.0,
    825.0,
    825.0,
    825.0,
    825.0,
    825.0,
    825.0,
    824.0,
    824.0,
    824.0,
    826.0,
    825.0,
    825.0,
    825.0,
    824.0,
    825.0,
    825.0,
    826.0,
    826.0,
    827.0,
    828.0,
    828.0,
    828.0,
    828.0,
    828.0,
    827.0,
    826.0,
    825.0,
    826.0,
    827.0,
    828.0,
    828.0,
    828.0,
    827.0,
    828.0,
    827.0,
    828.0,
    830.0,
    828.0,
    826.0,
    825.0,
    825.0,
    826.0,
    825.0,
    826.0,
    825.0
   ],
   "WindowWidth": [
    1811.0,
    1808.0,
    1811.0,
    1808.0,
    1807.0,
    1804.0,
    1804.0,
    1802.0,
    1799.0,
    1802.0,
    1801.0,
    1802.0,
    1800.0,
    1799.0,
    1797.0,
    1796.0,
    1795.0,
    1794.0,
    1796.0,
    1794.0,
    1793.0,
    1794.0,
    1795.0,
    1795.0,
    1796.0,
    1793.0,
    1793.0,
    1794.0,
    1795.0,
    1794.0,
    1795.0,
    1796.0,
    1791.0,
    1791.0,
    1794.0,
    1795.0,
    1796.0,
    1794.0,
    1797.0,
    1795.0,
    1797.0,
    1798.0,
    1797.0,
    1798.0,
    1795.0,
    1796.0,
    1799.0,
    1799.0,
    1800.0,
    1798.0,
    1800.0,
    1801.0,
    1803.0,
    1801.0,
    1799.0,
    1800.0,
    1798.0,
    1799.0,
    1800.0,
    1798.0,
    1800.0,
    1800.0,
    1801.0,
    1800.0,
    1801.0,
    1800.0,
    1804.0,
    1804.0,
    1803.0,
    1803.0,
    1802.0,
    1803.0,
    1802.0,
    1800.0,
    1799.0,
    1797.0,
    1797.0,
    1797.0,
    1798.0,
    1798.0,
    1798.0,
    1796.0,
    1797.0,
    1798.0,
    1799.0,
    1800.0,
    1803.0,
    1801.0,
    1801.0,
    1800.0,
    1799.0,
