{
 "AcquisitionMatrixPE": 100,
 "AcquisitionNumber": 1,
 "AcquisitionTime": "10:28:46.865000",
 "BandwidthPerPixelPhaseEncode": 18.519,
 "BaseResolution": 100,
 "BodyPartExamined": "BRAIN",
 "ConsistencyInfo": "N4_VE11C_LATEST_20160120",
 "ConversionSoftware": "dcm2niix",
 "ConversionSoftwareVersion": "v1.0.20180622 GCC4.9.2",
 "DerivedVendorReportedEchoSpacing": 0.000539986,
 "DeviceSerialNumber": "166078",
 "DwellTime": 2.1e-06,
 "EchoTime": 0.034,
 "EchoTrainLength": 100,
 "EffectiveEchoSpacing": 0.000539986,
 "FlipAngle": 90,
 "ImageOrientationPatientDICOM": [
  1,
  0,
  0,
  0,
  0.983255,
  -0.182236
 ],
 "ImageType": [
  "ORIGINAL",
  "PRIMARY",
  "M",
  "ND",
  "MOSAIC"
 ],
 "InPlanePhaseEncodingDirectionDICOM": "COL",
 "InstitutionAddress": "Street_StreetNo_Bei_Jing_District_CN_ZIP",
 "InstitutionName": "BeiJing_Normal_University",
 "InstitutionalDepartmentName": "Department",
 "MRAcquisitionType": "2D",
 "MagneticFieldStrength": 3,
 "Manufacturer": "Siemens",
 "ManufacturersModelName": "Prisma",
 "Modality": "MR",
 "MultibandAccelerationFactor": 3,
 "PartialFourier": 1,
 "PatientPosition": "HFS",
 "PercentPhaseFOV": 100,
 "PhaseEncodingDirection": "j-",
 "PhaseEncodingSteps": 100,
 "PhaseResolution": 1,
 "PixelBandwidth": 2380,
 "ProcedureStepDescription": "BNU_P2018_64CH_Zhen.ZongLei",
 "ProtocolName": "bold_100x100_s3_2x2x2_static_test_241",
 "PulseSequenceDetails": "%SiemensSeq%_ep2d_bold",
 "ReceiveCoilActiveElements": "HC1-7;NC1",
 "ReceiveCoilName": "HeadNeck_64",
 "ReconMatrixPE": 100,
 "RepetitionTime": 2,
 "SAR": 0.0602094,
 "ScanOptions": "FS",
 "ScanningSequence": "EP",
 "SequenceName": "_epfid2d1_100",
 "SequenceVariant": "SK",
 "SeriesDescription": "bold_100x100_s3_2x2x2_static_test_241",
 "SeriesNumber": 13,
 "ShimSetting": [
  -5464,
  -11487,
  -1276,
  377,
  -26,
  -110,
  -132,
  54
 ],
 "SliceThickness": 2,
 "SliceTiming": [
  1.485,
  0,
  0.99,
  0.0825,
  1.0725,
  0.165,
  1.155,
  0.2475,
  1.2375,
  0.33,
  1.32,
  0.4125,
  1.4025,
  0.5775,
  1.5675,
  0.66,
  1.65,
  0.7425,
  1.7325,
  0.825,
  1.815,
  0.9075,
  1.8975,
  0.495,
  1.485,
  0,
  0.99,
  0.0825,
  1.0725,
  0.165,
  1.155,
  0.2475,
  1.2375,
  0.33,
  1.32,
  0.4125,
  1.4025,
  0.5775,
  1.5675,
  0.66,
  1.65,
  0.7425,
  1.7325,
  0.825,
  1.815,
  0.9075,
  1.8975,
  0.495,
  1.485,
  0,
  0.99,
  0.0825,
  1.0725,
  0.165,
  1.155,
  0.2475,
  1.2375,
  0.33,
  1.32,
  0.4125,
  1.4025,
  0.5775,
  1.5675,
  0.66,
  1.65,
  0.7425,
  1.7325,
  0.825,
  1.815,
  0.9075,
  1.8975,
  0.495
 ],
 "SoftwareVersions": "syngo_MR_E11",
 "SpacingBetweenSlices": 2,
 "StationName": "AWP166078",
 "TaskName": "coco",
 "TotalReadoutTime": 0.0534586,
 "TxRefAmp": 206.412,
 "dcmmeta_affine": [
  [
   -2.0,
   0.0,
   0.0,
   100.0
  ],
  [
   0.0,
   1.9665098190307617,
   -0.36447104811668396,
   -84.17688751220703
  ],
  [
   0.0,
   0.36447104811668396,
   1.9665096998214722,
   -89.79066467285156
  ],
  [
   0.0,
   0.0,
   0.0,
   1.0
  ]
 ],
 "dcmmeta_reorient_transform": [
  [
   0.0,
   -1.0,
   0.0,
   99.0
  ],
  [
   1.0,
   0.0,
   0.0,
   0.0
  ],
  [
   0.0,
   0.0,
   1.0,
   0.0
  ],
  [
   0.0,
   0.0,
   0.0,
   1.0
  ]
 ],
 "dcmmeta_shape": [
  100,
  100,
  72,
  241
 ],
 "dcmmeta_slice_dim": 2,
 "dcmmeta_version": 0.6,
 "global": {
  "const": {
   "AcquisitionMatrix": [
    100,
    0,
    0,
    100
   ],
   "AngioFlag": "N",
   "BitsAllocated": 16,
   "BitsStored": 12,
   "BodyPartExamined": "BRAIN",
   "Columns": 900,
   "EchoNumbers": 1,
   "EchoTime": 34.0,
   "EchoTrainLength": 100,
   "FlipAngle": 90.0,
   "HighBit": 11,
   "ImageOrientationPatient": [
    1.0,
    0.0,
    0.0,
    0.0,
    0.98325490764387,
    -0.182235525061
   ],
   "ImagePositionPatient": [
    -900.0,
    -897.11151240713,
    92.080392965011
   ],
   "ImageType": [
    "ORIGINAL",
    "PRIMARY",
    "M",
    "ND",
    "MOSAIC"
   ],
   "ImagedNucleus": "1H",
   "ImagingFrequency": 123.257784,
   "InPlanePhaseEncodingDirection": "COL",
   "MRAcquisitionType": "2D",
   "MagneticFieldStrength": 3.0,
   "Manufacturer": "SIEMENS",
   "ManufacturerModelName": "Prisma",
   "Modality": "MR",
   "NumberOfAverages": 1.0,
   "NumberOfPhaseEncodingSteps": 100,
   "PercentPhaseFieldOfView": 100.0,
   "PercentSampling": 100.0,
   "PerformedProcedureStepStartTime": "090340.430000",
   "PhotometricInterpretation": "MONOCHROME2",
   "PixelBandwidth": 2380.0,
   "PixelRepresentation": 0,
   "PixelSpacing": [
    2.0,
    2.0
   ],
   "ProtocolName": "bold_100x100_s3_2x2x2_static_test_241",
   "RepetitionTime": 2000.0,
   "Rows": 900,
   "SAR": 0.06020944289607,
   "SamplesPerPixel": 1,
   "ScanOptions": "FS",
   "ScanningSequence": "EP",
   "SequenceName": "*epfid2d1_100",
   "SequenceVariant": "SK",
   "SeriesDescription": "bold_100x100_s3_2x2x2_static_test_241",
   "SeriesNumber": 13,
   "SeriesTime": "102849.743000",
   "SliceLocation": -72.947089221113,
   "SliceThickness": 2.0,
   "SmallestImagePixelValue": 0,
   "SoftwareVersions": "syngo MR E11",
   "SpacingBetweenSlices": 1.9999999368969,
   "SpecificCharacterSet": "ISO_IR 100",
   "StudyID": "1",
   "StudyTime": "090340.321000",
   "TransmitCoilName": "Body",
   "VariableFlipAngleFlag": "N",
   "WindowCenterWidthExplanation": "Algo1",
   "dBdt": 0.0
  },
  "slices": {}
 },
 "time": {
  "samples": {
   "AcquisitionNumber": [
    1,
    2,
    3,
    4,
    5,
    6,
    7,
    8,
    9,
    10,
    11,
    12,
    13,
    14,
    15,
    16,
    17,
    18,
    19,
    20,
    21,
    22,
    23,
    24,
    25,
    26,
    27,
    28,
    29,
    30,
    31,
    32,
    33,
    34,
    35,
    36,
    37,
    38,
    39,
    40,
    41,
    42,
    43,
    44,
    45,
    46,
    47,
    48,
    49,
    50,
    51,
    52,
    53,
    54,
    55,
    56,
    57,
    58,
    59,
    60,
    61,
    62,
    63,
    64,
    65,
    66,
    67,
    68,
    69,
    70,
    71,
    72,
    73,
    74,
    75,
    76,
    77,
    78,
    79,
    80,
    81,
    82,
    83,
    84,
    85,
    86,
    87,
    88,
    89,
    90,
    91,
    92,
    93,
    94,
    95,
    96,
    97,
    98,
    99,
    100,
    101,
    102,
    103,
    104,
    105,
    106,
    107,
    108,
    109,
    110,
    111,
    112,
    113,
    114,
    115,
    116,
    117,
    118,
    119,
    120,
    121,
    122,
    123,
    124,
    125,
    126,
    127,
    128,
    129,
    130,
    131,
    132,
    133,
    134,
    135,
    136,
    137,
    138,
    139,
    140,
    141,
    142,
    143,
    144,
    145,
    146,
    147,
    148,
    149,
    150,
    151,
    152,
    153,
    154,
    155,
    156,
    157,
    158,
    159,
    160,
    161,
    162,
    163,
    164,
    165,
    166,
    167,
    168,
    169,
    170,
    171,
    172,
    173,
    174,
    175,
    176,
    177,
    178,
    179,
    180,
    181,
    182,
    183,
    184,
    185,
    186,
    187,
    188,
    189,
    190,
    191,
    192,
    193,
    194,
    195,
    196,
    197,
    198,
    199,
    200,
    201,
    202,
    203,
    204,
    205,
    206,
    207,
    208,
    209,
    210,
    211,
    212,
    213,
    214,
    215,
    216,
    217,
    218,
    219,
    220,
    221,
    222,
    223,
    224,
    225,
    226,
    227,
    228,
    229,
    230,
    231,
    232,
    233,
    234,
    235,
    236,
    237,
    238,
    239,
    240,
    241
   ],
   "AcquisitionTime": [
    "102846.865000",
    "102848.865000",
    "102850.865000",
    "102852.865000",
    "102854.865000",
    "102856.865000",
    "102858.865000",
    "102900.865000",
    "102902.865000",
    "102904.865000",
    "102906.865000",
    "102908.865000",
    "102910.865000",
    "102912.865000",
    "102914.865000",
    "102916.865000",
    "102918.865000",
    "102920.865000",
    "102922.865000",
    "102924.865000",
    "102926.865000",
    "102928.865000",
    "102930.865000",
    "102932.865000",
    "102934.865000",
    "102936.865000",
    "102938.865000",
    "102940.865000",
    "102942.865000",
    "102944.865000",
    "102946.865000",
    "102948.865000",
    "102950.865000",
    "102952.865000",
    "102954.865000",
    "102956.865000",
    "102958.865000",
    "103000.865000",
    "103002.865000",
    "103004.865000",
    "103006.865000",
    "103008.865000",
    "103010.865000",
    "103012.865000",
    "103014.865000",
    "103016.865000",
    "103018.865000",
    "103020.865000",
    "103022.865000",
    "103024.865000",
    "103026.865000",
    "103028.865000",
    "103030.865000",
    "103032.865000",
    "103034.865000",
    "103036.865000",
    "103038.865000",
    "103040.865000",
    "103042.865000",
    "103044.865000",
    "103046.865000",
    "103048.865000",
    "103050.865000",
    "103052.865000",
    "103054.865000",
    "103056.865000",
    "103058.865000",
    "103100.865000",
    "103102.865000",
    "103104.865000",
    "103106.865000",
    "103108.865000",
    "103110.865000",
    "103112.865000",
    "103114.865000",
    "103116.865000",
    "103118.865000",
    "103120.865000",
    "103122.865000",
    "103124.865000",
    "103126.865000",
    "103128.865000",
    "103130.865000",
    "103132.865000",
    "103134.865000",
    "103136.865000",
    "103138.865000",
    "103140.865000",
    "103142.865000",
    "103144.865000",
    "103146.865000",
    "103148.865000",
    "103150.865000",
    "103152.865000",
    "103154.865000",
    "103156.865000",
    "103158.865000",
    "103200.865000",
    "103202.865000",
    "103204.865000",
    "103206.865000",
    "103208.865000",
    "103210.865000",
    "103212.865000",
    "103214.865000",
    "103216.865000",
    "103218.865000",
    "103220.865000",
    "103222.865000",
    "103224.865000",
    "103226.865000",
    "103228.865000",
    "103230.865000",
    "103232.865000",
    "103234.865000",
    "103236.865000",
    "103238.865000",
    "103240.865000",
    "103242.865000",
    "103244.865000",
    "103246.865000",
    "103248.865000",
    "103250.865000",
    "103252.865000",
    "103254.865000",
    "103256.865000",
    "103258.865000",
    "103300.865000",
    "103302.865000",
    "103304.865000",
    "103306.865000",
    "103308.865000",
    "103310.865000",
    "103312.865000",
    "103314.865000",
    "103316.865000",
    "103318.865000",
    "103320.865000",
    "103322.865000",
    "103324.865000",
    "103326.865000",
    "103328.865000",
    "103330.865000",
    "103332.865000",
    "103334.865000",
    "103336.865000",
    "103338.865000",
    "103340.865000",
    "103342.865000",
    "103344.865000",
    "103346.865000",
    "103348.865000",
    "103350.865000",
    "103352.865000",
    "103354.865000",
    "103356.865000",
    "103358.865000",
    "103400.865000",
    "103402.865000",
    "103404.865000",
    "103406.865000",
    "103408.865000",
    "103410.865000",
    "103412.865000",
    "103414.865000",
    "103416.865000",
    "103418.865000",
    "103420.865000",
    "103422.865000",
    "103424.865000",
    "103426.865000",
    "103428.865000",
    "103430.865000",
    "103432.865000",
    "103434.865000",
    "103436.865000",
    "103438.865000",
    "103440.865000",
    "103442.865000",
    "103444.865000",
    "103446.865000",
    "103448.865000",
    "103450.865000",
    "103452.865000",
    "103454.865000",
    "103456.865000",
    "103458.865000",
    "103500.865000",
    "103502.865000",
    "103504.865000",
    "103506.865000",
    "103508.865000",
    "103510.865000",
    "103512.865000",
    "103514.865000",
    "103516.865000",
    "103518.865000",
    "103520.865000",
    "103522.865000",
    "103524.865000",
    "103526.865000",
    "103528.865000",
    "103530.865000",
    "103532.865000",
    "103534.865000",
    "103536.865000",
    "103538.865000",
    "103540.865000",
    "103542.865000",
    "103544.865000",
    "103546.865000",
    "103548.865000",
    "103550.865000",
    "103552.865000",
    "103554.865000",
    "103556.865000",
    "103558.865000",
    "103600.865000",
    "103602.865000",
    "103604.865000",
    "103606.865000",
    "103608.865000",
    "103610.865000",
    "103612.865000",
    "103614.865000",
    "103616.865000",
    "103618.865000",
    "103620.865000",
    "103622.865000",
    "103624.865000",
    "103626.865000",
    "103628.865000",
    "103630.865000",
    "103632.865000",
    "103634.865000",
    "103636.865000",
    "103638.865000",
    "103640.865000",
    "103642.865000",
    "103644.865000",
    "103646.865000"
   ],
   "ContentTime": [
    "102849.747000",
    "102850.743000",
    "102852.742000",
    "102854.743000",
    "102856.743000",
    "102858.743000",
    "102900.743000",
    "102902.743000",
    "102904.743000",
    "102906.742000",
    "102909.243000",
    "102910.742000",
    "102912.743000",
    "102914.743000",
    "102916.743000",
    "102918.744000",
    "102920.743000",
    "102922.743000",
    "102924.743000",
    "102926.743000",
    "102928.743000",
    "102930.744000",
    "102932.744000",
    "102934.744000",
    "102936.743000",
    "102938.743000",
    "102940.743000",
    "102942.742000",
    "102944.743000",
    "102946.744000",
    "102948.743000",
    "102950.743000",
    "102952.744000",
    "102954.743000",
    "102956.743000",
    "102958.743000",
    "103000.742000",
    "103002.742000",
    "103004.744000",
    "103006.743000",
    "103008.743000",
    "103010.743000",
    "103012.744000",
    "103014.744000",
    "103016.742000",
    "103018.742000",
    "103020.743000",
    "103022.743000",
    "103024.743000",
    "103026.744000",
    "103028.744000",
    "103030.744000",
    "103032.743000",
    "103034.743000",
    "103036.742000",
    "103038.744000",
    "103040.743000",
    "103042.743000",
    "103044.743000",
    "103046.744000",
    "103048.744000",
    "103050.743000",
    "103052.742000",
    "103054.742000",
    "103056.744000",
    "103058.743000",
    "103100.743000",
    "103102.744000",
    "103104.743000",
    "103106.743000",
    "103108.743000",
    "103110.743000",
    "103112.743000",
    "103114.743000",
    "103116.744000",
    "103118.743000",
    "103120.744000",
    "103122.743000",
    "103124.744000",
    "103126.742000",
    "103128.742000",
    "103130.743000",
    "103132.743000",
    "103134.744000",
    "103136.744000",
    "103138.744000",
    "103140.744000",
    "103142.744000",
    "103144.743000",
    "103146.742000",
    "103148.744000",
    "103150.743000",
    "103152.743000",
    "103154.744000",
    "103156.743000",
    "103158.744000",
    "103200.743000",
    "103202.742000",
    "103204.743000",
    "103206.743000",
    "103208.744000",
    "103210.743000",
    "103212.743000",
    "103215.244000",
    "103216.744000",
    "103218.743000",
    "103220.742000",
    "103222.742000",
    "103224.743000",
    "103226.743000",
    "103228.744000",
    "103230.743000",
    "103232.743000",
    "103234.743000",
    "103236.742000",
    "103238.742000",
    "103240.743000",
    "103242.744000",
    "103244.743000",
    "103246.744000",
    "103248.743000",
    "103250.743000",
    "103252.743000",
    "103254.742000",
    "103256.743000",
    "103258.744000",
    "103300.744000",
    "103302.744000",
    "103304.743000",
    "103306.743000",
    "103308.744000",
    "103310.744000",
    "103312.743000",
    "103314.742000",
    "103316.743000",
    "103318.743000",
    "103320.743000",
    "103322.744000",
    "103324.744000",
    "103326.744000",
    "103328.743000",
    "103330.743000",
    "103332.742000",
    "103334.743000",
    "103336.744000",
    "103338.743000",
    "103340.743000",
    "103342.744000",
    "103344.744000",
    "103346.743000",
    "103348.743000",
    "103350.742000",
    "103352.744000",
    "103354.743000",
    "103356.743000",
    "103358.744000",
    "103400.744000",
    "103402.743000",
    "103404.742000",
    "103406.743000",
    "103408.743000",
    "103410.743000",
    "103412.743000",
    "103414.744000",
    "103416.744000",
    "103418.744000",
    "103420.743000",
    "103422.742000",
    "103424.743000",
    "103426.743000",
    "103428.744000",
    "103430.744000",
    "103432.743000",
    "103434.744000",
    "103436.744000",
    "103438.744000",
    "103440.755000",
    "103442.742000",
    "103444.743000",
    "103446.744000",
    "103448.744000",
    "103450.744000",
    "103452.744000",
    "103454.744000",
    "103456.743000",
    "103458.742000",
    "103500.742000",
    "103502.744000",
    "103504.744000",
    "103506.744000",
    "103508.744000",
    "103510.743000",
    "103512.744000",
    "103514.742000",
    "103516.743000",
    "103518.744000",
    "103520.744000",
    "103522.743000",
    "103524.744000",
    "103526.744000",
    "103528.743000",
    "103530.744000",
    "103532.743000",
    "103534.742000",
    "103536.744000",
    "103538.743000",
    "103540.744000",
    "103542.743000",
    "103544.744000",
    "103546.744000",
    "103548.742000",
    "103550.742000",
    "103552.742000",
    "103554.744000",
    "103556.744000",
    "103558.743000",
    "103600.744000",
    "103602.743000",
    "103604.744000",
    "103606.743000",
    "103608.742000",
    "103610.743000",
    "103612.743000",
    "103614.743000",
    "103616.744000",
    "103618.744000",
    "103620.744000",
    "103622.743000",
    "103624.743000",
    "103626.743000",
    "103628.744000",
    "103630.744000",
    "103632.744000",
    "103634.744000",
    "103636.744000",
    "103638.744000",
    "103640.744000",
    "103642.742000",
    "103644.742000",
    "103646.744000",
    "103648.578000"
   ],
   "InstanceCreationTime": [
    "102849.747000",
    "102850.743000",
    "102852.742000",
    "102854.743000",
    "102856.743000",
    "102858.743000",
    "102900.743000",
    "102902.743000",
    "102904.743000",
    "102906.742000",
    "102909.243000",
    "102910.742000",
    "102912.743000",
    "102914.743000",
    "102916.743000",
    "102918.744000",
    "102920.743000",
    "102922.743000",
    "102924.743000",
    "102926.743000",
    "102928.743000",
    "102930.744000",
    "102932.744000",
    "102934.744000",
    "102936.743000",
    "102938.743000",
    "102940.743000",
    "102942.742000",
    "102944.743000",
    "102946.744000",
    "102948.743000",
    "102950.743000",
    "102952.744000",
    "102954.743000",
    "102956.743000",
    "102958.743000",
    "103000.742000",
    "103002.742000",
    "103004.744000",
    "103006.743000",
    "103008.743000",
    "103010.743000",
    "103012.744000",
    "103014.744000",
    "103016.742000",
    "103018.742000",
    "103020.743000",
    "103022.743000",
    "103024.743000",
    "103026.744000",
    "103028.744000",
    "103030.744000",
    "103032.743000",
    "103034.743000",
    "103036.742000",
    "103038.744000",
    "103040.743000",
    "103042.743000",
    "103044.743000",
    "103046.744000",
    "103048.744000",
    "103050.743000",
    "103052.742000",
    "103054.742000",
    "103056.744000",
    "103058.743000",
    "103100.743000",
    "103102.744000",
    "103104.743000",
    "103106.743000",
    "103108.743000",
    "103110.743000",
    "103112.743000",
    "103114.743000",
    "103116.744000",
    "103118.743000",
    "103120.744000",
    "103122.743000",
    "103124.744000",
    "103126.742000",
    "103128.742000",
    "103130.743000",
    "103132.743000",
    "103134.744000",
    "103136.744000",
    "103138.744000",
    "103140.744000",
    "103142.744000",
    "103144.743000",
    "103146.742000",
    "103148.744000",
    "103150.743000",
    "103152.743000",
    "103154.744000",
    "103156.743000",
    "103158.744000",
    "103200.743000",
    "103202.742000",
    "103204.743000",
    "103206.743000",
    "103208.744000",
    "103210.743000",
    "103212.743000",
    "103215.244000",
    "103216.744000",
    "103218.743000",
    "103220.742000",
    "103222.742000",
    "103224.743000",
    "103226.743000",
    "103228.744000",
    "103230.743000",
    "103232.743000",
    "103234.743000",
    "103236.742000",
    "103238.742000",
    "103240.743000",
    "103242.744000",
    "103244.743000",
    "103246.744000",
    "103248.743000",
    "103250.743000",
    "103252.743000",
    "103254.742000",
    "103256.743000",
    "103258.744000",
    "103300.744000",
    "103302.744000",
    "103304.743000",
    "103306.743000",
    "103308.744000",
    "103310.744000",
    "103312.743000",
    "103314.742000",
    "103316.743000",
    "103318.743000",
    "103320.743000",
    "103322.744000",
    "103324.744000",
    "103326.744000",
    "103328.743000",
    "103330.743000",
    "103332.742000",
    "103334.743000",
    "103336.744000",
    "103338.743000",
    "103340.743000",
    "103342.744000",
    "103344.744000",
    "103346.743000",
    "103348.743000",
    "103350.742000",
    "103352.744000",
    "103354.743000",
    "103356.743000",
    "103358.744000",
    "103400.744000",
    "103402.743000",
    "103404.742000",
    "103406.743000",
    "103408.743000",
    "103410.743000",
    "103412.743000",
    "103414.744000",
    "103416.744000",
    "103418.744000",
    "103420.743000",
    "103422.742000",
    "103424.743000",
    "103426.743000",
    "103428.744000",
    "103430.744000",
    "103432.743000",
    "103434.744000",
    "103436.744000",
    "103438.744000",
    "103440.755000",
    "103442.742000",
    "103444.743000",
    "103446.744000",
    "103448.744000",
    "103450.744000",
    "103452.744000",
    "103454.744000",
    "103456.743000",
    "103458.742000",
    "103500.742000",
    "103502.744000",
    "103504.744000",
    "103506.744000",
    "103508.744000",
    "103510.743000",
    "103512.744000",
    "103514.742000",
    "103516.743000",
    "103518.744000",
    "103520.744000",
    "103522.743000",
    "103524.744000",
    "103526.744000",
    "103528.743000",
    "103530.744000",
    "103532.743000",
    "103534.742000",
    "103536.744000",
    "103538.743000",
    "103540.744000",
    "103542.743000",
    "103544.744000",
    "103546.744000",
    "103548.742000",
    "103550.742000",
    "103552.742000",
    "103554.744000",
    "103556.744000",
    "103558.743000",
    "103600.744000",
    "103602.743000",
    "103604.744000",
    "103606.743000",
    "103608.742000",
    "103610.743000",
    "103612.743000",
    "103614.743000",
    "103616.744000",
    "103618.744000",
    "103620.744000",
    "103622.743000",
    "103624.743000",
    "103626.743000",
    "103628.744000",
    "103630.744000",
    "103632.744000",
    "103634.744000",
    "103636.744000",
    "103638.744000",
    "103640.744000",
    "103642.742000",
    "103644.742000",
    "103646.744000",
    "103648.578000"
   ],
   "InstanceNumber": [
    1,
    2,
    3,
    4,
    5,
    6,
    7,
    8,
    9,
    10,
    11,
    12,
    13,
    14,
    15,
    16,
    17,
    18,
    19,
    20,
    21,
    22,
    23,
    24,
    25,
    26,
    27,
    28,
    29,
    30,
    31,
    32,
    33,
    34,
    35,
    36,
    37,
    38,
    39,
    40,
    41,
    42,
    43,
    44,
    45,
    46,
    47,
    48,
    49,
    50,
    51,
    52,
    53,
    54,
    55,
    56,
    57,
    58,
    59,
    60,
    61,
    62,
    63,
    64,
    65,
    66,
    67,
    68,
    69,
    70,
    71,
    72,
    73,
    74,
    75,
    76,
    77,
    78,
    79,
    80,
    81,
    82,
    83,
    84,
    85,
    86,
    87,
    88,
    89,
    90,
    91,
    92,
    93,
    94,
    95,
    96,
    97,
    98,
    99,
    100,
    101,
    102,
    103,
    104,
    105,
    106,
    107,
    108,
    109,
    110,
    111,
    112,
    113,
    114,
    115,
    116,
    117,
    118,
    119,
    120,
    121,
    122,
    123,
    124,
    125,
    126,
    127,
    128,
    129,
    130,
    131,
    132,
    133,
    134,
    135,
    136,
    137,
    138,
    139,
    140,
    141,
    142,
    143,
    144,
    145,
    146,
    147,
    148,
    149,
    150,
    151,
    152,
    153,
    154,
    155,
    156,
    157,
    158,
    159,
    160,
    161,
    162,
    163,
    164,
    165,
    166,
    167,
    168,
    169,
    170,
    171,
    172,
    173,
    174,
    175,
    176,
    177,
    178,
    179,
    180,
    181,
    182,
    183,
    184,
    185,
    186,
    187,
    188,
    189,
    190,
    191,
    192,
    193,
    194,
    195,
    196,
    197,
    198,
    199,
    200,
    201,
    202,
    203,
    204,
    205,
    206,
    207,
    208,
    209,
    210,
    211,
    212,
    213,
    214,
    215,
    216,
    217,
    218,
    219,
    220,
    221,
    222,
    223,
    224,
    225,
    226,
    227,
    228,
    229,
    230,
    231,
    232,
    233,
    234,
    235,
    236,
    237,
    238,
    239,
    240,
    241
   ],
   "LargestImagePixelValue": [
    3377,
    3342,
    3346,
    3339,
    3343,
    3324,
    3345,
    3391,
    3334,
    3319,
    3321,
    3347,
    3361,
    3344,
    3356,
    3331,
    3460,
    3334,
    3394,
    3394,
    3407,
    3310,
    3344,
    3391,
    3405,
    3395,
    3433,
    3325,
    3414,
    3365,
    3298,
    3314,
    3393,
    3362,
    3480,
    3397,
    3358,
    3393,
    3394,
    3265,
    3316,
    3340,
    3375,
    3382,
    3396,
    3422,
    3385,
    3373,
    3369,
    3336,
    3338,
    3348,
    3399,
    3379,
    3368,
    3385,
    3442,
    3442,
    3382,
    3360,
    3521,
    3467,
    3365,
    3385,
    3409,
    3451,
    3396,
    3396,
    3365,
    3370,
    3363,
    3365,
    3351,
    3421,
    3431,
    3458,
    3376,
    3427,
    3384,
    3497,
    3476,
    3432,
    3437,
    3388,
    3420,
    3405,
    3338,
    3448,
    3383,
    3411,
    3425,
    3446,
    3389,
    3353,
    3415,
    3532,
    3415,
    3480,
    3486,
    3495,
    3390,
    3343,
    3300,
    3444,
    3392,
    3414,
    3538,
    3543,
    3506,
    3477,
    3520,
    3525,
    3448,
    3525,
    3561,
    3477,
    3411,
    3360,
    3410,
    3411,
    3453,
    3397,
    3429,
    3447,
    3433,
    3494,
    3454,
    3524,
    3422,
    3527,
    3393,
    3292,
    3424,
    3366,
    3426,
    3452,
    3424,
    3422,
    3334,
    3456,
    3469,
    3499,
    3440,
    3513,
    3496,
    3493,
    3546,
    3497,
    3388,
    3402,
    3401,
    3474,
    3482,
    3348,
    3352,
    3371,
    3417,
    3293,
    3304,
    3292,
    3460,
    3343,
    3410,
    3290,
    3304,
    3360,
    3394,
    3487,
    3471,
    3438,
    3459,
    3536,
    3488,
    3323,
    3402,
    3258,
    3426,
    3357,
    3374,
    3408,
    3487,
    3461,
    3386,
    3314,
    3437,
    3358,
    3372,
    3414,
    3417,
    3409,
    3372,
    3390,
    3435,
    3500,
    3450,
    3330,
    3440,
    3378,
    3407,
    3512,
    3460,
    3498,
    3479,
    3474,
    3514,
    3454,
    3512,
    3475,
    3544,
    3485,
    3493,
    3473,
    3362,
    3471,
    3422,
    3479,
    3464,
    3537,
    3477,
    3531,
    3503,
    3457,
    3453,
    3505,
    3405,
    3410,
    3498,
    3503,
    3519,
    3609,
    3404,
    3543,
    3478,
    3475,
    3467,
    3557,
    3566,
    3463,
    3536,
    3404,
    3507
   ],
   "WindowCenter": [
    788.0,
    787.0,
    787.0,
    787.0,
    788.0,
    787.0,
    787.0,
    787.0,
    786.0,
    787.0,
    787.0,
    788.0,
    789.0,
    789.0,
    790.0,
    790.0,
    790.0,
    788.0,
    788.0,
    787.0,
    787.0,
    787.0,
    788.0,
    789.0,
    789.0,
    788.0,
    787.0,
    786.0,
    787.0,
    787.0,
    788.0,
    788.0,
    789.0,
    789.0,
    790.0,
    789.0,
    788.0,
    788.0,
    789.0,
    787.0,
    787.0,
    786.0,
    786.0,
    787.0,
    787.0,
    787.0,
    787.0,
    787.0,
    788.0,
    788.0,
    788.0,
    787.0,
    788.0,
    788.0,
    789.0,
    790.0,
    790.0,
    791.0,
    792.0,
    792.0,
    792.0,
    790.0,
    788.0,
    788.0,
    787.0,
    787.0,
    786.0,
    787.0,
    786.0,
    787.0,
    787.0,
    787.0,
    787.0,
    787.0,
    788.0,
    789.0,
    790.0,
    791.0,
    790.0,
    789.0,
    788.0,
    787.0,
    787.0,
    786.0,
    786.0,
    786.0,
    788.0,
    790.0,
    790.0,
    790.0,
    790.0,
    789.0,
    789.0,
    790.0,
    791.0,
    792.0,
    790.0,
    790.0,
    789.0,
    788.0,
    787.0,
    787.0,
    787.0,
    788.0,
    787.0,
    787.0,
    788.0,
    790.0,
    791.0,
    791.0,
    791.0,
    790.0,
    789.0,
    788.0,
    788.0,
    788.0,
    791.0,
    793.0,
    792.0,
    791.0,
    790.0,
    789.0,
    789.0,
    789.0,
    789.0,
    790.0,
    791.0,
    794.0,
    794.0,
    794.0,
    792.0,
    790.0,
    789.0,
    788.0,
    789.0,
    788.0,
    788.0,
    789.0,
    790.0,
    790.0,
    790.0,
    789.0,
    789.0,
    789.0,
    789.0,
    789.0,
    789.0,
    791.0,
    792.0,
    793.0,
    792.0,
    791.0,
    790.0,
    788.0,
    788.0,
    790.0,
    791.0,
    791.0,
    790.0,
    789.0,
    789.0,
    788.0,
    788.0,
    788.0,
    789.0,
    791.0,
    791.0,
    791.0,
    791.0,
    789.0,
    789.0,
    790.0,
    791.0,
    792.0,
    792.0,
    790.0,
    790.0,
    788.0,
    787.0,
    787.0,
    788.0,
    790.0,
    790.0,
    790.0,
    789.0,
    788.0,
    787.0,
    787.0,
    787.0,
    788.0,
    790.0,
    793.0,
    793.0,
    792.0,
    791.0,
    789.0,
    789.0,
    789.0,
    789.0,
    790.0,
    790.0,
    790.0,
    790.0,
    791.0,
    791.0,
    790.0,
    791.0,
    792.0,
    794.0,
    795.0,
    795.0,
    795.0,
    794.0,
    795.0,
    794.0,
    793.0,
    792.0,
    792.0,
    791.0,
    790.0,
    789.0,
    788.0,
    788.0,
    788.0,
    788.0,
    789.0,
    790.0,
    791.0,
    792.0,
    792.0,
    790.0,
    790.0,
    788.0,
    788.0,
    787.0,
    787.0,
    787.0,
    786.0,
    788.0,
    789.0,
    792.0
   ],
   "WindowWidth": [
    1703.0,
    1700.0,
    1700.0,
    1701.0,
    1702.0,
