{
 "AcquisitionMatrixPE": 100,
 "AcquisitionNumber": 1,
 "AcquisitionTime": "09:37:24.535000",
 "BandwidthPerPixelPhaseEncode": 18.519,
 "BaseResolution": 100,
 "BodyPartExamined": "BRAIN",
 "ConsistencyInfo": "N4_VE11C_LATEST_20160120",
 "ConversionSoftware": "dcm2niix",
 "ConversionSoftwareVersion": "v1.0.20180622 GCC4.9.2",
 "DerivedVendorReportedEchoSpacing": 0.000539986,
 "DeviceSerialNumber": "166078",
 "DwellTime": 2.1e-06,
 "EchoTime": 0.034,
 "EchoTrainLength": 100,
 "EffectiveEchoSpacing": 0.000539986,
 "FlipAngle": 90,
 "ImageOrientationPatientDICOM": [
  1,
  0,
  0,
  0,
  0.983255,
  -0.182236
 ],
 "ImageType": [
  "ORIGINAL",
  "PRIMARY",
  "M",
  "ND",
  "MOSAIC"
 ],
 "InPlanePhaseEncodingDirectionDICOM": "COL",
 "InstitutionAddress": "Street_StreetNo_Bei_Jing_District_CN_ZIP",
 "InstitutionName": "BeiJing_Normal_University",
 "InstitutionalDepartmentName": "Department",
 "MRAcquisitionType": "2D",
 "MagneticFieldStrength": 3,
 "Manufacturer": "Siemens",
 "ManufacturersModelName": "Prisma",
 "Modality": "MR",
 "MultibandAccelerationFactor": 3,
 "PartialFourier": 1,
 "PatientPosition": "HFS",
 "PercentPhaseFOV": 100,
 "PhaseEncodingDirection": "j-",
 "PhaseEncodingSteps": 100,
 "PhaseResolution": 1,
 "PixelBandwidth": 2380,
 "ProcedureStepDescription": "BNU_P2018_64CH_Zhen.ZongLei",
 "ProtocolName": "bold_100x100_s3_2x2x2_static_test_241",
 "PulseSequenceDetails": "%SiemensSeq%_ep2d_bold",
 "ReceiveCoilActiveElements": "HC1-7;NC1",
 "ReceiveCoilName": "HeadNeck_64",
 "ReconMatrixPE": 100,
 "RepetitionTime": 2,
 "SAR": 0.0602094,
 "ScanOptions": "FS",
 "ScanningSequence": "EP",
 "SequenceName": "_epfid2d1_100",
 "SequenceVariant": "SK",
 "SeriesDescription": "bold_100x100_s3_2x2x2_static_test_241",
 "SeriesNumber": 6,
 "ShimSetting": [
  -5464,
  -11487,
  -1276,
  377,
  -26,
  -110,
  -132,
  54
 ],
 "SliceThickness": 2,
 "SliceTiming": [
  1.485,
  0,
  0.99,
  0.0825,
  1.0725,
  0.165,
  1.155,
  0.2475,
  1.2375,
  0.33,
  1.32,
  0.4125,
  1.4025,
  0.5775,
  1.5675,
  0.66,
  1.65,
  0.7425,
  1.7325,
  0.825,
  1.815,
  0.9075,
  1.8975,
  0.495,
  1.485,
  0,
  0.99,
  0.0825,
  1.0725,
  0.165,
  1.155,
  0.2475,
  1.2375,
  0.33,
  1.32,
  0.4125,
  1.4025,
  0.5775,
  1.5675,
  0.66,
  1.65,
  0.7425,
  1.7325,
  0.825,
  1.815,
  0.9075,
  1.8975,
  0.495,
  1.485,
  0,
  0.99,
  0.0825,
  1.0725,
  0.165,
  1.155,
  0.2475,
  1.2375,
  0.33,
  1.32,
  0.4125,
  1.4025,
  0.5775,
  1.5675,
  0.66,
  1.65,
  0.7425,
  1.7325,
  0.825,
  1.815,
  0.9075,
  1.8975,
  0.495
 ],
 "SoftwareVersions": "syngo_MR_E11",
 "SpacingBetweenSlices": 2,
 "StationName": "AWP166078",
 "TaskName": "coco",
 "TotalReadoutTime": 0.0534586,
 "TxRefAmp": 206.412,
 "dcmmeta_affine": [
  [
   -2.0,
   0.0,
   0.0,
   100.0
  ],
  [
   0.0,
   1.9665098190307617,
   -0.36447104811668396,
   -84.17688751220703
  ],
  [
   0.0,
   0.36447104811668396,
   1.9665096998214722,
   -89.79066467285156
  ],
  [
   0.0,
   0.0,
   0.0,
   1.0
  ]
 ],
 "dcmmeta_reorient_transform": [
  [
   0.0,
   -1.0,
   0.0,
   99.0
  ],
  [
   1.0,
   0.0,
   0.0,
   0.0
  ],
  [
   0.0,
   0.0,
   1.0,
   0.0
  ],
  [
   0.0,
   0.0,
   0.0,
   1.0
  ]
 ],
 "dcmmeta_shape": [
  100,
  100,
  72,
  241
 ],
 "dcmmeta_slice_dim": 2,
 "dcmmeta_version": 0.6,
 "global": {
  "const": {
   "AcquisitionMatrix": [
    100,
    0,
    0,
    100
   ],
   "AngioFlag": "N",
   "BitsAllocated": 16,
   "BitsStored": 12,
   "BodyPartExamined": "BRAIN",
   "Columns": 900,
   "EchoNumbers": 1,
   "EchoTime": 34.0,
   "EchoTrainLength": 100,
   "FlipAngle": 90.0,
   "HighBit": 11,
   "ImageOrientationPatient": [
    1.0,
    0.0,
    0.0,
    0.0,
    0.98325490764387,
    -0.182235525061
   ],
   "ImagePositionPatient": [
    -900.0,
    -897.11151240713,
    92.080392965011
   ],
   "ImageType": [
    "ORIGINAL",
    "PRIMARY",
    "M",
    "ND",
    "MOSAIC"
   ],
   "ImagedNucleus": "1H",
   "ImagingFrequency": 123.257773,
   "InPlanePhaseEncodingDirection": "COL",
   "MRAcquisitionType": "2D",
   "MagneticFieldStrength": 3.0,
   "Manufacturer": "SIEMENS",
   "ManufacturerModelName": "Prisma",
   "Modality": "MR",
   "NumberOfAverages": 1.0,
   "NumberOfPhaseEncodingSteps": 100,
   "PercentPhaseFieldOfView": 100.0,
   "PercentSampling": 100.0,
   "PerformedProcedureStepStartTime": "090340.430000",
   "PhotometricInterpretation": "MONOCHROME2",
   "PixelBandwidth": 2380.0,
   "PixelRepresentation": 0,
   "PixelSpacing": [
    2.0,
    2.0
   ],
   "ProtocolName": "bold_100x100_s3_2x2x2_static_test_241",
   "RepetitionTime": 2000.0,
   "Rows": 900,
   "SAR": 0.06020944289607,
   "SamplesPerPixel": 1,
   "ScanOptions": "FS",
   "ScanningSequence": "EP",
   "SequenceName": "*epfid2d1_100",
   "SequenceVariant": "SK",
   "SeriesDescription": "bold_100x100_s3_2x2x2_static_test_241",
   "SeriesNumber": 6,
   "SeriesTime": "093727.631000",
   "SliceLocation": -72.947089221113,
   "SliceThickness": 2.0,
   "SmallestImagePixelValue": 0,
   "SoftwareVersions": "syngo MR E11",
   "SpacingBetweenSlices": 1.9999999368969,
   "SpecificCharacterSet": "ISO_IR 100",
   "StudyID": "1",
   "StudyTime": "090340.321000",
   "TransmitCoilName": "Body",
   "VariableFlipAngleFlag": "N",
   "WindowCenterWidthExplanation": "Algo1",
   "dBdt": 0.0
  },
  "slices": {}
 },
 "time": {
  "samples": {
   "AcquisitionNumber": [
    1,
    2,
    3,
    4,
    5,
    6,
    7,
    8,
    9,
    10,
    11,
    12,
    13,
    14,
    15,
    16,
    17,
    18,
    19,
    20,
    21,
    22,
    23,
    24,
    25,
    26,
    27,
    28,
    29,
    30,
    31,
    32,
    33,
    34,
    35,
    36,
    37,
    38,
    39,
    40,
    41,
    42,
    43,
    44,
    45,
    46,
    47,
    48,
    49,
    50,
    51,
    52,
    53,
    54,
    55,
    56,
    57,
    58,
    59,
    60,
    61,
    62,
    63,
    64,
    65,
    66,
    67,
    68,
    69,
    70,
    71,
    72,
    73,
    74,
    75,
    76,
    77,
    78,
    79,
    80,
    81,
    82,
    83,
    84,
    85,
    86,
    87,
    88,
    89,
    90,
    91,
    92,
    93,
    94,
    95,
    96,
    97,
    98,
    99,
    100,
    101,
    102,
    103,
    104,
    105,
    106,
    107,
    108,
    109,
    110,
    111,
    112,
    113,
    114,
    115,
    116,
    117,
    118,
    119,
    120,
    121,
    122,
    123,
    124,
    125,
    126,
    127,
    128,
    129,
    130,
    131,
    132,
    133,
    134,
    135,
    136,
    137,
    138,
    139,
    140,
    141,
    142,
    143,
    144,
    145,
    146,
    147,
    148,
    149,
    150,
    151,
    152,
    153,
    154,
    155,
    156,
    157,
    158,
    159,
    160,
    161,
    162,
    163,
    164,
    165,
    166,
    167,
    168,
    169,
    170,
    171,
    172,
    173,
    174,
    175,
    176,
    177,
    178,
    179,
    180,
    181,
    182,
    183,
    184,
    185,
    186,
    187,
    188,
    189,
    190,
    191,
    192,
    193,
    194,
    195,
    196,
    197,
    198,
    199,
    200,
    201,
    202,
    203,
    204,
    205,
    206,
    207,
    208,
    209,
    210,
    211,
    212,
    213,
    214,
    215,
    216,
    217,
    218,
    219,
    220,
    221,
    222,
    223,
    224,
    225,
    226,
    227,
    228,
    229,
    230,
    231,
    232,
    233,
    234,
    235,
    236,
    237,
    238,
    239,
    240,
    241
   ],
   "AcquisitionTime": [
    "093724.535000",
    "093726.535000",
    "093728.535000",
    "093730.535000",
    "093732.535000",
    "093734.535000",
    "093736.535000",
    "093738.535000",
    "093740.535000",
    "093742.535000",
    "093744.535000",
    "093746.535000",
    "093748.535000",
    "093750.535000",
    "093752.535000",
    "093754.535000",
    "093756.535000",
    "093758.535000",
    "093800.535000",
    "093802.535000",
    "093804.535000",
    "093806.535000",
    "093808.535000",
    "093810.535000",
    "093812.535000",
    "093814.535000",
    "093816.535000",
    "093818.535000",
    "093820.535000",
    "093822.535000",
    "093824.535000",
    "093826.535000",
    "093828.535000",
    "093830.535000",
    "093832.535000",
    "093834.535000",
    "093836.535000",
    "093838.535000",
    "093840.535000",
    "093842.535000",
    "093844.535000",
    "093846.535000",
    "093848.535000",
    "093850.535000",
    "093852.535000",
    "093854.535000",
    "093856.535000",
    "093858.535000",
    "093900.535000",
    "093902.535000",
    "093904.535000",
    "093906.535000",
    "093908.535000",
    "093910.535000",
    "093912.535000",
    "093914.535000",
    "093916.535000",
    "093918.535000",
    "093920.535000",
    "093922.535000",
    "093924.535000",
    "093926.535000",
    "093928.535000",
    "093930.535000",
    "093932.535000",
    "093934.535000",
    "093936.535000",
    "093938.535000",
    "093940.535000",
    "093942.535000",
    "093944.535000",
    "093946.535000",
    "093948.535000",
    "093950.535000",
    "093952.535000",
    "093954.535000",
    "093956.535000",
    "093958.535000",
    "094000.535000",
    "094002.535000",
    "094004.535000",
    "094006.535000",
    "094008.535000",
    "094010.535000",
    "094012.535000",
    "094014.535000",
    "094016.535000",
    "094018.535000",
    "094020.535000",
    "094022.535000",
    "094024.535000",
    "094026.535000",
    "094028.535000",
    "094030.535000",
    "094032.535000",
    "094034.535000",
    "094036.535000",
    "094038.535000",
    "094040.535000",
    "094042.535000",
    "094044.535000",
    "094046.535000",
    "094048.535000",
    "094050.535000",
    "094052.535000",
    "094054.535000",
    "094056.535000",
    "094058.535000",
    "094100.535000",
    "094102.535000",
    "094104.535000",
    "094106.535000",
    "094108.535000",
    "094110.535000",
    "094112.535000",
    "094114.535000",
    "094116.535000",
    "094118.535000",
    "094120.535000",
    "094122.535000",
    "094124.535000",
    "094126.535000",
    "094128.535000",
    "094130.535000",
    "094132.535000",
    "094134.535000",
    "094136.535000",
    "094138.535000",
    "094140.535000",
    "094142.535000",
    "094144.535000",
    "094146.535000",
    "094148.535000",
    "094150.535000",
    "094152.535000",
    "094154.535000",
    "094156.535000",
    "094158.535000",
    "094200.535000",
    "094202.535000",
    "094204.535000",
    "094206.535000",
    "094208.535000",
    "094210.535000",
    "094212.535000",
    "094214.535000",
    "094216.535000",
    "094218.535000",
    "094220.535000",
    "094222.535000",
    "094224.535000",
    "094226.535000",
    "094228.535000",
    "094230.535000",
    "094232.535000",
    "094234.535000",
    "094236.535000",
    "094238.535000",
    "094240.535000",
    "094242.535000",
    "094244.535000",
    "094246.535000",
    "094248.535000",
    "094250.535000",
    "094252.535000",
    "094254.535000",
    "094256.535000",
    "094258.535000",
    "094300.535000",
    "094302.535000",
    "094304.535000",
    "094306.535000",
    "094308.535000",
    "094310.535000",
    "094312.535000",
    "094314.535000",
    "094316.535000",
    "094318.535000",
    "094320.535000",
    "094322.535000",
    "094324.535000",
    "094326.535000",
    "094328.535000",
    "094330.535000",
    "094332.535000",
    "094334.535000",
    "094336.535000",
    "094338.535000",
    "094340.535000",
    "094342.535000",
    "094344.535000",
    "094346.535000",
    "094348.535000",
    "094350.535000",
    "094352.535000",
    "094354.535000",
    "094356.535000",
    "094358.535000",
    "094400.535000",
    "094402.535000",
    "094404.535000",
    "094406.535000",
    "094408.535000",
    "094410.535000",
    "094412.535000",
    "094414.535000",
    "094416.535000",
    "094418.535000",
    "094420.535000",
    "094422.535000",
    "094424.535000",
    "094426.535000",
    "094428.535000",
    "094430.535000",
    "094432.535000",
    "094434.535000",
    "094436.535000",
    "094438.535000",
    "094440.535000",
    "094442.535000",
    "094444.535000",
    "094446.535000",
    "094448.535000",
    "094450.535000",
    "094452.535000",
    "094454.535000",
    "094456.535000",
    "094458.535000",
    "094500.535000",
    "094502.535000",
    "094504.535000",
    "094506.535000",
    "094508.535000",
    "094510.535000",
    "094512.535000",
    "094514.535000",
    "094516.535000",
    "094518.535000",
    "094520.535000",
    "094522.535000",
    "094524.535000"
   ],
   "ContentTime": [
    "093727.635000",
    "093729.131000",
    "093731.130000",
    "093733.131000",
    "093735.130000",
    "093737.131000",
    "093739.131000",
    "093741.132000",
    "093743.131000",
    "093745.130000",
    "093747.131000",
    "093749.130000",
    "093751.131000",
    "093753.130000",
    "093755.131000",
    "093757.131000",
    "093759.131000",
    "093801.131000",
    "093802.630000",
    "093804.631000",
    "093807.131000",
    "093809.130000",
    "093811.130000",
    "093813.132000",
    "093815.132000",
    "093817.132000",
    "093819.131000",
    "093821.130000",
    "093823.131000",
    "093825.130000",
    "093827.130000",
    "093829.132000",
    "093831.132000",
    "093833.132000",
    "093835.132000",
    "093837.132000",
    "093839.130000",
    "093840.630000",
    "093842.630000",
    "093845.130000",
    "093847.132000",
    "093849.132000",
    "093851.131000",
    "093853.131000",
    "093855.131000",
    "093857.130000",
    "093859.131000",
    "093901.130000",
    "093903.131000",
    "093905.132000",
    "093907.131000",
    "093908.631000",
    "093911.131000",
    "093913.130000",
    "093915.131000",
    "093917.132000",
    "093919.132000",
    "093921.130000",
    "093923.132000",
    "093925.131000",
    "093927.132000",
    "093929.131000",
    "093930.631000",
    "093933.131000",
    "093935.130000",
    "093936.631000",
    "093939.132000",
    "093941.132000",
    "093943.131000",
    "093945.131000",
    "093947.132000",
    "093949.131000",
    "093951.131000",
    "093953.131000",
    "093955.131000",
    "093957.132000",
    "093959.131000",
    "094001.131000",
    "094003.131000",
    "094005.130000",
    "094007.131000",
    "094008.630000",
    "094011.130000",
    "094013.130000",
    "094015.131000",
    "094017.131000",
    "094019.132000",
    "094021.131000",
    "094023.131000",
    "094025.131000",
    "094027.131000",
    "094029.131000",
    "094031.131000",
    "094032.632000",
    "094034.631000",
    "094037.131000",
    "094039.132000",
    "094041.130000",
    "094043.131000",
    "094045.130000",
    "094047.131000",
    "094049.132000",
    "094051.131000",
    "094053.132000",
    "094055.131000",
    "094057.132000",
    "094059.131000",
    "094101.131000",
    "094102.630000",
    "094105.130000",
    "094107.132000",
    "094109.131000",
    "094111.132000",
    "094113.132000",
    "094115.130000",
    "094117.131000",
    "094119.131000",
    "094121.131000",
    "094123.130000",
    "094125.132000",
    "094127.132000",
    "094129.132000",
    "094131.132000",
    "094133.130000",
    "094135.130000",
    "094137.130000",
    "094139.131000",
    "094141.131000",
    "094143.132000",
    "094145.131000",
    "094147.132000",
    "094149.132000",
    "094151.130000",
    "094153.131000",
    "094155.130000",
    "094157.131000",
    "094159.132000",
    "094201.132000",
    "094203.132000",
    "094205.132000",
    "094207.131000",
    "094209.131000",
    "094211.131000",
    "094213.141000",
    "094215.131000",
    "094217.132000",
    "094219.132000",
    "094221.132000",
    "094223.132000",
    "094225.131000",
    "094226.631000",
    "094229.131000",
    "094231.131000",
    "094233.131000",
    "094235.132000",
    "094237.132000",
    "094239.131000",
    "094241.131000",
    "094243.131000",
    "094245.131000",
    "094247.131000",
    "094249.130000",
    "094251.131000",
    "094253.131000",
    "094255.132000",
    "094257.132000",
    "094258.631000",
    "094301.131000",
    "094303.137000",
    "094305.130000",
    "094307.131000",
    "094308.630000",
    "094311.131000",
    "094313.132000",
    "094315.131000",
    "094317.131000",
    "094319.131000",
    "094321.130000",
    "094323.131000",
    "094325.131000",
    "094326.631000",
    "094329.132000",
    "094331.131000",
    "094333.132000",
    "094335.131000",
    "094336.631000",
    "094339.131000",
    "094341.130000",
    "094343.130000",
    "094345.132000",
    "094347.132000",
    "094349.132000",
    "094351.132000",
    "094353.131000",
    "094355.131000",
    "094357.130000",
    "094359.150000",
    "094401.130000",
    "094403.132000",
    "094405.132000",
    "094407.132000",
    "094409.132000",
    "094411.131000",
    "094413.130000",
    "094415.131000",
    "094416.630000",
    "094419.132000",
    "094421.132000",
    "094423.132000",
    "094425.132000",
    "094427.132000",
    "094429.130000",
    "094431.131000",
    "094433.131000",
    "094435.131000",
    "094437.131000",
    "094439.131000",
    "094441.131000",
    "094443.131000",
    "094445.131000",
    "094447.130000",
    "094449.131000",
    "094451.131000",
    "094453.130000",
    "094455.132000",
    "094457.132000",
    "094459.132000",
    "094501.132000",
    "094503.131000",
    "094505.130000",
    "094507.131000",
    "094509.131000",
    "094511.132000",
    "094513.132000",
    "094515.132000",
    "094517.132000",
    "094519.132000",
    "094521.131000",
    "094522.631000",
    "094525.131000",
    "094526.739000"
   ],
   "InstanceCreationTime": [
    "093727.635000",
    "093729.131000",
    "093731.130000",
    "093733.131000",
    "093735.130000",
    "093737.131000",
    "093739.131000",
    "093741.132000",
    "093743.131000",
    "093745.130000",
    "093747.131000",
    "093749.130000",
    "093751.131000",
    "093753.130000",
    "093755.131000",
    "093757.131000",
    "093759.131000",
    "093801.131000",
    "093802.630000",
    "093804.631000",
    "093807.131000",
    "093809.130000",
    "093811.130000",
    "093813.132000",
    "093815.132000",
    "093817.132000",
    "093819.131000",
    "093821.130000",
    "093823.131000",
    "093825.130000",
    "093827.130000",
    "093829.132000",
    "093831.132000",
    "093833.132000",
    "093835.132000",
    "093837.132000",
    "093839.130000",
    "093840.630000",
    "093842.630000",
    "093845.130000",
    "093847.132000",
    "093849.132000",
    "093851.131000",
    "093853.131000",
    "093855.131000",
    "093857.130000",
    "093859.131000",
    "093901.130000",
    "093903.131000",
    "093905.132000",
    "093907.131000",
    "093908.631000",
    "093911.131000",
    "093913.130000",
    "093915.131000",
    "093917.132000",
    "093919.132000",
    "093921.130000",
    "093923.132000",
    "093925.131000",
    "093927.132000",
    "093929.131000",
    "093930.631000",
    "093933.131000",
    "093935.130000",
    "093936.631000",
    "093939.132000",
    "093941.132000",
    "093943.131000",
    "093945.131000",
    "093947.132000",
    "093949.131000",
    "093951.131000",
    "093953.131000",
    "093955.131000",
    "093957.132000",
    "093959.131000",
    "094001.131000",
    "094003.131000",
    "094005.130000",
    "094007.131000",
    "094008.630000",
    "094011.130000",
    "094013.130000",
    "094015.131000",
    "094017.131000",
    "094019.132000",
    "094021.131000",
    "094023.131000",
    "094025.131000",
    "094027.131000",
    "094029.131000",
    "094031.131000",
    "094032.632000",
    "094034.631000",
    "094037.131000",
    "094039.132000",
    "094041.130000",
    "094043.131000",
    "094045.130000",
    "094047.131000",
    "094049.132000",
    "094051.131000",
    "094053.132000",
    "094055.131000",
    "094057.132000",
    "094059.131000",
    "094101.131000",
    "094102.630000",
    "094105.130000",
    "094107.132000",
    "094109.131000",
    "094111.132000",
    "094113.132000",
    "094115.130000",
    "094117.131000",
    "094119.131000",
    "094121.131000",
    "094123.130000",
    "094125.132000",
    "094127.132000",
    "094129.132000",
    "094131.132000",
    "094133.130000",
    "094135.130000",
    "094137.130000",
    "094139.131000",
    "094141.131000",
    "094143.132000",
    "094145.131000",
    "094147.132000",
    "094149.132000",
    "094151.130000",
    "094153.131000",
    "094155.130000",
    "094157.131000",
    "094159.132000",
    "094201.132000",
    "094203.132000",
    "094205.132000",
    "094207.131000",
    "094209.131000",
    "094211.131000",
    "094213.141000",
    "094215.131000",
    "094217.132000",
    "094219.132000",
    "094221.132000",
    "094223.132000",
    "094225.131000",
    "094226.631000",
    "094229.131000",
    "094231.131000",
    "094233.131000",
    "094235.132000",
    "094237.132000",
    "094239.131000",
    "094241.131000",
    "094243.131000",
    "094245.131000",
    "094247.131000",
    "094249.130000",
    "094251.131000",
    "094253.131000",
    "094255.132000",
    "094257.132000",
    "094258.631000",
    "094301.131000",
    "094303.137000",
    "094305.130000",
    "094307.131000",
    "094308.630000",
    "094311.131000",
    "094313.132000",
    "094315.131000",
    "094317.131000",
    "094319.131000",
    "094321.130000",
    "094323.131000",
    "094325.131000",
    "094326.631000",
    "094329.132000",
    "094331.131000",
    "094333.132000",
    "094335.131000",
    "094336.631000",
    "094339.131000",
    "094341.130000",
    "094343.130000",
    "094345.132000",
    "094347.132000",
    "094349.132000",
    "094351.132000",
    "094353.131000",
    "094355.131000",
    "094357.130000",
    "094359.150000",
    "094401.130000",
    "094403.132000",
    "094405.132000",
    "094407.132000",
    "094409.132000",
    "094411.131000",
    "094413.130000",
    "094415.131000",
    "094416.630000",
    "094419.132000",
    "094421.132000",
    "094423.132000",
    "094425.132000",
    "094427.132000",
    "094429.130000",
    "094431.131000",
    "094433.131000",
    "094435.131000",
    "094437.131000",
    "094439.131000",
    "094441.131000",
    "094443.131000",
    "094445.131000",
    "094447.130000",
    "094449.131000",
    "094451.131000",
    "094453.130000",
    "094455.132000",
    "094457.132000",
    "094459.132000",
    "094501.132000",
    "094503.131000",
    "094505.130000",
    "094507.131000",
    "094509.131000",
    "094511.132000",
    "094513.132000",
    "094515.132000",
    "094517.132000",
    "094519.132000",
    "094521.131000",
    "094522.631000",
    "094525.131000",
    "094526.739000"
   ],
   "InstanceNumber": [
    1,
    2,
    3,
    4,
    5,
    6,
    7,
    8,
    9,
    10,
    11,
    12,
    13,
    14,
    15,
    16,
    17,
    18,
    19,
    20,
    21,
    22,
    23,
    24,
    25,
    26,
    27,
    28,
    29,
    30,
    31,
    32,
    33,
    34,
    35,
    36,
    37,
    38,
    39,
    40,
    41,
    42,
    43,
    44,
    45,
    46,
    47,
    48,
    49,
    50,
    51,
    52,
    53,
    54,
    55,
    56,
    57,
    58,
    59,
    60,
    61,
    62,
    63,
    64,
    65,
    66,
    67,
    68,
    69,
    70,
    71,
    72,
    73,
    74,
    75,
    76,
    77,
    78,
    79,
    80,
    81,
    82,
    83,
    84,
    85,
    86,
    87,
    88,
    89,
    90,
    91,
    92,
    93,
    94,
    95,
    96,
    97,
    98,
    99,
    100,
    101,
    102,
    103,
    104,
    105,
    106,
    107,
    108,
    109,
    110,
    111,
    112,
    113,
    114,
    115,
    116,
    117,
    118,
    119,
    120,
    121,
    122,
    123,
    124,
    125,
    126,
    127,
    128,
    129,
    130,
    131,
    132,
    133,
    134,
    135,
    136,
    137,
    138,
    139,
    140,
    141,
    142,
    143,
    144,
    145,
    146,
    147,
    148,
    149,
    150,
    151,
    152,
    153,
    154,
    155,
    156,
    157,
    158,
    159,
    160,
    161,
    162,
    163,
    164,
    165,
    166,
    167,
    168,
    169,
    170,
    171,
    172,
    173,
    174,
    175,
    176,
    177,
    178,
    179,
    180,
    181,
    182,
    183,
    184,
    185,
    186,
    187,
    188,
    189,
    190,
    191,
    192,
    193,
    194,
    195,
    196,
    197,
    198,
    199,
    200,
    201,
    202,
    203,
    204,
    205,
    206,
    207,
    208,
    209,
    210,
    211,
    212,
    213,
    214,
    215,
    216,
    217,
    218,
    219,
    220,
    221,
    222,
    223,
    224,
    225,
    226,
    227,
    228,
    229,
    230,
    231,
    232,
    233,
    234,
    235,
    236,
    237,
    238,
    239,
    240,
    241
   ],
   "LargestImagePixelValue": [
    3655,
    3612,
    3454,
    3466,
    3406,
    3628,
    3426,
    3407,
    3332,
    3561,
    3464,
    3481,
    3353,
    3354,
    3263,
    3446,
    3360,
    3302,
    3334,
    3458,
    3413,
    3376,
    3474,
    3494,
    3354,
    3350,
    3321,
    3579,
    3425,
    3415,
    3385,
    3355,
    3339,
    3400,
    3575,
    3469,
    3420,
    3361,
    3386,
    3650,
    3533,
    3421,
    3477,
    3387,
    3393,
    3638,
    3523,
    3405,
    3413,
    3387,
    3313,
    3343,
    3249,
    3459,
    3475,
    3348,
    3383,
    3516,
    3464,
    3387,
    3386,
    3315,
    3547,
    3487,
    3388,
    3385,
    3329,
    3564,
    3607,
    3502,
    3420,
    3339,
    3317,
    3574,
    3480,
    3351,
    3377,
    3417,
    3357,
    3297,
    3546,
    3415,
    3449,
    3553,
    3540,
    3390,
    3401,
    3464,
    3465,
    3456,
    3390,
    3323,
    3330,
    3553,
    3464,
    3379,
    3417,
    3304,
    3308,
    3269,
    3311,
    3535,
    3466,
    3353,
    3317,
    3308,
    3277,
    3589,
    3350,
    3385,
    3384,
    3606,
    3481,
    3445,
    3396,
    3363,
    3328,
    3312,
    3620,
    3476,
    3381,
    3370,
    3339,
    3338,
    3568,
    3435,
    3380,
    3316,
    3504,
    3349,
    3488,
    3412,
    3281,
    3354,
    3336,
    3265,
    3268,
    3228,
    3292,
    3253,
    3276,
    3282,
    3438,
    3275,
    3244,
    3248,
    3256,
    3222,
    3292,
    3299,
    3681,
    3506,
    3336,
    3294,
    3480,
    3413,
    3407,
    3387,
    3318,
    3595,
    3480,
    3396,
    3369,
    3321,
    3500,
    3350,
    3273,
    3255,
    3420,
    3198,
    3213,
    3232,
    3213,
    3227,
    3359,
    3310,
    3374,
    3417,
    3386,
    3277,
    3496,
    3324,
    3242,
    3396,
    3299,
    3332,
    3234,
    3271,
    3310,
    3396,
    3390,
    3242,
    3617,
    3418,
    3577,
    3385,
    3305,
    3234,
    3254,
    3398,
    3380,
    3269,
    3360,
    3274,
    3275,
    3220,
    3439,
    3420,
    3353,
    3235,
    3228,
    3369,
    3346,
    3267,
    3270,
    3381,
    3431,
    3326,
    3280,
    3281,
    3397,
    3404,
    3492,
    3437,
    3286,
    3374,
    3312,
    3275,
    3347,
    3328,
    3256,
    3239,
    3313,
    3357,
    3363,
    3472,
    3358,
    3355,
    3294,
    3300,
    3478
   ],
   "WindowCenter": [
    791.0,
    792.0,
    790.0,
    789.0,
    789.0,
    790.0,
    790.0,
    789.0,
    789.0,
    790.0,
    789.0,
    790.0,
    790.0,
    790.0,
    789.0,
    790.0,
    791.0,
    791.0,
    792.0,
    793.0,
    792.0,
    792.0,
    792.0,
    792.0,
    791.0,
    791.0,
    791.0,
    794.0,
    794.0,
    793.0,
    791.0,
    790.0,
    790.0,
    792.0,
    792.0,
    792.0,
    791.0,
    791.0,
    791.0,
    792.0,
    791.0,
    790.0,
    790.0,
    791.0,
    793.0,
    796.0,
    795.0,
    792.0,
    791.0,
    790.0,
    791.0,
    791.0,
    790.0,
    792.0,
    792.0,
    791.0,
    792.0,
    792.0,
    791.0,
    790.0,
    790.0,
    790.0,
    792.0,
    792.0,
    791.0,
    791.0,
    791.0,
    793.0,
    793.0,
    793.0,
    793.0,
    794.0,
    793.0,
    793.0,
    792.0,
    791.0,
    790.0,
    789.0,
    789.0,
    791.0,
    794.0,
    794.0,
    794.0,
    793.0,
    792.0,
    790.0,
    791.0,
    792.0,
    792.0,
    791.0,
    790.0,
    789.0,
    791.0,
    793.0,
    792.0,
    791.0,
    792.0,
    791.0,
    791.0,
    790.0,
    791.0,
    792.0,
    792.0,
    793.0,
    793.0,
    793.0,
    793.0,
    794.0,
    794.0,
    794.0,
    796.0,
    797.0,
    796.0,
    795.0,
    794.0,
    794.0,
    793.0,
    794.0,
    795.0,
    794.0,
    793.0,
    794.0,
    794.0,
    794.0,
    796.0,
    796.0,
    795.0,
    795.0,
    797.0,
    797.0,
    797.0,
    795.0,
    792.0,
    791.0,
    790.0,
    789.0,
    789.0,
    788.0,
    788.0,
    788.0,
    789.0,
    789.0,
    791.0,
    790.0,
    790.0,
    790.0,
    789.0,
    790.0,
    792.0,
    796.0,
    798.0,
    796.0,
    793.0,
    791.0,
    790.0,
    789.0,
    788.0,
    789.0,
    790.0,
    793.0,
    792.0,
    791.0,
    790.0,
    791.0,
    792.0,
    791.0,
    790.0,
    789.0,
    789.0,
    788.0,
    787.0,
    788.0,
    787.0,
    789.0,
    792.0,
    793.0,
    794.0,
    793.0,
    792.0,
    790.0,
    791.0,
    790.0,
    789.0,
    790.0,
    790.0,
    790.0,
    788.0,
    788.0,
    789.0,
    790.0,
    790.0,
    791.0,
    795.0,
    796.0,
    798.0,
    795.0,
    792.0,
    791.0,
    791.0,
    791.0,
    790.0,
    788.0,
    789.0,
    788.0,
    789.0,
    792.0,
    794.0,
    794.0,
    792.0,
    790.0,
    790.0,
    791.0,
    791.0,
    791.0,
    791.0,
    792.0,
    792.0,
    791.0,
    791.0,
    791.0,
    795.0,
    796.0,
    797.0,
    796.0,
    792.0,
    791.0,
    789.0,
    788.0,
    789.0,
    789.0,
    789.0,
    787.0,
    788.0,
    790.0,
    791.0,
    790.0,
    789.0,
    790.0,
    790.0,
    790.0,
    792.0
   ],
   "WindowWidth": [
    1713.0,
    1715.0,
    1711.0,
    1709.0,
    1708.0,
