{
 "AcquisitionMatrixPE": 100,
 "AcquisitionNumber": 1,
 "AcquisitionTime": "10:38:2.220000",
 "BandwidthPerPixelPhaseEncode": 18.519,
 "BaseResolution": 100,
 "BodyPartExamined": "BRAIN",
 "ConsistencyInfo": "N4_VE11C_LATEST_20160120",
 "ConversionSoftware": "dcm2niix",
 "ConversionSoftwareVersion": "v1.0.20180622 GCC4.9.2",
 "DerivedVendorReportedEchoSpacing": 0.000539986,
 "DeviceSerialNumber": "166078",
 "DwellTime": 2.1e-06,
 "EchoTime": 0.034,
 "EchoTrainLength": 100,
 "EffectiveEchoSpacing": 0.000539986,
 "FlipAngle": 90,
 "ImageOrientationPatientDICOM": [
  1,
  0,
  0,
  0,
  0.983255,
  -0.182236
 ],
 "ImageType": [
  "ORIGINAL",
  "PRIMARY",
  "M",
  "ND",
  "MOSAIC"
 ],
 "InPlanePhaseEncodingDirectionDICOM": "COL",
 "InstitutionAddress": "Street_StreetNo_Bei_Jing_District_CN_ZIP",
 "InstitutionName": "BeiJing_Normal_University",
 "InstitutionalDepartmentName": "Department",
 "MRAcquisitionType": "2D",
 "MagneticFieldStrength": 3,
 "Manufacturer": "Siemens",
 "ManufacturersModelName": "Prisma",
 "Modality": "MR",
 "MultibandAccelerationFactor": 3,
 "PartialFourier": 1,
 "PatientPosition": "HFS",
 "PercentPhaseFOV": 100,
 "PhaseEncodingDirection": "j-",
 "PhaseEncodingSteps": 100,
 "PhaseResolution": 1,
 "PixelBandwidth": 2380,
 "ProcedureStepDescription": "BNU_P2018_64CH_Zhen.ZongLei",
 "ProtocolName": "bold_100x100_s3_2x2x2_static_test_241",
 "PulseSequenceDetails": "%SiemensSeq%_ep2d_bold",
 "ReceiveCoilActiveElements": "HC1-7;NC1",
 "ReceiveCoilName": "HeadNeck_64",
 "ReconMatrixPE": 100,
 "RepetitionTime": 2,
 "SAR": 0.0602094,
 "ScanOptions": "FS",
 "ScanningSequence": "EP",
 "SequenceName": "_epfid2d1_100",
 "SequenceVariant": "SK",
 "SeriesDescription": "bold_100x100_s3_2x2x2_static_test_241",
 "SeriesNumber": 14,
 "ShimSetting": [
  -5464,
  -11487,
  -1276,
  377,
  -26,
  -110,
  -132,
  54
 ],
 "SliceThickness": 2,
 "SliceTiming": [
  1.485,
  0,
  0.99,
  0.0825,
  1.0725,
  0.165,
  1.155,
  0.2475,
  1.2375,
  0.33,
  1.32,
  0.4125,
  1.4025,
  0.5775,
  1.5675,
  0.66,
  1.65,
  0.7425,
  1.7325,
  0.825,
  1.815,
  0.9075,
  1.8975,
  0.495,
  1.485,
  0,
  0.99,
  0.0825,
  1.0725,
  0.165,
  1.155,
  0.2475,
  1.2375,
  0.33,
  1.32,
  0.4125,
  1.4025,
  0.5775,
  1.5675,
  0.66,
  1.65,
  0.7425,
  1.7325,
  0.825,
  1.815,
  0.9075,
  1.8975,
  0.495,
  1.485,
  0,
  0.99,
  0.0825,
  1.0725,
  0.165,
  1.155,
  0.2475,
  1.2375,
  0.33,
  1.32,
  0.4125,
  1.4025,
  0.5775,
  1.5675,
  0.66,
  1.65,
  0.7425,
  1.7325,
  0.825,
  1.815,
  0.9075,
  1.8975,
  0.495
 ],
 "SoftwareVersions": "syngo_MR_E11",
 "SpacingBetweenSlices": 2,
 "StationName": "AWP166078",
 "TaskName": "coco",
 "TotalReadoutTime": 0.0534586,
 "TxRefAmp": 206.412,
 "dcmmeta_affine": [
  [
   -2.0,
   0.0,
   0.0,
   100.0
  ],
  [
   0.0,
   1.9665098190307617,
   -0.36447104811668396,
   -84.17688751220703
  ],
  [
   0.0,
   0.36447104811668396,
   1.9665096998214722,
   -89.79066467285156
  ],
  [
   0.0,
   0.0,
   0.0,
   1.0
  ]
 ],
 "dcmmeta_reorient_transform": [
  [
   0.0,
   -1.0,
   0.0,
   99.0
  ],
  [
   1.0,
   0.0,
   0.0,
   0.0
  ],
  [
   0.0,
   0.0,
   1.0,
   0.0
  ],
  [
   0.0,
   0.0,
   0.0,
   1.0
  ]
 ],
 "dcmmeta_shape": [
  100,
  100,
  72,
  241
 ],
 "dcmmeta_slice_dim": 2,
 "dcmmeta_version": 0.6,
 "global": {
  "const": {
   "AcquisitionMatrix": [
    100,
    0,
    0,
    100
   ],
   "AngioFlag": "N",
   "BitsAllocated": 16,
   "BitsStored": 12,
   "BodyPartExamined": "BRAIN",
   "Columns": 900,
   "EchoNumbers": 1,
   "EchoTime": 34.0,
   "EchoTrainLength": 100,
   "FlipAngle": 90.0,
   "HighBit": 11,
   "ImageOrientationPatient": [
    1.0,
    0.0,
    0.0,
    0.0,
    0.98325490764387,
    -0.182235525061
   ],
   "ImagePositionPatient": [
    -900.0,
    -897.11151240713,
    92.080392965011
   ],
   "ImageType": [
    "ORIGINAL",
    "PRIMARY",
    "M",
    "ND",
    "MOSAIC"
   ],
   "ImagedNucleus": "1H",
   "ImagingFrequency": 123.257782,
   "InPlanePhaseEncodingDirection": "COL",
   "MRAcquisitionType": "2D",
   "MagneticFieldStrength": 3.0,
   "Manufacturer": "SIEMENS",
   "ManufacturerModelName": "Prisma",
   "Modality": "MR",
   "NumberOfAverages": 1.0,
   "NumberOfPhaseEncodingSteps": 100,
   "PercentPhaseFieldOfView": 100.0,
   "PercentSampling": 100.0,
   "PerformedProcedureStepStartTime": "090340.430000",
   "PhotometricInterpretation": "MONOCHROME2",
   "PixelBandwidth": 2380.0,
   "PixelRepresentation": 0,
   "PixelSpacing": [
    2.0,
    2.0
   ],
   "ProtocolName": "bold_100x100_s3_2x2x2_static_test_241",
   "RepetitionTime": 2000.0,
   "Rows": 900,
   "SAR": 0.06020944289607,
   "SamplesPerPixel": 1,
   "ScanOptions": "FS",
   "ScanningSequence": "EP",
   "SequenceName": "*epfid2d1_100",
   "SequenceVariant": "SK",
   "SeriesDescription": "bold_100x100_s3_2x2x2_static_test_241",
   "SeriesNumber": 14,
   "SeriesTime": "103804.764000",
   "SliceLocation": -72.947089221113,
   "SliceThickness": 2.0,
   "SmallestImagePixelValue": 0,
   "SoftwareVersions": "syngo MR E11",
   "SpacingBetweenSlices": 1.9999999368969,
   "SpecificCharacterSet": "ISO_IR 100",
   "StudyID": "1",
   "StudyTime": "090340.321000",
   "TransmitCoilName": "Body",
   "VariableFlipAngleFlag": "N",
   "WindowCenterWidthExplanation": "Algo1",
   "dBdt": 0.0
  },
  "slices": {}
 },
 "time": {
  "samples": {
   "AcquisitionNumber": [
    1,
    2,
    3,
    4,
    5,
    6,
    7,
    8,
    9,
    10,
    11,
    12,
    13,
    14,
    15,
    16,
    17,
    18,
    19,
    20,
    21,
    22,
    23,
    24,
    25,
    26,
    27,
    28,
    29,
    30,
    31,
    32,
    33,
    34,
    35,
    36,
    37,
    38,
    39,
    40,
    41,
    42,
    43,
    44,
    45,
    46,
    47,
    48,
    49,
    50,
    51,
    52,
    53,
    54,
    55,
    56,
    57,
    58,
    59,
    60,
    61,
    62,
    63,
    64,
    65,
    66,
    67,
    68,
    69,
    70,
    71,
    72,
    73,
    74,
    75,
    76,
    77,
    78,
    79,
    80,
    81,
    82,
    83,
    84,
    85,
    86,
    87,
    88,
    89,
    90,
    91,
    92,
    93,
    94,
    95,
    96,
    97,
    98,
    99,
    100,
    101,
    102,
    103,
    104,
    105,
    106,
    107,
    108,
    109,
    110,
    111,
    112,
    113,
    114,
    115,
    116,
    117,
    118,
    119,
    120,
    121,
    122,
    123,
    124,
    125,
    126,
    127,
    128,
    129,
    130,
    131,
    132,
    133,
    134,
    135,
    136,
    137,
    138,
    139,
    140,
    141,
    142,
    143,
    144,
    145,
    146,
    147,
    148,
    149,
    150,
    151,
    152,
    153,
    154,
    155,
    156,
    157,
    158,
    159,
    160,
    161,
    162,
    163,
    164,
    165,
    166,
    167,
    168,
    169,
    170,
    171,
    172,
    173,
    174,
    175,
    176,
    177,
    178,
    179,
    180,
    181,
    182,
    183,
    184,
    185,
    186,
    187,
    188,
    189,
    190,
    191,
    192,
    193,
    194,
    195,
    196,
    197,
    198,
    199,
    200,
    201,
    202,
    203,
    204,
    205,
    206,
    207,
    208,
    209,
    210,
    211,
    212,
    213,
    214,
    215,
    216,
    217,
    218,
    219,
    220,
    221,
    222,
    223,
    224,
    225,
    226,
    227,
    228,
    229,
    230,
    231,
    232,
    233,
    234,
    235,
    236,
    237,
    238,
    239,
    240,
    241
   ],
   "AcquisitionTime": [
    "103802.220000",
    "103804.220000",
    "103806.220000",
    "103808.220000",
    "103810.220000",
    "103812.220000",
    "103814.220000",
    "103816.220000",
    "103818.220000",
    "103820.220000",
    "103822.220000",
    "103824.220000",
    "103826.220000",
    "103828.220000",
    "103830.220000",
    "103832.220000",
    "103834.220000",
    "103836.220000",
    "103838.220000",
    "103840.220000",
    "103842.220000",
    "103844.220000",
    "103846.220000",
    "103848.220000",
    "103850.220000",
    "103852.220000",
    "103854.220000",
    "103856.220000",
    "103858.220000",
    "103900.220000",
    "103902.220000",
    "103904.220000",
    "103906.220000",
    "103908.220000",
    "103910.220000",
    "103912.220000",
    "103914.220000",
    "103916.220000",
    "103918.220000",
    "103920.220000",
    "103922.220000",
    "103924.220000",
    "103926.220000",
    "103928.220000",
    "103930.220000",
    "103932.220000",
    "103934.220000",
    "103936.220000",
    "103938.220000",
    "103940.220000",
    "103942.220000",
    "103944.220000",
    "103946.220000",
    "103948.220000",
    "103950.220000",
    "103952.220000",
    "103954.220000",
    "103956.220000",
    "103958.220000",
    "104000.220000",
    "104002.220000",
    "104004.220000",
    "104006.220000",
    "104008.220000",
    "104010.220000",
    "104012.220000",
    "104014.220000",
    "104016.220000",
    "104018.220000",
    "104020.220000",
    "104022.220000",
    "104024.220000",
    "104026.220000",
    "104028.220000",
    "104030.220000",
    "104032.220000",
    "104034.220000",
    "104036.220000",
    "104038.220000",
    "104040.220000",
    "104042.220000",
    "104044.220000",
    "104046.220000",
    "104048.220000",
    "104050.220000",
    "104052.220000",
    "104054.220000",
    "104056.220000",
    "104058.220000",
    "104100.220000",
    "104102.220000",
    "104104.220000",
    "104106.220000",
    "104108.220000",
    "104110.220000",
    "104112.220000",
    "104114.220000",
    "104116.220000",
    "104118.220000",
    "104120.220000",
    "104122.220000",
    "104124.220000",
    "104126.220000",
    "104128.220000",
    "104130.220000",
    "104132.220000",
    "104134.220000",
    "104136.220000",
    "104138.220000",
    "104140.220000",
    "104142.220000",
    "104144.220000",
    "104146.220000",
    "104148.220000",
    "104150.220000",
    "104152.220000",
    "104154.220000",
    "104156.220000",
    "104158.220000",
    "104200.220000",
    "104202.220000",
    "104204.220000",
    "104206.220000",
    "104208.220000",
    "104210.220000",
    "104212.220000",
    "104214.220000",
    "104216.220000",
    "104218.220000",
    "104220.220000",
    "104222.220000",
    "104224.220000",
    "104226.220000",
    "104228.220000",
    "104230.220000",
    "104232.220000",
    "104234.220000",
    "104236.220000",
    "104238.220000",
    "104240.220000",
    "104242.220000",
    "104244.220000",
    "104246.220000",
    "104248.220000",
    "104250.220000",
    "104252.220000",
    "104254.220000",
    "104256.220000",
    "104258.220000",
    "104300.220000",
    "104302.220000",
    "104304.220000",
    "104306.220000",
    "104308.220000",
    "104310.220000",
    "104312.220000",
    "104314.220000",
    "104316.220000",
    "104318.220000",
    "104320.220000",
    "104322.220000",
    "104324.220000",
    "104326.220000",
    "104328.220000",
    "104330.220000",
    "104332.220000",
    "104334.220000",
    "104336.220000",
    "104338.220000",
    "104340.220000",
    "104342.220000",
    "104344.220000",
    "104346.220000",
    "104348.220000",
    "104350.220000",
    "104352.220000",
    "104354.220000",
    "104356.220000",
    "104358.220000",
    "104400.220000",
    "104402.220000",
    "104404.220000",
    "104406.220000",
    "104408.220000",
    "104410.220000",
    "104412.220000",
    "104414.220000",
    "104416.220000",
    "104418.220000",
    "104420.220000",
    "104422.220000",
    "104424.220000",
    "104426.220000",
    "104428.220000",
    "104430.220000",
    "104432.220000",
    "104434.220000",
    "104436.220000",
    "104438.220000",
    "104440.220000",
    "104442.220000",
    "104444.220000",
    "104446.220000",
    "104448.220000",
    "104450.220000",
    "104452.220000",
    "104454.220000",
    "104456.220000",
    "104458.220000",
    "104500.220000",
    "104502.220000",
    "104504.220000",
    "104506.220000",
    "104508.220000",
    "104510.220000",
    "104512.220000",
    "104514.220000",
    "104516.220000",
    "104518.220000",
    "104520.220000",
    "104522.220000",
    "104524.220000",
    "104526.220000",
    "104528.220000",
    "104530.220000",
    "104532.220000",
    "104534.220000",
    "104536.220000",
    "104538.220000",
    "104540.220000",
    "104542.220000",
    "104544.220000",
    "104546.220000",
    "104548.220000",
    "104550.220000",
    "104552.220000",
    "104554.220000",
    "104556.220000",
    "104558.220000",
    "104600.220000",
    "104602.220000"
   ],
   "ContentTime": [
    "103804.768000",
    "103806.263000",
    "103808.264000",
    "103810.263000",
    "103812.264000",
    "103814.264000",
    "103816.264000",
    "103818.263000",
    "103820.264000",
    "103822.263000",
    "103824.264000",
    "103826.264000",
    "103828.263000",
    "103830.264000",
    "103832.265000",
    "103834.264000",
    "103836.264000",
    "103838.263000",
    "103840.264000",
    "103842.264000",
    "103844.263000",
    "103846.264000",
    "103848.265000",
    "103850.265000",
    "103852.264000",
    "103854.263000",
    "103856.263000",
    "103858.263000",
    "103900.263000",
    "103902.264000",
    "103904.263000",
    "103906.265000",
    "103908.265000",
    "103910.263000",
    "103912.263000",
    "103914.263000",
    "103916.263000",
    "103918.263000",
    "103920.263000",
    "103922.264000",
    "103924.264000",
    "103926.265000",
    "103928.264000",
    "103930.263000",
    "103932.264000",
    "103934.264000",
    "103936.264000",
    "103938.264000",
    "103940.264000",
    "103942.264000",
    "103944.264000",
    "103946.263000",
    "103948.264000",
    "103950.264000",
    "103952.264000",
    "103954.264000",
    "103956.263000",
    "103958.265000",
    "104000.264000",
    "104002.264000",
    "104004.263000",
    "104006.263000",
    "104008.263000",
    "104010.264000",
    "104012.263000",
    "104014.263000",
    "104016.264000",
    "104018.265000",
    "104020.264000",
    "104022.264000",
    "104024.263000",
    "104026.263000",
    "104028.264000",
    "104030.264000",
    "104032.264000",
    "104034.265000",
    "104036.265000",
    "104038.263000",
    "104040.264000",
    "104042.263000",
    "104044.264000",
    "104046.264000",
    "104048.264000",
    "104050.263000",
    "104052.264000",
    "104054.264000",
    "104056.264000",
    "104058.263000",
    "104100.263000",
    "104102.264000",
    "104104.264000",
    "104106.263000",
    "104108.264000",
    "104110.264000",
    "104112.264000",
    "104114.264000",
    "104116.264000",
    "104118.263000",
    "104120.264000",
    "104122.264000",
    "104124.263000",
    "104126.265000",
    "104128.265000",
    "104130.263000",
    "104132.264000",
    "104134.264000",
    "104136.264000",
    "104138.264000",
    "104140.263000",
    "104142.264000",
    "104144.264000",
    "104146.265000",
    "104148.264000",
    "104150.264000",
    "104152.263000",
    "104154.264000",
    "104156.264000",
    "104158.263000",
    "104200.263000",
    "104202.264000",
    "104204.265000",
    "104206.264000",
    "104208.263000",
    "104210.264000",
    "104212.264000",
    "104214.263000",
    "104216.264000",
    "104218.265000",
    "104220.264000",
    "104222.263000",
    "104224.263000",
    "104226.264000",
    "104228.264000",
    "104230.263000",
    "104232.263000",
    "104234.263000",
    "104236.265000",
    "104238.265000",
    "104240.263000",
    "104242.264000",
    "104244.263000",
    "104246.263000",
    "104248.264000",
    "104250.264000",
    "104252.264000",
    "104254.264000",
    "104256.265000",
    "104258.263000",
    "104300.264000",
    "104302.263000",
    "104304.264000",
    "104306.263000",
    "104308.263000",
    "104310.264000",
    "104312.265000",
    "104314.264000",
    "104316.264000",
    "104318.264000",
    "104320.264000",
    "104322.263000",
    "104324.263000",
    "104326.264000",
    "104328.265000",
    "104330.265000",
    "104332.263000",
    "104334.264000",
    "104336.264000",
    "104338.263000",
    "104340.263000",
    "104342.264000",
    "104344.263000",
    "104346.265000",
    "104348.265000",
    "104350.263000",
    "104352.263000",
    "104354.263000",
    "104356.263000",
    "104358.263000",
    "104400.263000",
    "104402.263000",
    "104404.264000",
    "104406.264000",
    "104408.264000",
    "104410.263000",
    "104412.264000",
    "104414.264000",
    "104416.264000",
    "104418.264000",
    "104420.264000",
    "104422.265000",
    "104424.265000",
    "104426.264000",
    "104428.263000",
    "104430.264000",
    "104432.264000",
    "104434.264000",
    "104436.264000",
    "104438.265000",
    "104440.265000",
    "104442.264000",
    "104444.264000",
    "104446.264000",
    "104448.264000",
    "104450.264000",
    "104452.264000",
    "104454.263000",
    "104456.265000",
    "104458.265000",
    "104500.264000",
    "104502.263000",
    "104504.263000",
    "104506.264000",
    "104508.263000",
    "104510.264000",
    "104512.263000",
    "104514.265000",
    "104516.265000",
    "104518.263000",
    "104520.264000",
    "104522.264000",
    "104524.264000",
    "104526.264000",
    "104528.264000",
    "104530.265000",
    "104532.265000",
    "104534.265000",
    "104536.264000",
    "104538.264000",
    "104540.264000",
    "104542.264000",
    "104544.264000",
    "104546.274000",
    "104548.264000",
    "104550.265000",
    "104552.263000",
    "104554.264000",
    "104556.264000",
    "104558.264000",
    "104600.264000",
    "104602.264000",
    "104604.022000"
   ],
   "InstanceCreationTime": [
    "103804.768000",
    "103806.263000",
    "103808.264000",
    "103810.263000",
    "103812.264000",
    "103814.264000",
    "103816.264000",
    "103818.263000",
    "103820.264000",
    "103822.263000",
    "103824.264000",
    "103826.264000",
    "103828.263000",
    "103830.264000",
    "103832.265000",
    "103834.264000",
    "103836.264000",
    "103838.263000",
    "103840.264000",
    "103842.264000",
    "103844.263000",
    "103846.264000",
    "103848.265000",
    "103850.265000",
    "103852.264000",
    "103854.263000",
    "103856.263000",
    "103858.263000",
    "103900.263000",
    "103902.264000",
    "103904.263000",
    "103906.265000",
    "103908.265000",
    "103910.263000",
    "103912.263000",
    "103914.263000",
    "103916.263000",
    "103918.263000",
    "103920.263000",
    "103922.264000",
    "103924.264000",
    "103926.265000",
    "103928.264000",
    "103930.263000",
    "103932.264000",
    "103934.264000",
    "103936.264000",
    "103938.264000",
    "103940.264000",
    "103942.264000",
    "103944.264000",
    "103946.263000",
    "103948.264000",
    "103950.264000",
    "103952.264000",
    "103954.264000",
    "103956.263000",
    "103958.265000",
    "104000.264000",
    "104002.264000",
    "104004.263000",
    "104006.263000",
    "104008.263000",
    "104010.264000",
    "104012.263000",
    "104014.263000",
    "104016.264000",
    "104018.265000",
    "104020.264000",
    "104022.264000",
    "104024.263000",
    "104026.263000",
    "104028.264000",
    "104030.264000",
    "104032.264000",
    "104034.265000",
    "104036.265000",
    "104038.263000",
    "104040.264000",
    "104042.263000",
    "104044.264000",
    "104046.264000",
    "104048.264000",
    "104050.263000",
    "104052.264000",
    "104054.264000",
    "104056.264000",
    "104058.263000",
    "104100.263000",
    "104102.264000",
    "104104.264000",
    "104106.263000",
    "104108.264000",
    "104110.264000",
    "104112.264000",
    "104114.264000",
    "104116.264000",
    "104118.263000",
    "104120.264000",
    "104122.264000",
    "104124.263000",
    "104126.265000",
    "104128.265000",
    "104130.263000",
    "104132.264000",
    "104134.264000",
    "104136.264000",
    "104138.264000",
    "104140.263000",
    "104142.264000",
    "104144.264000",
    "104146.265000",
    "104148.264000",
    "104150.264000",
    "104152.263000",
    "104154.264000",
    "104156.264000",
    "104158.263000",
    "104200.263000",
    "104202.264000",
    "104204.265000",
    "104206.264000",
    "104208.263000",
    "104210.264000",
    "104212.264000",
    "104214.263000",
    "104216.264000",
    "104218.265000",
    "104220.264000",
    "104222.263000",
    "104224.263000",
    "104226.264000",
    "104228.264000",
    "104230.263000",
    "104232.263000",
    "104234.263000",
    "104236.265000",
    "104238.265000",
    "104240.263000",
    "104242.264000",
    "104244.263000",
    "104246.263000",
    "104248.264000",
    "104250.264000",
    "104252.264000",
    "104254.264000",
    "104256.265000",
    "104258.263000",
    "104300.264000",
    "104302.263000",
    "104304.264000",
    "104306.263000",
    "104308.263000",
    "104310.264000",
    "104312.265000",
    "104314.264000",
    "104316.264000",
    "104318.264000",
    "104320.264000",
    "104322.263000",
    "104324.263000",
    "104326.264000",
    "104328.265000",
    "104330.265000",
    "104332.263000",
    "104334.264000",
    "104336.264000",
    "104338.263000",
    "104340.263000",
    "104342.264000",
    "104344.263000",
    "104346.265000",
    "104348.265000",
    "104350.263000",
    "104352.263000",
    "104354.263000",
    "104356.263000",
    "104358.263000",
    "104400.263000",
    "104402.263000",
    "104404.264000",
    "104406.264000",
    "104408.264000",
    "104410.263000",
    "104412.264000",
    "104414.264000",
    "104416.264000",
    "104418.264000",
    "104420.264000",
    "104422.265000",
    "104424.265000",
    "104426.264000",
    "104428.263000",
    "104430.264000",
    "104432.264000",
    "104434.264000",
    "104436.264000",
    "104438.265000",
    "104440.265000",
    "104442.264000",
    "104444.264000",
    "104446.264000",
    "104448.264000",
    "104450.264000",
    "104452.264000",
    "104454.263000",
    "104456.265000",
    "104458.265000",
    "104500.264000",
    "104502.263000",
    "104504.263000",
    "104506.264000",
    "104508.263000",
    "104510.264000",
    "104512.263000",
    "104514.265000",
    "104516.265000",
    "104518.263000",
    "104520.264000",
    "104522.264000",
    "104524.264000",
    "104526.264000",
    "104528.264000",
    "104530.265000",
    "104532.265000",
    "104534.265000",
    "104536.264000",
    "104538.264000",
    "104540.264000",
    "104542.264000",
    "104544.264000",
    "104546.274000",
    "104548.264000",
    "104550.265000",
    "104552.263000",
    "104554.264000",
    "104556.264000",
    "104558.264000",
    "104600.264000",
    "104602.264000",
    "104604.022000"
   ],
   "InstanceNumber": [
    1,
    2,
    3,
    4,
    5,
    6,
    7,
    8,
    9,
    10,
    11,
    12,
    13,
    14,
    15,
    16,
    17,
    18,
    19,
    20,
    21,
    22,
    23,
    24,
    25,
    26,
    27,
    28,
    29,
    30,
    31,
    32,
    33,
    34,
    35,
    36,
    37,
    38,
    39,
    40,
    41,
    42,
    43,
    44,
    45,
    46,
    47,
    48,
    49,
    50,
    51,
    52,
    53,
    54,
    55,
    56,
    57,
    58,
    59,
    60,
    61,
    62,
    63,
    64,
    65,
    66,
    67,
    68,
    69,
    70,
    71,
    72,
    73,
    74,
    75,
    76,
    77,
    78,
    79,
    80,
    81,
    82,
    83,
    84,
    85,
    86,
    87,
    88,
    89,
    90,
    91,
    92,
    93,
    94,
    95,
    96,
    97,
    98,
    99,
    100,
    101,
    102,
    103,
    104,
    105,
    106,
    107,
    108,
    109,
    110,
    111,
    112,
    113,
    114,
    115,
    116,
    117,
    118,
    119,
    120,
    121,
    122,
    123,
    124,
    125,
    126,
    127,
    128,
    129,
    130,
    131,
    132,
    133,
    134,
    135,
    136,
    137,
    138,
    139,
    140,
    141,
    142,
    143,
    144,
    145,
    146,
    147,
    148,
    149,
    150,
    151,
    152,
    153,
    154,
    155,
    156,
    157,
    158,
    159,
    160,
    161,
    162,
    163,
    164,
    165,
    166,
    167,
    168,
    169,
    170,
    171,
    172,
    173,
    174,
    175,
    176,
    177,
    178,
    179,
    180,
    181,
    182,
    183,
    184,
    185,
    186,
    187,
    188,
    189,
    190,
    191,
    192,
    193,
    194,
    195,
    196,
    197,
    198,
    199,
    200,
    201,
    202,
    203,
    204,
    205,
    206,
    207,
    208,
    209,
    210,
    211,
    212,
    213,
    214,
    215,
    216,
    217,
    218,
    219,
    220,
    221,
    222,
    223,
    224,
    225,
    226,
    227,
    228,
    229,
    230,
    231,
    232,
    233,
    234,
    235,
    236,
    237,
    238,
    239,
    240,
    241
   ],
   "LargestImagePixelValue": [
    3243,
    3409,
    3198,
    3200,
    3150,
    3313,
    3161,
    3218,
    3274,
    3243,
    3261,
    3269,
    3356,
    3304,
    3359,
    3294,
    3181,
    3335,
    3183,
    3155,
    3351,
    3220,
    3182,
    3220,
    3329,
    3222,
    3341,
    3296,
    3216,
    3243,
    3193,
    3248,
    3188,
    3186,
    3162,
    3227,
    3186,
    3225,
    3187,
    3190,
    3195,
    3264,
    3184,
    3198,
    3227,
    3177,
    3166,
    3198,
    3261,
    3198,
    3183,
    3187,
    3173,
    3194,
    3243,
    3156,
    3344,
    3283,
    3184,
    3148,
    3208,
    3148,
    3255,
    3313,
    3195,
    3390,
    3164,
    3117,
    3129,
    3135,
    3163,
    3179,
    3154,
    3239,
    3164,
    3338,
    3204,
    3194,
    3230,
    3119,
    3170,
    3201,
    3166,
    3305,
    3210,
    3245,
    3190,
    3239,
    3192,
    3179,
    3203,
    3206,
    3145,
    3285,
    3159,
    3186,
    3131,
    3179,
    3155,
    3168,
    3139,
    3197,
    3251,
    3209,
    3244,
    3248,
    3274,
    3282,
    3261,
    3251,
    3439,
    3301,
    3226,
    3347,
    3278,
    3322,
    3291,
    3368,
    3358,
    3279,
    3206,
    3213,
    3165,
    3207,
    3207,
    3189,
    3180,
    3218,
    3259,
    3204,
    3190,
    3249,
    3247,
    3279,
    3273,
    3281,
    3268,
    3244,
    3247,
    3316,
    3361,
    3324,
    3340,
    3315,
    3291,
    3309,
    3275,
    3311,
    3322,
    3298,
    3330,
    3359,
    3268,
    3291,
    3306,
    3272,
    3346,
    3361,
    3315,
    3283,
    3285,
    3245,
    3207,
    3298,
    3237,
    3250,
    3198,
    3211,
    3316,
    3204,
    3281,
    3217,
    3503,
    3488,
    3372,
    3339,
    3333,
    3223,
    3373,
    3233,
    3437,
    3312,
    3219,
    3308,
    3291,
    3306,
    3314,
    3237,
    3303,
    3251,
    3355,
    3241,
    3308,
    3262,
    3238,
    3323,
    3231,
    3273,
    3201,
    3315,
    3246,
    3305,
    3256,
    3353,
    3180,
    3181,
    3271,
    3263,
    3207,
    3181,
    3253,
    3194,
    3160,
    3178,
    3174,
    3177,
    3237,
    3197,
    3161,
    3203,
    3162,
    3172,
    3172,
    3186,
    3177,
    3204,
    3326,
    3220,
    3199,
    3380,
    3258,
    3301,
    3182,
    3193,
    3259,
    3189,
    3201,
    3211,
    3270,
    3187,
    3189
   ],
   "WindowCenter": [
    786.0,
    788.0,
    786.0,
    786.0,
    785.0,
    785.0,
    784.0,
    784.0,
    784.0,
    784.0,
    785.0,
    785.0,
    785.0,
    783.0,
    784.0,
    785.0,
    784.0,
    785.0,
    784.0,
    784.0,
    785.0,
    784.0,
    784.0,
    784.0,
    784.0,
    784.0,
    784.0,
    783.0,
    782.0,
    783.0,
    783.0,
    783.0,
    783.0,
    783.0,
    782.0,
    784.0,
    783.0,
    783.0,
    782.0,
    783.0,
    784.0,
    786.0,
    785.0,
    785.0,
    783.0,
    782.0,
    782.0,
    782.0,
    782.0,
    782.0,
    783.0,
    784.0,
    785.0,
    787.0,
    787.0,
    786.0,
    785.0,
    783.0,
    782.0,
    782.0,
    782.0,
    782.0,
    783.0,
    783.0,
    783.0,
    784.0,
    783.0,
    781.0,
    781.0,
    781.0,
    782.0,
    782.0,
    783.0,
    785.0,
    786.0,
    788.0,
    785.0,
    785.0,
    785.0,
    783.0,
    783.0,
    783.0,
    783.0,
    786.0,
    786.0,
    785.0,
    785.0,
    784.0,
    784.0,
    784.0,
    784.0,
    784.0,
    784.0,
    786.0,
    785.0,
    785.0,
    784.0,
    784.0,
    783.0,
    782.0,
    781.0,
    781.0,
    782.0,
    783.0,
    784.0,
    786.0,
    787.0,
    787.0,
    788.0,
    789.0,
    790.0,
    789.0,
    787.0,
    787.0,
    785.0,
    785.0,
    785.0,
    786.0,
    786.0,
    786.0,
    786.0,
    786.0,
    784.0,
    784.0,
    783.0,
    783.0,
    782.0,
    782.0,
    783.0,
    783.0,
    783.0,
    784.0,
    785.0,
    786.0,
    786.0,
    787.0,
    788.0,
    788.0,
    788.0,
    789.0,
    790.0,
    790.0,
    789.0,
    788.0,
    787.0,
    787.0,
    787.0,
    789.0,
    789.0,
    789.0,
    789.0,
    788.0,
    787.0,
    788.0,
    789.0,
    789.0,
    790.0,
    790.0,
    790.0,
    789.0,
    789.0,
    788.0,
    787.0,
    788.0,
    787.0,
    787.0,
    786.0,
    787.0,
    788.0,
    788.0,
    789.0,
    789.0,
    790.0,
    790.0,
    788.0,
    788.0,
    788.0,
    787.0,
    788.0,
    787.0,
    789.0,
    788.0,
    787.0,
    787.0,
    787.0,
    787.0,
    788.0,
    788.0,
    789.0,
    789.0,
    788.0,
    787.0,
    786.0,
    785.0,
    785.0,
    786.0,
    786.0,
    786.0,
    786.0,
    788.0,
    788.0,
    788.0,
    788.0,
    789.0,
    788.0,
    787.0,
    786.0,
    785.0,
    785.0,
    784.0,
    783.0,
    782.0,
    781.0,
    781.0,
    781.0,
    781.0,
    782.0,
    781.0,
    782.0,
    782.0,
    782.0,
    782.0,
    782.0,
    782.0,
    781.0,
    781.0,
    781.0,
    781.0,
    782.0,
    784.0,
    785.0,
    787.0,
    786.0,
    785.0,
    784.0,
    783.0,
    782.0,
    782.0,
    784.0,
    785.0,
    785.0
   ],
   "WindowWidth": [
    1697.0,
    1702.0,
    1697.0,
    1697.0,
    1694.0,
