{
 "AcquisitionMatrixPE": 100,
 "AcquisitionNumber": 1,
 "AcquisitionTime": "11:23:19.020000",
 "BandwidthPerPixelPhaseEncode": 18.519,
 "BaseResolution": 100,
 "BodyPartExamined": "BRAIN",
 "ConsistencyInfo": "N4_VE11C_LATEST_20160120",
 "ConversionSoftware": "dcm2niix",
 "ConversionSoftwareVersion": "v1.0.20180622 GCC4.9.2",
 "DerivedVendorReportedEchoSpacing": 0.000539986,
 "DeviceSerialNumber": "166078",
 "DwellTime": 2.1e-06,
 "EchoTime": 0.034,
 "EchoTrainLength": 100,
 "EffectiveEchoSpacing": 0.000539986,
 "FlipAngle": 90,
 "ImageOrientationPatientDICOM": [
  1,
  -4.59504e-07,
  -1.24617e-05,
  4.6189e-08,
  0.999451,
  -0.0331466
 ],
 "ImageType": [
  "ORIGINAL",
  "PRIMARY",
  "M",
  "ND",
  "MOSAIC"
 ],
 "InPlanePhaseEncodingDirectionDICOM": "COL",
 "InstitutionAddress": "Street_StreetNo_Bei_Jing_District_CN_ZIP",
 "InstitutionName": "BeiJing_Normal_University",
 "InstitutionalDepartmentName": "Department",
 "MRAcquisitionType": "2D",
 "MagneticFieldStrength": 3,
 "Manufacturer": "Siemens",
 "ManufacturersModelName": "Prisma",
 "Modality": "MR",
 "MultibandAccelerationFactor": 3,
 "PartialFourier": 1,
 "PatientPosition": "HFS",
 "PercentPhaseFOV": 100,
 "PhaseEncodingDirection": "j-",
 "PhaseEncodingSteps": 100,
 "PhaseResolution": 1,
 "PixelBandwidth": 2380,
 "ProcedureStepDescription": "BNU_P2018_64CH_Zhen.ZongLei",
 "ProtocolName": "bold_100x100_s3_2x2x2_cat_150",
 "PulseSequenceDetails": "%SiemensSeq%_ep2d_bold",
 "ReceiveCoilActiveElements": "HC1-7;NC1",
 "ReceiveCoilName": "HeadNeck_64",
 "ReconMatrixPE": 100,
 "RepetitionTime": 2,
 "SAR": 0.0808055,
 "ScanOptions": "FS",
 "ScanningSequence": "EP",
 "SequenceName": "_epfid2d1_100",
 "SequenceVariant": "SK",
 "SeriesDescription": "bold_100x100_s3_2x2x2_cat_150",
 "SeriesNumber": 5,
 "ShimSetting": [
  -5467,
  -11522,
  -1299,
  496,
  -16,
  -246,
  -103,
  19
 ],
 "SliceThickness": 2,
 "SliceTiming": [
  1.485,
  0,
  0.99,
  0.0825,
  1.0725,
  0.165,
  1.155,
  0.2475,
  1.2375,
  0.33,
  1.32,
  0.4125,
  1.4025,
  0.5775,
  1.5675,
  0.66,
  1.65,
  0.7425,
  1.7325,
  0.825,
  1.815,
  0.9075,
  1.8975,
  0.495,
  1.485,
  0,
  0.99,
  0.0825,
  1.0725,
  0.165,
  1.155,
  0.2475,
  1.2375,
  0.33,
  1.32,
  0.4125,
  1.4025,
  0.5775,
  1.5675,
  0.66,
  1.65,
  0.7425,
  1.7325,
  0.825,
  1.815,
  0.9075,
  1.8975,
  0.495,
  1.485,
  0,
  0.99,
  0.0825,
  1.0725,
  0.165,
  1.155,
  0.2475,
  1.2375,
  0.33,
  1.32,
  0.4125,
  1.4025,
  0.5775,
  1.5675,
  0.66,
  1.65,
  0.7425,
  1.7325,
  0.825,
  1.815,
  0.9075,
  1.8975,
  0.495
 ],
 "SoftwareVersions": "syngo_MR_E11",
 "SpacingBetweenSlices": 2,
 "StationName": "AWP166078",
 "TaskName": "floc",
 "TotalReadoutTime": 0.0534586,
 "TxRefAmp": 214.219,
 "dcmmeta_affine": [
  [
   -2.0,
   9.237798792582907e-08,
   -2.494008731446229e-05,
   100.09884643554688
  ],
  [
   9.190073910758656e-07,
   1.9989010095596313,
   -0.06629329174757004,
   -95.54011535644531
  ],
  [
   -2.4923319870140404e-05,
   0.06629329174757004,
   1.9989010095596313,
   -63.81886672973633
  ],
  [
   0.0,
   0.0,
   0.0,
   1.0
  ]
 ],
 "dcmmeta_reorient_transform": [
  [
   0.0,
   -1.0,
   0.0,
   99.0
  ],
  [
   1.0,
   0.0,
   0.0,
   0.0
  ],
  [
   0.0,
   0.0,
   1.0,
   0.0
  ],
  [
   0.0,
   0.0,
   0.0,
   1.0
  ]
 ],
 "dcmmeta_shape": [
  100,
  100,
  72,
  150
 ],
 "dcmmeta_slice_dim": 2,
 "dcmmeta_version": 0.6,
 "global": {
  "const": {
   "AcquisitionMatrix": [
    100,
    0,
    0,
    100
   ],
   "AngioFlag": "N",
   "BitsAllocated": 16,
   "BitsStored": 12,
   "BodyPartExamined": "BRAIN",
   "Columns": 900,
   "EchoNumbers": 1,
   "EchoTime": 34.0,
   "EchoTrainLength": 100,
   "FlipAngle": 90.0,
   "HighBit": 11,
   "ImageOrientationPatient": [
    0.99999999992225,
    -4.595037e-07,
    -1.246166e-05,
    4.6188993e-08,
    0.99945049901382,
    -0.0331466441894
   ],
   "ImagePositionPatient": [
    -900.09889233151,
    -901.91111318248,
    -30.728547747005
   ],
   "ImageType": [
    "ORIGINAL",
    "PRIMARY",
    "M",
    "ND",
    "MOSAIC"
   ],
   "ImagedNucleus": "1H",
   "ImagingFrequency": 123.257766,
   "InPlanePhaseEncodingDirection": "COL",
   "MRAcquisitionType": "2D",
   "MagneticFieldStrength": 3.0,
   "Manufacturer": "SIEMENS",
   "ManufacturerModelName": "Prisma",
   "Modality": "MR",
   "NumberOfAverages": 1.0,
   "NumberOfPhaseEncodingSteps": 100,
   "PercentPhaseFieldOfView": 100.0,
   "PercentSampling": 100.0,
   "PerformedProcedureStepStartTime": "110417.131000",
   "PhotometricInterpretation": "MONOCHROME2",
   "PixelBandwidth": 2380.0,
   "PixelRepresentation": 0,
   "PixelSpacing": [
    2.0,
    2.0
   ],
   "ProtocolName": "bold_100x100_s3_2x2x2_cat_150",
   "RepetitionTime": 2000.0,
   "Rows": 900,
   "SAR": 0.08080550004819,
   "SamplesPerPixel": 1,
   "ScanOptions": "FS",
   "ScanningSequence": "EP",
   "SequenceName": "*epfid2d1_100",
   "SequenceVariant": "SK",
   "SeriesDescription": "bold_100x100_s3_2x2x2_cat_150",
   "SeriesNumber": 5,
   "SeriesTime": "112322.103000",
   "SliceLocation": -60.61821340579,
   "SliceThickness": 2.0,
   "SmallestImagePixelValue": 0,
   "SoftwareVersions": "syngo MR E11",
   "SpacingBetweenSlices": 1.9999999932748,
   "SpecificCharacterSet": "ISO_IR 100",
   "StudyID": "1",
   "StudyTime": "110417.034000",
   "TransmitCoilName": "Body",
   "VariableFlipAngleFlag": "N",
   "WindowCenterWidthExplanation": "Algo1",
   "dBdt": 0.0
  },
  "slices": {}
 },
 "time": {
  "samples": {
   "AcquisitionNumber": [
    1,
    2,
    3,
    4,
    5,
    6,
    7,
    8,
    9,
    10,
    11,
    12,
    13,
    14,
    15,
    16,
    17,
    18,
    19,
    20,
    21,
    22,
    23,
    24,
    25,
    26,
    27,
    28,
    29,
    30,
    31,
    32,
    33,
    34,
    35,
    36,
    37,
    38,
    39,
    40,
    41,
    42,
    43,
    44,
    45,
    46,
    47,
    48,
    49,
    50,
    51,
    52,
    53,
    54,
    55,
    56,
    57,
    58,
    59,
    60,
    61,
    62,
    63,
    64,
    65,
    66,
    67,
    68,
    69,
    70,
    71,
    72,
    73,
    74,
    75,
    76,
    77,
    78,
    79,
    80,
    81,
    82,
    83,
    84,
    85,
    86,
    87,
    88,
    89,
    90,
    91,
    92,
    93,
    94,
    95,
    96,
    97,
    98,
    99,
    100,
    101,
    102,
    103,
    104,
    105,
    106,
    107,
    108,
    109,
    110,
    111,
    112,
    113,
    114,
    115,
    116,
    117,
    118,
    119,
    120,
    121,
    122,
    123,
    124,
    125,
    126,
    127,
    128,
    129,
    130,
    131,
    132,
    133,
    134,
    135,
    136,
    137,
    138,
    139,
    140,
    141,
    142,
    143,
    144,
    145,
    146,
    147,
    148,
    149,
    150
   ],
   "AcquisitionTime": [
    "112319.020000",
    "112321.020000",
    "112323.020000",
    "112325.020000",
    "112327.020000",
    "112329.020000",
    "112331.020000",
    "112333.020000",
    "112335.020000",
    "112337.020000",
    "112339.020000",
    "112341.020000",
    "112343.020000",
    "112345.020000",
    "112347.020000",
    "112349.020000",
    "112351.020000",
    "112353.020000",
    "112355.020000",
    "112357.020000",
    "112359.020000",
    "112401.020000",
    "112403.020000",
    "112405.020000",
    "112407.020000",
    "112409.020000",
    "112411.020000",
    "112413.020000",
    "112415.020000",
    "112417.020000",
    "112419.020000",
    "112421.020000",
    "112423.020000",
    "112425.020000",
    "112427.020000",
    "112429.020000",
    "112431.020000",
    "112433.020000",
    "112435.020000",
    "112437.020000",
    "112439.020000",
    "112441.020000",
    "112443.020000",
    "112445.020000",
    "112447.020000",
    "112449.020000",
    "112451.020000",
    "112453.020000",
    "112455.020000",
    "112457.020000",
    "112459.020000",
    "112501.020000",
    "112503.020000",
    "112505.020000",
    "112507.020000",
    "112509.020000",
    "112511.020000",
    "112513.020000",
    "112515.020000",
    "112517.020000",
    "112519.020000",
    "112521.020000",
    "112523.020000",
    "112525.020000",
    "112527.020000",
    "112529.020000",
    "112531.020000",
    "112533.020000",
    "112535.020000",
    "112537.020000",
    "112539.020000",
    "112541.020000",
    "112543.020000",
    "112545.020000",
    "112547.020000",
    "112549.020000",
    "112551.020000",
    "112553.020000",
    "112555.020000",
    "112557.020000",
    "112559.020000",
    "112601.020000",
    "112603.020000",
    "112605.020000",
    "112607.020000",
    "112609.020000",
    "112611.020000",
    "112613.020000",
    "112615.020000",
    "112617.020000",
    "112619.020000",
    "112621.020000",
    "112623.020000",
    "112625.020000",
    "112627.020000",
    "112629.020000",
    "112631.020000",
    "112633.020000",
    "112635.020000",
    "112637.020000",
    "112639.020000",
    "112641.020000",
    "112643.020000",
    "112645.020000",
    "112647.020000",
    "112649.020000",
    "112651.020000",
    "112653.020000",
    "112655.020000",
    "112657.020000",
    "112659.020000",
    "112701.020000",
    "112703.020000",
    "112705.020000",
    "112707.020000",
    "112709.020000",
    "112711.020000",
    "112713.020000",
    "112715.020000",
    "112717.020000",
    "112719.020000",
    "112721.020000",
    "112723.020000",
    "112725.020000",
    "112727.020000",
    "112729.020000",
    "112731.020000",
    "112733.020000",
    "112735.020000",
    "112737.020000",
    "112739.020000",
    "112741.020000",
    "112743.020000",
    "112745.020000",
    "112747.020000",
    "112749.020000",
    "112751.020000",
    "112753.020000",
    "112755.020000",
    "112757.020000",
    "112759.020000",
    "112801.020000",
    "112803.020000",
    "112805.020000",
    "112807.020000",
    "112809.020000",
    "112811.020000",
    "112813.020000",
    "112815.020000",
    "112817.020000"
   ],
   "ContentTime": [
    "112322.107000",
    "112323.603000",
    "112325.603000",
    "112327.103000",
    "112329.604000",
    "112331.603000",
    "112333.604000",
    "112335.603000",
    "112337.102000",
    "112339.602000",
    "112341.602000",
    "112343.102000",
    "112345.603000",
    "112347.603000",
    "112349.603000",
    "112351.603000",
    "112353.603000",
    "112355.602000",
    "112357.103000",
    "112359.102000",
    "112401.604000",
    "112403.604000",
    "112405.603000",
    "112407.604000",
    "112409.603000",
    "112411.603000",
    "112413.103000",
    "112415.103000",
    "112417.103000",
    "112419.604000",
    "112421.103000",
    "112423.604000",
    "112425.604000",
    "112427.602000",
    "112429.602000",
    "112431.102000",
    "112433.602000",
    "112435.103000",
    "112437.603000",
    "112439.104000",
    "112441.603000",
    "112443.603000",
    "112445.603000",
    "112447.602000",
    "112449.603000",
    "112451.603000",
    "112453.604000",
    "112455.103000",
    "112457.604000",
    "112459.604000",
    "112501.103000",
    "112503.603000",
    "112505.603000",
    "112507.603000",
    "112509.602000",
    "112511.103000",
    "112513.603000",
    "112515.103000",
    "112517.603000",
    "112519.103000",
    "112521.103000",
    "112523.102000",
    "112525.603000",
    "112527.103000",
    "112529.103000",
    "112531.603000",
    "112533.103000",
    "112535.604000",
    "112537.102000",
    "112539.603000",
    "112541.602000",
    "112543.102000",
    "112545.603000",
    "112547.604000",
    "112549.604000",
    "112551.104000",
    "112553.604000",
    "112555.602000",
    "112557.604000",
    "112559.604000",
    "112601.103000",
    "112603.604000",
    "112605.604000",
    "112607.603000",
    "112609.103000",
    "112611.604000",
    "112613.603000",
    "112615.102000",
    "112617.103000",
    "112619.102000",
    "112621.103000",
    "112623.604000",
    "112625.103000",
    "112627.104000",
    "112629.603000",
    "112631.102000",
    "112633.103000",
    "112635.103000",
    "112637.602000",
    "112639.603000",
    "112641.604000",
    "112643.604000",
    "112645.604000",
    "112647.603000",
    "112649.602000",
    "112651.102000",
    "112653.602000",
    "112655.603000",
    "112657.103000",
    "112659.103000",
    "112701.603000",
    "112703.103000",
    "112705.602000",
    "112707.602000",
    "112709.603000",
    "112711.102000",
    "112713.604000",
    "112715.603000",
    "112717.104000",
    "112719.603000",
    "112721.604000",
    "112723.603000",
    "112725.603000",
    "112727.103000",
    "112729.603000",
    "112731.603000",
    "112733.603000",
    "112735.603000",
    "112737.603000",
    "112739.104000",
    "112741.603000",
    "112743.102000",
    "112745.603000",
    "112747.603000",
    "112749.604000",
    "112751.603000",
    "112753.604000",
    "112755.604000",
    "112757.602000",
    "112759.602000",
    "112801.602000",
    "112803.102000",
    "112805.603000",
    "112807.604000",
    "112809.604000",
    "112811.603000",
    "112813.103000",
    "112815.603000",
    "112817.603000",
    "112819.142000"
   ],
   "InstanceCreationTime": [
    "112322.107000",
    "112323.603000",
    "112325.603000",
    "112327.103000",
    "112329.604000",
    "112331.603000",
    "112333.604000",
    "112335.603000",
    "112337.102000",
    "112339.602000",
    "112341.602000",
    "112343.102000",
    "112345.603000",
    "112347.603000",
    "112349.603000",
    "112351.603000",
    "112353.603000",
    "112355.602000",
    "112357.103000",
    "112359.102000",
    "112401.604000",
    "112403.604000",
    "112405.603000",
    "112407.604000",
    "112409.603000",
    "112411.603000",
    "112413.103000",
    "112415.103000",
    "112417.103000",
    "112419.604000",
    "112421.103000",
    "112423.604000",
    "112425.604000",
    "112427.602000",
    "112429.602000",
    "112431.102000",
    "112433.602000",
    "112435.103000",
    "112437.603000",
    "112439.104000",
    "112441.603000",
    "112443.603000",
    "112445.603000",
    "112447.602000",
    "112449.603000",
    "112451.603000",
    "112453.604000",
    "112455.103000",
    "112457.604000",
    "112459.604000",
    "112501.103000",
    "112503.603000",
    "112505.603000",
    "112507.603000",
    "112509.602000",
    "112511.103000",
    "112513.603000",
    "112515.103000",
    "112517.603000",
    "112519.103000",
    "112521.103000",
    "112523.102000",
    "112525.603000",
    "112527.103000",
    "112529.103000",
    "112531.603000",
    "112533.103000",
    "112535.604000",
    "112537.102000",
    "112539.603000",
    "112541.602000",
    "112543.102000",
    "112545.603000",
    "112547.604000",
    "112549.604000",
    "112551.104000",
    "112553.604000",
    "112555.602000",
    "112557.604000",
    "112559.604000",
    "112601.103000",
    "112603.604000",
    "112605.604000",
    "112607.603000",
    "112609.103000",
    "112611.604000",
    "112613.603000",
    "112615.102000",
    "112617.103000",
    "112619.102000",
    "112621.103000",
    "112623.604000",
    "112625.103000",
    "112627.104000",
    "112629.603000",
    "112631.102000",
    "112633.103000",
    "112635.103000",
    "112637.602000",
    "112639.603000",
    "112641.604000",
    "112643.604000",
    "112645.604000",
    "112647.603000",
    "112649.602000",
    "112651.102000",
    "112653.602000",
    "112655.603000",
    "112657.103000",
    "112659.103000",
    "112701.603000",
    "112703.103000",
    "112705.602000",
    "112707.602000",
    "112709.603000",
    "112711.102000",
    "112713.604000",
    "112715.603000",
    "112717.104000",
    "112719.603000",
    "112721.604000",
    "112723.603000",
    "112725.603000",
    "112727.103000",
    "112729.603000",
    "112731.603000",
    "112733.603000",
    "112735.603000",
    "112737.603000",
    "112739.104000",
    "112741.603000",
    "112743.102000",
    "112745.603000",
    "112747.603000",
    "112749.604000",
    "112751.603000",
    "112753.604000",
    "112755.604000",
    "112757.602000",
    "112759.602000",
    "112801.602000",
    "112803.102000",
    "112805.603000",
    "112807.604000",
    "112809.604000",
    "112811.603000",
    "112813.103000",
    "112815.603000",
    "112817.603000",
    "112819.142000"
   ],
   "InstanceNumber": [
    1,
    2,
    3,
    4,
    5,
    6,
    7,
    8,
    9,
    10,
    11,
    12,
    13,
    14,
    15,
    16,
    17,
    18,
    19,
    20,
    21,
    22,
    23,
    24,
    25,
    26,
    27,
    28,
    29,
    30,
    31,
    32,
    33,
    34,
    35,
    36,
    37,
    38,
    39,
    40,
    41,
    42,
    43,
    44,
    45,
    46,
    47,
    48,
    49,
    50,
    51,
    52,
    53,
    54,
    55,
    56,
    57,
    58,
    59,
    60,
    61,
    62,
    63,
    64,
    65,
    66,
    67,
    68,
    69,
    70,
    71,
    72,
    73,
    74,
    75,
    76,
    77,
    78,
    79,
    80,
    81,
    82,
    83,
    84,
    85,
    86,
    87,
    88,
    89,
    90,
    91,
    92,
    93,
    94,
    95,
    96,
    97,
    98,
    99,
    100,
    101,
    102,
    103,
    104,
    105,
    106,
    107,
    108,
    109,
    110,
    111,
    112,
    113,
    114,
    115,
    116,
    117,
    118,
    119,
    120,
    121,
    122,
    123,
    124,
    125,
    126,
    127,
    128,
    129,
    130,
    131,
    132,
    133,
    134,
    135,
    136,
    137,
    138,
    139,
    140,
    141,
    142,
    143,
    144,
    145,
    146,
    147,
    148,
    149,
    150
   ],
   "LargestImagePixelValue": [
    3511,
    3455,
    3392,
    3353,
    3349,
    3328,
    3353,
    3359,
    3329,
    3387,
    3353,
    3348,
    3361,
    3356,
    3340,
    3398,
    3320,
    3357,
    3370,
    3411,
    3377,
    3368,
    3342,
    3375,
    3360,
    3381,
    3380,
    3376,
    3393,
    3354,
    3389,
    3340,
    3413,
    3350,
    3401,
    3337,
    3404,
    3407,
    3407,
    3353,
    3405,
    3449,
    3424,
    3405,
    3396,
    3441,
    3433,
    3503,
    3457,
    3449,
    3453,
    3420,
    3452,
    3446,
    3499,
    3415,
    3488,
    3454,
    3484,
    3470,
    3454,
    3492,
    3443,
    3482,
    3475,
    3465,
    3464,
    3489,
    3525,
    3460,
    3462,
    3483,
    3470,
    3510,
    3516,
    3516,
    3509,
    3518,
    3514,
    3465,
    3547,
    3538,
    3519,
    3531,
    3475,
    3534,
    3512,
    3519,
    3488,
    3537,
    3508,
    3485,
    3531,
    3509,
    3530,
    3532,
    3530,
    3513,
    3463,
    3492,
    3523,
    3500,
    3525,
    3496,
    3484,
    3530,
    3496,
    3542,
    3517,
    3542,
    3534,
    3507,
    3506,
    3511,
    3515,
    3487,
    3515,
    3493,
    3493,
    3476,
    3512,
    3447,
    3491,
    3485,
    3478,
    3476,
    3501,
    3516,
    3464,
    3491,
    3497,
    3516,
    3479,
    3490,
    3423,
    3438,
    3475,
    3465,
    3482,
    3471,
    3492,
    3463,
    3467,
    3439,
    3451,
    3494,
    3466,
    3475,
    3475,
    3386
   ],
   "WindowCenter": [
    762.0,
    760.0,
    760.0,
    760.0,
    762.0,
    762.0,
    762.0,
    761.0,
    760.0,
    761.0,
    761.0,
    760.0,
    760.0,
    760.0,
    760.0,
    761.0,
    760.0,
    759.0,
    759.0,
    760.0,
    761.0,
    761.0,
    760.0,
    759.0,
    760.0,
    761.0,
    761.0,
    759.0,
    759.0,
    759.0,
    761.0,
    760.0,
    760.0,
    759.0,
    760.0,
    760.0,
    760.0,
    759.0,
    760.0,
    760.0,
    761.0,
    760.0,
    760.0,
    759.0,
    760.0,
    761.0,
    761.0,
    760.0,
    760.0,
    761.0,
    761.0,
    760.0,
    760.0,
    761.0,
    762.0,
    761.0,
    761.0,
    761.0,
    761.0,
    762.0,
    762.0,
    762.0,
    762.0,
    763.0,
    762.0,
    761.0,
    761.0,
    761.0,
    762.0,
    762.0,
    761.0,
    761.0,
    761.0,
    761.0,
    763.0,
    762.0,
    761.0,
    760.0,
    761.0,
    762.0,
    763.0,
    762.0,
    761.0,
    761.0,
    762.0,
    763.0,
    762.0,
    761.0,
    760.0,
    760.0,
    760.0,
    761.0,
    763.0,
    762.0,
    762.0,
    761.0,
    760.0,
    760.0,
    760.0,
    762.0,
    762.0,
    761.0,
    762.0,
    762.0,
    761.0,
    762.0,
    761.0,
    761.0,
    761.0,
    762.0,
    762.0,
    761.0,
    760.0,
    761.0,
    763.0,
    763.0,
    762.0,
    761.0,
    761.0,
    760.0,
    760.0,
    760.0,
    760.0,
    759.0,
    761.0,
    763.0,
    763.0,
    762.0,
    760.0,
    760.0,
    761.0,
    762.0,
    760.0,
    760.0,
    759.0,
    760.0,
    760.0,
    761.0,
    762.0,
    763.0,
    762.0,
    760.0,
    759.0,
    759.0,
    761.0,
    761.0,
    761.0,
    761.0,
    760.0,
    759.0
   ],
   "WindowWidth": [
    1666.0,
    1659.0,
    1658.0,
    1658.0,
    1663.0,
    1665.0,
    1665.0,
    1661.0,
    1658.0,
    1660.0,
    1660.0,
    1659.0,
    1659.0,
    1658.0,
    1659.0,
    1662.0,
    1659.0,
    1657.0,
    1655.0,
    1657.0,
    1661.0,
    1661.0,
    1658.0,
    1656.0,
    1658.0,
    1661.0,
    1661.0,
    1654.0,
    1654.0,
    1657.0,
    1662.0,
    1659.0,
    1658.0,
    1656.0,
    1658.0,
    1658.0,
    1657.0,
    1656.0,
    1660.0,
    1659.0,
    1660.0,
    1658.0,
    1657.0,
    1656.0,
    1659.0,
    1661.0,
    1660.0,
    1659.0,
    1660.0,
    1662.0,
    1661.0,
    1658.0,
    1658.0,
    1661.0,
    1664.0,
    1661.0,
    1661.0,
    1662.0,
    1662.0,
    1663.0,
    1663.0,
    1664.0,
    1665.0,
    1667.0,
    1664.0,
    1661.0,
    1661.0,
    1662.0,
    1664.0,
    1663.0,
    1660.0,
    1660.0,
    1660.0,
    1661.0,
    1666.0,
    1665.0,
    1661.0,
    1658.0,
    1661.0,
    1663.0,
    1667.0,
    1664.0,
    1660.0,
    1661.0,
    1663.0,
    1665.0,
    1663.0,
    1660.0,
    1658.0,
    1659.0,
    1658.0,
    1662.0,
    1666.0,
    1665.0,
    1663.0,
    1661.0,
    1658.0,
    1657.0,
    1657.0,
    1665.0,
    1665.0,
    1662.0,
    1663.0,
    1663.0,
    1661.0,
    1663.0,
    1662.0,
    1662.0,
    1662.0,
    1664.0,
    1663.0,
    1660.0,
    1658.0,
    1661.0,
    1666.0,
    1665.0,
    1662.0,
    1661.0,
    1660.0,
    1657.0,
    1658.0,
    1656.0,
    1657.0,
    1655.0,
    1660.0,
    1666.0,
    1665.0,
    1663.0,
    1658.0,
    1659.0,
    1662.0,
    1664.0,
    1659.0,
    1656.0,
    1656.0,
    1657.0,
    1657.0,
    1661.0,
    1664.0,
    1667.0,
    1663.0,
    1658.0,
    1655.0,
    1656.0,
    1660.0,
    1660.0,
    1659.0,
    1660.0,
    1659.0,
    1654.0
   ]
  },
  "slices": {}
 }
}