{
 "AcquisitionMatrixPE": 100,
 "AcquisitionNumber": 1,
 "AcquisitionTime": "12:16:35.817500",
 "BandwidthPerPixelPhaseEncode": 18.519,
 "BaseResolution": 100,
 "BodyPartExamined": "BRAIN",
 "ConsistencyInfo": "N4_VE11C_LATEST_20160120",
 "ConversionSoftware": "dcm2niix",
 "ConversionSoftwareVersion": "v1.0.20180622 GCC4.9.2",
 "DerivedVendorReportedEchoSpacing": 0.000539986,
 "DeviceSerialNumber": "166078",
 "DwellTime": 2.1e-06,
 "EchoTime": 0.034,
 "EchoTrainLength": 100,
 "EffectiveEchoSpacing": 0.000539986,
 "FlipAngle": 90,
 "ImageOrientationPatientDICOM": [
  1,
  -4.59504e-07,
  -1.24617e-05,
  4.6189e-08,
  0.999451,
  -0.0331466
 ],
 "ImageType": [
  "ORIGINAL",
  "PRIMARY",
  "M",
  "ND",
  "MOSAIC"
 ],
 "InPlanePhaseEncodingDirectionDICOM": "COL",
 "InstitutionAddress": "Street_StreetNo_Bei_Jing_District_CN_ZIP",
 "InstitutionName": "BeiJing_Normal_University",
 "InstitutionalDepartmentName": "Department",
 "MRAcquisitionType": "2D",
 "MagneticFieldStrength": 3,
 "Manufacturer": "Siemens",
 "ManufacturersModelName": "Prisma",
 "Modality": "MR",
 "MultibandAccelerationFactor": 3,
 "PartialFourier": 1,
 "PatientPosition": "HFS",
 "PercentPhaseFOV": 100,
 "PhaseEncodingDirection": "j-",
 "PhaseEncodingSteps": 100,
 "PhaseResolution": 1,
 "PixelBandwidth": 2380,
 "ProcedureStepDescription": "BNU_P2018_64CH_Zhen.ZongLei",
 "ProtocolName": "bold_100x100_s3_2x2x2_cat_150",
 "PulseSequenceDetails": "%SiemensSeq%_ep2d_bold",
 "ReceiveCoilActiveElements": "HC1-7;NC1",
 "ReceiveCoilName": "HeadNeck_64",
 "ReconMatrixPE": 100,
 "RepetitionTime": 2,
 "SAR": 0.0808055,
 "ScanOptions": "FS",
 "ScanningSequence": "EP",
 "SequenceName": "_epfid2d1_100",
 "SequenceVariant": "SK",
 "SeriesDescription": "bold_100x100_s3_2x2x2_cat_150",
 "SeriesNumber": 14,
 "ShimSetting": [
  -5467,
  -11522,
  -1299,
  496,
  -16,
  -246,
  -103,
  19
 ],
 "SliceThickness": 2,
 "SliceTiming": [
  1.485,
  0,
  0.99,
  0.0825,
  1.0725,
  0.165,
  1.155,
  0.2475,
  1.2375,
  0.33,
  1.32,
  0.4125,
  1.4025,
  0.5775,
  1.5675,
  0.66,
  1.65,
  0.7425,
  1.7325,
  0.825,
  1.815,
  0.9075,
  1.8975,
  0.495,
  1.485,
  0,
  0.99,
  0.0825,
  1.0725,
  0.165,
  1.155,
  0.2475,
  1.2375,
  0.33,
  1.32,
  0.4125,
  1.4025,
  0.5775,
  1.5675,
  0.66,
  1.65,
  0.7425,
  1.7325,
  0.825,
  1.815,
  0.9075,
  1.8975,
  0.495,
  1.485,
  0,
  0.99,
  0.0825,
  1.0725,
  0.165,
  1.155,
  0.2475,
  1.2375,
  0.33,
  1.32,
  0.4125,
  1.4025,
  0.5775,
  1.5675,
  0.66,
  1.65,
  0.7425,
  1.7325,
  0.825,
  1.815,
  0.9075,
  1.8975,
  0.495
 ],
 "SoftwareVersions": "syngo_MR_E11",
 "SpacingBetweenSlices": 2,
 "StationName": "AWP166078",
 "TaskName": "floc",
 "TotalReadoutTime": 0.0534586,
 "TxRefAmp": 214.219,
 "dcmmeta_affine": [
  [
   -2.0,
   9.237798792582907e-08,
   -2.494008731446229e-05,
   100.09884643554688
  ],
  [
   9.190073910758656e-07,
   1.9989010095596313,
   -0.06629329174757004,
   -95.54011535644531
  ],
  [
   -2.4923319870140404e-05,
   0.06629329174757004,
   1.9989010095596313,
   -63.81886672973633
  ],
  [
   0.0,
   0.0,
   0.0,
   1.0
  ]
 ],
 "dcmmeta_reorient_transform": [
  [
   0.0,
   -1.0,
   0.0,
   99.0
  ],
  [
   1.0,
   0.0,
   0.0,
   0.0
  ],
  [
   0.0,
   0.0,
   1.0,
   0.0
  ],
  [
   0.0,
   0.0,
   0.0,
   1.0
  ]
 ],
 "dcmmeta_shape": [
  100,
  100,
  72,
  150
 ],
 "dcmmeta_slice_dim": 2,
 "dcmmeta_version": 0.6,
 "global": {
  "const": {
   "AcquisitionMatrix": [
    100,
    0,
    0,
    100
   ],
   "AngioFlag": "N",
   "BitsAllocated": 16,
   "BitsStored": 12,
   "BodyPartExamined": "BRAIN",
   "Columns": 900,
   "EchoNumbers": 1,
   "EchoTime": 34.0,
   "EchoTrainLength": 100,
   "FlipAngle": 90.0,
   "HighBit": 11,
   "ImageOrientationPatient": [
    0.99999999992225,
    -4.595037e-07,
    -1.246166e-05,
    4.6188993e-08,
    0.99945049901382,
    -0.0331466441894
   ],
   "ImagePositionPatient": [
    -900.09889233151,
    -901.91111318248,
    -30.728547747005
   ],
   "ImageType": [
    "ORIGINAL",
    "PRIMARY",
    "M",
    "ND",
    "MOSAIC"
   ],
   "ImagedNucleus": "1H",
   "ImagingFrequency": 123.257763,
   "InPlanePhaseEncodingDirection": "COL",
   "MRAcquisitionType": "2D",
   "MagneticFieldStrength": 3.0,
   "Manufacturer": "SIEMENS",
   "ManufacturerModelName": "Prisma",
   "Modality": "MR",
   "NumberOfAverages": 1.0,
   "NumberOfPhaseEncodingSteps": 100,
   "PercentPhaseFieldOfView": 100.0,
   "PercentSampling": 100.0,
   "PerformedProcedureStepStartTime": "110417.131000",
   "PhotometricInterpretation": "MONOCHROME2",
   "PixelBandwidth": 2380.0,
   "PixelRepresentation": 0,
   "PixelSpacing": [
    2.0,
    2.0
   ],
   "ProtocolName": "bold_100x100_s3_2x2x2_cat_150",
   "RepetitionTime": 2000.0,
   "Rows": 900,
   "SAR": 0.08080550004819,
   "SamplesPerPixel": 1,
   "ScanOptions": "FS",
   "ScanningSequence": "EP",
   "SequenceName": "*epfid2d1_100",
   "SequenceVariant": "SK",
   "SeriesDescription": "bold_100x100_s3_2x2x2_cat_150",
   "SeriesNumber": 14,
   "SeriesTime": "121637.987000",
   "SliceLocation": -60.61821340579,
   "SliceThickness": 2.0,
   "SmallestImagePixelValue": 0,
   "SoftwareVersions": "syngo MR E11",
   "SpacingBetweenSlices": 1.9999999932748,
   "SpecificCharacterSet": "ISO_IR 100",
   "StudyID": "1",
   "StudyTime": "110417.034000",
   "TransmitCoilName": "Body",
   "VariableFlipAngleFlag": "N",
   "WindowCenterWidthExplanation": "Algo1",
   "dBdt": 0.0
  },
  "slices": {}
 },
 "time": {
  "samples": {
   "AcquisitionNumber": [
    1,
    2,
    3,
    4,
    5,
    6,
    7,
    8,
    9,
    10,
    11,
    12,
    13,
    14,
    15,
    16,
    17,
    18,
    19,
    20,
    21,
    22,
    23,
    24,
    25,
    26,
    27,
    28,
    29,
    30,
    31,
    32,
    33,
    34,
    35,
    36,
    37,
    38,
    39,
    40,
    41,
    42,
    43,
    44,
    45,
    46,
    47,
    48,
    49,
    50,
    51,
    52,
    53,
    54,
    55,
    56,
    57,
    58,
    59,
    60,
    61,
    62,
    63,
    64,
    65,
    66,
    67,
    68,
    69,
    70,
    71,
    72,
    73,
    74,
    75,
    76,
    77,
    78,
    79,
    80,
    81,
    82,
    83,
    84,
    85,
    86,
    87,
    88,
    89,
    90,
    91,
    92,
    93,
    94,
    95,
    96,
    97,
    98,
    99,
    100,
    101,
    102,
    103,
    104,
    105,
    106,
    107,
    108,
    109,
    110,
    111,
    112,
    113,
    114,
    115,
    116,
    117,
    118,
    119,
    120,
    121,
    122,
    123,
    124,
    125,
    126,
    127,
    128,
    129,
    130,
    131,
    132,
    133,
    134,
    135,
    136,
    137,
    138,
    139,
    140,
    141,
    142,
    143,
    144,
    145,
    146,
    147,
    148,
    149,
    150
   ],
   "AcquisitionTime": [
    "121635.817500",
    "121637.817500",
    "121639.817500",
    "121641.817500",
    "121643.817500",
    "121645.817500",
    "121647.817500",
    "121649.817500",
    "121651.817500",
    "121653.817500",
    "121655.817500",
    "121657.817500",
    "121659.817500",
    "121701.817500",
    "121703.817500",
    "121705.817500",
    "121707.817500",
    "121709.817500",
    "121711.817500",
    "121713.817500",
    "121715.817500",
    "121717.817500",
    "121719.817500",
    "121721.817500",
    "121723.817500",
    "121725.817500",
    "121727.817500",
    "121729.817500",
    "121731.817500",
    "121733.817500",
    "121735.817500",
    "121737.817500",
    "121739.817500",
    "121741.817500",
    "121743.817500",
    "121745.817500",
    "121747.817500",
    "121749.817500",
    "121751.817500",
    "121753.817500",
    "121755.817500",
    "121757.817500",
    "121759.817500",
    "121801.817500",
    "121803.817500",
    "121805.817500",
    "121807.817500",
    "121809.817500",
    "121811.817500",
    "121813.817500",
    "121815.817500",
    "121817.817500",
    "121819.817500",
    "121821.817500",
    "121823.817500",
    "121825.817500",
    "121827.817500",
    "121829.817500",
    "121831.817500",
    "121833.817500",
    "121835.817500",
    "121837.817500",
    "121839.817500",
    "121841.817500",
    "121843.817500",
    "121845.817500",
    "121847.817500",
    "121849.817500",
    "121851.817500",
    "121853.817500",
    "121855.817500",
    "121857.817500",
    "121859.817500",
    "121901.817500",
    "121903.817500",
    "121905.817500",
    "121907.817500",
    "121909.817500",
    "121911.817500",
    "121913.817500",
    "121915.817500",
    "121917.817500",
    "121919.817500",
    "121921.817500",
    "121923.817500",
    "121925.817500",
    "121927.817500",
    "121929.817500",
    "121931.817500",
    "121933.817500",
    "121935.817500",
    "121937.817500",
    "121939.817500",
    "121941.817500",
    "121943.817500",
    "121945.817500",
    "121947.817500",
    "121949.817500",
    "121951.817500",
    "121953.817500",
    "121955.817500",
    "121957.817500",
    "121959.817500",
    "122001.817500",
    "122003.817500",
    "122005.817500",
    "122007.817500",
    "122009.817500",
    "122011.817500",
    "122013.817500",
    "122015.817500",
    "122017.817500",
    "122019.817500",
    "122021.817500",
    "122023.817500",
    "122025.817500",
    "122027.817500",
    "122029.817500",
    "122031.817500",
    "122033.817500",
    "122035.817500",
    "122037.817500",
    "122039.817500",
    "122041.817500",
    "122043.817500",
    "122045.817500",
    "122047.817500",
    "122049.817500",
    "122051.817500",
    "122053.817500",
    "122055.817500",
    "122057.817500",
    "122059.817500",
    "122101.817500",
    "122103.817500",
    "122105.817500",
    "122107.817500",
    "122109.817500",
    "122111.817500",
    "122113.817500",
    "122115.817500",
    "122117.817500",
    "122119.817500",
    "122121.817500",
    "122123.817500",
    "122125.817500",
    "122127.817500",
    "122129.817500",
    "122131.817500",
    "122133.817500"
   ],
   "ContentTime": [
    "121637.990000",
    "121639.486000",
    "121641.486000",
    "121643.486000",
    "121645.486000",
    "121647.486000",
    "121649.486000",
    "121651.485000",
    "121653.486000",
    "121655.485000",
    "121657.485000",
    "121659.486000",
    "121701.485000",
    "121703.486000",
    "121705.487000",
    "121707.486000",
    "121709.486000",
    "121711.485000",
    "121713.485000",
    "121715.485000",
    "121717.486000",
    "121719.486000",
    "121721.486000",
    "121723.486000",
    "121725.486000",
    "121727.485000",
    "121729.485000",
    "121731.485000",
    "121733.486000",
    "121735.485000",
    "121737.486000",
    "121739.486000",
    "121741.487000",
    "121743.486000",
    "121745.485000",
    "121747.485000",
    "121749.485000",
    "121751.485000",
    "121753.486000",
    "121755.487000",
    "121757.486000",
    "121759.487000",
    "121801.485000",
    "121803.485000",
    "121805.485000",
    "121807.486000",
    "121809.486000",
    "121811.486000",
    "121813.487000",
    "121815.486000",
    "121817.485000",
    "121819.486000",
    "121821.486000",
    "121823.486000",
    "121825.486000",
    "121827.486000",
    "121829.485000",
    "121831.486000",
    "121833.486000",
    "121835.485000",
    "121837.485000",
    "121839.485000",
    "121841.485000",
    "121843.485000",
    "121845.486000",
    "121847.486000",
    "121849.487000",
    "121851.486000",
    "121853.485000",
    "121855.486000",
    "121857.486000",
    "121859.485000",
    "121901.485000",
    "121903.485000",
    "121905.486000",
    "121907.486000",
    "121909.486000",
    "121911.486000",
    "121913.486000",
    "121915.486000",
    "121917.485000",
    "121919.486000",
    "121921.486000",
    "121923.486000",
    "121925.487000",
    "121927.486000",
    "121929.486000",
    "121931.486000",
    "121933.486000",
    "121935.486000",
    "121937.486000",
    "121939.485000",
    "121941.486000",
    "121943.487000",
    "121945.485000",
    "121947.486000",
    "121949.485000",
    "121951.485000",
    "121953.485000",
    "121955.486000",
    "121957.485000",
    "121959.487000",
    "122001.486000",
    "122003.485000",
    "122005.486000",
    "122007.486000",
    "122009.486000",
    "122011.485000",
    "122013.486000",
    "122015.486000",
    "122017.486000",
    "122019.486000",
    "122021.485000",
    "122023.485000",
    "122025.485000",
    "122027.486000",
    "122029.486000",
    "122031.485000",
    "122033.487000",
    "122035.487000",
    "122037.486000",
    "122039.485000",
    "122041.485000",
    "122043.485000",
    "122045.485000",
    "122047.485000",
    "122049.485000",
    "122051.486000",
    "122053.487000",
    "122055.485000",
    "122057.486000",
    "122059.485000",
    "122101.486000",
    "122103.486000",
    "122105.486000",
    "122107.485000",
    "122109.487000",
    "122111.486000",
    "122113.486000",
    "122115.486000",
    "122117.485000",
    "122119.486000",
    "122121.485000",
    "122123.486000",
    "122125.487000",
    "122127.486000",
    "122129.486000",
    "122131.486000",
    "122133.485000",
    "122135.293000"
   ],
   "InstanceCreationTime": [
    "121637.990000",
    "121639.486000",
    "121641.486000",
    "121643.486000",
    "121645.486000",
    "121647.486000",
    "121649.486000",
    "121651.485000",
    "121653.486000",
    "121655.485000",
    "121657.485000",
    "121659.486000",
    "121701.485000",
    "121703.486000",
    "121705.487000",
    "121707.486000",
    "121709.486000",
    "121711.485000",
    "121713.485000",
    "121715.485000",
    "121717.486000",
    "121719.486000",
    "121721.486000",
    "121723.486000",
    "121725.486000",
    "121727.485000",
    "121729.485000",
    "121731.485000",
    "121733.486000",
    "121735.485000",
    "121737.486000",
    "121739.486000",
    "121741.487000",
    "121743.486000",
    "121745.485000",
    "121747.485000",
    "121749.485000",
    "121751.485000",
    "121753.486000",
    "121755.487000",
    "121757.486000",
    "121759.487000",
    "121801.485000",
    "121803.485000",
    "121805.485000",
    "121807.486000",
    "121809.486000",
    "121811.486000",
    "121813.487000",
    "121815.486000",
    "121817.485000",
    "121819.486000",
    "121821.486000",
    "121823.486000",
    "121825.486000",
    "121827.486000",
    "121829.485000",
    "121831.486000",
    "121833.486000",
    "121835.485000",
    "121837.485000",
    "121839.485000",
    "121841.485000",
    "121843.485000",
    "121845.486000",
    "121847.486000",
    "121849.487000",
    "121851.486000",
    "121853.485000",
    "121855.486000",
    "121857.486000",
    "121859.485000",
    "121901.485000",
    "121903.485000",
    "121905.486000",
    "121907.486000",
    "121909.486000",
    "121911.486000",
    "121913.486000",
    "121915.486000",
    "121917.485000",
    "121919.486000",
    "121921.486000",
    "121923.486000",
    "121925.487000",
    "121927.486000",
    "121929.486000",
    "121931.486000",
    "121933.486000",
    "121935.486000",
    "121937.486000",
    "121939.485000",
    "121941.486000",
    "121943.487000",
    "121945.485000",
    "121947.486000",
    "121949.485000",
    "121951.485000",
    "121953.485000",
    "121955.486000",
    "121957.485000",
    "121959.487000",
    "122001.486000",
    "122003.485000",
    "122005.486000",
    "122007.486000",
    "122009.486000",
    "122011.485000",
    "122013.486000",
    "122015.486000",
    "122017.486000",
    "122019.486000",
    "122021.485000",
    "122023.485000",
    "122025.485000",
    "122027.486000",
    "122029.486000",
    "122031.485000",
    "122033.487000",
    "122035.487000",
    "122037.486000",
    "122039.485000",
    "122041.485000",
    "122043.485000",
    "122045.485000",
    "122047.485000",
    "122049.485000",
    "122051.486000",
    "122053.487000",
    "122055.485000",
    "122057.486000",
    "122059.485000",
    "122101.486000",
    "122103.486000",
    "122105.486000",
    "122107.485000",
    "122109.487000",
    "122111.486000",
    "122113.486000",
    "122115.486000",
    "122117.485000",
    "122119.486000",
    "122121.485000",
    "122123.486000",
    "122125.487000",
    "122127.486000",
    "122129.486000",
    "122131.486000",
    "122133.485000",
    "122135.293000"
   ],
   "InstanceNumber": [
    1,
    2,
    3,
    4,
    5,
    6,
    7,
    8,
    9,
    10,
    11,
    12,
    13,
    14,
    15,
    16,
    17,
    18,
    19,
    20,
    21,
    22,
    23,
    24,
    25,
    26,
    27,
    28,
    29,
    30,
    31,
    32,
    33,
    34,
    35,
    36,
    37,
    38,
    39,
    40,
    41,
    42,
    43,
    44,
    45,
    46,
    47,
    48,
    49,
    50,
    51,
    52,
    53,
    54,
    55,
    56,
    57,
    58,
    59,
    60,
    61,
    62,
    63,
    64,
    65,
    66,
    67,
    68,
    69,
    70,
    71,
    72,
    73,
    74,
    75,
    76,
    77,
    78,
    79,
    80,
    81,
    82,
    83,
    84,
    85,
    86,
    87,
    88,
    89,
    90,
    91,
    92,
    93,
    94,
    95,
    96,
    97,
    98,
    99,
    100,
    101,
    102,
    103,
    104,
    105,
    106,
    107,
    108,
    109,
    110,
    111,
    112,
    113,
    114,
    115,
    116,
    117,
    118,
    119,
    120,
    121,
    122,
    123,
    124,
    125,
    126,
    127,
    128,
    129,
    130,
    131,
    132,
    133,
    134,
    135,
    136,
    137,
    138,
    139,
    140,
    141,
    142,
    143,
    144,
    145,
    146,
    147,
    148,
    149,
    150
   ],
   "LargestImagePixelValue": [
    2995,
    3027,
    2939,
    2940,
    2916,
    2952,
    2949,
    2917,
    2919,
    2933,
    2890,
    2914,
    2899,
    2961,
    2942,
    2884,
    2907,
    2905,
    2931,
    2932,
    2956,
    2930,
    2970,
    2937,
    2901,
    2932,
    2936,
    2944,
    2925,
    2938,
    2980,
    2954,
    3015,
    2917,
    2976,
    2962,
    2942,
    2992,
    2963,
    3005,
    2935,
    2976,
    2937,
    2963,
    2940,
    2975,
    2942,
    2932,
    2954,
    2977,
    2947,
    2953,
    2963,
    2983,
    2924,
    2976,
    2977,
    2959,
    3009,
    3014,
    2983,
    2970,
    2987,
    2986,
    2975,
    2950,
    2974,
    2986,
    2977,
    2980,
    2958,
    2996,
    2966,
    2988,
    2985,
    2998,
    2971,
    2976,
    2886,
    2954,
    2915,
    2928,
    2942,
    2947,
    2951,
    2934,
    2960,
    2955,
    2935,
    2927,
    2961,
    2928,
    2923,
    2955,
    2945,
    2958,
    2936,
    2928,
    2941,
    2928,
    2946,
    2930,
    2939,
    2936,
    2947,
    2943,
    2973,
    2925,
    2942,
    2933,
    2910,
    2914,
    2908,
    2904,
    2933,
    2912,
    2898,
    2912,
    2913,
    2899,
    2896,
    2866,
    2915,
    2886,
    2924,
    2902,
    2868,
    2930,
    2883,
    2873,
    2869,
    2867,
    2879,
    2876,
    2883,
    2863,
    2900,
    2911,
    2916,
    2927,
    2883,
    2907,
    2887,
    2854,
    2910,
    2864,
    2849,
    2862,
    2910,
    2858
   ],
   "WindowCenter": [
    750.0,
    750.0,
    749.0,
    750.0,
    752.0,
    751.0,
    750.0,
    749.0,
    749.0,
    749.0,
    749.0,
    749.0,
    750.0,
    750.0,
    749.0,
    748.0,
    749.0,
    749.0,
    749.0,
    748.0,
    747.0,
    748.0,
    748.0,
    748.0,
    747.0,
    748.0,
    748.0,
    749.0,
    749.0,
    748.0,
    749.0,
    750.0,
    750.0,
    749.0,
    750.0,
    749.0,
    749.0,
    749.0,
    748.0,
    749.0,
    749.0,
    749.0,
    748.0,
    749.0,
    748.0,
    748.0,
    748.0,
    748.0,
    748.0,
    749.0,
    748.0,
    747.0,
    747.0,
    749.0,
    749.0,
    750.0,
    749.0,
    748.0,
    749.0,
    749.0,
    748.0,
    747.0,
    748.0,
    750.0,
    749.0,
    747.0,
    746.0,
    747.0,
    749.0,
    749.0,
    747.0,
    748.0,
    748.0,
    747.0,
    747.0,
    748.0,
    748.0,
    748.0,
    747.0,
    748.0,
    749.0,
    748.0,
    748.0,
    748.0,
    747.0,
    748.0,
    747.0,
    746.0,
    746.0,
    746.0,
    747.0,
    746.0,
    746.0,
    747.0,
    746.0,
    745.0,
    745.0,
    746.0,
    747.0,
    748.0,
    748.0,
    746.0,
    747.0,
    747.0,
    747.0,
    747.0,
    747.0,
    747.0,
    747.0,
    749.0,
    749.0,
    748.0,
    746.0,
    747.0,
    748.0,
    748.0,
    747.0,
    748.0,
    748.0,
    748.0,
    747.0,
    747.0,
    747.0,
    747.0,
    747.0,
    747.0,
    747.0,
    748.0,
    747.0,
    747.0,
    746.0,
    746.0,
    747.0,
    748.0,
    748.0,
    747.0,
    747.0,
    749.0,
    750.0,
    748.0,
    746.0,
    746.0,
    747.0,
    747.0,
    748.0,
    748.0,
    747.0,
    747.0,
    747.0,
    746.0
   ],
   "WindowWidth": [
    1628.0,
    1627.0,
    1624.0,
    1628.0,
    1633.0,
    1631.0,
    1627.0,
    1624.0,
    1624.0,
    1625.0,
    1624.0,
    1626.0,
    1626.0,
    1627.0,
    1624.0,
    1621.0,
    1624.0,
    1624.0,
    1623.0,
    1621.0,
    1620.0,
    1623.0,
    1622.0,
    1621.0,
    1619.0,
    1622.0,
    1622.0,
    1626.0,
    1626.0,
    1622.0,
    1623.0,
    1626.0,
    1627.0,
    1625.0,
    1626.0,
    1625.0,
    1623.0,
    1623.0,
    1622.0,
    1625.0,
    1625.0,
    1623.0,
    1622.0,
    1624.0,
    1623.0,
    1622.0,
    1622.0,
    1620.0,
    1621.0,
    1623.0,
    1621.0,
    1619.0,
    1620.0,
    1623.0,
    1625.0,
    1627.0,
    1624.0,
    1621.0,
    1623.0,
    1625.0,
    1621.0,
    1619.0,
    1622.0,
    1627.0,
    1625.0,
    1619.0,
    1616.0,
    1619.0,
    1624.0,
    1624.0,
    1619.0,
    1622.0,
    1621.0,
    1620.0,
    1619.0,
    1620.0,
    1623.0,
    1622.0,
    1619.0,
    1623.0,
    1623.0,
    1621.0,
    1622.0,
    1621.0,
    1620.0,
    1621.0,
    1620.0,
    1616.0,
    1615.0,
    1616.0,
    1618.0,
    1616.0,
    1617.0,
    1619.0,
    1616.0,
    1614.0,
    1614.0,
    1616.0,
    1619.0,
    1621.0,
    1620.0,
    1616.0,
    1618.0,
    1618.0,
    1618.0,
    1620.0,
    1619.0,
    1619.0,
    1619.0,
    1623.0,
    1624.0,
    1621.0,
    1617.0,
    1618.0,
    1622.0,
    1621.0,
    1620.0,
    1623.0,
    1622.0,
    1621.0,
    1620.0,
    1618.0,
    1620.0,
    1618.0,
    1619.0,
    1618.0,
    1619.0,
    1623.0,
    1619.0,
    1619.0,
    1617.0,
    1615.0,
    1619.0,
    1622.0,
    1621.0,
    1618.0,
    1619.0,
    1624.0,
    1626.0,
    1620.0,
    1616.0,
    1617.0,
    1619.0,
    1620.0,
    1621.0,
    1621.0,
    1619.0,
    1618.0,
    1619.0,
    1615.0
   ]
  },
  "slices": {}
 }
}