{
  "AcquisitionMatrixPE": 100,
  "AcquisitionNumber": 1,
  "AcquisitionTime": "13:27:45.835000",
  "BandwidthPerPixelPhaseEncode": 18.519,
  "BaseResolution": 100,
  "BodyPartExamined": "BRAIN",
  "ConsistencyInfo": "N4_VE11C_LATEST_20160120",
  "ConversionSoftware": "dcm2niix",
  "ConversionSoftwareVersion": "v1.0.20180622 GCC4.9.2",
  "DerivedVendorReportedEchoSpacing": 0.000539986,
  "DeviceSerialNumber": "166078",
  "DwellTime": 2.1e-06,
  "EchoTime": 0.034,
  "EchoTrainLength": 100,
  "EffectiveEchoSpacing": 0.000539986,
  "FlipAngle": 90,
  "ImageOrientationPatientDICOM": [0.999535, -0.00861161, -0.0292462, -1.59786e-08, 0.959278, -0.282462],
  "ImageType": [
    "ORIGINAL",
    "PRIMARY",
    "M",
    "ND",
    "MOSAIC"
],
  "InPlanePhaseEncodingDirectionDICOM": "COL",
  "InstitutionAddress": "Street_StreetNo_Bei_Jing_District_CN_ZIP",
  "InstitutionName": "BeiJing_Normal_University",
  "InstitutionalDepartmentName": "Department",
  "MRAcquisitionType": "2D",
  "MagneticFieldStrength": 3,
  "Manufacturer": "Siemens",
  "ManufacturersModelName": "Prisma",
  "Modality": "MR",
  "MultibandAccelerationFactor": 3,
  "PartialFourier": 1,
  "PatientPosition": "HFS",
  "PercentPhaseFOV": 100,
  "PhaseEncodingDirection": "j-",
  "PhaseEncodingSteps": 100,
  "PhaseResolution": 1,
  "PixelBandwidth": 2380,
  "ProcedureStepDescription": "BNU_P2018_64CH_Zhen.ZongLei",
  "ProtocolName": "bold_100x100_s3_2x2x2_static_256",
  "PulseSequenceDetails": "%SiemensSeq%_ep2d_bold",
  "ReceiveCoilActiveElements": "HC1-7;NC1",
  "ReceiveCoilName": "HeadNeck_64",
  "ReconMatrixPE": 100,
  "RepetitionTime": 2,
  "SAR": 0.065753,
  "ScanOptions": "FS",
  "ScanningSequence": "EP",
  "SequenceName": "_epfid2d1_100",
  "SequenceVariant": "SK",
  "SeriesDescription": "bold_100x100_s3_2x2x2_static_256",
  "SeriesNumber": 5,
  "ShimSetting": [-5454, -11448, -1307, 395, -11, -450, -256, 67],
  "SliceThickness": 2,
  "SliceTiming": [1.485, 0, 0.99, 0.0825, 1.0725, 0.165, 1.155, 0.2475, 1.2375, 0.33, 1.32, 0.4125, 1.4025, 0.5775, 1.5675, 0.66, 1.65, 0.7425, 1.7325, 0.825, 1.815, 0.9075, 1.8975, 0.495, 1.485, 0, 0.99, 0.0825, 1.0725, 0.165, 1.155, 0.2475, 1.2375, 0.33, 1.32, 0.4125, 1.4025, 0.5775, 1.5675, 0.66, 1.65, 0.7425, 1.7325, 0.825, 1.815, 0.9075, 1.8975, 0.495, 1.485, 0, 0.99, 0.0825, 1.0725, 0.165, 1.155, 0.2475, 1.2375, 0.33, 1.32, 0.4125, 1.4025, 0.5775, 1.5675, 0.66, 1.65, 0.7425, 1.7325, 0.825, 1.815, 0.9075, 1.8975, 0.495],
  "SoftwareVersions": "syngo_MR_E11",
  "SpacingBetweenSlices": 2,
  "StationName": "AWP166078",
  "TaskName": "naturalvision",
  "TotalReadoutTime": 0.0534586,
  "TxRefAmp": 212.528,
  "dcmmeta_affine": [
    [-1.9990702867507935, -3.195725994942222e-08, -0.06097547337412834, 100.78273010253906],
    [0.01722322404384613, 1.9185569286346436, -0.56466144323349, -73.45836639404297],
    [-0.05849246680736542, 0.5649240612983704, 1.9176651239395142, -109.64268493652344],
    [0.0, 0.0, 0.0, 1.0]
],
  "dcmmeta_reorient_transform": [
    [0.0, -1.0, 0.0, 99.0],
    [1.0, 0.0, 0.0, 0.0],
    [0.0, 0.0, 1.0, 0.0],
    [0.0, 0.0, 0.0, 1.0]
],
  "dcmmeta_shape": [100, 100, 72, 256],
  "dcmmeta_slice_dim": 2,
  "dcmmeta_version": 0.6,
  "global": {
    "const": {
      "AcquisitionMatrix": [100, 0, 0, 100],
      "AngioFlag": "N",
      "BitsAllocated": 16,
      "BitsStored": 12,
      "BodyPartExamined": "BRAIN",
      "Columns": 900,
      "EchoNumbers": 1,
      "EchoTime": 34.0,
      "EchoTrainLength": 100,
      "FlipAngle": 90.0,
      "HighBit": 11,
      "ImageOrientationPatient": [0.99953514094058, -0.0086116119732, -0.029246233332, -1.597863e-08, 0.95927848362654, -0.2824620166521],
      "ImagePositionPatient": [-900.41082656182, -877.01227288217, 195.65139288121],
      "ImageType": [
        "ORIGINAL",
        "PRIMARY",
        "M",
        "ND",
        "MOSAIC"
],
      "ImagedNucleus": "1H",
      "ImagingFrequency": 123.257792,
      "InPlanePhaseEncodingDirection": "COL",
      "MRAcquisitionType": "2D",
      "MagneticFieldStrength": 3.0,
      "Manufacturer": "SIEMENS",
      "ManufacturerModelName": "Prisma",
      "Modality": "MR",
      "NumberOfAverages": 1.0,
      "NumberOfPhaseEncodingSteps": 100,
      "PercentPhaseFieldOfView": 100.0,
      "PercentSampling": 100.0,
      "PerformedProcedureStepStartTime": "130522.753000",
      "PhotometricInterpretation": "MONOCHROME2",
      "PixelBandwidth": 2380.0,
      "PixelRepresentation": 0,
      "PixelSpacing": [2.0, 2.0],
      "ProtocolName": "bold_100x100_s3_2x2x2_static_256",
      "RepetitionTime": 2000.0,
      "Rows": 900,
      "SAR": 0.06575302915584,
      "SamplesPerPixel": 1,
      "ScanOptions": "FS",
      "ScanningSequence": "EP",
      "SequenceName": "*epfid2d1_100",
      "SequenceVariant": "SK",
      "SeriesDescription": "bold_100x100_s3_2x2x2_static_256",
      "SeriesNumber": 5,
      "SeriesTime": "132747.901000",
      "SliceLocation": -87.462062002114,
      "SliceThickness": 2.0,
      "SmallestImagePixelValue": 0,
      "SoftwareVersions": "syngo MR E11",
      "SpacingBetweenSlices": 2.0000000244009,
      "SpecificCharacterSet": "ISO_IR 100",
      "StudyID": "1",
      "StudyTime": "130522.632000",
      "TransmitCoilName": "Body",
      "VariableFlipAngleFlag": "N",
      "WindowCenterWidthExplanation": "Algo1",
      "dBdt": 0.0},
    "slices": {}
  },
  "time": {
    "samples": {
      "AcquisitionNumber": [1, 2, 3, 4, 5, 6, 7, 8, 9, 10, 11, 12, 13, 14, 15, 16, 17, 18, 19, 20, 21, 22, 23, 24, 25, 26, 27, 28, 29, 30, 31, 32, 33, 34, 35, 36, 37, 38, 39, 40, 41, 42, 43, 44, 45, 46, 47, 48, 49, 50, 51, 52, 53, 54, 55, 56, 57, 58, 59, 60, 61, 62, 63, 64, 65, 66, 67, 68, 69, 70, 71, 72, 73, 74, 75, 76, 77, 78, 79, 80, 81, 82, 83, 84, 85, 86, 87, 88, 89, 90, 91, 92, 93, 94, 95, 96, 97, 98, 99, 100, 101, 102, 103, 104, 105, 106, 107, 108, 109, 110, 111, 112, 113, 114, 115, 116, 117, 118, 119, 120, 121, 122, 123, 124, 125, 126, 127, 128, 129, 130, 131, 132, 133, 134, 135, 136, 137, 138, 139, 140, 141, 142, 143, 144, 145, 146, 147, 148, 149, 150, 151, 152, 153, 154, 155, 156, 157, 158, 159, 160, 161, 162, 163, 164, 165, 166, 167, 168, 169, 170, 171, 172, 173, 174, 175, 176, 177, 178, 179, 180, 181, 182, 183, 184, 185, 186, 187, 188, 189, 190, 191, 192, 193, 194, 195, 196, 197, 198, 199, 200, 201, 202, 203, 204, 205, 206, 207, 208, 209, 210, 211, 212, 213, 214, 215, 216, 217, 218, 219, 220, 221, 222, 223, 224, 225, 226, 227, 228, 229, 230, 231, 232, 233, 234, 235, 236, 237, 238, 239, 240, 241, 242, 243, 244, 245, 246, 247, 248, 249, 250, 251, 252, 253, 254, 255, 256],
      "AcquisitionTime": ["132745.835000", "132747.835000", "132749.835000", "132751.835000", "132753.835000", "132755.835000", "132757.835000", "132759.835000", "132801.835000", "132803.835000", "132805.835000", "132807.835000", "132809.835000", "132811.835000", "132813.835000", "132815.835000", "132817.835000", "132819.835000", "132821.835000", "132823.835000", "132825.835000", "132827.835000", "132829.835000", "132831.835000", "132833.835000", "132835.835000", "132837.835000", "132839.835000", "132841.835000", "132843.835000", "132845.835000", "132847.835000", "132849.835000", "132851.835000", "132853.835000", "132855.835000", "132857.835000", "132859.835000", "132901.835000", "132903.835000", "132905.835000", "132907.835000", "132909.835000", "132911.835000", "132913.835000", "132915.835000", "132917.835000", "132919.835000", "132921.835000", "132923.835000", "132925.835000", "132927.835000", "132929.835000", "132931.835000", "132933.835000", "132935.835000", "132937.835000", "132939.835000", "132941.835000", "132943.835000", "132945.835000", "132947.835000", "132949.835000", "132951.835000", "132953.835000", "132955.835000", "132957.835000", "132959.835000", "133001.835000", "133003.835000", "133005.835000", "133007.835000", "133009.835000", "133011.835000", "133013.835000", "133015.835000", "133017.835000", "133019.835000", "133021.835000", "133023.835000", "133025.835000", "133027.835000", "133029.835000", "133031.835000", "133033.835000", "133035.835000", "133037.835000", "133039.835000", "133041.835000", "133043.835000", "133045.835000", "133047.835000", "133049.835000", "133051.835000", "133053.835000", "133055.835000", "133057.835000", "133059.835000", "133101.835000", "133103.835000", "133105.835000", "133107.835000", "133109.835000", "133111.835000", "133113.835000", "133115.835000", "133117.835000", "133119.835000", "133121.835000", "133123.835000", "133125.835000", "133127.835000", "133129.835000", "133131.835000", "133133.835000", "133135.835000", "133137.835000", "133139.835000", "133141.835000", "133143.835000", "133145.835000", "133147.835000", "133149.835000", "133151.835000", "133153.835000", "133155.835000", "133157.835000", "133159.835000", "133201.835000", "133203.835000", "133205.835000", "133207.835000", "133209.835000", "133211.835000", "133213.835000", "133215.835000", "133217.835000", "133219.835000", "133221.835000", "133223.835000", "133225.835000", "133227.835000", "133229.835000", "133231.835000", "133233.835000", "133235.835000", "133237.835000", "133239.835000", "133241.835000", "133243.835000", "133245.835000", "133247.835000", "133249.835000", "133251.835000", "133253.835000", "133255.835000", "133257.835000", "133259.835000", "133301.835000", "133303.835000", "133305.835000", "133307.835000", "133309.835000", "133311.835000", "133313.835000", "133315.835000", "133317.835000", "133319.835000", "133321.835000", "133323.835000", "133325.835000", "133327.835000", "133329.835000", "133331.835000", "133333.835000", "133335.835000", "133337.835000", "133339.835000", "133341.835000", "133343.835000", "133345.835000", "133347.835000", "133349.835000", "133351.835000", "133353.835000", "133355.835000", "133357.835000", "133359.835000", "133401.835000", "133403.835000", "133405.835000", "133407.835000", "133409.835000", "133411.835000", "133413.835000", "133415.835000", "133417.835000", "133419.835000", "133421.835000", "133423.835000", "133425.835000", "133427.835000", "133429.835000", "133431.835000", "133433.835000", "133435.835000", "133437.835000", "133439.835000", "133441.835000", "133443.835000", "133445.835000", "133447.835000", "133449.835000", "133451.835000", "133453.835000", "133455.835000", "133457.835000", "133459.835000", "133501.835000", "133503.835000", "133505.835000", "133507.835000", "133509.835000", "133511.835000", "133513.835000", "133515.835000", "133517.835000", "133519.835000", "133521.835000", "133523.835000", "133525.835000", "133527.835000", "133529.835000", "133531.835000", "133533.835000", "133535.835000", "133537.835000", "133539.835000", "133541.835000", "133543.835000", "133545.835000", "133547.835000", "133549.835000", "133551.835000", "133553.835000", "133555.835000", "133557.835000", "133559.835000", "133601.835000", "133603.835000", "133605.835000", "133607.835000", "133609.835000", "133611.835000", "133613.835000", "133615.835000"],
      "ContentTime": ["132747.904000", "132749.400000", "132751.400000", "132753.399000", "132755.399000", "132757.399000", "132759.400000", "132801.399000", "132803.400000", "132805.399000", "132807.401000", "132809.399000", "132811.400000", "132813.399000", "132815.400000", "132817.399000", "132819.399000", "132821.400000", "132823.400000", "132825.400000", "132827.399000", "132829.400000", "132831.399000", "132833.399000", "132835.400000", "132837.399000", "132839.400000", "132841.401000", "132843.400000", "132845.399000", "132847.400000", "132849.400000", "132851.399000", "132853.400000", "132855.400000", "132857.400000", "132859.401000", "132901.400000", "132903.399000", "132905.399000", "132907.400000", "132909.399000", "132911.400000", "132913.400000", "132915.399000", "132917.401000", "132919.399000", "132921.400000", "132923.399000", "132925.400000", "132927.400000", "132929.400000", "132931.400000", "132933.400000", "132935.400000", "132937.399000", "132939.399000", "132941.399000", "132943.400000", "132945.400000", "132947.400000", "132949.399000", "132951.401000", "132953.401000", "132955.400000", "132957.399000", "132959.399000", "133001.400000", "133003.400000", "133005.400000", "133007.400000", "133009.401000", "133011.399000", "133013.400000", "133015.400000", "133017.400000", "133019.400000", "133021.399000", "133023.399000", "133025.399000", "133027.401000", "133029.399000", "133031.400000", "133033.400000", "133035.400000", "133037.400000", "133039.400000", "133041.400000", "133043.400000", "133045.400000", "133047.400000", "133049.399000", "133051.400000", "133053.399000", "133055.400000", "133057.400000", "133059.399000", "133101.400000", "133103.400000", "133105.400000", "133107.400000", "133109.400000", "133111.399000", "133113.399000", "133115.399000", "133117.400000", "133119.401000", "133121.399000", "133123.400000", "133125.400000", "133127.400000", "133129.400000", "133131.400000", "133133.400000", "133135.400000", "133137.401000", "133139.399000", "133141.399000", "133143.400000", "133145.400000", "133147.400000", "133149.400000", "133151.399000", "133153.401000", "133155.401000", "133157.399000", "133159.400000", "133201.399000", "133203.400000", "133205.399000", "133207.400000", "133209.400000", "133211.401000", "133213.400000", "133215.400000", "133217.399000", "133219.399000", "133221.400000", "133223.399000", "133225.399000", "133227.400000", "133229.401000", "133231.899000", "133233.400000", "133235.400000", "133237.399000", "133239.400000", "133241.399000", "133243.400000", "133245.400000", "133247.401000", "133249.399000", "133251.400000", "133253.399000", "133255.400000", "133257.399000", "133259.400000", "133301.399000", "133303.401000", "133305.401000", "133307.399000", "133309.399000", "133311.400000", "133313.400000", "133315.400000", "133317.399000", "133319.400000", "133321.401000", "133323.400000", "133325.400000", "133327.399000", "133329.400000", "133331.400000", "133333.400000", "133335.399000", "133337.399000", "133339.412000", "133341.400000", "133343.399000", "133345.399000", "133347.399000", "133349.399000", "133351.400000", "133353.400000", "133355.400000", "133357.401000", "133359.399000", "133401.400000", "133403.400000", "133405.400000", "133407.400000", "133409.400000", "133411.400000", "133413.401000", "133415.401000", "133417.400000", "133419.400000", "133421.400000", "133423.400000", "133425.400000", "133427.400000", "133429.400000", "133431.401000", "133433.401000", "133435.399000", "133437.400000", "133439.399000", "133441.400000", "133443.399000", "133445.400000", "133447.400000", "133449.401000", "133451.399000", "133453.399000", "133455.400000", "133457.400000", "133459.400000", "133501.400000", "133503.400000", "133505.400000", "133507.400000", "133509.400000", "133511.400000", "133513.400000", "133515.400000", "133517.399000", "133519.400000", "133521.400000", "133523.400000", "133525.400000", "133527.400000", "133529.400000", "133531.400000", "133533.400000", "133535.400000", "133537.400000", "133539.400000", "133541.401000", "133543.400000", "133545.399000", "133547.400000", "133549.400000", "133551.400000", "133553.400000", "133555.400000", "133557.400000", "133559.401000", "133601.400000", "133603.400000", "133605.399000", "133607.400000", "133609.400000", "133611.400000", "133613.400000", "133615.400000", "133617.192000"],
      "InstanceCreationTime": ["132747.904000", "132749.400000", "132751.400000", "132753.399000", "132755.399000", "132757.399000", "132759.400000", "132801.399000", "132803.400000", "132805.399000", "132807.401000", "132809.399000", "132811.400000", "132813.399000", "132815.400000", "132817.399000", "132819.399000", "132821.400000", "132823.400000", "132825.400000", "132827.399000", "132829.400000", "132831.399000", "132833.399000", "132835.400000", "132837.399000", "132839.400000", "132841.401000", "132843.400000", "132845.399000", "132847.400000", "132849.400000", "132851.399000", "132853.400000", "132855.400000", "132857.400000", "132859.401000", "132901.400000", "132903.399000", "132905.399000", "132907.400000", "132909.399000", "132911.400000", "132913.400000", "132915.399000", "132917.401000", "132919.399000", "132921.400000", "132923.399000", "132925.400000", "132927.400000", "132929.400000", "132931.400000", "132933.400000", "132935.400000", "132937.399000", "132939.399000", "132941.399000", "132943.400000", "132945.400000", "132947.400000", "132949.399000", "132951.401000", "132953.401000", "132955.400000", "132957.399000", "132959.399000", "133001.400000", "133003.400000", "133005.400000", "133007.400000", "133009.401000", "133011.399000", "133013.400000", "133015.400000", "133017.400000", "133019.400000", "133021.399000", "133023.399000", "133025.399000", "133027.401000", "133029.399000", "133031.400000", "133033.400000", "133035.400000", "133037.400000", "133039.400000", "133041.400000", "133043.400000", "133045.400000", "133047.400000", "133049.399000", "133051.400000", "133053.399000", "133055.400000", "133057.400000", "133059.399000", "133101.400000", "133103.400000", "133105.400000", "133107.400000", "133109.400000", "133111.399000", "133113.399000", "133115.399000", "133117.400000", "133119.401000", "133121.399000", "133123.400000", "133125.400000", "133127.400000", "133129.400000", "133131.400000", "133133.400000", "133135.400000", "133137.401000", "133139.399000", "133141.399000", "133143.400000", "133145.400000", "133147.400000", "133149.400000", "133151.399000", "133153.401000", "133155.401000", "133157.399000", "133159.400000", "133201.399000", "133203.400000", "133205.399000", "133207.400000", "133209.400000", "133211.401000", "133213.400000", "133215.400000", "133217.399000", "133219.399000", "133221.400000", "133223.399000", "133225.399000", "133227.400000", "133229.401000", "133231.899000", "133233.400000", "133235.400000", "133237.399000", "133239.400000", "133241.399000", "133243.400000", "133245.400000", "133247.401000", "133249.399000", "133251.400000", "133253.399000", "133255.400000", "133257.399000", "133259.400000", "133301.399000", "133303.401000", "133305.401000", "133307.399000", "133309.399000", "133311.400000", "133313.400000", "133315.400000", "133317.399000", "133319.400000", "133321.401000", "133323.400000", "133325.400000", "133327.399000", "133329.400000", "133331.400000", "133333.400000", "133335.399000", "133337.399000", "133339.412000", "133341.400000", "133343.399000", "133345.399000", "133347.399000", "133349.399000", "133351.400000", "133353.400000", "133355.400000", "133357.401000", "133359.399000", "133401.400000", "133403.400000", "133405.400000", "133407.400000", "133409.400000", "133411.400000", "133413.401000", "133415.401000", "133417.400000", "133419.400000", "133421.400000", "133423.400000", "133425.400000", "133427.400000", "133429.400000", "133431.401000", "133433.401000", "133435.399000", "133437.400000", "133439.399000", "133441.400000", "133443.399000", "133445.400000", "133447.400000", "133449.401000", "133451.399000", "133453.399000", "133455.400000", "133457.400000", "133459.400000", "133501.400000", "133503.400000", "133505.400000", "133507.400000", "133509.400000", "133511.400000", "133513.400000", "133515.400000", "133517.399000", "133519.400000", "133521.400000", "133523.400000", "133525.400000", "133527.400000", "133529.400000", "133531.400000", "133533.400000", "133535.400000", "133537.400000", "133539.400000", "133541.401000", "133543.400000", "133545.399000", "133547.400000", "133549.400000", "133551.400000", "133553.400000", "133555.400000", "133557.400000", "133559.401000", "133601.400000", "133603.400000", "133605.399000", "133607.400000", "133609.400000", "133611.400000", "133613.400000", "133615.400000", "133617.192000"],
      "InstanceNumber": [1, 2, 3, 4, 5, 6, 7, 8, 9, 10, 11, 12, 13, 14, 15, 16, 17, 18, 19, 20, 21, 22, 23, 24, 25, 26, 27, 28, 29, 30, 31, 32, 33, 34, 35, 36, 37, 38, 39, 40, 41, 42, 43, 44, 45, 46, 47, 48, 49, 50, 51, 52, 53, 54, 55, 56, 57, 58, 59, 60, 61, 62, 63, 64, 65, 66, 67, 68, 69, 70, 71, 72, 73, 74, 75, 76, 77, 78, 79, 80, 81, 82, 83, 84, 85, 86, 87, 88, 89, 90, 91, 92, 93, 94, 95, 96, 97, 98, 99, 100, 101, 102, 103, 104, 105, 106, 107, 108, 109, 110, 111, 112, 113, 114, 115, 116, 117, 118, 119, 120, 121, 122, 123, 124, 125, 126, 127, 128, 129, 130, 131, 132, 133, 134, 135, 136, 137, 138, 139, 140, 141, 142, 143, 144, 145, 146, 147, 148, 149, 150, 151, 152, 153, 154, 155, 156, 157, 158, 159, 160, 161, 162, 163, 164, 165, 166, 167, 168, 169, 170, 171, 172, 173, 174, 175, 176, 177, 178, 179, 180, 181, 182, 183, 184, 185, 186, 187, 188, 189, 190, 191, 192, 193, 194, 195, 196, 197, 198, 199, 200, 201, 202, 203, 204, 205, 206, 207, 208, 209, 210, 211, 212, 213, 214, 215, 216, 217, 218, 219, 220, 221, 222, 223, 224, 225, 226, 227, 228, 229, 230, 231, 232, 233, 234, 235, 236, 237, 238, 239, 240, 241, 242, 243, 244, 245, 246, 247, 248, 249, 250, 251, 252, 253, 254, 255, 256],
      "LargestImagePixelValue": [3037, 3045, 3066, 3000, 3027, 3019, 3041, 3075, 3025, 3048, 3018, 2983, 2989, 3000, 2993, 2981, 2981, 2988, 3007, 3015, 3024, 3032, 3047, 3013, 2972, 3004, 3020, 3016, 3036, 3073, 2977, 2977, 2994, 3006, 2990, 3008, 2981, 2995, 2999, 2974, 2990, 3021, 2986, 2986, 2956, 2995, 3023, 3030, 3015, 2950, 2991, 2964, 2977, 3041, 2996, 3038, 3006, 3001, 3010, 3032, 3049, 3008, 3031, 3000, 3017, 2991, 2985, 2987, 2962, 2936, 2991, 3029, 3025, 2995, 2957, 3014, 3005, 2986, 3028, 2975, 2943, 2957, 2950, 2927, 2945, 2973, 2989, 2956, 2968, 2977, 2996, 2998, 2977, 2977, 2973, 2967, 2975, 2985, 2964, 2954, 2919, 2945, 2952, 2990, 2958, 2925, 2936, 2966, 2941, 2952, 2957, 2930, 2882, 2902, 2939, 2975, 3003, 2944, 2951, 2959, 2964, 2963, 2955, 2975, 2938, 3107, 2926, 2930, 2913, 3129, 2944, 2969, 2980, 2938, 2898, 2916, 2966, 2909, 2927, 2931, 2926, 2906, 2915, 2959, 2966, 2974, 2943, 3016, 2947, 2967, 2981, 2932, 2960, 2926, 2920, 2970, 2974, 2966, 3006, 3030, 2964, 2986, 2983, 2987, 2987, 2984, 2982, 2999, 2949, 2974, 3030, 2971, 2947, 2966, 3053, 2984, 3006, 2963, 2972, 3022, 2917, 2926, 2950, 3037, 2965, 3007, 2987, 3007, 2922, 2874, 2880, 2915, 2888, 2904, 2927, 2926, 2929, 2935, 2953, 2934, 2869, 2901, 2893, 2965, 2933, 2949, 2916, 2901, 2919, 2921, 2923, 2948, 2940, 2916, 2913, 2889, 2906, 2904, 2950, 3047, 2927, 2942, 2933, 2924, 2925, 2954, 2912, 2899, 2912, 2973, 2892, 3294, 2929, 2906, 2938, 2977, 2978, 2880, 2897, 3132, 2992, 2951, 2984, 2961, 2967, 2962, 2956, 2962, 3015, 3019, 2987, 2955, 2949, 3005, 2893, 2921],
      "WindowCenter": [760.0, 761.0, 764.0, 761.0, 758.0, 758.0, 758.0, 759.0, 758.0, 758.0, 760.0, 760.0, 759.0, 759.0, 758.0, 757.0, 757.0, 757.0, 759.0, 760.0, 760.0, 760.0, 759.0, 758.0, 758.0, 758.0, 759.0, 759.0, 758.0, 757.0, 755.0, 753.0, 754.0, 755.0, 755.0, 754.0, 753.0, 754.0, 755.0, 755.0, 757.0, 757.0, 757.0, 757.0, 757.0, 758.0, 760.0, 761.0, 760.0, 757.0, 755.0, 753.0, 754.0, 756.0, 756.0, 757.0, 758.0, 757.0, 757.0, 759.0, 762.0, 761.0, 760.0, 758.0, 758.0, 758.0, 758.0, 759.0, 758.0, 757.0, 758.0, 759.0, 761.0, 761.0, 760.0, 759.0, 760.0, 759.0, 760.0, 760.0, 758.0, 755.0, 754.0, 753.0, 755.0, 757.0, 757.0, 756.0, 755.0, 756.0, 758.0, 760.0, 760.0, 761.0, 760.0, 760.0, 760.0, 760.0, 760.0, 760.0, 759.0, 759.0, 758.0, 760.0, 760.0, 758.0, 758.0, 758.0, 759.0, 759.0, 758.0, 756.0, 756.0, 757.0, 759.0, 759.0, 758.0, 758.0, 759.0, 759.0, 759.0, 759.0, 760.0, 760.0, 758.0, 759.0, 757.0, 757.0, 756.0, 760.0, 761.0, 762.0, 760.0, 758.0, 755.0, 754.0, 756.0, 758.0, 758.0, 756.0, 755.0, 755.0, 756.0, 759.0, 760.0, 759.0, 758.0, 760.0, 761.0, 760.0, 759.0, 759.0, 761.0, 761.0, 759.0, 758.0, 758.0, 760.0, 763.0, 761.0, 758.0, 757.0, 757.0, 758.0, 761.0, 760.0, 758.0, 758.0, 757.0, 759.0, 759.0, 758.0, 758.0, 761.0, 763.0, 760.0, 759.0, 758.0, 759.0, 760.0, 759.0, 759.0, 760.0, 761.0, 761.0, 760.0, 760.0, 758.0, 755.0, 753.0, 754.0, 755.0, 756.0, 757.0, 758.0, 758.0, 759.0, 761.0, 762.0, 761.0, 759.0, 758.0, 758.0, 761.0, 761.0, 761.0, 760.0, 759.0, 757.0, 759.0, 760.0, 759.0, 757.0, 757.0, 757.0, 757.0, 759.0, 761.0, 759.0, 760.0, 759.0, 759.0, 758.0, 759.0, 761.0, 761.0, 759.0, 758.0, 758.0, 757.0, 756.0, 762.0, 760.0, 760.0, 760.0, 759.0, 757.0, 756.0, 760.0, 764.0, 760.0, 758.0, 757.0, 758.0, 760.0, 761.0, 759.0, 758.0, 757.0, 755.0, 755.0, 756.0, 757.0, 758.0, 757.0, 758.0],
      "WindowWidth": [1641.0, 1643.0, 1650.0, 1643.0, 1636.0, 1635.0, 1636.0, 1638.0, 1636.0, 1637.0, 1641.0, 1642.0, 1639.0, 1637.0, 1637.0, 1633.0, 1634.0, 1633.0, 1639.0, 1641.0, 1640.0, 1640.0, 1639.0, 1636.0, 1635.0, 1637.0, 1639.0, 1639.0, 1636.0, 1633.0, 1628.0, 1624.0, 1624.0, 1627.0, 1628.0, 1627.0, 1623.0, 1626.0, 1628.0, 1629.0, 1632.0, 1634.0, 1635.0, 1634.0, 1634.0, 1636.0, 1641.0, 1645.0, 1642.0, 1634.0, 1628.0, 1623.0, 1627.0, 1630.0, 1631.0, 1635.0, 1635.0, 1632.0, 1635.0, 1640.0, 1646.0, 1644.0, 1641.0, 1635.0, 1636.0, 1637.0, 1637.0, 1638.0, 1635.0, 1632.0, 1636.0, 1640.0, 1646.0, 1644.0, 1642.0, 1639.0, 1641.0, 1639.0, 1642.0, 1641.0, 1635.0, 1629.0, 1626.0, 1625.0, 1629.0, 1634.0, 1633.0, 1631.0, 1628.0, 1632.0, 1638.0, 1641.0, 1641.0, 1643.0, 1642.0, 1641.0, 1642.0, 1642.0, 1642.0, 1641.0, 1638.0, 1638.0, 1636.0, 1640.0, 1641.0, 1637.0, 1637.0, 1637.0, 1639.0, 1639.0, 1637.0, 1632.0, 1631.0, 1633.0, 1639.0, 1639.0, 1636.0, 1636.0, 1639.0, 1639.0, 1638.0, 1640.0, 1641.0, 1642.0, 1637.0, 1637.0, 1633.0, 1633.0, 1631.0, 1642.0, 1644.0, 1647.0, 1642.0, 1635.0, 1627.0, 1626.0, 1630.0, 1636.0, 1636.0, 1632.0, 1628.0, 1629.0, 1630.0, 1639.0, 1643.0, 1640.0, 1636.0, 1641.0, 1643.0, 1642.0, 1640.0, 1640.0, 1644.0, 1643.0, 1639.0, 1637.0, 1637.0, 1642.0, 1648.0, 1643.0, 1636.0, 1634.0, 1633.0, 1636.0, 1643.0, 1642.0, 1636.0, 1635.0, 1634.0, 1639.0, 1640.0, 1635.0, 1636.0, 1645.0, 1649.0, 1642.0, 1637.0, 1636.0, 1639.0, 1640.0, 1639.0, 1639.0, 1642.0, 1643.0, 1642.0, 1641.0, 1640.0, 1635.0, 1628.0, 1623.0, 1625.0, 1628.0, 1630.0, 1634.0, 1635.0, 1635.0, 1638.0, 1642.0, 1647.0, 1644.0, 1636.0, 1634.0, 1636.0, 1644.0, 1643.0, 1644.0, 1640.0, 1637.0, 1633.0, 1637.0, 1641.0, 1637.0, 1631.0, 1632.0, 1632.0, 1634.0, 1639.0, 1643.0, 1639.0, 1640.0, 1639.0, 1638.0, 1634.0, 1638.0, 1644.0, 1642.0, 1638.0, 1637.0, 1635.0, 1634.0, 1630.0, 1645.0, 1642.0, 1641.0, 1642.0, 1638.0, 1634.0, 1631.0, 1640.0, 1651.0, 1641.0, 1636.0, 1634.0, 1636.0, 1642.0, 1645.0, 1638.0, 1634.0, 1632.0, 1627.0, 1627.0, 1631.0, 1634.0, 1636.0, 1632.0, 1635.0]
    },
    "slices": {}
  }
}