{
  "AcquisitionMatrixPE": 100,
  "AcquisitionNumber": 1,
  "AcquisitionTime": "13:46:26.057500",
  "BandwidthPerPixelPhaseEncode": 18.519,
  "BaseResolution": 100,
  "BodyPartExamined": "BRAIN",
  "ConsistencyInfo": "N4_VE11C_LATEST_20160120",
  "ConversionSoftware": "dcm2niix",
  "ConversionSoftwareVersion": "v1.0.20180622 GCC4.9.2",
  "DerivedVendorReportedEchoSpacing": 0.000539986,
  "DeviceSerialNumber": "166078",
  "DwellTime": 2.1e-06,
  "EchoTime": 0.034,
  "EchoTrainLength": 100,
  "EffectiveEchoSpacing": 0.000539986,
  "FlipAngle": 90,
  "ImageOrientationPatientDICOM": [0.999535, -0.00861161, -0.0292462, -1.59786e-08, 0.959278, -0.282462],
  "ImageType": [
    "ORIGINAL",
    "PRIMARY",
    "M",
    "ND",
    "MOSAIC"
],
  "InPlanePhaseEncodingDirectionDICOM": "COL",
  "InstitutionAddress": "Street_StreetNo_Bei_Jing_District_CN_ZIP",
  "InstitutionName": "BeiJing_Normal_University",
  "InstitutionalDepartmentName": "Department",
  "MRAcquisitionType": "2D",
  "MagneticFieldStrength": 3,
  "Manufacturer": "Siemens",
  "ManufacturersModelName": "Prisma",
  "Modality": "MR",
  "MultibandAccelerationFactor": 3,
  "PartialFourier": 1,
  "PatientPosition": "HFS",
  "PercentPhaseFOV": 100,
  "PhaseEncodingDirection": "j-",
  "PhaseEncodingSteps": 100,
  "PhaseResolution": 1,
  "PixelBandwidth": 2380,
  "ProcedureStepDescription": "BNU_P2018_64CH_Zhen.ZongLei",
  "ProtocolName": "bold_100x100_s3_2x2x2_static_256",
  "PulseSequenceDetails": "%SiemensSeq%_ep2d_bold",
  "ReceiveCoilActiveElements": "HC1-7;NC1",
  "ReceiveCoilName": "HeadNeck_64",
  "ReconMatrixPE": 100,
  "RepetitionTime": 2,
  "SAR": 0.065753,
  "ScanOptions": "FS",
  "ScanningSequence": "EP",
  "SequenceName": "_epfid2d1_100",
  "SequenceVariant": "SK",
  "SeriesDescription": "bold_100x100_s3_2x2x2_static_256",
  "SeriesNumber": 7,
  "ShimSetting": [-5454, -11448, -1307, 395, -11, -450, -256, 67],
  "SliceThickness": 2,
  "SliceTiming": [1.485, 0, 0.99, 0.0825, 1.0725, 0.165, 1.155, 0.2475, 1.2375, 0.33, 1.32, 0.4125, 1.4025, 0.5775, 1.5675, 0.66, 1.65, 0.7425, 1.7325, 0.825, 1.815, 0.9075, 1.8975, 0.495, 1.485, 0, 0.99, 0.0825, 1.0725, 0.165, 1.155, 0.2475, 1.2375, 0.33, 1.32, 0.4125, 1.4025, 0.5775, 1.5675, 0.66, 1.65, 0.7425, 1.7325, 0.825, 1.815, 0.9075, 1.8975, 0.495, 1.485, 0, 0.99, 0.0825, 1.0725, 0.165, 1.155, 0.2475, 1.2375, 0.33, 1.32, 0.4125, 1.4025, 0.5775, 1.5675, 0.66, 1.65, 0.7425, 1.7325, 0.825, 1.815, 0.9075, 1.8975, 0.495],
  "SoftwareVersions": "syngo_MR_E11",
  "SpacingBetweenSlices": 2,
  "StationName": "AWP166078",
  "TaskName": "naturalvision",
  "TotalReadoutTime": 0.0534586,
  "TxRefAmp": 212.528,
  "dcmmeta_affine": [
    [-1.9990702867507935, -3.195725994942222e-08, -0.06097547337412834, 100.78273010253906],
    [0.01722322404384613, 1.9185569286346436, -0.56466144323349, -73.45836639404297],
    [-0.05849246680736542, 0.5649240612983704, 1.9176651239395142, -109.64268493652344],
    [0.0, 0.0, 0.0, 1.0]
],
  "dcmmeta_reorient_transform": [
    [0.0, -1.0, 0.0, 99.0],
    [1.0, 0.0, 0.0, 0.0],
    [0.0, 0.0, 1.0, 0.0],
    [0.0, 0.0, 0.0, 1.0]
],
  "dcmmeta_shape": [100, 100, 72, 256],
  "dcmmeta_slice_dim": 2,
  "dcmmeta_version": 0.6,
  "global": {
    "const": {
      "AcquisitionMatrix": [100, 0, 0, 100],
      "AngioFlag": "N",
      "BitsAllocated": 16,
      "BitsStored": 12,
      "BodyPartExamined": "BRAIN",
      "Columns": 900,
      "EchoNumbers": 1,
      "EchoTime": 34.0,
      "EchoTrainLength": 100,
      "FlipAngle": 90.0,
      "HighBit": 11,
      "ImageOrientationPatient": [0.99953514094058, -0.0086116119732, -0.029246233332, -1.597863e-08, 0.95927848362654, -0.2824620166521],
      "ImagePositionPatient": [-900.41082656182, -877.01227288217, 195.65139288121],
      "ImageType": [
        "ORIGINAL",
        "PRIMARY",
        "M",
        "ND",
        "MOSAIC"
],
      "ImagedNucleus": "1H",
      "ImagingFrequency": 123.257793,
      "InPlanePhaseEncodingDirection": "COL",
      "MRAcquisitionType": "2D",
      "MagneticFieldStrength": 3.0,
      "Manufacturer": "SIEMENS",
      "ManufacturerModelName": "Prisma",
      "Modality": "MR",
      "NumberOfAverages": 1.0,
      "NumberOfPhaseEncodingSteps": 100,
      "PercentPhaseFieldOfView": 100.0,
      "PercentSampling": 100.0,
      "PerformedProcedureStepStartTime": "130522.753000",
      "PhotometricInterpretation": "MONOCHROME2",
      "PixelBandwidth": 2380.0,
      "PixelRepresentation": 0,
      "PixelSpacing": [2.0, 2.0],
      "ProtocolName": "bold_100x100_s3_2x2x2_static_256",
      "RepetitionTime": 2000.0,
      "Rows": 900,
      "SAR": 0.06575302915584,
      "SamplesPerPixel": 1,
      "ScanOptions": "FS",
      "ScanningSequence": "EP",
      "SequenceName": "*epfid2d1_100",
      "SequenceVariant": "SK",
      "SeriesDescription": "bold_100x100_s3_2x2x2_static_256",
      "SeriesNumber": 7,
      "SeriesTime": "134628.390000",
      "SliceLocation": -87.462062002114,
      "SliceThickness": 2.0,
      "SmallestImagePixelValue": 0,
      "SoftwareVersions": "syngo MR E11",
      "SpacingBetweenSlices": 2.0000000244009,
      "SpecificCharacterSet": "ISO_IR 100",
      "StudyID": "1",
      "StudyTime": "130522.632000",
      "TransmitCoilName": "Body",
      "VariableFlipAngleFlag": "N",
      "WindowCenterWidthExplanation": "Algo1",
      "dBdt": 0.0},
    "slices": {}
  },
  "time": {
    "samples": {
      "AcquisitionNumber": [1, 2, 3, 4, 5, 6, 7, 8, 9, 10, 11, 12, 13, 14, 15, 16, 17, 18, 19, 20, 21, 22, 23, 24, 25, 26, 27, 28, 29, 30, 31, 32, 33, 34, 35, 36, 37, 38, 39, 40, 41, 42, 43, 44, 45, 46, 47, 48, 49, 50, 51, 52, 53, 54, 55, 56, 57, 58, 59, 60, 61, 62, 63, 64, 65, 66, 67, 68, 69, 70, 71, 72, 73, 74, 75, 76, 77, 78, 79, 80, 81, 82, 83, 84, 85, 86, 87, 88, 89, 90, 91, 92, 93, 94, 95, 96, 97, 98, 99, 100, 101, 102, 103, 104, 105, 106, 107, 108, 109, 110, 111, 112, 113, 114, 115, 116, 117, 118, 119, 120, 121, 122, 123, 124, 125, 126, 127, 128, 129, 130, 131, 132, 133, 134, 135, 136, 137, 138, 139, 140, 141, 142, 143, 144, 145, 146, 147, 148, 149, 150, 151, 152, 153, 154, 155, 156, 157, 158, 159, 160, 161, 162, 163, 164, 165, 166, 167, 168, 169, 170, 171, 172, 173, 174, 175, 176, 177, 178, 179, 180, 181, 182, 183, 184, 185, 186, 187, 188, 189, 190, 191, 192, 193, 194, 195, 196, 197, 198, 199, 200, 201, 202, 203, 204, 205, 206, 207, 208, 209, 210, 211, 212, 213, 214, 215, 216, 217, 218, 219, 220, 221, 222, 223, 224, 225, 226, 227, 228, 229, 230, 231, 232, 233, 234, 235, 236, 237, 238, 239, 240, 241, 242, 243, 244, 245, 246, 247, 248, 249, 250, 251, 252, 253, 254, 255, 256],
      "AcquisitionTime": ["134626.057500", "134628.057500", "134630.057500", "134632.057500", "134634.057500", "134636.057500", "134638.057500", "134640.057500", "134642.057500", "134644.057500", "134646.057500", "134648.057500", "134650.057500", "134652.057500", "134654.057500", "134656.057500", "134658.057500", "134700.057500", "134702.057500", "134704.057500", "134706.057500", "134708.057500", "134710.057500", "134712.057500", "134714.057500", "134716.057500", "134718.057500", "134720.057500", "134722.057500", "134724.057500", "134726.057500", "134728.057500", "134730.057500", "134732.057500", "134734.057500", "134736.057500", "134738.057500", "134740.057500", "134742.057500", "134744.057500", "134746.057500", "134748.057500", "134750.057500", "134752.057500", "134754.057500", "134756.057500", "134758.057500", "134800.057500", "134802.057500", "134804.057500", "134806.057500", "134808.057500", "134810.057500", "134812.057500", "134814.057500", "134816.057500", "134818.057500", "134820.057500", "134822.057500", "134824.057500", "134826.057500", "134828.057500", "134830.057500", "134832.057500", "134834.057500", "134836.057500", "134838.057500", "134840.057500", "134842.057500", "134844.057500", "134846.057500", "134848.057500", "134850.057500", "134852.057500", "134854.057500", "134856.057500", "134858.057500", "134900.057500", "134902.057500", "134904.057500", "134906.057500", "134908.057500", "134910.057500", "134912.057500", "134914.057500", "134916.057500", "134918.057500", "134920.057500", "134922.057500", "134924.057500", "134926.057500", "134928.057500", "134930.057500", "134932.057500", "134934.057500", "134936.057500", "134938.057500", "134940.057500", "134942.057500", "134944.057500", "134946.057500", "134948.057500", "134950.057500", "134952.057500", "134954.057500", "134956.057500", "134958.057500", "135000.057500", "135002.057500", "135004.057500", "135006.057500", "135008.057500", "135010.057500", "135012.057500", "135014.057500", "135016.057500", "135018.057500", "135020.057500", "135022.057500", "135024.057500", "135026.057500", "135028.057500", "135030.057500", "135032.057500", "135034.057500", "135036.057500", "135038.057500", "135040.057500", "135042.057500", "135044.057500", "135046.057500", "135048.057500", "135050.057500", "135052.057500", "135054.057500", "135056.057500", "135058.057500", "135100.057500", "135102.057500", "135104.057500", "135106.057500", "135108.057500", "135110.057500", "135112.057500", "135114.057500", "135116.057500", "135118.057500", "135120.057500", "135122.057500", "135124.057500", "135126.057500", "135128.057500", "135130.057500", "135132.057500", "135134.057500", "135136.057500", "135138.057500", "135140.057500", "135142.057500", "135144.057500", "135146.057500", "135148.057500", "135150.057500", "135152.057500", "135154.057500", "135156.057500", "135158.057500", "135200.057500", "135202.057500", "135204.057500", "135206.057500", "135208.057500", "135210.057500", "135212.057500", "135214.057500", "135216.057500", "135218.057500", "135220.057500", "135222.057500", "135224.057500", "135226.057500", "135228.057500", "135230.057500", "135232.057500", "135234.057500", "135236.057500", "135238.057500", "135240.057500", "135242.057500", "135244.057500", "135246.057500", "135248.057500", "135250.057500", "135252.057500", "135254.057500", "135256.057500", "135258.057500", "135300.057500", "135302.057500", "135304.057500", "135306.057500", "135308.057500", "135310.057500", "135312.057500", "135314.057500", "135316.057500", "135318.057500", "135320.057500", "135322.057500", "135324.057500", "135326.057500", "135328.057500", "135330.057500", "135332.057500", "135334.057500", "135336.057500", "135338.057500", "135340.057500", "135342.057500", "135344.057500", "135346.057500", "135348.057500", "135350.057500", "135352.057500", "135354.057500", "135356.057500", "135358.057500", "135400.057500", "135402.057500", "135404.057500", "135406.057500", "135408.057500", "135410.057500", "135412.057500", "135414.057500", "135416.057500", "135418.057500", "135420.057500", "135422.057500", "135424.057500", "135426.057500", "135428.057500", "135430.057500", "135432.057500", "135434.057500", "135436.057500", "135438.057500", "135440.057500", "135442.057500", "135444.057500", "135446.057500", "135448.057500", "135450.057500", "135452.057500", "135454.057500", "135456.057500"],
      "ContentTime": ["134628.394000", "134629.890000", "134631.889000", "134633.890000", "134635.890000", "134637.390000", "134639.889000", "134641.890000", "134643.889000", "134645.890000", "134647.890000", "134649.889000", "134651.890000", "134653.889000", "134655.889000", "134657.890000", "134659.890000", "134701.889000", "134703.891000", "134705.389000", "134707.889000", "134709.889000", "134711.889000", "134713.890000", "134715.890000", "134717.889000", "134719.890000", "134721.889000", "134723.890000", "134725.389000", "134727.889000", "134729.889000", "134731.889000", "134733.390000", "134735.890000", "134737.889000", "134739.889000", "134741.889000", "134743.890000", "134745.889000", "134747.890000", "134749.889000", "134751.890000", "134753.890000", "134755.889000", "134757.890000", "134759.889000", "134801.889000", "134803.889000", "134805.890000", "134807.889000", "134809.890000", "134811.889000", "134813.890000", "134815.889000", "134817.889000", "134819.890000", "134821.890000", "134823.890000", "134825.890000", "134827.889000", "134829.890000", "134831.889000", "134833.390000", "134835.889000", "134837.889000", "134839.890000", "134841.890000", "134843.889000", "134845.890000", "134847.890000", "134849.890000", "134851.889000", "134853.890000", "134855.890000", "134857.890000", "134859.890000", "134901.890000", "134903.889000", "134905.889000", "134907.890000", "134909.889000", "134911.889000", "134913.889000", "134915.889000", "134917.890000", "134919.890000", "134921.889000", "134923.890000", "134925.889000", "134927.890000", "134929.889000", "134931.890000", "134933.889000", "134935.890000", "134937.890000", "134939.889000", "134941.889000", "134943.889000", "134945.890000", "134947.889000", "134949.890000", "134951.890000", "134953.889000", "134955.889000", "134957.889000", "134959.889000", "135001.889000", "135003.889000", "135005.890000", "135007.890000", "135009.890000", "135011.890000", "135013.890000", "135015.390000", "135017.890000", "135019.890000", "135021.889000", "135023.890000", "135025.890000", "135027.889000", "135029.890000", "135031.889000", "135033.890000", "135035.890000", "135037.889000", "135039.890000", "135041.889000", "135043.890000", "135045.890000", "135047.890000", "135049.890000", "135051.890000", "135053.890000", "135055.889000", "135057.890000", "135059.889000", "135101.889000", "135103.890000", "135105.890000", "135107.889000", "135109.890000", "135111.890000", "135113.890000", "135115.889000", "135117.890000", "135119.890000", "135121.890000", "135123.889000", "135125.889000", "135127.889000", "135129.390000", "135131.889000", "135133.890000", "135135.889000", "135137.890000", "135139.890000", "135141.889000", "135143.889000", "135145.889000", "135147.890000", "135149.889000", "135151.890000", "135153.890000", "135155.890000", "135157.890000", "135159.890000", "135201.890000", "135203.890000", "135205.890000", "135207.890000", "135209.890000", "135211.890000", "135213.889000", "135215.889000", "135217.889000", "135219.890000", "135221.890000", "135223.890000", "135225.890000", "135227.889000", "135229.890000", "135231.890000", "135233.889000", "135235.889000", "135237.889000", "135239.890000", "135241.890000", "135243.889000", "135245.890000", "135247.889000", "135249.890000", "135251.889000", "135253.890000", "135255.890000", "135257.889000", "135259.890000", "135301.890000", "135303.890000", "135305.890000", "135307.890000", "135309.889000", "135311.890000", "135313.890000", "135315.890000", "135317.889000", "135319.890000", "135321.890000", "135323.890000", "135325.907000", "135327.890000", "135329.890000", "135331.890000", "135333.890000", "135335.890000", "135337.890000", "135339.890000", "135341.890000", "135343.890000", "135345.890000", "135347.889000", "135349.889000", "135351.890000", "135353.890000", "135355.889000", "135357.890000", "135359.889000", "135401.889000", "135403.889000", "135405.890000", "135407.890000", "135409.390000", "135411.889000", "135413.889000", "135415.890000", "135417.890000", "135419.889000", "135421.890000", "135423.890000", "135425.890000", "135427.889000", "135429.890000", "135431.890000", "135433.890000", "135435.890000", "135437.889000", "135439.890000", "135441.889000", "135443.890000", "135445.890000", "135447.890000", "135449.890000", "135451.889000", "135453.889000", "135455.390000", "135457.458000"],
      "InstanceCreationTime": ["134628.394000", "134629.890000", "134631.889000", "134633.890000", "134635.890000", "134637.390000", "134639.889000", "134641.890000", "134643.889000", "134645.890000", "134647.890000", "134649.889000", "134651.890000", "134653.889000", "134655.889000", "134657.890000", "134659.890000", "134701.889000", "134703.891000", "134705.389000", "134707.889000", "134709.889000", "134711.889000", "134713.890000", "134715.890000", "134717.889000", "134719.890000", "134721.889000", "134723.890000", "134725.389000", "134727.889000", "134729.889000", "134731.889000", "134733.390000", "134735.890000", "134737.889000", "134739.889000", "134741.889000", "134743.890000", "134745.889000", "134747.890000", "134749.889000", "134751.890000", "134753.890000", "134755.889000", "134757.890000", "134759.889000", "134801.889000", "134803.889000", "134805.890000", "134807.889000", "134809.890000", "134811.889000", "134813.890000", "134815.889000", "134817.889000", "134819.890000", "134821.890000", "134823.890000", "134825.890000", "134827.889000", "134829.890000", "134831.889000", "134833.390000", "134835.889000", "134837.889000", "134839.890000", "134841.890000", "134843.889000", "134845.890000", "134847.890000", "134849.890000", "134851.889000", "134853.890000", "134855.890000", "134857.890000", "134859.890000", "134901.890000", "134903.889000", "134905.889000", "134907.890000", "134909.889000", "134911.889000", "134913.889000", "134915.889000", "134917.890000", "134919.890000", "134921.889000", "134923.890000", "134925.889000", "134927.890000", "134929.889000", "134931.890000", "134933.889000", "134935.890000", "134937.890000", "134939.889000", "134941.889000", "134943.889000", "134945.890000", "134947.889000", "134949.890000", "134951.890000", "134953.889000", "134955.889000", "134957.889000", "134959.889000", "135001.889000", "135003.889000", "135005.890000", "135007.890000", "135009.890000", "135011.890000", "135013.890000", "135015.390000", "135017.890000", "135019.890000", "135021.889000", "135023.890000", "135025.890000", "135027.889000", "135029.890000", "135031.889000", "135033.890000", "135035.890000", "135037.889000", "135039.890000", "135041.889000", "135043.890000", "135045.890000", "135047.890000", "135049.890000", "135051.890000", "135053.890000", "135055.889000", "135057.890000", "135059.889000", "135101.889000", "135103.890000", "135105.890000", "135107.889000", "135109.890000", "135111.890000", "135113.890000", "135115.889000", "135117.890000", "135119.890000", "135121.890000", "135123.889000", "135125.889000", "135127.889000", "135129.390000", "135131.889000", "135133.890000", "135135.889000", "135137.890000", "135139.890000", "135141.889000", "135143.889000", "135145.889000", "135147.890000", "135149.889000", "135151.890000", "135153.890000", "135155.890000", "135157.890000", "135159.890000", "135201.890000", "135203.890000", "135205.890000", "135207.890000", "135209.890000", "135211.890000", "135213.889000", "135215.889000", "135217.889000", "135219.890000", "135221.890000", "135223.890000", "135225.890000", "135227.889000", "135229.890000", "135231.890000", "135233.889000", "135235.889000", "135237.889000", "135239.890000", "135241.890000", "135243.889000", "135245.890000", "135247.889000", "135249.890000", "135251.889000", "135253.890000", "135255.890000", "135257.889000", "135259.890000", "135301.890000", "135303.890000", "135305.890000", "135307.890000", "135309.889000", "135311.890000", "135313.890000", "135315.890000", "135317.889000", "135319.890000", "135321.890000", "135323.890000", "135325.907000", "135327.890000", "135329.890000", "135331.890000", "135333.890000", "135335.890000", "135337.890000", "135339.890000", "135341.890000", "135343.890000", "135345.890000", "135347.889000", "135349.889000", "135351.890000", "135353.890000", "135355.889000", "135357.890000", "135359.889000", "135401.889000", "135403.889000", "135405.890000", "135407.890000", "135409.390000", "135411.889000", "135413.889000", "135415.890000", "135417.890000", "135419.889000", "135421.890000", "135423.890000", "135425.890000", "135427.889000", "135429.890000", "135431.890000", "135433.890000", "135435.890000", "135437.889000", "135439.890000", "135441.889000", "135443.890000", "135445.890000", "135447.890000", "135449.890000", "135451.889000", "135453.889000", "135455.390000", "135457.458000"],
      "InstanceNumber": [1, 2, 3, 4, 5, 6, 7, 8, 9, 10, 11, 12, 13, 14, 15, 16, 17, 18, 19, 20, 21, 22, 23, 24, 25, 26, 27, 28, 29, 30, 31, 32, 33, 34, 35, 36, 37, 38, 39, 40, 41, 42, 43, 44, 45, 46, 47, 48, 49, 50, 51, 52, 53, 54, 55, 56, 57, 58, 59, 60, 61, 62, 63, 64, 65, 66, 67, 68, 69, 70, 71, 72, 73, 74, 75, 76, 77, 78, 79, 80, 81, 82, 83, 84, 85, 86, 87, 88, 89, 90, 91, 92, 93, 94, 95, 96, 97, 98, 99, 100, 101, 102, 103, 104, 105, 106, 107, 108, 109, 110, 111, 112, 113, 114, 115, 116, 117, 118, 119, 120, 121, 122, 123, 124, 125, 126, 127, 128, 129, 130, 131, 132, 133, 134, 135, 136, 137, 138, 139, 140, 141, 142, 143, 144, 145, 146, 147, 148, 149, 150, 151, 152, 153, 154, 155, 156, 157, 158, 159, 160, 161, 162, 163, 164, 165, 166, 167, 168, 169, 170, 171, 172, 173, 174, 175, 176, 177, 178, 179, 180, 181, 182, 183, 184, 185, 186, 187, 188, 189, 190, 191, 192, 193, 194, 195, 196, 197, 198, 199, 200, 201, 202, 203, 204, 205, 206, 207, 208, 209, 210, 211, 212, 213, 214, 215, 216, 217, 218, 219, 220, 221, 222, 223, 224, 225, 226, 227, 228, 229, 230, 231, 232, 233, 234, 235, 236, 237, 238, 239, 240, 241, 242, 243, 244, 245, 246, 247, 248, 249, 250, 251, 252, 253, 254, 255, 256],
      "LargestImagePixelValue": [2957, 2943, 2895, 2895, 2947, 2926, 2905, 2893, 2881, 2898, 2900, 2944, 2932, 2924, 2953, 2919, 2886, 2880, 2904, 3032, 3015, 3006, 2994, 3031, 3038, 3059, 3059, 3083, 3065, 3045, 3053, 3029, 3062, 3024, 3083, 3123, 3091, 3047, 3090, 3104, 3076, 3058, 3088, 3128, 3040, 3047, 3042, 3095, 3064, 3082, 3097, 3087, 3088, 3076, 3117, 3163, 3104, 3116, 3171, 3156, 3129, 3147, 3143, 3125, 3153, 3129, 3138, 3171, 3171, 3138, 3122, 3109, 3106, 3114, 3121, 3109, 3163, 3166, 3178, 3142, 3152, 3174, 3181, 3190, 3139, 3161, 3129, 3195, 3124, 3161, 3165, 3147, 3152, 3161, 3180, 3174, 3188, 3208, 3170, 3134, 3188, 3166, 3153, 3164, 3164, 3146, 3174, 3152, 3165, 3180, 3196, 3157, 3138, 3159, 3182, 3172, 3126, 3158, 3169, 3241, 3205, 3154, 3127, 3160, 3122, 3147, 3134, 3135, 3117, 3109, 3143, 3148, 3159, 3119, 3168, 3185, 3168, 3138, 3162, 3132, 3132, 3135, 3124, 3158, 3206, 3174, 3166, 3143, 3178, 3174, 3166, 3159, 3145, 3145, 3165, 3178, 3156, 3151, 3150, 3156, 3106, 3159, 3162, 3124, 3107, 3141, 3136, 3120, 3151, 3170, 3124, 3144, 3168, 3157, 3169, 3134, 3135, 3128, 3135, 3168, 3189, 3146, 3136, 3172, 3136, 3153, 3135, 3106, 3138, 3148, 3155, 3151, 3161, 3130, 3134, 3162, 3159, 3172, 3156, 3141, 3154, 3179, 3150, 3151, 3177, 3175, 3184, 3149, 3191, 3140, 3126, 3126, 3132, 3133, 3164, 3150, 3164, 3151, 3153, 3163, 3141, 3184, 3147, 3176, 3154, 3161, 3179, 3153, 3175, 3145, 3162, 3173, 3182, 3037, 3162, 3161, 3140, 3160, 3133, 3115, 3151, 3196, 3154, 3175, 3176, 3145, 3130, 3119, 3149, 3145, 3076, 3100, 3322, 3449, 3105, 3102],
      "WindowCenter": [760.0, 757.0, 755.0, 755.0, 755.0, 756.0, 756.0, 757.0, 758.0, 757.0, 758.0, 758.0, 758.0, 759.0, 763.0, 761.0, 759.0, 758.0, 758.0, 760.0, 760.0, 759.0, 759.0, 760.0, 761.0, 761.0, 760.0, 759.0, 759.0, 760.0, 762.0, 761.0, 760.0, 760.0, 762.0, 763.0, 762.0, 761.0, 762.0, 762.0, 761.0, 759.0, 760.0, 761.0, 760.0, 759.0, 759.0, 760.0, 760.0, 759.0, 759.0, 758.0, 759.0, 760.0, 761.0, 763.0, 763.0, 762.0, 763.0, 764.0, 764.0, 763.0, 762.0, 761.0, 761.0, 761.0, 761.0, 762.0, 762.0, 761.0, 761.0, 764.0, 763.0, 761.0, 758.0, 756.0, 757.0, 758.0, 760.0, 761.0, 761.0, 761.0, 761.0, 760.0, 758.0, 757.0, 756.0, 758.0, 759.0, 760.0, 760.0, 758.0, 759.0, 760.0, 762.0, 762.0, 762.0, 763.0, 762.0, 761.0, 761.0, 761.0, 762.0, 763.0, 763.0, 761.0, 761.0, 762.0, 763.0, 763.0, 763.0, 761.0, 762.0, 763.0, 763.0, 762.0, 760.0, 761.0, 762.0, 763.0, 764.0, 762.0, 763.0, 765.0, 764.0, 761.0, 759.0, 759.0, 759.0, 760.0, 762.0, 763.0, 762.0, 760.0, 760.0, 759.0, 760.0, 758.0, 759.0, 759.0, 760.0, 760.0, 762.0, 763.0, 763.0, 761.0, 761.0, 761.0, 762.0, 762.0, 761.0, 761.0, 761.0, 762.0, 763.0, 762.0, 762.0, 762.0, 763.0, 761.0, 761.0, 762.0, 763.0, 762.0, 759.0, 759.0, 760.0, 760.0, 760.0, 760.0, 761.0, 762.0, 763.0, 762.0, 762.0, 761.0, 761.0, 761.0, 762.0, 763.0, 763.0, 762.0, 761.0, 762.0, 763.0, 762.0, 761.0, 760.0, 761.0, 761.0, 762.0, 763.0, 762.0, 760.0, 760.0, 762.0, 764.0, 763.0, 762.0, 760.0, 760.0, 760.0, 762.0, 763.0, 763.0, 763.0, 764.0, 763.0, 764.0, 763.0, 762.0, 760.0, 759.0, 759.0, 759.0, 760.0, 761.0, 760.0, 759.0, 760.0, 761.0, 762.0, 762.0, 763.0, 763.0, 762.0, 763.0, 762.0, 763.0, 762.0, 762.0, 762.0, 761.0, 759.0, 762.0, 763.0, 763.0, 762.0, 762.0, 762.0, 762.0, 762.0, 762.0, 763.0, 763.0, 762.0, 760.0, 759.0, 760.0, 760.0, 760.0, 761.0, 763.0, 763.0, 759.0, 759.0],
      "WindowWidth": [1641.0, 1632.0, 1628.0, 1627.0, 1628.0, 1630.0, 1631.0, 1632.0, 1634.0, 1633.0, 1635.0, 1636.0, 1637.0, 1640.0, 1648.0, 1644.0, 1638.0, 1635.0, 1635.0, 1641.0, 1641.0, 1638.0, 1637.0, 1640.0, 1644.0, 1643.0, 1641.0, 1639.0, 1639.0, 1642.0, 1645.0, 1643.0, 1641.0, 1640.0, 1647.0, 1650.0, 1646.0, 1642.0, 1645.0, 1647.0, 1644.0, 1640.0, 1640.0, 1644.0, 1641.0, 1638.0, 1639.0, 1640.0, 1639.0, 1638.0, 1637.0, 1636.0, 1638.0, 1639.0, 1644.0, 1649.0, 1649.0, 1646.0, 1648.0, 1651.0, 1651.0, 1649.0, 1645.0, 1643.0, 1645.0, 1644.0, 1644.0, 1645.0, 1644.0, 1642.0, 1644.0, 1651.0, 1649.0, 1642.0, 1635.0, 1631.0, 1633.0, 1637.0, 1641.0, 1642.0, 1642.0, 1642.0, 1642.0, 1639.0, 1635.0, 1632.0, 1631.0, 1635.0, 1637.0, 1640.0, 1639.0, 1636.0, 1637.0, 1641.0, 1645.0, 1645.0, 1646.0, 1647.0, 1647.0, 1644.0, 1643.0, 1643.0, 1647.0, 1649.0, 1649.0, 1644.0, 1643.0, 1645.0, 1650.0, 1649.0, 1648.0, 1644.0, 1645.0, 1647.0, 1647.0, 1645.0, 1640.0, 1641.0, 1644.0, 1649.0, 1650.0, 1647.0, 1647.0, 1653.0, 1650.0, 1642.0, 1637.0, 1637.0, 1638.0, 1641.0, 1646.0, 1647.0, 1644.0, 1641.0, 1641.0, 1639.0, 1639.0, 1635.0, 1637.0, 1639.0, 1640.0, 1641.0, 1647.0, 1649.0, 1648.0, 1643.0, 1642.0, 1643.0, 1646.0, 1645.0, 1644.0, 1643.0, 1643.0, 1645.0, 1649.0, 1647.0, 1645.0, 1646.0, 1648.0, 1644.0, 1643.0, 1646.0, 1649.0, 1645.0, 1639.0, 1638.0, 1640.0, 1639.0, 1641.0, 1641.0, 1643.0, 1645.0, 1648.0, 1646.0, 1646.0, 1643.0, 1642.0, 1642.0, 1645.0, 1648.0, 1649.0, 1645.0, 1643.0, 1646.0, 1648.0, 1646.0, 1643.0, 1640.0, 1642.0, 1643.0, 1647.0, 1648.0, 1646.0, 1640.0, 1640.0, 1646.0, 1650.0, 1649.0, 1646.0, 1641.0, 1640.0, 1641.0, 1646.0, 1647.0, 1647.0, 1647.0, 1649.0, 1647.0, 1650.0, 1648.0, 1645.0, 1640.0, 1636.0, 1638.0, 1638.0, 1639.0, 1642.0, 1640.0, 1639.0, 1641.0, 1644.0, 1645.0, 1645.0, 1647.0, 1648.0, 1646.0, 1648.0, 1647.0, 1648.0, 1647.0, 1646.0, 1645.0, 1643.0, 1637.0, 1645.0, 1649.0, 1647.0, 1644.0, 1644.0, 1646.0, 1647.0, 1646.0, 1646.0, 1648.0, 1649.0, 1645.0, 1641.0, 1638.0, 1640.0, 1640.0, 1640.0, 1643.0, 1647.0, 1648.0, 1637.0, 1639.0]
    },
    "slices": {}
  }
}