{
  "AcquisitionMatrixPE": 100,
  "AcquisitionNumber": 1,
  "AcquisitionTime": "14:36:53.212500",
  "BandwidthPerPixelPhaseEncode": 18.519,
  "BaseResolution": 100,
  "BodyPartExamined": "BRAIN",
  "ConsistencyInfo": "N4_VE11C_LATEST_20160120",
  "ConversionSoftware": "dcm2niix",
  "ConversionSoftwareVersion": "v1.0.20180622 GCC4.9.2",
  "DerivedVendorReportedEchoSpacing": 0.000539986,
  "DeviceSerialNumber": "166078",
  "DwellTime": 2.1e-06,
  "EchoTime": 0.034,
  "EchoTrainLength": 100,
  "EffectiveEchoSpacing": 0.000539986,
  "FlipAngle": 90,
  "ImageOrientationPatientDICOM": [0.999535, -0.00861161, -0.0292462, -1.59786e-08, 0.959278, -0.282462],
  "ImageType": [
    "ORIGINAL",
    "PRIMARY",
    "M",
    "ND",
    "MOSAIC"
],
  "InPlanePhaseEncodingDirectionDICOM": "COL",
  "InstitutionAddress": "Street_StreetNo_Bei_Jing_District_CN_ZIP",
  "InstitutionName": "BeiJing_Normal_University",
  "InstitutionalDepartmentName": "Department",
  "MRAcquisitionType": "2D",
  "MagneticFieldStrength": 3,
  "Manufacturer": "Siemens",
  "ManufacturersModelName": "Prisma",
  "Modality": "MR",
  "MultibandAccelerationFactor": 3,
  "PartialFourier": 1,
  "PatientPosition": "HFS",
  "PercentPhaseFOV": 100,
  "PhaseEncodingDirection": "j-",
  "PhaseEncodingSteps": 100,
  "PhaseResolution": 1,
  "PixelBandwidth": 2380,
  "ProcedureStepDescription": "BNU_P2018_64CH_Zhen.ZongLei",
  "ProtocolName": "bold_100x100_s3_2x2x2_static_256",
  "PulseSequenceDetails": "%SiemensSeq%_ep2d_bold",
  "ReceiveCoilActiveElements": "HC1-7;NC1",
  "ReceiveCoilName": "HeadNeck_64",
  "ReconMatrixPE": 100,
  "RepetitionTime": 2,
  "SAR": 0.065753,
  "ScanOptions": "FS",
  "ScanningSequence": "EP",
  "SequenceName": "_epfid2d1_100",
  "SequenceVariant": "SK",
  "SeriesDescription": "bold_100x100_s3_2x2x2_static_256",
  "SeriesNumber": 14,
  "ShimSetting": [-5454, -11448, -1307, 395, -11, -450, -256, 67],
  "SliceThickness": 2,
  "SliceTiming": [1.485, 0, 0.99, 0.0825, 1.0725, 0.165, 1.155, 0.2475, 1.2375, 0.33, 1.32, 0.4125, 1.4025, 0.5775, 1.5675, 0.66, 1.65, 0.7425, 1.7325, 0.825, 1.815, 0.9075, 1.8975, 0.495, 1.485, 0, 0.99, 0.0825, 1.0725, 0.165, 1.155, 0.2475, 1.2375, 0.33, 1.32, 0.4125, 1.4025, 0.5775, 1.5675, 0.66, 1.65, 0.7425, 1.7325, 0.825, 1.815, 0.9075, 1.8975, 0.495, 1.485, 0, 0.99, 0.0825, 1.0725, 0.165, 1.155, 0.2475, 1.2375, 0.33, 1.32, 0.4125, 1.4025, 0.5775, 1.5675, 0.66, 1.65, 0.7425, 1.7325, 0.825, 1.815, 0.9075, 1.8975, 0.495],
  "SoftwareVersions": "syngo_MR_E11",
  "SpacingBetweenSlices": 2,
  "StationName": "AWP166078",
  "TaskName": "naturalvision",
  "TotalReadoutTime": 0.0534586,
  "TxRefAmp": 212.528,
  "dcmmeta_affine": [
    [-1.9990702867507935, -3.195725994942222e-08, -0.06097547337412834, 100.78273010253906],
    [0.01722322404384613, 1.9185569286346436, -0.56466144323349, -73.45836639404297],
    [-0.05849246680736542, 0.5649240612983704, 1.9176651239395142, -109.64268493652344],
    [0.0, 0.0, 0.0, 1.0]
],
  "dcmmeta_reorient_transform": [
    [0.0, -1.0, 0.0, 99.0],
    [1.0, 0.0, 0.0, 0.0],
    [0.0, 0.0, 1.0, 0.0],
    [0.0, 0.0, 0.0, 1.0]
],
  "dcmmeta_shape": [100, 100, 72, 256],
  "dcmmeta_slice_dim": 2,
  "dcmmeta_version": 0.6,
  "global": {
    "const": {
      "AcquisitionMatrix": [100, 0, 0, 100],
      "AngioFlag": "N",
      "BitsAllocated": 16,
      "BitsStored": 12,
      "BodyPartExamined": "BRAIN",
      "Columns": 900,
      "EchoNumbers": 1,
      "EchoTime": 34.0,
      "EchoTrainLength": 100,
      "FlipAngle": 90.0,
      "HighBit": 11,
      "ImageOrientationPatient": [0.99953514094058, -0.0086116119732, -0.029246233332, -1.597863e-08, 0.95927848362654, -0.2824620166521],
      "ImagePositionPatient": [-900.41082656182, -877.01227288217, 195.65139288121],
      "ImageType": [
        "ORIGINAL",
        "PRIMARY",
        "M",
        "ND",
        "MOSAIC"
],
      "ImagedNucleus": "1H",
      "ImagingFrequency": 123.257797,
      "InPlanePhaseEncodingDirection": "COL",
      "MRAcquisitionType": "2D",
      "MagneticFieldStrength": 3.0,
      "Manufacturer": "SIEMENS",
      "ManufacturerModelName": "Prisma",
      "Modality": "MR",
      "NumberOfAverages": 1.0,
      "NumberOfPhaseEncodingSteps": 100,
      "PercentPhaseFieldOfView": 100.0,
      "PercentSampling": 100.0,
      "PerformedProcedureStepStartTime": "130522.753000",
      "PhotometricInterpretation": "MONOCHROME2",
      "PixelBandwidth": 2380.0,
      "PixelRepresentation": 0,
      "PixelSpacing": [2.0, 2.0],
      "ProtocolName": "bold_100x100_s3_2x2x2_static_256",
      "RepetitionTime": 2000.0,
      "Rows": 900,
      "SAR": 0.06575302915584,
      "SamplesPerPixel": 1,
      "ScanOptions": "FS",
      "ScanningSequence": "EP",
      "SequenceName": "*epfid2d1_100",
      "SequenceVariant": "SK",
      "SeriesDescription": "bold_100x100_s3_2x2x2_static_256",
      "SeriesNumber": 14,
      "SeriesTime": "143656.186000",
      "SliceLocation": -87.462062002114,
      "SliceThickness": 2.0,
      "SmallestImagePixelValue": 0,
      "SoftwareVersions": "syngo MR E11",
      "SpacingBetweenSlices": 2.0000000244009,
      "SpecificCharacterSet": "ISO_IR 100",
      "StudyID": "1",
      "StudyTime": "130522.632000",
      "TransmitCoilName": "Body",
      "VariableFlipAngleFlag": "N",
      "WindowCenterWidthExplanation": "Algo1",
      "dBdt": 0.0},
    "slices": {}
  },
  "time": {
    "samples": {
      "AcquisitionNumber": [1, 2, 3, 4, 5, 6, 7, 8, 9, 10, 11, 12, 13, 14, 15, 16, 17, 18, 19, 20, 21, 22, 23, 24, 25, 26, 27, 28, 29, 30, 31, 32, 33, 34, 35, 36, 37, 38, 39, 40, 41, 42, 43, 44, 45, 46, 47, 48, 49, 50, 51, 52, 53, 54, 55, 56, 57, 58, 59, 60, 61, 62, 63, 64, 65, 66, 67, 68, 69, 70, 71, 72, 73, 74, 75, 76, 77, 78, 79, 80, 81, 82, 83, 84, 85, 86, 87, 88, 89, 90, 91, 92, 93, 94, 95, 96, 97, 98, 99, 100, 101, 102, 103, 104, 105, 106, 107, 108, 109, 110, 111, 112, 113, 114, 115, 116, 117, 118, 119, 120, 121, 122, 123, 124, 125, 126, 127, 128, 129, 130, 131, 132, 133, 134, 135, 136, 137, 138, 139, 140, 141, 142, 143, 144, 145, 146, 147, 148, 149, 150, 151, 152, 153, 154, 155, 156, 157, 158, 159, 160, 161, 162, 163, 164, 165, 166, 167, 168, 169, 170, 171, 172, 173, 174, 175, 176, 177, 178, 179, 180, 181, 182, 183, 184, 185, 186, 187, 188, 189, 190, 191, 192, 193, 194, 195, 196, 197, 198, 199, 200, 201, 202, 203, 204, 205, 206, 207, 208, 209, 210, 211, 212, 213, 214, 215, 216, 217, 218, 219, 220, 221, 222, 223, 224, 225, 226, 227, 228, 229, 230, 231, 232, 233, 234, 235, 236, 237, 238, 239, 240, 241, 242, 243, 244, 245, 246, 247, 248, 249, 250, 251, 252, 253, 254, 255, 256],
      "AcquisitionTime": ["143653.212500", "143655.212500", "143657.212500", "143659.212500", "143701.212500", "143703.212500", "143705.212500", "143707.212500", "143709.212500", "143711.212500", "143713.212500", "143715.212500", "143717.212500", "143719.212500", "143721.212500", "143723.212500", "143725.212500", "143727.212500", "143729.212500", "143731.212500", "143733.212500", "143735.212500", "143737.212500", "143739.212500", "143741.212500", "143743.212500", "143745.212500", "143747.212500", "143749.212500", "143751.212500", "143753.212500", "143755.212500", "143757.212500", "143759.212500", "143801.212500", "143803.212500", "143805.212500", "143807.212500", "143809.212500", "143811.212500", "143813.212500", "143815.212500", "143817.212500", "143819.212500", "143821.212500", "143823.212500", "143825.212500", "143827.212500", "143829.212500", "143831.212500", "143833.212500", "143835.212500", "143837.212500", "143839.212500", "143841.212500", "143843.212500", "143845.212500", "143847.212500", "143849.212500", "143851.212500", "143853.212500", "143855.212500", "143857.212500", "143859.212500", "143901.212500", "143903.212500", "143905.212500", "143907.212500", "143909.212500", "143911.212500", "143913.212500", "143915.212500", "143917.212500", "143919.212500", "143921.212500", "143923.212500", "143925.212500", "143927.212500", "143929.212500", "143931.212500", "143933.212500", "143935.212500", "143937.212500", "143939.212500", "143941.212500", "143943.212500", "143945.212500", "143947.212500", "143949.212500", "143951.212500", "143953.212500", "143955.212500", "143957.212500", "143959.212500", "144001.212500", "144003.212500", "144005.212500", "144007.212500", "144009.212500", "144011.212500", "144013.212500", "144015.212500", "144017.212500", "144019.212500", "144021.212500", "144023.212500", "144025.212500", "144027.212500", "144029.212500", "144031.212500", "144033.212500", "144035.212500", "144037.212500", "144039.212500", "144041.212500", "144043.212500", "144045.212500", "144047.212500", "144049.212500", "144051.212500", "144053.212500", "144055.212500", "144057.212500", "144059.212500", "144101.212500", "144103.212500", "144105.212500", "144107.212500", "144109.212500", "144111.212500", "144113.212500", "144115.212500", "144117.212500", "144119.212500", "144121.212500", "144123.212500", "144125.212500", "144127.212500", "144129.212500", "144131.212500", "144133.212500", "144135.212500", "144137.212500", "144139.212500", "144141.212500", "144143.212500", "144145.212500", "144147.212500", "144149.212500", "144151.212500", "144153.212500", "144155.212500", "144157.212500", "144159.212500", "144201.212500", "144203.212500", "144205.212500", "144207.212500", "144209.212500", "144211.212500", "144213.212500", "144215.212500", "144217.212500", "144219.212500", "144221.212500", "144223.212500", "144225.212500", "144227.212500", "144229.212500", "144231.212500", "144233.212500", "144235.212500", "144237.212500", "144239.212500", "144241.212500", "144243.212500", "144245.212500", "144247.212500", "144249.212500", "144251.212500", "144253.212500", "144255.212500", "144257.212500", "144259.212500", "144301.212500", "144303.212500", "144305.212500", "144307.212500", "144309.212500", "144311.212500", "144313.212500", "144315.212500", "144317.212500", "144319.212500", "144321.212500", "144323.212500", "144325.212500", "144327.212500", "144329.212500", "144331.212500", "144333.212500", "144335.212500", "144337.212500", "144339.212500", "144341.212500", "144343.212500", "144345.212500", "144347.212500", "144349.212500", "144351.212500", "144353.212500", "144355.212500", "144357.212500", "144359.212500", "144401.212500", "144403.212500", "144405.212500", "144407.212500", "144409.212500", "144411.212500", "144413.212500", "144415.212500", "144417.212500", "144419.212500", "144421.212500", "144423.212500", "144425.212500", "144427.212500", "144429.212500", "144431.212500", "144433.212500", "144435.212500", "144437.212500", "144439.212500", "144441.212500", "144443.212500", "144445.212500", "144447.212500", "144449.212500", "144451.212500", "144453.212500", "144455.212500", "144457.212500", "144459.212500", "144501.212500", "144503.212500", "144505.212500", "144507.212500", "144509.212500", "144511.212500", "144513.212500", "144515.212500", "144517.212500", "144519.212500", "144521.212500", "144523.212500"],
      "ContentTime": ["143656.189000", "143657.684000", "143659.685000", "143701.684000", "143703.683000", "143705.684000", "143707.683000", "143709.685000", "143711.684000", "143713.685000", "143715.685000", "143717.685000", "143719.683000", "143721.683000", "143723.683000", "143725.684000", "143727.685000", "143729.685000", "143731.684000", "143733.685000", "143735.685000", "143737.683000", "143739.683000", "143741.684000", "143743.684000", "143745.684000", "143747.685000", "143749.685000", "143751.684000", "143753.684000", "143755.684000", "143757.683000", "143759.684000", "143801.683000", "143803.684000", "143805.685000", "143807.685000", "143809.685000", "143811.684000", "143813.684000", "143815.683000", "143817.683000", "143819.685000", "143821.684000", "143823.685000", "143825.685000", "143827.684000", "143829.684000", "143831.683000", "143833.683000", "143835.684000", "143837.685000", "143839.685000", "143841.685000", "143843.685000", "143845.685000", "143847.683000", "143849.683000", "143851.684000", "143853.684000", "143855.685000", "143857.685000", "143859.685000", "143901.684000", "143903.684000", "143905.683000", "143907.683000", "143909.684000", "143911.684000", "143913.685000", "143915.685000", "143917.684000", "143919.685000", "143921.684000", "143923.684000", "143925.684000", "143927.684000", "143929.684000", "143931.685000", "143933.684000", "143935.685000", "143937.685000", "143939.684000", "143941.683000", "143943.683000", "143945.684000", "143947.685000", "143949.685000", "143951.685000", "143953.685000", "143955.685000", "143957.684000", "143959.683000", "144001.683000", "144003.683000", "144005.685000", "144007.685000", "144009.684000", "144011.685000", "144013.684000", "144015.684000", "144017.683000", "144019.683000", "144021.683000", "144023.684000", "144025.685000", "144027.685000", "144029.685000", "144031.684000", "144033.684000", "144035.684000", "144037.683000", "144039.685000", "144041.684000", "144043.685000", "144045.685000", "144047.685000", "144049.684000", "144051.684000", "144053.683000", "144055.684000", "144057.684000", "144059.684000", "144101.685000", "144103.685000", "144105.685000", "144107.684000", "144109.684000", "144111.684000", "144113.683000", "144115.684000", "144117.685000", "144119.685000", "144121.685000", "144123.684000", "144125.684000", "144127.683000", "144129.683000", "144131.684000", "144133.685000", "144135.685000", "144137.685000", "144139.685000", "144141.684000", "144143.684000", "144145.684000", "144147.684000", "144149.685000", "144151.685000", "144153.684000", "144155.685000", "144157.685000", "144159.683000", "144201.684000", "144203.684000", "144205.684000", "144207.685000", "144209.685000", "144211.684000", "144213.685000", "144215.685000", "144217.684000", "144219.683000", "144221.684000", "144223.683000", "144225.684000", "144227.685000", "144229.685000", "144231.685000", "144233.683000", "144235.684000", "144237.683000", "144239.684000", "144241.683000", "144243.685000", "144245.684000", "144247.685000", "144249.685000", "144251.684000", "144253.684000", "144255.684000", "144257.684000", "144259.684000", "144301.684000", "144303.685000", "144305.685000", "144307.685000", "144309.683000", "144311.684000", "144313.683000", "144315.683000", "144317.684000", "144319.685000", "144321.685000", "144323.685000", "144325.684000", "144327.684000", "144329.683000", "144331.696000", "144333.684000", "144335.685000", "144337.684000", "144339.685000", "144341.684000", "144343.684000", "144345.684000", "144347.684000", "144349.683000", "144351.684000", "144353.685000", "144355.685000", "144357.685000", "144359.685000", "144401.684000", "144403.683000", "144405.684000", "144407.684000", "144409.685000", "144411.685000", "144413.685000", "144415.685000", "144417.685000", "144419.683000", "144421.683000", "144423.684000", "144425.684000", "144427.684000", "144429.685000", "144431.685000", "144433.685000", "144435.685000", "144437.684000", "144439.684000", "144441.684000", "144443.684000", "144445.685000", "144447.684000", "144449.685000", "144451.685000", "144453.684000", "144455.684000", "144457.684000", "144459.684000", "144501.684000", "144503.685000", "144505.684000", "144507.685000", "144509.684000", "144511.684000", "144513.684000", "144515.683000", "144517.683000", "144519.685000", "144521.685000", "144523.685000", "144525.411000"],
      "InstanceCreationTime": ["143656.189000", "143657.684000", "143659.685000", "143701.684000", "143703.683000", "143705.684000", "143707.683000", "143709.685000", "143711.684000", "143713.685000", "143715.685000", "143717.685000", "143719.683000", "143721.683000", "143723.683000", "143725.684000", "143727.685000", "143729.685000", "143731.684000", "143733.685000", "143735.685000", "143737.683000", "143739.683000", "143741.684000", "143743.684000", "143745.684000", "143747.685000", "143749.685000", "143751.684000", "143753.684000", "143755.684000", "143757.683000", "143759.684000", "143801.683000", "143803.684000", "143805.685000", "143807.685000", "143809.685000", "143811.684000", "143813.684000", "143815.683000", "143817.683000", "143819.685000", "143821.684000", "143823.685000", "143825.685000", "143827.684000", "143829.684000", "143831.683000", "143833.683000", "143835.684000", "143837.685000", "143839.685000", "143841.685000", "143843.685000", "143845.685000", "143847.683000", "143849.683000", "143851.684000", "143853.684000", "143855.685000", "143857.685000", "143859.685000", "143901.684000", "143903.684000", "143905.683000", "143907.683000", "143909.684000", "143911.684000", "143913.685000", "143915.685000", "143917.684000", "143919.685000", "143921.684000", "143923.684000", "143925.684000", "143927.684000", "143929.684000", "143931.685000", "143933.684000", "143935.685000", "143937.685000", "143939.684000", "143941.683000", "143943.683000", "143945.684000", "143947.685000", "143949.685000", "143951.685000", "143953.685000", "143955.685000", "143957.684000", "143959.683000", "144001.683000", "144003.683000", "144005.685000", "144007.685000", "144009.684000", "144011.685000", "144013.684000", "144015.684000", "144017.683000", "144019.683000", "144021.683000", "144023.684000", "144025.685000", "144027.685000", "144029.685000", "144031.684000", "144033.684000", "144035.684000", "144037.683000", "144039.685000", "144041.684000", "144043.685000", "144045.685000", "144047.685000", "144049.684000", "144051.684000", "144053.683000", "144055.684000", "144057.684000", "144059.684000", "144101.685000", "144103.685000", "144105.685000", "144107.684000", "144109.684000", "144111.684000", "144113.683000", "144115.684000", "144117.685000", "144119.685000", "144121.685000", "144123.684000", "144125.684000", "144127.683000", "144129.683000", "144131.684000", "144133.685000", "144135.685000", "144137.685000", "144139.685000", "144141.684000", "144143.684000", "144145.684000", "144147.684000", "144149.685000", "144151.685000", "144153.684000", "144155.685000", "144157.685000", "144159.683000", "144201.684000", "144203.684000", "144205.684000", "144207.685000", "144209.685000", "144211.684000", "144213.685000", "144215.685000", "144217.684000", "144219.683000", "144221.684000", "144223.683000", "144225.684000", "144227.685000", "144229.685000", "144231.685000", "144233.683000", "144235.684000", "144237.683000", "144239.684000", "144241.683000", "144243.685000", "144245.684000", "144247.685000", "144249.685000", "144251.684000", "144253.684000", "144255.684000", "144257.684000", "144259.684000", "144301.684000", "144303.685000", "144305.685000", "144307.685000", "144309.683000", "144311.684000", "144313.683000", "144315.683000", "144317.684000", "144319.685000", "144321.685000", "144323.685000", "144325.684000", "144327.684000", "144329.683000", "144331.696000", "144333.684000", "144335.685000", "144337.684000", "144339.685000", "144341.684000", "144343.684000", "144345.684000", "144347.684000", "144349.683000", "144351.684000", "144353.685000", "144355.685000", "144357.685000", "144359.685000", "144401.684000", "144403.683000", "144405.684000", "144407.684000", "144409.685000", "144411.685000", "144413.685000", "144415.685000", "144417.685000", "144419.683000", "144421.683000", "144423.684000", "144425.684000", "144427.684000", "144429.685000", "144431.685000", "144433.685000", "144435.685000", "144437.684000", "144439.684000", "144441.684000", "144443.684000", "144445.685000", "144447.684000", "144449.685000", "144451.685000", "144453.684000", "144455.684000", "144457.684000", "144459.684000", "144501.684000", "144503.685000", "144505.684000", "144507.685000", "144509.684000", "144511.684000", "144513.684000", "144515.683000", "144517.683000", "144519.685000", "144521.685000", "144523.685000", "144525.411000"],
      "InstanceNumber": [1, 2, 3, 4, 5, 6, 7, 8, 9, 10, 11, 12, 13, 14, 15, 16, 17, 18, 19, 20, 21, 22, 23, 24, 25, 26, 27, 28, 29, 30, 31, 32, 33, 34, 35, 36, 37, 38, 39, 40, 41, 42, 43, 44, 45, 46, 47, 48, 49, 50, 51, 52, 53, 54, 55, 56, 57, 58, 59, 60, 61, 62, 63, 64, 65, 66, 67, 68, 69, 70, 71, 72, 73, 74, 75, 76, 77, 78, 79, 80, 81, 82, 83, 84, 85, 86, 87, 88, 89, 90, 91, 92, 93, 94, 95, 96, 97, 98, 99, 100, 101, 102, 103, 104, 105, 106, 107, 108, 109, 110, 111, 112, 113, 114, 115, 116, 117, 118, 119, 120, 121, 122, 123, 124, 125, 126, 127, 128, 129, 130, 131, 132, 133, 134, 135, 136, 137, 138, 139, 140, 141, 142, 143, 144, 145, 146, 147, 148, 149, 150, 151, 152, 153, 154, 155, 156, 157, 158, 159, 160, 161, 162, 163, 164, 165, 166, 167, 168, 169, 170, 171, 172, 173, 174, 175, 176, 177, 178, 179, 180, 181, 182, 183, 184, 185, 186, 187, 188, 189, 190, 191, 192, 193, 194, 195, 196, 197, 198, 199, 200, 201, 202, 203, 204, 205, 206, 207, 208, 209, 210, 211, 212, 213, 214, 215, 216, 217, 218, 219, 220, 221, 222, 223, 224, 225, 226, 227, 228, 229, 230, 231, 232, 233, 234, 235, 236, 237, 238, 239, 240, 241, 242, 243, 244, 245, 246, 247, 248, 249, 250, 251, 252, 253, 254, 255, 256],
      "LargestImagePixelValue": [2896, 2892, 2861, 2853, 2910, 2899, 2967, 2932, 2957, 2878, 2933, 2928, 2892, 2962, 2970, 2983, 2974, 2971, 2973, 3000, 2982, 3044, 3008, 2999, 2982, 2996, 3008, 3024, 3008, 3028, 3008, 3023, 3035, 3033, 3026, 3050, 3034, 3062, 3076, 3019, 2991, 3058, 3073, 3039, 3051, 3039, 3045, 3062, 3058, 3045, 3039, 3087, 3078, 3014, 3038, 3034, 3068, 3073, 3088, 3080, 3058, 3074, 3128, 3140, 3094, 3121, 3112, 3144, 3140, 3151, 3119, 3146, 3125, 3148, 3154, 3168, 3177, 3158, 3170, 3169, 3179, 3138, 3208, 3207, 3214, 3231, 3205, 3228, 3196, 3253, 3225, 3176, 3184, 3193, 3200, 3227, 3219, 3235, 3200, 3217, 3211, 3184, 3197, 3217, 3215, 3203, 3189, 3213, 3239, 3268, 3242, 3245, 3290, 3301, 3305, 3253, 3231, 3248, 3256, 3289, 3247, 3264, 3230, 3254, 3304, 3254, 3260, 3257, 3214, 3217, 3275, 3293, 3319, 3289, 3320, 3290, 3260, 3275, 3271, 3303, 3290, 3268, 3256, 3256, 3286, 3301, 3351, 3302, 3293, 3270, 3284, 3307, 3236, 3296, 3321, 3284, 3275, 3286, 3334, 3320, 3272, 3248, 3299, 3279, 3299, 3274, 3302, 3302, 3294, 3288, 3288, 3288, 3318, 3319, 3319, 3318, 3290, 3308, 3333, 3334, 3350, 3321, 3318, 3299, 3281, 3261, 3321, 3300, 3293, 3294, 3343, 3320, 3319, 3280, 3304, 3319, 3291, 3270, 3284, 3280, 3275, 3304, 3296, 3280, 3257, 3268, 3291, 3280, 3274, 3300, 3341, 3332, 3301, 3326, 3327, 3321, 3260, 3285, 3328, 3300, 3240, 3248, 3283, 3287, 3318, 3254, 3320, 3327, 3342, 3323, 3312, 3305, 3329, 3294, 3352, 3336, 3310, 3283, 3304, 3351, 3358, 3329, 3338, 3329, 3334, 3355, 3357, 3322, 3294, 3302, 3250, 3284, 3242, 3257, 3258, 3248],
      "WindowCenter": [762.0, 761.0, 759.0, 758.0, 758.0, 758.0, 758.0, 758.0, 759.0, 760.0, 761.0, 762.0, 760.0, 759.0, 759.0, 760.0, 760.0, 759.0, 757.0, 755.0, 755.0, 757.0, 759.0, 758.0, 758.0, 758.0, 759.0, 760.0, 760.0, 759.0, 759.0, 759.0, 761.0, 762.0, 762.0, 762.0, 761.0, 761.0, 763.0, 761.0, 760.0, 760.0, 761.0, 762.0, 761.0, 759.0, 759.0, 759.0, 761.0, 762.0, 761.0, 762.0, 761.0, 760.0, 761.0, 761.0, 762.0, 761.0, 762.0, 761.0, 761.0, 760.0, 761.0, 762.0, 761.0, 761.0, 762.0, 762.0, 762.0, 761.0, 761.0, 763.0, 762.0, 762.0, 762.0, 763.0, 763.0, 763.0, 763.0, 763.0, 763.0, 763.0, 764.0, 764.0, 763.0, 762.0, 763.0, 765.0, 765.0, 764.0, 762.0, 761.0, 761.0, 762.0, 763.0, 763.0, 762.0, 763.0, 764.0, 764.0, 763.0, 761.0, 761.0, 763.0, 763.0, 762.0, 762.0, 762.0, 763.0, 764.0, 763.0, 763.0, 764.0, 764.0, 764.0, 764.0, 763.0, 762.0, 763.0, 762.0, 762.0, 763.0, 763.0, 764.0, 764.0, 763.0, 763.0, 764.0, 764.0, 764.0, 764.0, 764.0, 764.0, 765.0, 766.0, 764.0, 763.0, 763.0, 764.0, 765.0, 765.0, 764.0, 763.0, 762.0, 763.0, 765.0, 767.0, 765.0, 764.0, 763.0, 763.0, 765.0, 766.0, 765.0, 764.0, 762.0, 763.0, 764.0, 765.0, 765.0, 764.0, 763.0, 763.0, 763.0, 764.0, 764.0, 765.0, 764.0, 765.0, 764.0, 764.0, 764.0, 765.0, 764.0, 764.0, 765.0, 765.0, 765.0, 764.0, 764.0, 765.0, 766.0, 766.0, 765.0, 763.0, 762.0, 764.0, 765.0, 764.0, 763.0, 764.0, 765.0, 765.0, 764.0, 764.0, 764.0, 765.0, 765.0, 765.0, 765.0, 765.0, 766.0, 766.0, 764.0, 763.0, 763.0, 765.0, 765.0, 766.0, 765.0, 765.0, 765.0, 764.0, 765.0, 766.0, 765.0, 763.0, 763.0, 765.0, 766.0, 764.0, 762.0, 764.0, 766.0, 766.0, 764.0, 765.0, 765.0, 765.0, 764.0, 765.0, 765.0, 767.0, 766.0, 766.0, 765.0, 765.0, 764.0, 764.0, 764.0, 765.0, 766.0, 768.0, 766.0, 766.0, 766.0, 766.0, 766.0, 764.0, 764.0, 765.0, 767.0, 765.0, 765.0, 764.0, 763.0],
      "WindowWidth": [1644.0, 1641.0, 1637.0, 1635.0, 1636.0, 1635.0, 1633.0, 1635.0, 1637.0, 1639.0, 1644.0, 1645.0, 1640.0, 1636.0, 1638.0, 1639.0, 1640.0, 1637.0, 1631.0, 1627.0, 1626.0, 1632.0, 1637.0, 1635.0, 1634.0, 1634.0, 1636.0, 1640.0, 1639.0, 1638.0, 1636.0, 1638.0, 1642.0, 1645.0, 1646.0, 1645.0, 1643.0, 1644.0, 1647.0, 1644.0, 1639.0, 1640.0, 1642.0, 1644.0, 1641.0, 1637.0, 1636.0, 1637.0, 1642.0, 1644.0, 1642.0, 1643.0, 1642.0, 1641.0, 1642.0, 1643.0, 1643.0, 1643.0, 1644.0, 1643.0, 1641.0, 1639.0, 1642.0, 1643.0, 1643.0, 1642.0, 1643.0, 1645.0, 1644.0, 1642.0, 1642.0, 1646.0, 1646.0, 1644.0, 1644.0, 1647.0, 1647.0, 1646.0, 1647.0, 1647.0, 1646.0, 1646.0, 1650.0, 1650.0, 1647.0, 1645.0, 1648.0, 1652.0, 1652.0, 1648.0, 1644.0, 1641.0, 1641.0, 1645.0, 1648.0, 1648.0, 1645.0, 1646.0, 1649.0, 1650.0, 1647.0, 1642.0, 1643.0, 1647.0, 1647.0, 1644.0, 1643.0, 1644.0, 1648.0, 1650.0, 1648.0, 1648.0, 1649.0, 1649.0, 1651.0, 1649.0, 1645.0, 1644.0, 1646.0, 1645.0, 1646.0, 1647.0, 1649.0, 1650.0, 1650.0, 1647.0, 1649.0, 1649.0, 1649.0, 1648.0, 1650.0, 1649.0, 1649.0, 1653.0, 1656.0, 1651.0, 1647.0, 1647.0, 1650.0, 1652.0, 1652.0, 1650.0, 1646.0, 1646.0, 1647.0, 1654.0, 1658.0, 1653.0, 1649.0, 1647.0, 1648.0, 1652.0, 1655.0, 1653.0, 1651.0, 1646.0, 1647.0, 1650.0, 1654.0, 1652.0, 1650.0, 1647.0, 1648.0, 1647.0, 1649.0, 1650.0, 1651.0, 1651.0, 1651.0, 1649.0, 1650.0, 1650.0, 1652.0, 1651.0, 1650.0, 1653.0, 1653.0, 1652.0, 1651.0, 1651.0, 1654.0, 1654.0, 1655.0, 1651.0, 1648.0, 1645.0, 1649.0, 1651.0, 1649.0, 1647.0, 1650.0, 1651.0, 1651.0, 1649.0, 1649.0, 1650.0, 1652.0, 1652.0, 1651.0, 1652.0, 1653.0, 1655.0, 1655.0, 1650.0, 1646.0, 1647.0, 1651.0, 1653.0, 1654.0, 1653.0, 1653.0, 1653.0, 1650.0, 1653.0, 1656.0, 1652.0, 1646.0, 1647.0, 1653.0, 1654.0, 1648.0, 1645.0, 1649.0, 1654.0, 1654.0, 1650.0, 1652.0, 1652.0, 1652.0, 1651.0, 1652.0, 1653.0, 1657.0, 1656.0, 1655.0, 1651.0, 1651.0, 1648.0, 1650.0, 1651.0, 1653.0, 1656.0, 1659.0, 1655.0, 1654.0, 1654.0, 1656.0, 1654.0, 1650.0, 1649.0, 1652.0, 1657.0, 1652.0, 1652.0, 1651.0, 1645.0]
    },
    "slices": {}
  }
}