{
  "AcquisitionMatrixPE": 100,
  "AcquisitionNumber": 1,
  "AcquisitionTime": "15:26:40.402500",
  "BandwidthPerPixelPhaseEncode": 18.519,
  "BaseResolution": 100,
  "BodyPartExamined": "BRAIN",
  "ConsistencyInfo": "N4_VE11C_LATEST_20160120",
  "ConversionSoftware": "dcm2niix",
  "ConversionSoftwareVersion": "v1.0.20180622 GCC4.9.2",
  "DerivedVendorReportedEchoSpacing": 0.000539986,
  "DeviceSerialNumber": "166078",
  "DwellTime": 2.1e-06,
  "EchoTime": 0.034,
  "EchoTrainLength": 100,
  "EffectiveEchoSpacing": 0.000539986,
  "FlipAngle": 90,
  "ImageOrientationPatientDICOM": [1, 0, 0, 0, 0.989776, -0.142629],
  "ImageType": [
    "ORIGINAL",
    "PRIMARY",
    "M",
    "ND",
    "MOSAIC"
],
  "InPlanePhaseEncodingDirectionDICOM": "COL",
  "InstitutionAddress": "Street_StreetNo_Bei_Jing_District_CN_ZIP",
  "InstitutionName": "BeiJing_Normal_University",
  "InstitutionalDepartmentName": "Department",
  "MRAcquisitionType": "2D",
  "MagneticFieldStrength": 3,
  "Manufacturer": "Siemens",
  "ManufacturersModelName": "Prisma",
  "Modality": "MR",
  "MultibandAccelerationFactor": 3,
  "PartialFourier": 1,
  "PatientPosition": "HFS",
  "PercentPhaseFOV": 100,
  "PhaseEncodingDirection": "j-",
  "PhaseEncodingSteps": 100,
  "PhaseResolution": 1,
  "PixelBandwidth": 2380,
  "ProcedureStepDescription": "BNU_P2018_64CH_Zhen.ZongLei",
  "ProtocolName": "bold_100x100_s3_2x2x2_static_256",
  "PulseSequenceDetails": "%SiemensSeq%_ep2d_bold",
  "ReceiveCoilActiveElements": "HC1-7;NC1",
  "ReceiveCoilName": "HeadNeck_64",
  "ReconMatrixPE": 100,
  "RepetitionTime": 2,
  "SAR": 0.0822406,
  "ScanOptions": "FS",
  "ScanningSequence": "EP",
  "SequenceName": "_epfid2d1_100",
  "SequenceVariant": "SK",
  "SeriesDescription": "bold_100x100_s3_2x2x2_static_256",
  "SeriesNumber": 10,
  "ShimSetting": [-5473, -11478, -1247, 182, 26, -206, -220, 82],
  "SliceThickness": 2,
  "SliceTiming": [1.485, 0, 0.99, 0.0825, 1.0725, 0.165, 1.155, 0.2475, 1.2375, 0.33, 1.32, 0.4125, 1.4025, 0.5775, 1.5675, 0.66, 1.65, 0.7425, 1.7325, 0.825, 1.8125, 0.9075, 1.895, 0.495, 1.485, 0, 0.99, 0.0825, 1.0725, 0.165, 1.155, 0.2475, 1.2375, 0.33, 1.32, 0.4125, 1.4025, 0.5775, 1.5675, 0.66, 1.65, 0.7425, 1.7325, 0.825, 1.8125, 0.9075, 1.895, 0.495, 1.485, 0, 0.99, 0.0825, 1.0725, 0.165, 1.155, 0.2475, 1.2375, 0.33, 1.32, 0.4125, 1.4025, 0.5775, 1.5675, 0.66, 1.65, 0.7425, 1.7325, 0.825, 1.8125, 0.9075, 1.895, 0.495],
  "SoftwareVersions": "syngo_MR_E11",
  "SpacingBetweenSlices": 2,
  "StationName": "AWP166078",
  "TaskName": "naturalvision",
  "TotalReadoutTime": 0.0534586,
  "TxRefAmp": 249.511,
  "dcmmeta_affine": [
    [-2.0, 0.0, 0.0, 100.0],
    [0.0, 1.9795525074005127, -0.28525787591934204, -82.65454864501953],
    [0.0, 0.28525787591934204, 1.9795525074005127, -87.33609008789062],
    [0.0, 0.0, 0.0, 1.0]
],
  "dcmmeta_reorient_transform": [
    [0.0, -1.0, 0.0, 99.0],
    [1.0, 0.0, 0.0, 0.0],
    [0.0, 0.0, 1.0, 0.0],
    [0.0, 0.0, 0.0, 1.0]
],
  "dcmmeta_shape": [100, 100, 72, 256],
  "dcmmeta_slice_dim": 2,
  "dcmmeta_version": 0.6,
  "global": {
    "const": {
      "AcquisitionMatrix": [100, 0, 0, 100],
      "AngioFlag": "N",
      "BitsAllocated": 16,
      "BitsStored": 12,
      "BodyPartExamined": "BRAIN",
      "Columns": 900,
      "EchoNumbers": 1,
      "EchoTime": 34.0,
      "EchoTrainLength": 100,
      "FlipAngle": 90.0,
      "HighBit": 11,
      "ImageOrientationPatient": [1.0, 0.0, 0.0, 0.0, 0.98977622990198, -0.1426289406854],
      "ImagePositionPatient": [-900.0, -905.14212898362, 55.007594773571],
      "ImageType": [
        "ORIGINAL",
        "PRIMARY",
        "M",
        "ND",
        "MOSAIC"
],
      "ImagedNucleus": "1H",
      "ImagingFrequency": 123.257776,
      "InPlanePhaseEncodingDirection": "COL",
      "MRAcquisitionType": "2D",
      "MagneticFieldStrength": 3.0,
      "Manufacturer": "SIEMENS",
      "ManufacturerModelName": "Prisma",
      "Modality": "MR",
      "NumberOfAverages": 1.0,
      "NumberOfPhaseEncodingSteps": 100,
      "PercentPhaseFieldOfView": 100.0,
      "PercentSampling": 100.0,
      "PerformedProcedureStepStartTime": "143323.646000",
      "PhotometricInterpretation": "MONOCHROME2",
      "PixelBandwidth": 2380.0,
      "PixelRepresentation": 0,
      "PixelSpacing": [2.0, 2.0],
      "ProtocolName": "bold_100x100_s3_2x2x2_static_256",
      "RepetitionTime": 2000.0,
      "Rows": 900,
      "SAR": 0.08224063074196,
      "SamplesPerPixel": 1,
      "ScanOptions": "FS",
      "ScanningSequence": "EP",
      "SequenceName": "*epfid2d1_100",
      "SequenceVariant": "SK",
      "SeriesDescription": "bold_100x100_s3_2x2x2_static_256",
      "SeriesNumber": 10,
      "SeriesTime": "152642.376000",
      "SliceLocation": -74.654253255673,
      "SliceThickness": 2.0,
      "SmallestImagePixelValue": 0,
      "SoftwareVersions": "syngo MR E11",
      "SpacingBetweenSlices": 2.0000000089338,
      "SpecificCharacterSet": "ISO_IR 100",
      "StudyID": "1",
      "StudyTime": "143323.539000",
      "TransmitCoilName": "Body",
      "VariableFlipAngleFlag": "N",
      "WindowCenterWidthExplanation": "Algo1",
      "dBdt": 0.0},
    "slices": {}
  },
  "time": {
    "samples": {
      "AcquisitionNumber": [1, 2, 3, 4, 5, 6, 7, 8, 9, 10, 11, 12, 13, 14, 15, 16, 17, 18, 19, 20, 21, 22, 23, 24, 25, 26, 27, 28, 29, 30, 31, 32, 33, 34, 35, 36, 37, 38, 39, 40, 41, 42, 43, 44, 45, 46, 47, 48, 49, 50, 51, 52, 53, 54, 55, 56, 57, 58, 59, 60, 61, 62, 63, 64, 65, 66, 67, 68, 69, 70, 71, 72, 73, 74, 75, 76, 77, 78, 79, 80, 81, 82, 83, 84, 85, 86, 87, 88, 89, 90, 91, 92, 93, 94, 95, 96, 97, 98, 99, 100, 101, 102, 103, 104, 105, 106, 107, 108, 109, 110, 111, 112, 113, 114, 115, 116, 117, 118, 119, 120, 121, 122, 123, 124, 125, 126, 127, 128, 129, 130, 131, 132, 133, 134, 135, 136, 137, 138, 139, 140, 141, 142, 143, 144, 145, 146, 147, 148, 149, 150, 151, 152, 153, 154, 155, 156, 157, 158, 159, 160, 161, 162, 163, 164, 165, 166, 167, 168, 169, 170, 171, 172, 173, 174, 175, 176, 177, 178, 179, 180, 181, 182, 183, 184, 185, 186, 187, 188, 189, 190, 191, 192, 193, 194, 195, 196, 197, 198, 199, 200, 201, 202, 203, 204, 205, 206, 207, 208, 209, 210, 211, 212, 213, 214, 215, 216, 217, 218, 219, 220, 221, 222, 223, 224, 225, 226, 227, 228, 229, 230, 231, 232, 233, 234, 235, 236, 237, 238, 239, 240, 241, 242, 243, 244, 245, 246, 247, 248, 249, 250, 251, 252, 253, 254, 255, 256],
      "AcquisitionTime": ["152640.402500", "152642.402500", "152644.402500", "152646.402500", "152648.402500", "152650.402500", "152652.402500", "152654.402500", "152656.402500", "152658.402500", "152700.402500", "152702.402500", "152704.402500", "152706.402500", "152708.402500", "152710.402500", "152712.402500", "152714.402500", "152716.402500", "152718.402500", "152720.402500", "152722.402500", "152724.402500", "152726.402500", "152728.402500", "152730.402500", "152732.402500", "152734.402500", "152736.402500", "152738.402500", "152740.402500", "152742.402500", "152744.402500", "152746.402500", "152748.402500", "152750.402500", "152752.402500", "152754.402500", "152756.402500", "152758.402500", "152800.402500", "152802.402500", "152804.402500", "152806.402500", "152808.402500", "152810.402500", "152812.402500", "152814.402500", "152816.402500", "152818.402500", "152820.402500", "152822.402500", "152824.402500", "152826.402500", "152828.402500", "152830.402500", "152832.402500", "152834.402500", "152836.402500", "152838.402500", "152840.402500", "152842.402500", "152844.402500", "152846.402500", "152848.402500", "152850.402500", "152852.402500", "152854.402500", "152856.402500", "152858.402500", "152900.402500", "152902.402500", "152904.402500", "152906.402500", "152908.402500", "152910.402500", "152912.402500", "152914.402500", "152916.402500", "152918.402500", "152920.402500", "152922.402500", "152924.402500", "152926.402500", "152928.402500", "152930.402500", "152932.402500", "152934.402500", "152936.402500", "152938.402500", "152940.402500", "152942.402500", "152944.402500", "152946.402500", "152948.402500", "152950.402500", "152952.402500", "152954.402500", "152956.402500", "152958.402500", "153000.402500", "153002.402500", "153004.402500", "153006.402500", "153008.402500", "153010.402500", "153012.402500", "153014.402500", "153016.402500", "153018.402500", "153020.402500", "153022.402500", "153024.402500", "153026.402500", "153028.402500", "153030.402500", "153032.402500", "153034.402500", "153036.402500", "153038.402500", "153040.402500", "153042.402500", "153044.402500", "153046.402500", "153048.402500", "153050.402500", "153052.402500", "153054.402500", "153056.402500", "153058.402500", "153100.402500", "153102.402500", "153104.402500", "153106.402500", "153108.402500", "153110.402500", "153112.402500", "153114.402500", "153116.402500", "153118.402500", "153120.402500", "153122.402500", "153124.402500", "153126.402500", "153128.402500", "153130.402500", "153132.402500", "153134.402500", "153136.402500", "153138.402500", "153140.402500", "153142.402500", "153144.402500", "153146.402500", "153148.402500", "153150.402500", "153152.402500", "153154.402500", "153156.402500", "153158.402500", "153200.402500", "153202.402500", "153204.402500", "153206.402500", "153208.402500", "153210.402500", "153212.402500", "153214.402500", "153216.402500", "153218.402500", "153220.402500", "153222.402500", "153224.402500", "153226.402500", "153228.402500", "153230.402500", "153232.402500", "153234.402500", "153236.402500", "153238.402500", "153240.402500", "153242.402500", "153244.402500", "153246.402500", "153248.402500", "153250.402500", "153252.402500", "153254.402500", "153256.402500", "153258.402500", "153300.402500", "153302.402500", "153304.402500", "153306.402500", "153308.402500", "153310.402500", "153312.402500", "153314.402500", "153316.402500", "153318.402500", "153320.402500", "153322.402500", "153324.402500", "153326.402500", "153328.402500", "153330.402500", "153332.402500", "153334.402500", "153336.402500", "153338.402500", "153340.402500", "153342.402500", "153344.402500", "153346.402500", "153348.402500", "153350.402500", "153352.402500", "153354.402500", "153356.402500", "153358.402500", "153400.402500", "153402.402500", "153404.402500", "153406.402500", "153408.402500", "153410.402500", "153412.402500", "153414.402500", "153416.402500", "153418.402500", "153420.402500", "153422.402500", "153424.402500", "153426.402500", "153428.402500", "153430.402500", "153432.402500", "153434.402500", "153436.402500", "153438.402500", "153440.402500", "153442.402500", "153444.402500", "153446.402500", "153448.402500", "153450.402500", "153452.402500", "153454.402500", "153456.402500", "153458.402500", "153500.402500", "153502.402500", "153504.402500", "153506.402500", "153508.402500", "153510.402500"],
      "ContentTime": ["152642.380000", "152643.874000", "152645.874000", "152647.875000", "152649.875000", "152651.876000", "152653.876000", "152655.876000", "152657.875000", "152659.875000", "152701.875000", "152703.876000", "152705.875000", "152707.876000", "152709.875000", "152711.875000", "152713.875000", "152715.875000", "152717.875000", "152719.874000", "152721.875000", "152723.875000", "152725.876000", "152727.875000", "152729.875000", "152731.875000", "152733.875000", "152735.876000", "152737.874000", "152739.875000", "152741.876000", "152743.875000", "152745.875000", "152747.876000", "152749.876000", "152751.876000", "152753.874000", "152755.875000", "152757.875000", "152759.875000", "152801.875000", "152803.876000", "152805.875000", "152807.876000", "152809.875000", "152811.875000", "152813.875000", "152815.875000", "152817.876000", "152819.875000", "152821.876000", "152823.875000", "152825.876000", "152827.876000", "152829.875000", "152831.875000", "152833.875000", "152835.875000", "152837.875000", "152839.875000", "152841.875000", "152843.875000", "152845.875000", "152847.874000", "152849.875000", "152851.875000", "152853.875000", "152855.876000", "152857.876000", "152859.875000", "152901.876000", "152903.874000", "152905.874000", "152907.875000", "152909.876000", "152911.875000", "152913.876000", "152915.875000", "152918.375000", "152919.876000", "152921.875000", "152923.875000", "152925.876000", "152927.875000", "152929.876000", "152931.875000", "152933.875000", "152935.875000", "152937.875000", "152939.874000", "152941.876000", "152943.875000", "152945.875000", "152947.875000", "152949.875000", "152951.875000", "152953.875000", "152955.875000", "152957.874000", "152959.875000", "153001.875000", "153003.876000", "153005.875000", "153007.876000", "153009.875000", "153011.876000", "153013.875000", "153015.875000", "153017.875000", "153019.875000", "153021.875000", "153023.876000", "153025.876000", "153027.875000", "153029.876000", "153031.874000", "153033.875000", "153035.875000", "153037.876000", "153039.875000", "153041.875000", "153043.875000", "153045.876000", "153047.875000", "153049.874000", "153051.875000", "153053.875000", "153055.875000", "153057.875000", "153059.875000", "153101.875000", "153103.876000", "153105.875000", "153107.874000", "153109.875000", "153111.875000", "153113.875000", "153115.876000", "153117.875000", "153119.876000", "153121.875000", "153123.874000", "153125.874000", "153127.875000", "153129.876000", "153131.876000", "153133.876000", "153135.875000", "153137.875000", "153139.876000", "153141.874000", "153143.876000", "153145.876000", "153147.875000", "153149.875000", "153151.875000", "153153.875000", "153155.875000", "153157.875000", "153159.874000", "153201.876000", "153203.875000", "153205.875000", "153207.875000", "153209.876000", "153211.875000", "153213.876000", "153215.875000", "153217.875000", "153219.876000", "153221.875000", "153223.875000", "153225.876000", "153227.875000", "153229.875000", "153231.876000", "153233.874000", "153235.874000", "153237.875000", "153239.875000", "153241.876000", "153243.875000", "153245.875000", "153247.876000", "153249.876000", "153251.874000", "153254.375000", "153255.875000", "153257.876000", "153259.876000", "153301.875000", "153303.875000", "153305.875000", "153307.875000", "153309.875000", "153311.875000", "153313.875000", "153315.876000", "153317.876000", "153319.876000", "153321.875000", "153323.876000", "153325.876000", "153327.875000", "153329.875000", "153331.876000", "153333.875000", "153335.875000", "153337.875000", "153339.876000", "153341.876000", "153343.874000", "153345.874000", "153347.875000", "153349.876000", "153351.876000", "153353.875000", "153355.875000", "153357.875000", "153359.875000", "153401.874000", "153403.875000", "153405.875000", "153407.875000", "153409.875000", "153411.875000", "153413.875000", "153416.376000", "153417.876000", "153419.875000", "153421.876000", "153423.875000", "153425.875000", "153427.875000", "153429.876000", "153431.875000", "153433.875000", "153435.875000", "153437.874000", "153439.875000", "153441.876000", "153443.876000", "153445.875000", "153447.876000", "153449.876000", "153451.875000", "153453.874000", "153455.876000", "153457.876000", "153459.876000", "153501.875000", "153503.876000", "153505.876000", "153507.875000", "153509.875000", "153511.694000"],
      "InstanceCreationTime": ["152642.380000", "152643.874000", "152645.874000", "152647.875000", "152649.875000", "152651.876000", "152653.876000", "152655.876000", "152657.875000", "152659.875000", "152701.875000", "152703.876000", "152705.875000", "152707.876000", "152709.875000", "152711.875000", "152713.875000", "152715.875000", "152717.875000", "152719.874000", "152721.875000", "152723.875000", "152725.876000", "152727.875000", "152729.875000", "152731.875000", "152733.875000", "152735.876000", "152737.874000", "152739.875000", "152741.876000", "152743.875000", "152745.875000", "152747.876000", "152749.876000", "152751.876000", "152753.874000", "152755.875000", "152757.875000", "152759.875000", "152801.875000", "152803.876000", "152805.875000", "152807.876000", "152809.875000", "152811.875000", "152813.875000", "152815.875000", "152817.876000", "152819.875000", "152821.876000", "152823.875000", "152825.876000", "152827.876000", "152829.875000", "152831.875000", "152833.875000", "152835.875000", "152837.875000", "152839.875000", "152841.875000", "152843.875000", "152845.875000", "152847.874000", "152849.875000", "152851.875000", "152853.875000", "152855.876000", "152857.876000", "152859.875000", "152901.876000", "152903.874000", "152905.874000", "152907.875000", "152909.876000", "152911.875000", "152913.876000", "152915.875000", "152918.375000", "152919.876000", "152921.875000", "152923.875000", "152925.876000", "152927.875000", "152929.876000", "152931.875000", "152933.875000", "152935.875000", "152937.875000", "152939.874000", "152941.876000", "152943.875000", "152945.875000", "152947.875000", "152949.875000", "152951.875000", "152953.875000", "152955.875000", "152957.874000", "152959.875000", "153001.875000", "153003.876000", "153005.875000", "153007.876000", "153009.875000", "153011.876000", "153013.875000", "153015.875000", "153017.875000", "153019.875000", "153021.875000", "153023.876000", "153025.876000", "153027.875000", "153029.876000", "153031.874000", "153033.875000", "153035.875000", "153037.876000", "153039.875000", "153041.875000", "153043.875000", "153045.876000", "153047.875000", "153049.874000", "153051.875000", "153053.875000", "153055.875000", "153057.875000", "153059.875000", "153101.875000", "153103.876000", "153105.875000", "153107.874000", "153109.875000", "153111.875000", "153113.875000", "153115.876000", "153117.875000", "153119.876000", "153121.875000", "153123.874000", "153125.874000", "153127.875000", "153129.876000", "153131.876000", "153133.876000", "153135.875000", "153137.875000", "153139.876000", "153141.874000", "153143.876000", "153145.876000", "153147.875000", "153149.875000", "153151.875000", "153153.875000", "153155.875000", "153157.875000", "153159.874000", "153201.876000", "153203.875000", "153205.875000", "153207.875000", "153209.876000", "153211.875000", "153213.876000", "153215.875000", "153217.875000", "153219.876000", "153221.875000", "153223.875000", "153225.876000", "153227.875000", "153229.875000", "153231.876000", "153233.874000", "153235.874000", "153237.875000", "153239.875000", "153241.876000", "153243.875000", "153245.875000", "153247.876000", "153249.876000", "153251.874000", "153254.375000", "153255.875000", "153257.876000", "153259.876000", "153301.875000", "153303.875000", "153305.875000", "153307.875000", "153309.875000", "153311.875000", "153313.875000", "153315.876000", "153317.876000", "153319.876000", "153321.875000", "153323.876000", "153325.876000", "153327.875000", "153329.875000", "153331.876000", "153333.875000", "153335.875000", "153337.875000", "153339.876000", "153341.876000", "153343.874000", "153345.874000", "153347.875000", "153349.876000", "153351.876000", "153353.875000", "153355.875000", "153357.875000", "153359.875000", "153401.874000", "153403.875000", "153405.875000", "153407.875000", "153409.875000", "153411.875000", "153413.875000", "153416.376000", "153417.876000", "153419.875000", "153421.876000", "153423.875000", "153425.875000", "153427.875000", "153429.876000", "153431.875000", "153433.875000", "153435.875000", "153437.874000", "153439.875000", "153441.876000", "153443.876000", "153445.875000", "153447.876000", "153449.876000", "153451.875000", "153453.874000", "153455.876000", "153457.876000", "153459.876000", "153501.875000", "153503.876000", "153505.876000", "153507.875000", "153509.875000", "153511.694000"],
      "InstanceNumber": [1, 2, 3, 4, 5, 6, 7, 8, 9, 10, 11, 12, 13, 14, 15, 16, 17, 18, 19, 20, 21, 22, 23, 24, 25, 26, 27, 28, 29, 30, 31, 32, 33, 34, 35, 36, 37, 38, 39, 40, 41, 42, 43, 44, 45, 46, 47, 48, 49, 50, 51, 52, 53, 54, 55, 56, 57, 58, 59, 60, 61, 62, 63, 64, 65, 66, 67, 68, 69, 70, 71, 72, 73, 74, 75, 76, 77, 78, 79, 80, 81, 82, 83, 84, 85, 86, 87, 88, 89, 90, 91, 92, 93, 94, 95, 96, 97, 98, 99, 100, 101, 102, 103, 104, 105, 106, 107, 108, 109, 110, 111, 112, 113, 114, 115, 116, 117, 118, 119, 120, 121, 122, 123, 124, 125, 126, 127, 128, 129, 130, 131, 132, 133, 134, 135, 136, 137, 138, 139, 140, 141, 142, 143, 144, 145, 146, 147, 148, 149, 150, 151, 152, 153, 154, 155, 156, 157, 158, 159, 160, 161, 162, 163, 164, 165, 166, 167, 168, 169, 170, 171, 172, 173, 174, 175, 176, 177, 178, 179, 180, 181, 182, 183, 184, 185, 186, 187, 188, 189, 190, 191, 192, 193, 194, 195, 196, 197, 198, 199, 200, 201, 202, 203, 204, 205, 206, 207, 208, 209, 210, 211, 212, 213, 214, 215, 216, 217, 218, 219, 220, 221, 222, 223, 224, 225, 226, 227, 228, 229, 230, 231, 232, 233, 234, 235, 236, 237, 238, 239, 240, 241, 242, 243, 244, 245, 246, 247, 248, 249, 250, 251, 252, 253, 254, 255, 256],
      "LargestImagePixelValue": [3871, 3773, 3775, 3796, 3780, 3762, 3753, 3771, 3774, 3800, 3773, 3769, 3764, 3740, 3756, 3753, 3768, 3759, 3758, 3724, 3746, 3750, 3746, 3754, 3748, 3746, 3745, 3768, 3745, 3767, 3731, 3726, 3740, 3760, 3715, 3769, 3750, 3714, 3735, 3760, 3743, 3772, 3767, 3775, 3790, 3744, 3744, 3754, 3781, 3757, 3753, 3742, 3755, 3737, 3783, 3758, 3777, 3746, 3745, 3724, 3760, 3748, 3743, 3756, 3751, 3734, 3739, 3740, 3748, 3751, 3769, 3778, 3734, 3749, 3732, 3758, 3753, 3746, 3758, 3741, 3765, 3748, 3741, 3762, 3755, 3729, 3728, 3724, 3722, 3743, 3730, 3743, 3748, 3722, 3725, 3743, 3743, 3771, 3732, 3736, 3715, 3726, 3731, 3711, 3717, 3746, 3722, 3740, 3715, 3728, 3720, 3729, 3710, 3719, 3718, 3706, 3700, 3717, 3694, 3713, 3729, 3708, 3718, 3705, 3666, 3707, 3728, 3709, 3709, 3691, 3707, 3710, 3690, 3712, 3770, 3749, 3715, 3733, 3717, 3720, 3740, 3725, 3710, 3728, 3695, 3709, 3718, 3670, 3720, 3715, 3697, 3690, 3716, 3691, 3688, 3697, 3723, 3682, 3669, 3681, 3728, 3709, 3690, 3705, 3677, 3690, 3696, 3719, 3725, 3700, 3718, 3678, 3676, 3687, 3670, 3674, 3736, 3702, 3692, 3716, 3699, 3726, 3676, 3716, 3731, 3737, 3738, 3758, 3741, 3751, 3755, 3765, 3777, 3743, 3763, 3768, 3748, 3754, 3747, 3770, 3716, 3743, 3767, 3724, 3731, 3734, 3772, 3777, 3771, 3763, 3760, 3782, 3780, 3782, 3776, 3761, 3760, 3787, 3759, 3786, 3750, 3763, 3753, 3737, 3750, 3785, 3790, 3778, 3753, 3773, 3781, 3746, 3770, 3767, 3775, 3766, 3772, 3753, 3753, 3753, 3742, 3745, 3751, 3741, 3755, 3734, 3763, 3778, 3758, 3748, 3755, 3771, 3768, 3757, 3785, 3788],
      "WindowCenter": [885.0, 884.0, 884.0, 883.0, 882.0, 883.0, 884.0, 884.0, 882.0, 882.0, 883.0, 885.0, 884.0, 884.0, 883.0, 882.0, 881.0, 881.0, 880.0, 878.0, 879.0, 880.0, 881.0, 880.0, 879.0, 878.0, 879.0, 880.0, 880.0, 880.0, 881.0, 880.0, 878.0, 878.0, 879.0, 879.0, 879.0, 878.0, 878.0, 878.0, 879.0, 879.0, 879.0, 879.0, 878.0, 878.0, 878.0, 880.0, 878.0, 877.0, 876.0, 877.0, 877.0, 877.0, 878.0, 879.0, 879.0, 879.0, 879.0, 879.0, 878.0, 878.0, 878.0, 879.0, 881.0, 881.0, 881.0, 879.0, 879.0, 879.0, 880.0, 879.0, 880.0, 880.0, 879.0, 878.0, 877.0, 876.0, 877.0, 878.0, 877.0, 877.0, 876.0, 877.0, 878.0, 879.0, 879.0, 880.0, 880.0, 879.0, 878.0, 878.0, 881.0, 881.0, 880.0, 879.0, 878.0, 878.0, 879.0, 878.0, 878.0, 878.0, 878.0, 877.0, 877.0, 877.0, 877.0, 878.0, 879.0, 879.0, 878.0, 877.0, 877.0, 878.0, 879.0, 879.0, 878.0, 878.0, 878.0, 878.0, 879.0, 878.0, 880.0, 880.0, 880.0, 879.0, 877.0, 876.0, 877.0, 878.0, 879.0, 879.0, 880.0, 881.0, 881.0, 878.0, 877.0, 878.0, 878.0, 878.0, 878.0, 880.0, 880.0, 879.0, 878.0, 878.0, 879.0, 879.0, 878.0, 876.0, 876.0, 877.0, 877.0, 878.0, 879.0, 878.0, 878.0, 879.0, 879.0, 879.0, 880.0, 880.0, 880.0, 880.0, 879.0, 879.0, 878.0, 879.0, 881.0, 882.0, 881.0, 879.0, 879.0, 878.0, 878.0, 877.0, 878.0, 878.0, 880.0, 881.0, 881.0, 879.0, 880.0, 882.0, 883.0, 881.0, 880.0, 878.0, 877.0, 876.0, 878.0, 880.0, 882.0, 881.0, 882.0, 881.0, 882.0, 881.0, 881.0, 881.0, 880.0, 879.0, 881.0, 881.0, 882.0, 883.0, 883.0, 882.0, 882.0, 882.0, 883.0, 881.0, 881.0, 881.0, 882.0, 883.0, 883.0, 883.0, 883.0, 884.0, 884.0, 885.0, 884.0, 882.0, 880.0, 880.0, 880.0, 881.0, 882.0, 883.0, 882.0, 882.0, 881.0, 881.0, 881.0, 880.0, 880.0, 880.0, 881.0, 881.0, 881.0, 881.0, 880.0, 879.0, 879.0, 881.0, 883.0, 884.0, 885.0, 883.0, 882.0, 881.0, 881.0, 881.0, 881.0, 880.0],
      "WindowWidth": [1897.0, 1894.0, 1893.0, 1892.0, 1889.0, 1891.0, 1894.0, 1892.0, 1887.0, 1889.0, 1892.0, 1895.0, 1894.0, 1893.0, 1891.0, 1889.0, 1887.0, 1887.0, 1885.0, 1879.0, 1881.0, 1884.0, 1886.0, 1884.0, 1881.0, 1877.0, 1880.0, 1882.0, 1883.0, 1883.0, 1885.0, 1882.0, 1879.0, 1880.0, 1880.0, 1881.0, 1881.0, 1879.0, 1879.0, 1879.0, 1880.0, 1882.0, 1881.0, 1881.0, 1878.0, 1878.0, 1878.0, 1882.0, 1877.0, 1874.0, 1873.0, 1875.0, 1876.0, 1876.0, 1878.0, 1881.0, 1882.0, 1880.0, 1881.0, 1880.0, 1877.0, 1877.0, 1879.0, 1880.0, 1885.0, 1886.0, 1885.0, 1881.0, 1880.0, 1880.0, 1883.0, 1880.0, 1883.0, 1882.0, 1880.0, 1877.0, 1875.0, 1873.0, 1875.0, 1877.0, 1876.0, 1875.0, 1874.0, 1876.0, 1878.0, 1881.0, 1881.0, 1882.0, 1882.0, 1881.0, 1878.0, 1879.0, 1885.0, 1886.0, 1884.0, 1881.0, 1879.0, 1879.0, 1880.0, 1879.0, 1879.0, 1877.0, 1878.0, 1876.0, 1876.0, 1875.0, 1876.0, 1878.0, 1880.0, 1880.0, 1878.0, 1875.0, 1875.0, 1878.0, 1879.0, 1879.0, 1879.0, 1877.0, 1878.0, 1878.0, 1880.0, 1878.0, 1882.0, 1884.0, 1884.0, 1881.0, 1876.0, 1874.0, 1876.0, 1879.0, 1879.0, 1881.0, 1883.0, 1887.0, 1886.0, 1878.0, 1876.0, 1877.0, 1878.0, 1878.0, 1878.0, 1882.0, 1883.0, 1879.0, 1878.0, 1879.0, 1881.0, 1880.0, 1878.0, 1873.0, 1873.0, 1874.0, 1876.0, 1878.0, 1879.0, 1878.0, 1878.0, 1880.0, 1880.0, 1880.0, 1882.0, 1882.0, 1882.0, 1882.0, 1881.0, 1881.0, 1879.0, 1881.0, 1887.0, 1887.0, 1885.0, 1879.0, 1879.0, 1878.0, 1877.0, 1874.0, 1876.0, 1876.0, 1881.0, 1885.0, 1884.0, 1878.0, 1880.0, 1887.0, 1891.0, 1884.0, 1881.0, 1878.0, 1873.0, 1872.0, 1878.0, 1883.0, 1886.0, 1885.0, 1886.0, 1885.0, 1886.0, 1884.0, 1885.0, 1885.0, 1882.0, 1880.0, 1884.0, 1885.0, 1888.0, 1889.0, 1890.0, 1888.0, 1888.0, 1887.0, 1889.0, 1886.0, 1885.0, 1886.0, 1887.0, 1889.0, 1890.0, 1891.0, 1891.0, 1892.0, 1894.0, 1895.0, 1893.0, 1887.0, 1883.0, 1884.0, 1883.0, 1886.0, 1888.0, 1889.0, 1887.0, 1886.0, 1885.0, 1885.0, 1884.0, 1882.0, 1882.0, 1882.0, 1885.0, 1885.0, 1884.0, 1883.0, 1882.0, 1880.0, 1880.0, 1883.0, 1888.0, 1893.0, 1894.0, 1890.0, 1887.0, 1885.0, 1885.0, 1884.0, 1885.0, 1882.0]
    },
    "slices": {}
  }
}