{
  "AcquisitionMatrixPE": 100,
  "AcquisitionNumber": 1,
  "AcquisitionTime": "15:04:48.382500",
  "BandwidthPerPixelPhaseEncode": 18.519,
  "BaseResolution": 100,
  "BodyPartExamined": "BRAIN",
  "ConsistencyInfo": "N4_VE11C_LATEST_20160120",
  "ConversionSoftware": "dcm2niix",
  "ConversionSoftwareVersion": "v1.0.20180622 GCC4.9.2",
  "DerivedVendorReportedEchoSpacing": 0.000539986,
  "DeviceSerialNumber": "166078",
  "DwellTime": 2.1e-06,
  "EchoTime": 0.034,
  "EchoTrainLength": 100,
  "EffectiveEchoSpacing": 0.000539986,
  "FlipAngle": 90,
  "ImageOrientationPatientDICOM": [1, 0, 0, 0, 0.989776, -0.142629],
  "ImageType": [
    "ORIGINAL",
    "PRIMARY",
    "M",
    "ND",
    "MOSAIC"
],
  "InPlanePhaseEncodingDirectionDICOM": "COL",
  "InstitutionAddress": "Street_StreetNo_Bei_Jing_District_CN_ZIP",
  "InstitutionName": "BeiJing_Normal_University",
  "InstitutionalDepartmentName": "Department",
  "MRAcquisitionType": "2D",
  "MagneticFieldStrength": 3,
  "Manufacturer": "Siemens",
  "ManufacturersModelName": "Prisma",
  "Modality": "MR",
  "MultibandAccelerationFactor": 3,
  "PartialFourier": 1,
  "PatientPosition": "HFS",
  "PercentPhaseFOV": 100,
  "PhaseEncodingDirection": "j-",
  "PhaseEncodingSteps": 100,
  "PhaseResolution": 1,
  "PixelBandwidth": 2380,
  "ProcedureStepDescription": "BNU_P2018_64CH_Zhen.ZongLei",
  "ProtocolName": "bold_100x100_s3_2x2x2_static_256",
  "PulseSequenceDetails": "%SiemensSeq%_ep2d_bold",
  "ReceiveCoilActiveElements": "HC1-7;NC1",
  "ReceiveCoilName": "HeadNeck_64",
  "ReconMatrixPE": 100,
  "RepetitionTime": 2,
  "SAR": 0.0822406,
  "ScanOptions": "FS",
  "ScanningSequence": "EP",
  "SequenceName": "_epfid2d1_100",
  "SequenceVariant": "SK",
  "SeriesDescription": "bold_100x100_s3_2x2x2_static_256",
  "SeriesNumber": 6,
  "ShimSetting": [-5473, -11478, -1247, 182, 26, -206, -220, 82],
  "SliceThickness": 2,
  "SliceTiming": [1.485, 0, 0.99, 0.0825, 1.0725, 0.165, 1.155, 0.2475, 1.2375, 0.33, 1.32, 0.4125, 1.4025, 0.5775, 1.5675, 0.66, 1.65, 0.7425, 1.7325, 0.825, 1.815, 0.9075, 1.8975, 0.495, 1.485, 0, 0.99, 0.0825, 1.0725, 0.165, 1.155, 0.2475, 1.2375, 0.33, 1.32, 0.4125, 1.4025, 0.5775, 1.5675, 0.66, 1.65, 0.7425, 1.7325, 0.825, 1.815, 0.9075, 1.8975, 0.495, 1.485, 0, 0.99, 0.0825, 1.0725, 0.165, 1.155, 0.2475, 1.2375, 0.33, 1.32, 0.4125, 1.4025, 0.5775, 1.5675, 0.66, 1.65, 0.7425, 1.7325, 0.825, 1.815, 0.9075, 1.8975, 0.495],
  "SoftwareVersions": "syngo_MR_E11",
  "SpacingBetweenSlices": 2,
  "StationName": "AWP166078",
  "TaskName": "naturalvision",
  "TotalReadoutTime": 0.0534586,
  "TxRefAmp": 249.511,
  "dcmmeta_affine": [
    [-2.0, 0.0, 0.0, 100.0],
    [0.0, 1.9795525074005127, -0.28525787591934204, -82.65454864501953],
    [0.0, 0.28525787591934204, 1.9795525074005127, -87.33609008789062],
    [0.0, 0.0, 0.0, 1.0]
],
  "dcmmeta_reorient_transform": [
    [0.0, -1.0, 0.0, 99.0],
    [1.0, 0.0, 0.0, 0.0],
    [0.0, 0.0, 1.0, 0.0],
    [0.0, 0.0, 0.0, 1.0]
],
  "dcmmeta_shape": [100, 100, 72, 256],
  "dcmmeta_slice_dim": 2,
  "dcmmeta_version": 0.6,
  "global": {
    "const": {
      "AcquisitionMatrix": [100, 0, 0, 100],
      "AngioFlag": "N",
      "BitsAllocated": 16,
      "BitsStored": 12,
      "BodyPartExamined": "BRAIN",
      "Columns": 900,
      "EchoNumbers": 1,
      "EchoTime": 34.0,
      "EchoTrainLength": 100,
      "FlipAngle": 90.0,
      "HighBit": 11,
      "ImageOrientationPatient": [1.0, 0.0, 0.0, 0.0, 0.98977622990198, -0.1426289406854],
      "ImagePositionPatient": [-900.0, -905.14212898362, 55.007594773571],
      "ImageType": [
        "ORIGINAL",
        "PRIMARY",
        "M",
        "ND",
        "MOSAIC"
],
      "ImagedNucleus": "1H",
      "ImagingFrequency": 123.257779,
      "InPlanePhaseEncodingDirection": "COL",
      "MRAcquisitionType": "2D",
      "MagneticFieldStrength": 3.0,
      "Manufacturer": "SIEMENS",
      "ManufacturerModelName": "Prisma",
      "Modality": "MR",
      "NumberOfAverages": 1.0,
      "NumberOfPhaseEncodingSteps": 100,
      "PercentPhaseFieldOfView": 100.0,
      "PercentSampling": 100.0,
      "PerformedProcedureStepStartTime": "143323.646000",
      "PhotometricInterpretation": "MONOCHROME2",
      "PixelBandwidth": 2380.0,
      "PixelRepresentation": 0,
      "PixelSpacing": [2.0, 2.0],
      "ProtocolName": "bold_100x100_s3_2x2x2_static_256",
      "RepetitionTime": 2000.0,
      "Rows": 900,
      "SAR": 0.08224063074196,
      "SamplesPerPixel": 1,
      "ScanOptions": "FS",
      "ScanningSequence": "EP",
      "SequenceName": "*epfid2d1_100",
      "SequenceVariant": "SK",
      "SeriesDescription": "bold_100x100_s3_2x2x2_static_256",
      "SeriesNumber": 6,
      "SeriesTime": "150450.631000",
      "SliceLocation": -74.654253255673,
      "SliceThickness": 2.0,
      "SmallestImagePixelValue": 0,
      "SoftwareVersions": "syngo MR E11",
      "SpacingBetweenSlices": 2.0000000089338,
      "SpecificCharacterSet": "ISO_IR 100",
      "StudyID": "1",
      "StudyTime": "143323.539000",
      "TransmitCoilName": "Body",
      "VariableFlipAngleFlag": "N",
      "WindowCenterWidthExplanation": "Algo1",
      "dBdt": 0.0},
    "slices": {}
  },
  "time": {
    "samples": {
      "AcquisitionNumber": [1, 2, 3, 4, 5, 6, 7, 8, 9, 10, 11, 12, 13, 14, 15, 16, 17, 18, 19, 20, 21, 22, 23, 24, 25, 26, 27, 28, 29, 30, 31, 32, 33, 34, 35, 36, 37, 38, 39, 40, 41, 42, 43, 44, 45, 46, 47, 48, 49, 50, 51, 52, 53, 54, 55, 56, 57, 58, 59, 60, 61, 62, 63, 64, 65, 66, 67, 68, 69, 70, 71, 72, 73, 74, 75, 76, 77, 78, 79, 80, 81, 82, 83, 84, 85, 86, 87, 88, 89, 90, 91, 92, 93, 94, 95, 96, 97, 98, 99, 100, 101, 102, 103, 104, 105, 106, 107, 108, 109, 110, 111, 112, 113, 114, 115, 116, 117, 118, 119, 120, 121, 122, 123, 124, 125, 126, 127, 128, 129, 130, 131, 132, 133, 134, 135, 136, 137, 138, 139, 140, 141, 142, 143, 144, 145, 146, 147, 148, 149, 150, 151, 152, 153, 154, 155, 156, 157, 158, 159, 160, 161, 162, 163, 164, 165, 166, 167, 168, 169, 170, 171, 172, 173, 174, 175, 176, 177, 178, 179, 180, 181, 182, 183, 184, 185, 186, 187, 188, 189, 190, 191, 192, 193, 194, 195, 196, 197, 198, 199, 200, 201, 202, 203, 204, 205, 206, 207, 208, 209, 210, 211, 212, 213, 214, 215, 216, 217, 218, 219, 220, 221, 222, 223, 224, 225, 226, 227, 228, 229, 230, 231, 232, 233, 234, 235, 236, 237, 238, 239, 240, 241, 242, 243, 244, 245, 246, 247, 248, 249, 250, 251, 252, 253, 254, 255, 256],
      "AcquisitionTime": ["150448.382500", "150450.382500", "150452.382500", "150454.382500", "150456.382500", "150458.382500", "150500.382500", "150502.382500", "150504.382500", "150506.382500", "150508.382500", "150510.382500", "150512.382500", "150514.382500", "150516.382500", "150518.382500", "150520.382500", "150522.382500", "150524.382500", "150526.382500", "150528.382500", "150530.382500", "150532.382500", "150534.382500", "150536.382500", "150538.382500", "150540.382500", "150542.382500", "150544.382500", "150546.382500", "150548.382500", "150550.382500", "150552.382500", "150554.382500", "150556.382500", "150558.382500", "150600.382500", "150602.382500", "150604.382500", "150606.382500", "150608.382500", "150610.382500", "150612.382500", "150614.382500", "150616.382500", "150618.382500", "150620.382500", "150622.382500", "150624.382500", "150626.382500", "150628.382500", "150630.382500", "150632.382500", "150634.382500", "150636.382500", "150638.382500", "150640.382500", "150642.382500", "150644.382500", "150646.382500", "150648.382500", "150650.382500", "150652.382500", "150654.382500", "150656.382500", "150658.382500", "150700.382500", "150702.382500", "150704.382500", "150706.382500", "150708.382500", "150710.382500", "150712.382500", "150714.382500", "150716.382500", "150718.382500", "150720.382500", "150722.382500", "150724.382500", "150726.382500", "150728.382500", "150730.382500", "150732.382500", "150734.382500", "150736.382500", "150738.382500", "150740.382500", "150742.382500", "150744.382500", "150746.382500", "150748.382500", "150750.382500", "150752.382500", "150754.382500", "150756.382500", "150758.382500", "150800.382500", "150802.382500", "150804.382500", "150806.382500", "150808.382500", "150810.382500", "150812.382500", "150814.382500", "150816.382500", "150818.382500", "150820.382500", "150822.382500", "150824.382500", "150826.382500", "150828.382500", "150830.382500", "150832.382500", "150834.382500", "150836.382500", "150838.382500", "150840.382500", "150842.382500", "150844.382500", "150846.382500", "150848.382500", "150850.382500", "150852.382500", "150854.382500", "150856.382500", "150858.382500", "150900.382500", "150902.382500", "150904.382500", "150906.382500", "150908.382500", "150910.382500", "150912.382500", "150914.382500", "150916.382500", "150918.382500", "150920.382500", "150922.382500", "150924.382500", "150926.382500", "150928.382500", "150930.382500", "150932.382500", "150934.382500", "150936.382500", "150938.382500", "150940.382500", "150942.382500", "150944.382500", "150946.382500", "150948.382500", "150950.382500", "150952.382500", "150954.382500", "150956.382500", "150958.382500", "151000.382500", "151002.382500", "151004.382500", "151006.382500", "151008.382500", "151010.382500", "151012.382500", "151014.382500", "151016.382500", "151018.382500", "151020.382500", "151022.382500", "151024.382500", "151026.382500", "151028.382500", "151030.382500", "151032.382500", "151034.382500", "151036.382500", "151038.382500", "151040.382500", "151042.382500", "151044.382500", "151046.382500", "151048.382500", "151050.382500", "151052.382500", "151054.382500", "151056.382500", "151058.382500", "151100.382500", "151102.382500", "151104.382500", "151106.382500", "151108.382500", "151110.382500", "151112.382500", "151114.382500", "151116.382500", "151118.382500", "151120.382500", "151122.382500", "151124.382500", "151126.382500", "151128.382500", "151130.382500", "151132.382500", "151134.382500", "151136.382500", "151138.382500", "151140.382500", "151142.382500", "151144.382500", "151146.382500", "151148.382500", "151150.382500", "151152.382500", "151154.382500", "151156.382500", "151158.382500", "151200.382500", "151202.382500", "151204.382500", "151206.382500", "151208.382500", "151210.382500", "151212.382500", "151214.382500", "151216.382500", "151218.382500", "151220.382500", "151222.382500", "151224.382500", "151226.382500", "151228.382500", "151230.382500", "151232.382500", "151234.382500", "151236.382500", "151238.382500", "151240.382500", "151242.382500", "151244.382500", "151246.382500", "151248.382500", "151250.382500", "151252.382500", "151254.382500", "151256.382500", "151258.382500", "151300.382500", "151302.382500", "151304.382500", "151306.382500", "151308.382500", "151310.382500", "151312.382500", "151314.382500", "151316.382500", "151318.382500"],
      "ContentTime": ["150450.635000", "150452.131000", "150454.130000", "150456.131000", "150458.130000", "150500.130000", "150502.130000", "150504.130000", "150506.130000", "150508.130000", "150510.130000", "150512.130000", "150514.130000", "150516.130000", "150518.130000", "150520.130000", "150522.130000", "150524.131000", "150526.131000", "150528.130000", "150530.131000", "150532.130000", "150534.130000", "150536.130000", "150538.130000", "150540.131000", "150542.130000", "150544.130000", "150546.130000", "150548.130000", "150550.130000", "150552.130000", "150554.130000", "150556.130000", "150558.130000", "150600.131000", "150602.130000", "150604.130000", "150606.131000", "150608.130000", "150610.130000", "150612.130000", "150614.131000", "150616.131000", "150618.131000", "150620.130000", "150622.129000", "150624.130000", "150626.130000", "150628.130000", "150630.131000", "150632.131000", "150634.130000", "150636.130000", "150638.130000", "150640.131000", "150642.130000", "150644.130000", "150646.131000", "150648.131000", "150650.131000", "150652.130000", "150654.131000", "150656.130000", "150658.130000", "150700.130000", "150702.131000", "150704.131000", "150706.130000", "150708.131000", "150710.131000", "150712.131000", "150714.130000", "150716.130000", "150718.130000", "150720.131000", "150722.130000", "150724.130000", "150726.130000", "150728.131000", "150730.130000", "150732.130000", "150734.130000", "150736.130000", "150738.130000", "150740.131000", "150742.631000", "150744.130000", "150746.130000", "150748.130000", "150750.130000", "150752.131000", "150754.131000", "150756.130000", "150758.130000", "150800.131000", "150802.130000", "150804.131000", "150806.130000", "150808.130000", "150810.130000", "150812.130000", "150814.130000", "150816.130000", "150818.131000", "150820.130000", "150822.131000", "150824.130000", "150826.130000", "150828.130000", "150830.130000", "150832.130000", "150834.130000", "150836.130000", "150838.130000", "150840.131000", "150842.129000", "150844.130000", "150846.130000", "150848.130000", "150850.131000", "150852.130000", "150854.130000", "150856.130000", "150858.131000", "150900.131000", "150902.130000", "150904.131000", "150906.130000", "150908.131000", "150910.130000", "150912.131000", "150914.130000", "150916.130000", "150918.130000", "150920.130000", "150922.130000", "150924.131000", "150926.131000", "150928.132000", "150930.131000", "150932.131000", "150934.130000", "150936.131000", "150938.130000", "150940.130000", "150942.130000", "150944.130000", "150946.130000", "150948.130000", "150950.131000", "150952.129000", "150954.130000", "150956.131000", "150958.130000", "151000.130000", "151002.130000", "151004.130000", "151006.130000", "151008.131000", "151010.130000", "151012.130000", "151014.131000", "151016.131000", "151018.131000", "151020.131000", "151022.130000", "151024.130000", "151026.130000", "151028.130000", "151030.130000", "151032.130000", "151034.131000", "151036.130000", "151038.131000", "151040.130000", "151042.131000", "151044.130000", "151046.130000", "151048.130000", "151050.130000", "151052.130000", "151054.130000", "151056.131000", "151058.131000", "151100.130000", "151102.129000", "151104.140000", "151106.131000", "151108.131000", "151110.130000", "151112.131000", "151114.130000", "151116.131000", "151118.131000", "151120.130000", "151122.130000", "151124.131000", "151126.130000", "151128.131000", "151130.131000", "151132.130000", "151134.131000", "151136.131000", "151138.130000", "151140.130000", "151142.130000", "151144.130000", "151146.131000", "151148.131000", "151150.130000", "151152.130000", "151154.130000", "151156.131000", "151158.131000", "151200.130000", "151202.130000", "151204.131000", "151206.131000", "151208.131000", "151210.131000", "151212.131000", "151214.130000", "151216.130000", "151218.130000", "151220.130000", "151222.130000", "151224.131000", "151226.130000", "151228.131000", "151230.130000", "151232.130000", "151234.131000", "151236.131000", "151238.130000", "151240.131000", "151242.130000", "151244.131000", "151246.130000", "151248.131000", "151250.131000", "151252.130000", "151254.130000", "151256.130000", "151258.131000", "151300.131000", "151302.130000", "151304.129000", "151306.130000", "151308.130000", "151310.130000", "151312.130000", "151314.130000", "151316.130000", "151318.130000", "151319.934000"],
      "InstanceCreationTime": ["150450.635000", "150452.131000", "150454.130000", "150456.131000", "150458.130000", "150500.130000", "150502.130000", "150504.130000", "150506.130000", "150508.130000", "150510.130000", "150512.130000", "150514.130000", "150516.130000", "150518.130000", "150520.130000", "150522.130000", "150524.131000", "150526.131000", "150528.130000", "150530.131000", "150532.130000", "150534.130000", "150536.130000", "150538.130000", "150540.131000", "150542.130000", "150544.130000", "150546.130000", "150548.130000", "150550.130000", "150552.130000", "150554.130000", "150556.130000", "150558.130000", "150600.131000", "150602.130000", "150604.130000", "150606.131000", "150608.130000", "150610.130000", "150612.130000", "150614.131000", "150616.131000", "150618.131000", "150620.130000", "150622.129000", "150624.130000", "150626.130000", "150628.130000", "150630.131000", "150632.131000", "150634.130000", "150636.130000", "150638.130000", "150640.131000", "150642.130000", "150644.130000", "150646.131000", "150648.131000", "150650.131000", "150652.130000", "150654.131000", "150656.130000", "150658.130000", "150700.130000", "150702.131000", "150704.131000", "150706.130000", "150708.131000", "150710.131000", "150712.131000", "150714.130000", "150716.130000", "150718.130000", "150720.131000", "150722.130000", "150724.130000", "150726.130000", "150728.131000", "150730.130000", "150732.130000", "150734.130000", "150736.130000", "150738.130000", "150740.131000", "150742.631000", "150744.130000", "150746.130000", "150748.130000", "150750.130000", "150752.131000", "150754.131000", "150756.130000", "150758.130000", "150800.131000", "150802.130000", "150804.131000", "150806.130000", "150808.130000", "150810.130000", "150812.130000", "150814.130000", "150816.130000", "150818.131000", "150820.130000", "150822.131000", "150824.130000", "150826.130000", "150828.130000", "150830.130000", "150832.130000", "150834.130000", "150836.130000", "150838.130000", "150840.131000", "150842.129000", "150844.130000", "150846.130000", "150848.130000", "150850.131000", "150852.130000", "150854.130000", "150856.130000", "150858.131000", "150900.131000", "150902.130000", "150904.131000", "150906.130000", "150908.131000", "150910.130000", "150912.131000", "150914.130000", "150916.130000", "150918.130000", "150920.130000", "150922.130000", "150924.131000", "150926.131000", "150928.132000", "150930.131000", "150932.131000", "150934.130000", "150936.131000", "150938.130000", "150940.130000", "150942.130000", "150944.130000", "150946.130000", "150948.130000", "150950.131000", "150952.129000", "150954.130000", "150956.131000", "150958.130000", "151000.130000", "151002.130000", "151004.130000", "151006.130000", "151008.131000", "151010.130000", "151012.130000", "151014.131000", "151016.131000", "151018.131000", "151020.131000", "151022.130000", "151024.130000", "151026.130000", "151028.130000", "151030.130000", "151032.130000", "151034.131000", "151036.130000", "151038.131000", "151040.130000", "151042.131000", "151044.130000", "151046.130000", "151048.130000", "151050.130000", "151052.130000", "151054.130000", "151056.131000", "151058.131000", "151100.130000", "151102.129000", "151104.140000", "151106.131000", "151108.131000", "151110.130000", "151112.131000", "151114.130000", "151116.131000", "151118.131000", "151120.130000", "151122.130000", "151124.131000", "151126.130000", "151128.131000", "151130.131000", "151132.130000", "151134.131000", "151136.131000", "151138.130000", "151140.130000", "151142.130000", "151144.130000", "151146.131000", "151148.131000", "151150.130000", "151152.130000", "151154.130000", "151156.131000", "151158.131000", "151200.130000", "151202.130000", "151204.131000", "151206.131000", "151208.131000", "151210.131000", "151212.131000", "151214.130000", "151216.130000", "151218.130000", "151220.130000", "151222.130000", "151224.131000", "151226.130000", "151228.131000", "151230.130000", "151232.130000", "151234.131000", "151236.131000", "151238.130000", "151240.131000", "151242.130000", "151244.131000", "151246.130000", "151248.131000", "151250.131000", "151252.130000", "151254.130000", "151256.130000", "151258.131000", "151300.131000", "151302.130000", "151304.129000", "151306.130000", "151308.130000", "151310.130000", "151312.130000", "151314.130000", "151316.130000", "151318.130000", "151319.934000"],
      "InstanceNumber": [1, 2, 3, 4, 5, 6, 7, 8, 9, 10, 11, 12, 13, 14, 15, 16, 17, 18, 19, 20, 21, 22, 23, 24, 25, 26, 27, 28, 29, 30, 31, 32, 33, 34, 35, 36, 37, 38, 39, 40, 41, 42, 43, 44, 45, 46, 47, 48, 49, 50, 51, 52, 53, 54, 55, 56, 57, 58, 59, 60, 61, 62, 63, 64, 65, 66, 67, 68, 69, 70, 71, 72, 73, 74, 75, 76, 77, 78, 79, 80, 81, 82, 83, 84, 85, 86, 87, 88, 89, 90, 91, 92, 93, 94, 95, 96, 97, 98, 99, 100, 101, 102, 103, 104, 105, 106, 107, 108, 109, 110, 111, 112, 113, 114, 115, 116, 117, 118, 119, 120, 121, 122, 123, 124, 125, 126, 127, 128, 129, 130, 131, 132, 133, 134, 135, 136, 137, 138, 139, 140, 141, 142, 143, 144, 145, 146, 147, 148, 149, 150, 151, 152, 153, 154, 155, 156, 157, 158, 159, 160, 161, 162, 163, 164, 165, 166, 167, 168, 169, 170, 171, 172, 173, 174, 175, 176, 177, 178, 179, 180, 181, 182, 183, 184, 185, 186, 187, 188, 189, 190, 191, 192, 193, 194, 195, 196, 197, 198, 199, 200, 201, 202, 203, 204, 205, 206, 207, 208, 209, 210, 211, 212, 213, 214, 215, 216, 217, 218, 219, 220, 221, 222, 223, 224, 225, 226, 227, 228, 229, 230, 231, 232, 233, 234, 235, 236, 237, 238, 239, 240, 241, 242, 243, 244, 245, 246, 247, 248, 249, 250, 251, 252, 253, 254, 255, 256],
      "LargestImagePixelValue": [3804, 3737, 3687, 3662, 3654, 3645, 3634, 3625, 3649, 3633, 3646, 3649, 3648, 3665, 3650, 3648, 3647, 3660, 3657, 3665, 3653, 3654, 3654, 3689, 3666, 3645, 3647, 3693, 3672, 3672, 3676, 3664, 3676, 3680, 3686, 3650, 3695, 3728, 3712, 3716, 3672, 3685, 3694, 3688, 3665, 3666, 3689, 3664, 3714, 3679, 3686, 3695, 3691, 3675, 3670, 3677, 3690, 3717, 3706, 3738, 3736, 3660, 3685, 3680, 3705, 3686, 3747, 3725, 3792, 3735, 3724, 3717, 3708, 3695, 3671, 3693, 3649, 3674, 3718, 3755, 3768, 3758, 3756, 3736, 3761, 3740, 3718, 3755, 3744, 3705, 3701, 3683, 3687, 3691, 3681, 3674, 3682, 3708, 3688, 3689, 3659, 3689, 3683, 3726, 3703, 3707, 3702, 3660, 3688, 3669, 3686, 3696, 3698, 3721, 3711, 3697, 3689, 3686, 3655, 3677, 3682, 3708, 3696, 3669, 3712, 3687, 3674, 3658, 3668, 3672, 3685, 3706, 3678, 3709, 3700, 3687, 3694, 3687, 3712, 3693, 3679, 3727, 3720, 3639, 3688, 3706, 3705, 3672, 3668, 3708, 3699, 3690, 3693, 3685, 3682, 3663, 3681, 3698, 3691, 3714, 3729, 3715, 3692, 3701, 3680, 3684, 3717, 3701, 3698, 3697, 3674, 3675, 3682, 3708, 3713, 3701, 3719, 3710, 3705, 3697, 3696, 3689, 3690, 3681, 3688, 3674, 3701, 3703, 3719, 3691, 3714, 3699, 3723, 3717, 3711, 3730, 3720, 3681, 3699, 3681, 3723, 3703, 3687, 3697, 3671, 3683, 3682, 3698, 3693, 3713, 3692, 3703, 3712, 3675, 3681, 3691, 3684, 3715, 3701, 3687, 3710, 3711, 3694, 3681, 3665, 3697, 3690, 3678, 3673, 3723, 3686, 3674, 3678, 3680, 3654, 3665, 3713, 3697, 3728, 3687, 3724, 3668, 3654, 3679, 3705, 3718, 3706, 3693, 3697, 3707, 3660, 3708, 3685, 3761, 3653, 3686],
      "WindowCenter": [879.0, 879.0, 879.0, 877.0, 876.0, 876.0, 876.0, 876.0, 876.0, 877.0, 878.0, 877.0, 876.0, 877.0, 877.0, 878.0, 877.0, 877.0, 877.0, 877.0, 876.0, 876.0, 877.0, 878.0, 878.0, 876.0, 876.0, 878.0, 878.0, 877.0, 876.0, 875.0, 875.0, 875.0, 876.0, 875.0, 876.0, 875.0, 876.0, 877.0, 877.0, 876.0, 875.0, 875.0, 875.0, 875.0, 876.0, 877.0, 877.0, 877.0, 876.0, 877.0, 877.0, 876.0, 875.0, 874.0, 875.0, 876.0, 876.0, 877.0, 877.0, 876.0, 876.0, 876.0, 876.0, 877.0, 878.0, 877.0, 876.0, 875.0, 874.0, 874.0, 875.0, 876.0, 876.0, 875.0, 875.0, 875.0, 875.0, 876.0, 876.0, 877.0, 877.0, 879.0, 878.0, 877.0, 879.0, 880.0, 878.0, 875.0, 877.0, 876.0, 876.0, 877.0, 876.0, 875.0, 875.0, 875.0, 875.0, 876.0, 876.0, 877.0, 876.0, 877.0, 878.0, 879.0, 878.0, 877.0, 877.0, 877.0, 877.0, 878.0, 878.0, 879.0, 879.0, 877.0, 876.0, 875.0, 875.0, 875.0, 875.0, 877.0, 878.0, 878.0, 877.0, 876.0, 876.0, 876.0, 875.0, 874.0, 874.0, 874.0, 875.0, 875.0, 876.0, 878.0, 879.0, 879.0, 878.0, 877.0, 877.0, 879.0, 879.0, 878.0, 877.0, 877.0, 876.0, 875.0, 876.0, 879.0, 879.0, 877.0, 876.0, 876.0, 876.0, 876.0, 875.0, 875.0, 876.0, 879.0, 879.0, 878.0, 876.0, 876.0, 877.0, 877.0, 877.0, 877.0, 877.0, 877.0, 877.0, 877.0, 878.0, 878.0, 879.0, 878.0, 879.0, 878.0, 880.0, 880.0, 879.0, 878.0, 877.0, 876.0, 877.0, 877.0, 877.0, 877.0, 877.0, 874.0, 876.0, 877.0, 877.0, 876.0, 877.0, 875.0, 875.0, 877.0, 879.0, 878.0, 876.0, 875.0, 876.0, 876.0, 876.0, 876.0, 877.0, 877.0, 877.0, 877.0, 877.0, 876.0, 875.0, 874.0, 876.0, 878.0, 878.0, 876.0, 876.0, 875.0, 877.0, 877.0, 876.0, 876.0, 877.0, 878.0, 876.0, 875.0, 875.0, 875.0, 874.0, 873.0, 875.0, 877.0, 877.0, 875.0, 875.0, 876.0, 876.0, 876.0, 876.0, 876.0, 878.0, 878.0, 879.0, 878.0, 877.0, 877.0, 876.0, 875.0, 874.0, 874.0, 875.0, 877.0, 876.0, 876.0],
      "WindowWidth": [1885.0, 1883.0, 1882.0, 1879.0, 1876.0, 1876.0, 1876.0, 1875.0, 1875.0, 1878.0, 1879.0, 1878.0, 1876.0, 1878.0, 1879.0, 1880.0, 1878.0, 1877.0, 1877.0, 1879.0, 1877.0, 1876.0, 1877.0, 1881.0, 1879.0, 1875.0, 1877.0, 1880.0, 1880.0, 1878.0, 1876.0, 1873.0, 1874.0, 1874.0, 1875.0, 1873.0, 1875.0, 1874.0, 1877.0, 1879.0, 1878.0, 1875.0, 1874.0, 1873.0, 1872.0, 1873.0, 1876.0, 1878.0, 1879.0, 1878.0, 1877.0, 1877.0, 1879.0, 1876.0, 1873.0, 1871.0, 1874.0, 1875.0, 1876.0, 1879.0, 1879.0, 1876.0, 1876.0, 1875.0, 1875.0, 1878.0, 1881.0, 1878.0, 1877.0, 1874.0, 1872.0, 1872.0, 1873.0, 1876.0, 1876.0, 1873.0, 1872.0, 1873.0, 1874.0, 1876.0, 1875.0, 1878.0, 1880.0, 1882.0, 1881.0, 1880.0, 1884.0, 1887.0, 1880.0, 1874.0, 1877.0, 1877.0, 1875.0, 1877.0, 1875.0, 1872.0, 1872.0, 1873.0, 1874.0, 1875.0, 1876.0, 1877.0, 1876.0, 1878.0, 1880.0, 1882.0, 1881.0, 1877.0, 1877.0, 1877.0, 1879.0, 1881.0, 1882.0, 1883.0, 1883.0, 1878.0, 1874.0, 1873.0, 1872.0, 1871.0, 1874.0, 1878.0, 1881.0, 1879.0, 1879.0, 1875.0, 1876.0, 1874.0, 1872.0, 1870.0, 1870.0, 1868.0, 1871.0, 1872.0, 1875.0, 1880.0, 1883.0, 1882.0, 1880.0, 1877.0, 1878.0, 1884.0, 1884.0, 1879.0, 1878.0, 1878.0, 1875.0, 1872.0, 1875.0, 1883.0, 1883.0, 1878.0, 1876.0, 1874.0, 1874.0, 1873.0, 1871.0, 1872.0, 1876.0, 1883.0, 1882.0, 1878.0, 1873.0, 1874.0, 1876.0, 1877.0, 1877.0, 1877.0, 1876.0, 1875.0, 1876.0, 1878.0, 1879.0, 1879.0, 1881.0, 1881.0, 1881.0, 1881.0, 1884.0, 1884.0, 1882.0, 1878.0, 1876.0, 1874.0, 1876.0, 1876.0, 1877.0, 1876.0, 1876.0, 1870.0, 1874.0, 1876.0, 1876.0, 1874.0, 1876.0, 1872.0, 1873.0, 1878.0, 1881.0, 1878.0, 1875.0, 1872.0, 1873.0, 1873.0, 1874.0, 1875.0, 1877.0, 1878.0, 1878.0, 1877.0, 1876.0, 1874.0, 1872.0, 1870.0, 1875.0, 1880.0, 1880.0, 1875.0, 1874.0, 1873.0, 1877.0, 1877.0, 1875.0, 1874.0, 1876.0, 1878.0, 1875.0, 1872.0, 1871.0, 1871.0, 1868.0, 1866.0, 1872.0, 1876.0, 1876.0, 1872.0, 1871.0, 1874.0, 1875.0, 1875.0, 1875.0, 1874.0, 1878.0, 1879.0, 1883.0, 1880.0, 1876.0, 1876.0, 1873.0, 1871.0, 1868.0, 1870.0, 1872.0, 1876.0, 1875.0, 1874.0]
    },
    "slices": {}
  }
}