{
  "AcquisitionMatrixPE": 100,
  "AcquisitionNumber": 1,
  "AcquisitionTime": "14:36:22.682500",
  "BandwidthPerPixelPhaseEncode": 18.519,
  "BaseResolution": 100,
  "BodyPartExamined": "BRAIN",
  "ConsistencyInfo": "N4_VE11C_LATEST_20160120",
  "ConversionSoftware": "dcm2niix",
  "ConversionSoftwareVersion": "v1.0.20180622 GCC4.9.2",
  "DerivedVendorReportedEchoSpacing": 0.000539986,
  "DeviceSerialNumber": "166078",
  "DwellTime": 2.1e-06,
  "EchoTime": 0.034,
  "EchoTrainLength": 100,
  "EffectiveEchoSpacing": 0.000539986,
  "FlipAngle": 90,
  "ImageOrientationPatientDICOM": [1, 0, 0, 0, 0.989776, -0.142629],
  "ImageType": [
    "ORIGINAL",
    "PRIMARY",
    "M",
    "ND",
    "MOSAIC"
],
  "InPlanePhaseEncodingDirectionDICOM": "COL",
  "InstitutionAddress": "Street_StreetNo_Bei_Jing_District_CN_ZIP",
  "InstitutionName": "BeiJing_Normal_University",
  "InstitutionalDepartmentName": "Department",
  "MRAcquisitionType": "2D",
  "MagneticFieldStrength": 3,
  "Manufacturer": "Siemens",
  "ManufacturersModelName": "Prisma",
  "Modality": "MR",
  "MultibandAccelerationFactor": 3,
  "PartialFourier": 1,
  "PatientPosition": "HFS",
  "PercentPhaseFOV": 100,
  "PhaseEncodingDirection": "j-",
  "PhaseEncodingSteps": 100,
  "PhaseResolution": 1,
  "PixelBandwidth": 2380,
  "ProcedureStepDescription": "BNU_P2018_64CH_Zhen.ZongLei",
  "ProtocolName": "bold_100x100_s3_2x2x2_static_256",
  "PulseSequenceDetails": "%SiemensSeq%_ep2d_bold",
  "ReceiveCoilActiveElements": "HC1-7;NC1",
  "ReceiveCoilName": "HeadNeck_64",
  "ReconMatrixPE": 100,
  "RepetitionTime": 2,
  "SAR": 0.0822406,
  "ScanOptions": "FS",
  "ScanningSequence": "EP",
  "SequenceName": "_epfid2d1_100",
  "SequenceVariant": "SK",
  "SeriesDescription": "bold_100x100_s3_2x2x2_static_256",
  "SeriesNumber": 3,
  "ShimSetting": [-5473, -11478, -1247, 182, 26, -206, -220, 82],
  "SliceThickness": 2,
  "SliceTiming": [1.485, 0, 0.99, 0.0825, 1.0725, 0.165, 1.155, 0.2475, 1.2375, 0.33, 1.32, 0.4125, 1.4025, 0.5775, 1.5675, 0.66, 1.65, 0.7425, 1.7325, 0.825, 1.815, 0.9075, 1.8975, 0.495, 1.485, 0, 0.99, 0.0825, 1.0725, 0.165, 1.155, 0.2475, 1.2375, 0.33, 1.32, 0.4125, 1.4025, 0.5775, 1.5675, 0.66, 1.65, 0.7425, 1.7325, 0.825, 1.815, 0.9075, 1.8975, 0.495, 1.485, 0, 0.99, 0.0825, 1.0725, 0.165, 1.155, 0.2475, 1.2375, 0.33, 1.32, 0.4125, 1.4025, 0.5775, 1.5675, 0.66, 1.65, 0.7425, 1.7325, 0.825, 1.815, 0.9075, 1.8975, 0.495],
  "SoftwareVersions": "syngo_MR_E11",
  "SpacingBetweenSlices": 2,
  "StationName": "AWP166078",
  "TaskName": "naturalvision",
  "TotalReadoutTime": 0.0534586,
  "TxRefAmp": 249.511,
  "dcmmeta_affine": [
    [-2.0, 0.0, 0.0, 100.0],
    [0.0, 1.9795525074005127, -0.28525787591934204, -82.65454864501953],
    [0.0, 0.28525787591934204, 1.9795525074005127, -87.33609008789062],
    [0.0, 0.0, 0.0, 1.0]
],
  "dcmmeta_reorient_transform": [
    [0.0, -1.0, 0.0, 99.0],
    [1.0, 0.0, 0.0, 0.0],
    [0.0, 0.0, 1.0, 0.0],
    [0.0, 0.0, 0.0, 1.0]
],
  "dcmmeta_shape": [100, 100, 72, 256],
  "dcmmeta_slice_dim": 2,
  "dcmmeta_version": 0.6,
  "global": {
    "const": {
      "AcquisitionMatrix": [100, 0, 0, 100],
      "AngioFlag": "N",
      "BitsAllocated": 16,
      "BitsStored": 12,
      "BodyPartExamined": "BRAIN",
      "Columns": 900,
      "EchoNumbers": 1,
      "EchoTime": 34.0,
      "EchoTrainLength": 100,
      "FlipAngle": 90.0,
      "HighBit": 11,
      "ImageOrientationPatient": [1.0, 0.0, 0.0, 0.0, 0.98977622990198, -0.1426289406854],
      "ImagePositionPatient": [-900.0, -905.14212898362, 55.007594773571],
      "ImageType": [
        "ORIGINAL",
        "PRIMARY",
        "M",
        "ND",
        "MOSAIC"
],
      "ImagedNucleus": "1H",
      "ImagingFrequency": 123.257768,
      "InPlanePhaseEncodingDirection": "COL",
      "MRAcquisitionType": "2D",
      "MagneticFieldStrength": 3.0,
      "Manufacturer": "SIEMENS",
      "ManufacturerModelName": "Prisma",
      "Modality": "MR",
      "NumberOfAverages": 1.0,
      "NumberOfPhaseEncodingSteps": 100,
      "PercentPhaseFieldOfView": 100.0,
      "PercentSampling": 100.0,
      "PerformedProcedureStepStartTime": "143323.646000",
      "PhotometricInterpretation": "MONOCHROME2",
      "PixelBandwidth": 2380.0,
      "PixelRepresentation": 0,
      "PixelSpacing": [2.0, 2.0],
      "ProtocolName": "bold_100x100_s3_2x2x2_static_256",
      "RepetitionTime": 2000.0,
      "Rows": 900,
      "SAR": 0.08224063074196,
      "SamplesPerPixel": 1,
      "ScanOptions": "FS",
      "ScanningSequence": "EP",
      "SequenceName": "*epfid2d1_100",
      "SequenceVariant": "SK",
      "SeriesDescription": "bold_100x100_s3_2x2x2_static_256",
      "SeriesNumber": 3,
      "SeriesTime": "143625.413000",
      "SliceLocation": -74.654253255673,
      "SliceThickness": 2.0,
      "SmallestImagePixelValue": 0,
      "SoftwareVersions": "syngo MR E11",
      "SpacingBetweenSlices": 2.0000000089338,
      "SpecificCharacterSet": "ISO_IR 100",
      "StudyID": "1",
      "StudyTime": "143323.539000",
      "TransmitCoilName": "Body",
      "VariableFlipAngleFlag": "N",
      "WindowCenterWidthExplanation": "Algo1",
      "dBdt": 0.0},
    "slices": {}
  },
  "time": {
    "samples": {
      "AcquisitionNumber": [1, 2, 3, 4, 5, 6, 7, 8, 9, 10, 11, 12, 13, 14, 15, 16, 17, 18, 19, 20, 21, 22, 23, 24, 25, 26, 27, 28, 29, 30, 31, 32, 33, 34, 35, 36, 37, 38, 39, 40, 41, 42, 43, 44, 45, 46, 47, 48, 49, 50, 51, 52, 53, 54, 55, 56, 57, 58, 59, 60, 61, 62, 63, 64, 65, 66, 67, 68, 69, 70, 71, 72, 73, 74, 75, 76, 77, 78, 79, 80, 81, 82, 83, 84, 85, 86, 87, 88, 89, 90, 91, 92, 93, 94, 95, 96, 97, 98, 99, 100, 101, 102, 103, 104, 105, 106, 107, 108, 109, 110, 111, 112, 113, 114, 115, 116, 117, 118, 119, 120, 121, 122, 123, 124, 125, 126, 127, 128, 129, 130, 131, 132, 133, 134, 135, 136, 137, 138, 139, 140, 141, 142, 143, 144, 145, 146, 147, 148, 149, 150, 151, 152, 153, 154, 155, 156, 157, 158, 159, 160, 161, 162, 163, 164, 165, 166, 167, 168, 169, 170, 171, 172, 173, 174, 175, 176, 177, 178, 179, 180, 181, 182, 183, 184, 185, 186, 187, 188, 189, 190, 191, 192, 193, 194, 195, 196, 197, 198, 199, 200, 201, 202, 203, 204, 205, 206, 207, 208, 209, 210, 211, 212, 213, 214, 215, 216, 217, 218, 219, 220, 221, 222, 223, 224, 225, 226, 227, 228, 229, 230, 231, 232, 233, 234, 235, 236, 237, 238, 239, 240, 241, 242, 243, 244, 245, 246, 247, 248, 249, 250, 251, 252, 253, 254, 255, 256],
      "AcquisitionTime": ["143622.682500", "143624.682500", "143626.682500", "143628.682500", "143630.682500", "143632.682500", "143634.682500", "143636.682500", "143638.682500", "143640.682500", "143642.682500", "143644.682500", "143646.682500", "143648.682500", "143650.682500", "143652.682500", "143654.682500", "143656.682500", "143658.682500", "143700.682500", "143702.682500", "143704.682500", "143706.682500", "143708.682500", "143710.682500", "143712.682500", "143714.682500", "143716.682500", "143718.682500", "143720.682500", "143722.682500", "143724.682500", "143726.682500", "143728.682500", "143730.682500", "143732.682500", "143734.682500", "143736.682500", "143738.682500", "143740.682500", "143742.682500", "143744.682500", "143746.682500", "143748.682500", "143750.682500", "143752.682500", "143754.682500", "143756.682500", "143758.682500", "143800.682500", "143802.682500", "143804.682500", "143806.682500", "143808.682500", "143810.682500", "143812.682500", "143814.682500", "143816.682500", "143818.682500", "143820.682500", "143822.682500", "143824.682500", "143826.682500", "143828.682500", "143830.682500", "143832.682500", "143834.682500", "143836.682500", "143838.682500", "143840.682500", "143842.682500", "143844.682500", "143846.682500", "143848.682500", "143850.682500", "143852.682500", "143854.682500", "143856.682500", "143858.682500", "143900.682500", "143902.682500", "143904.682500", "143906.682500", "143908.682500", "143910.682500", "143912.682500", "143914.682500", "143916.682500", "143918.682500", "143920.682500", "143922.682500", "143924.682500", "143926.682500", "143928.682500", "143930.682500", "143932.682500", "143934.682500", "143936.682500", "143938.682500", "143940.682500", "143942.682500", "143944.682500", "143946.682500", "143948.682500", "143950.682500", "143952.682500", "143954.682500", "143956.682500", "143958.682500", "144000.682500", "144002.682500", "144004.682500", "144006.682500", "144008.682500", "144010.682500", "144012.682500", "144014.682500", "144016.682500", "144018.682500", "144020.682500", "144022.682500", "144024.682500", "144026.682500", "144028.682500", "144030.682500", "144032.682500", "144034.682500", "144036.682500", "144038.682500", "144040.682500", "144042.682500", "144044.682500", "144046.682500", "144048.682500", "144050.682500", "144052.682500", "144054.682500", "144056.682500", "144058.682500", "144100.682500", "144102.682500", "144104.682500", "144106.682500", "144108.682500", "144110.682500", "144112.682500", "144114.682500", "144116.682500", "144118.682500", "144120.682500", "144122.682500", "144124.682500", "144126.682500", "144128.682500", "144130.682500", "144132.682500", "144134.682500", "144136.682500", "144138.682500", "144140.682500", "144142.682500", "144144.682500", "144146.682500", "144148.682500", "144150.682500", "144152.682500", "144154.682500", "144156.682500", "144158.682500", "144200.682500", "144202.682500", "144204.682500", "144206.682500", "144208.682500", "144210.682500", "144212.682500", "144214.682500", "144216.682500", "144218.682500", "144220.682500", "144222.682500", "144224.682500", "144226.682500", "144228.682500", "144230.682500", "144232.682500", "144234.682500", "144236.682500", "144238.682500", "144240.682500", "144242.682500", "144244.682500", "144246.682500", "144248.682500", "144250.682500", "144252.682500", "144254.682500", "144256.682500", "144258.682500", "144300.682500", "144302.682500", "144304.682500", "144306.682500", "144308.682500", "144310.682500", "144312.682500", "144314.682500", "144316.682500", "144318.682500", "144320.682500", "144322.682500", "144324.682500", "144326.682500", "144328.682500", "144330.682500", "144332.682500", "144334.682500", "144336.682500", "144338.682500", "144340.682500", "144342.682500", "144344.682500", "144346.682500", "144348.682500", "144350.682500", "144352.682500", "144354.682500", "144356.682500", "144358.682500", "144400.682500", "144402.682500", "144404.682500", "144406.682500", "144408.682500", "144410.682500", "144412.682500", "144414.682500", "144416.682500", "144418.682500", "144420.682500", "144422.682500", "144424.682500", "144426.682500", "144428.682500", "144430.682500", "144432.682500", "144434.682500", "144436.682500", "144438.682500", "144440.682500", "144442.682500", "144444.682500", "144446.682500", "144448.682500", "144450.682500", "144452.682500"],
      "ContentTime": ["143625.417000", "143626.911000", "143628.912000", "143630.912000", "143632.911000", "143634.911000", "143636.911000", "143638.911000", "143640.912000", "143642.912000", "143644.911000", "143646.911000", "143648.911000", "143650.911000", "143652.911000", "143654.911000", "143656.912000", "143658.912000", "143700.912000", "143702.911000", "143704.912000", "143706.912000", "143708.911000", "143710.912000", "143712.912000", "143714.912000", "143716.912000", "143718.912000", "143720.912000", "143722.911000", "143724.912000", "143726.911000", "143728.911000", "143730.911000", "143732.913000", "143734.913000", "143736.912000", "143738.911000", "143740.911000", "143742.912000", "143744.912000", "143746.911000", "143748.911000", "143750.913000", "143752.913000", "143754.911000", "143756.912000", "143758.911000", "143800.912000", "143802.912000", "143804.912000", "143806.912000", "143808.913000", "143810.912000", "143812.912000", "143814.911000", "143816.912000", "143818.912000", "143820.912000", "143822.912000", "143824.913000", "143826.913000", "143828.912000", "143830.911000", "143832.912000", "143834.911000", "143836.911000", "143838.911000", "143840.911000", "143842.912000", "143844.913000", "143846.911000", "143848.911000", "143850.912000", "143852.912000", "143854.911000", "143856.911000", "143858.911000", "143900.913000", "143902.912000", "143904.912000", "143906.912000", "143908.911000", "143910.912000", "143912.912000", "143914.912000", "143916.912000", "143918.912000", "143920.912000", "143922.912000", "143924.911000", "143926.911000", "143928.911000", "143930.911000", "143932.912000", "143934.912000", "143936.913000", "143938.912000", "143940.911000", "143942.911000", "143944.911000", "143946.912000", "143948.911000", "143950.912000", "143952.913000", "143954.913000", "143956.912000", "143958.912000", "144000.912000", "144002.912000", "144004.912000", "144006.911000", "144008.911000", "144010.912000", "144012.913000", "144014.912000", "144016.912000", "144018.912000", "144020.912000", "144022.911000", "144024.911000", "144026.912000", "144028.913000", "144030.912000", "144032.912000", "144034.912000", "144036.912000", "144038.911000", "144040.911000", "144042.911000", "144044.913000", "144046.912000", "144048.913000", "144050.912000", "144052.912000", "144054.912000", "144056.912000", "144058.912000", "144100.911000", "144102.913000", "144104.913000", "144106.911000", "144108.911000", "144110.912000", "144112.912000", "144114.912000", "144116.912000", "144118.912000", "144120.913000", "144122.913000", "144124.912000", "144126.912000", "144128.912000", "144130.911000", "144132.911000", "144134.911000", "144136.912000", "144138.913000", "144140.912000", "144142.911000", "144144.911000", "144146.911000", "144148.911000", "144150.911000", "144152.912000", "144154.913000", "144156.913000", "144158.913000", "144200.912000", "144202.911000", "144204.912000", "144206.912000", "144208.912000", "144210.911000", "144212.912000", "144214.913000", "144216.925000", "144218.911000", "144220.912000", "144222.912000", "144224.911000", "144226.912000", "144228.913000", "144230.912000", "144232.912000", "144234.912000", "144236.912000", "144238.912000", "144240.911000", "144242.911000", "144244.911000", "144246.913000", "144248.912000", "144250.913000", "144252.911000", "144254.911000", "144256.912000", "144258.911000", "144300.912000", "144302.911000", "144304.912000", "144306.913000", "144308.913000", "144310.911000", "144312.912000", "144314.912000", "144316.912000", "144318.912000", "144320.911000", "144322.913000", "144324.912000", "144326.912000", "144328.912000", "144330.911000", "144332.912000", "144334.912000", "144336.912000", "144338.913000", "144340.913000", "144342.913000", "144344.912000", "144346.912000", "144348.912000", "144350.911000", "144352.911000", "144354.911000", "144356.913000", "144358.913000", "144400.913000", "144402.912000", "144404.911000", "144406.912000", "144408.912000", "144410.911000", "144412.911000", "144414.913000", "144416.913000", "144418.912000", "144420.912000", "144422.911000", "144424.912000", "144426.911000", "144428.911000", "144430.911000", "144432.912000", "144434.912000", "144436.912000", "144438.911000", "144440.911000", "144442.912000", "144444.911000", "144446.911000", "144448.913000", "144450.913000", "144452.913000", "144454.629000"],
      "InstanceCreationTime": ["143625.417000", "143626.911000", "143628.912000", "143630.912000", "143632.911000", "143634.911000", "143636.911000", "143638.911000", "143640.912000", "143642.912000", "143644.911000", "143646.911000", "143648.911000", "143650.911000", "143652.911000", "143654.911000", "143656.912000", "143658.912000", "143700.912000", "143702.911000", "143704.912000", "143706.912000", "143708.911000", "143710.912000", "143712.912000", "143714.912000", "143716.912000", "143718.912000", "143720.912000", "143722.911000", "143724.912000", "143726.911000", "143728.911000", "143730.911000", "143732.913000", "143734.913000", "143736.912000", "143738.911000", "143740.911000", "143742.912000", "143744.912000", "143746.911000", "143748.911000", "143750.913000", "143752.913000", "143754.911000", "143756.912000", "143758.911000", "143800.912000", "143802.912000", "143804.912000", "143806.912000", "143808.913000", "143810.912000", "143812.912000", "143814.911000", "143816.912000", "143818.912000", "143820.912000", "143822.912000", "143824.913000", "143826.913000", "143828.912000", "143830.911000", "143832.912000", "143834.911000", "143836.911000", "143838.911000", "143840.911000", "143842.912000", "143844.913000", "143846.911000", "143848.911000", "143850.912000", "143852.912000", "143854.911000", "143856.911000", "143858.911000", "143900.913000", "143902.912000", "143904.912000", "143906.912000", "143908.911000", "143910.912000", "143912.912000", "143914.912000", "143916.912000", "143918.912000", "143920.912000", "143922.912000", "143924.911000", "143926.911000", "143928.911000", "143930.911000", "143932.912000", "143934.912000", "143936.913000", "143938.912000", "143940.911000", "143942.911000", "143944.911000", "143946.912000", "143948.911000", "143950.912000", "143952.913000", "143954.913000", "143956.912000", "143958.912000", "144000.912000", "144002.912000", "144004.912000", "144006.911000", "144008.911000", "144010.912000", "144012.913000", "144014.912000", "144016.912000", "144018.912000", "144020.912000", "144022.911000", "144024.911000", "144026.912000", "144028.913000", "144030.912000", "144032.912000", "144034.912000", "144036.912000", "144038.911000", "144040.911000", "144042.911000", "144044.913000", "144046.912000", "144048.913000", "144050.912000", "144052.912000", "144054.912000", "144056.912000", "144058.912000", "144100.911000", "144102.913000", "144104.913000", "144106.911000", "144108.911000", "144110.912000", "144112.912000", "144114.912000", "144116.912000", "144118.912000", "144120.913000", "144122.913000", "144124.912000", "144126.912000", "144128.912000", "144130.911000", "144132.911000", "144134.911000", "144136.912000", "144138.913000", "144140.912000", "144142.911000", "144144.911000", "144146.911000", "144148.911000", "144150.911000", "144152.912000", "144154.913000", "144156.913000", "144158.913000", "144200.912000", "144202.911000", "144204.912000", "144206.912000", "144208.912000", "144210.911000", "144212.912000", "144214.913000", "144216.925000", "144218.911000", "144220.912000", "144222.912000", "144224.911000", "144226.912000", "144228.913000", "144230.912000", "144232.912000", "144234.912000", "144236.912000", "144238.912000", "144240.911000", "144242.911000", "144244.911000", "144246.913000", "144248.912000", "144250.913000", "144252.911000", "144254.911000", "144256.912000", "144258.911000", "144300.912000", "144302.911000", "144304.912000", "144306.913000", "144308.913000", "144310.911000", "144312.912000", "144314.912000", "144316.912000", "144318.912000", "144320.911000", "144322.913000", "144324.912000", "144326.912000", "144328.912000", "144330.911000", "144332.912000", "144334.912000", "144336.912000", "144338.913000", "144340.913000", "144342.913000", "144344.912000", "144346.912000", "144348.912000", "144350.911000", "144352.911000", "144354.911000", "144356.913000", "144358.913000", "144400.913000", "144402.912000", "144404.911000", "144406.912000", "144408.912000", "144410.911000", "144412.911000", "144414.913000", "144416.913000", "144418.912000", "144420.912000", "144422.911000", "144424.912000", "144426.911000", "144428.911000", "144430.911000", "144432.912000", "144434.912000", "144436.912000", "144438.911000", "144440.911000", "144442.912000", "144444.911000", "144446.911000", "144448.913000", "144450.913000", "144452.913000", "144454.629000"],
      "InstanceNumber": [1, 2, 3, 4, 5, 6, 7, 8, 9, 10, 11, 12, 13, 14, 15, 16, 17, 18, 19, 20, 21, 22, 23, 24, 25, 26, 27, 28, 29, 30, 31, 32, 33, 34, 35, 36, 37, 38, 39, 40, 41, 42, 43, 44, 45, 46, 47, 48, 49, 50, 51, 52, 53, 54, 55, 56, 57, 58, 59, 60, 61, 62, 63, 64, 65, 66, 67, 68, 69, 70, 71, 72, 73, 74, 75, 76, 77, 78, 79, 80, 81, 82, 83, 84, 85, 86, 87, 88, 89, 90, 91, 92, 93, 94, 95, 96, 97, 98, 99, 100, 101, 102, 103, 104, 105, 106, 107, 108, 109, 110, 111, 112, 113, 114, 115, 116, 117, 118, 119, 120, 121, 122, 123, 124, 125, 126, 127, 128, 129, 130, 131, 132, 133, 134, 135, 136, 137, 138, 139, 140, 141, 142, 143, 144, 145, 146, 147, 148, 149, 150, 151, 152, 153, 154, 155, 156, 157, 158, 159, 160, 161, 162, 163, 164, 165, 166, 167, 168, 169, 170, 171, 172, 173, 174, 175, 176, 177, 178, 179, 180, 181, 182, 183, 184, 185, 186, 187, 188, 189, 190, 191, 192, 193, 194, 195, 196, 197, 198, 199, 200, 201, 202, 203, 204, 205, 206, 207, 208, 209, 210, 211, 212, 213, 214, 215, 216, 217, 218, 219, 220, 221, 222, 223, 224, 225, 226, 227, 228, 229, 230, 231, 232, 233, 234, 235, 236, 237, 238, 239, 240, 241, 242, 243, 244, 245, 246, 247, 248, 249, 250, 251, 252, 253, 254, 255, 256],
      "LargestImagePixelValue": [3659, 3669, 3646, 3667, 3642, 3674, 3664, 3680, 3652, 3660, 3667, 3669, 3666, 3682, 3661, 3628, 3695, 3672, 3652, 3631, 3639, 3650, 3678, 3623, 3613, 3607, 3612, 3655, 3639, 3650, 3603, 3615, 3625, 3607, 3684, 3647, 3648, 3606, 3665, 3633, 3638, 3656, 3668, 3628, 3657, 3684, 3666, 3663, 3714, 3672, 3664, 3657, 3615, 3641, 3642, 3709, 3668, 3661, 3647, 3684, 3658, 3654, 3647, 3658, 3676, 3641, 3651, 3666, 3682, 3635, 3669, 3687, 3670, 3652, 3667, 3637, 3648, 3679, 3657, 3625, 3666, 3646, 3698, 3687, 3688, 3691, 3706, 3656, 3668, 3675, 3655, 3657, 3686, 3664, 3689, 3661, 3646, 3643, 3668, 3630, 3658, 3656, 3694, 3649, 3677, 3642, 3639, 3651, 3648, 3648, 3658, 3652, 3665, 3662, 3657, 3664, 3695, 3666, 3661, 3675, 3667, 3673, 3661, 3639, 3644, 3670, 3637, 3681, 3680, 3690, 3682, 3671, 3650, 3684, 3646, 3651, 3688, 3682, 3672, 3722, 3675, 3684, 3677, 3665, 3639, 3652, 3655, 3680, 3661, 3717, 3687, 3677, 3650, 3681, 3655, 3705, 3707, 3663, 3633, 3678, 3680, 3698, 3703, 3668, 3661, 3691, 3661, 3702, 3667, 3682, 3675, 3656, 3700, 3669, 3695, 3658, 3676, 3649, 3635, 3668, 3649, 3665, 3622, 3629, 3675, 3646, 3671, 3636, 3635, 3662, 3664, 3627, 3665, 3642, 3661, 3619, 3656, 3638, 3607, 3655, 3659, 3658, 3662, 3652, 3658, 3634, 3676, 3623, 3689, 3638, 3639, 3643, 3594, 3665, 3659, 3659, 3641, 3636, 3595, 3648, 3629, 3652, 3646, 3662, 3668, 3637, 3671, 3646, 3653, 3624, 3664, 3658, 3679, 3691, 3713, 3701, 3673, 3654, 3690, 3683, 3700, 3667, 3706, 3674, 3686, 3673, 3663, 3650, 3652, 3656, 3663, 3640, 3673, 3620, 3650, 3636],
      "WindowCenter": [869.0, 868.0, 871.0, 870.0, 868.0, 867.0, 866.0, 866.0, 866.0, 868.0, 869.0, 869.0, 868.0, 867.0, 866.0, 866.0, 867.0, 866.0, 866.0, 865.0, 864.0, 865.0, 868.0, 868.0, 868.0, 866.0, 867.0, 867.0, 866.0, 866.0, 867.0, 867.0, 865.0, 864.0, 866.0, 867.0, 868.0, 868.0, 867.0, 865.0, 864.0, 865.0, 867.0, 867.0, 867.0, 867.0, 866.0, 866.0, 865.0, 864.0, 866.0, 867.0, 868.0, 867.0, 866.0, 865.0, 864.0, 863.0, 864.0, 864.0, 865.0, 866.0, 867.0, 867.0, 868.0, 868.0, 867.0, 866.0, 864.0, 864.0, 864.0, 866.0, 868.0, 867.0, 865.0, 864.0, 865.0, 866.0, 867.0, 867.0, 866.0, 864.0, 866.0, 868.0, 868.0, 868.0, 867.0, 867.0, 868.0, 867.0, 866.0, 866.0, 867.0, 867.0, 868.0, 868.0, 868.0, 867.0, 868.0, 869.0, 868.0, 865.0, 865.0, 865.0, 865.0, 865.0, 866.0, 867.0, 866.0, 865.0, 865.0, 866.0, 868.0, 869.0, 868.0, 866.0, 865.0, 866.0, 867.0, 867.0, 867.0, 866.0, 866.0, 867.0, 867.0, 867.0, 866.0, 865.0, 865.0, 867.0, 868.0, 868.0, 868.0, 868.0, 868.0, 868.0, 868.0, 868.0, 867.0, 866.0, 865.0, 865.0, 867.0, 869.0, 868.0, 867.0, 866.0, 866.0, 868.0, 869.0, 869.0, 868.0, 867.0, 866.0, 866.0, 866.0, 867.0, 867.0, 867.0, 866.0, 867.0, 869.0, 869.0, 867.0, 867.0, 867.0, 867.0, 867.0, 866.0, 865.0, 866.0, 865.0, 866.0, 866.0, 868.0, 868.0, 867.0, 866.0, 867.0, 867.0, 867.0, 868.0, 868.0, 868.0, 870.0, 870.0, 869.0, 869.0, 868.0, 866.0, 867.0, 869.0, 870.0, 869.0, 868.0, 869.0, 869.0, 869.0, 869.0, 868.0, 867.0, 868.0, 868.0, 868.0, 868.0, 868.0, 868.0, 866.0, 866.0, 866.0, 870.0, 870.0, 869.0, 868.0, 870.0, 871.0, 870.0, 868.0, 868.0, 868.0, 868.0, 868.0, 869.0, 869.0, 869.0, 868.0, 869.0, 871.0, 872.0, 872.0, 872.0, 872.0, 869.0, 868.0, 868.0, 868.0, 869.0, 870.0, 869.0, 868.0, 867.0, 867.0, 867.0, 867.0, 867.0, 867.0, 869.0, 871.0, 869.0, 868.0, 867.0, 868.0, 869.0, 869.0, 869.0, 868.0],
      "WindowWidth": [1866.0, 1862.0, 1869.0, 1866.0, 1861.0, 1859.0, 1857.0, 1856.0, 1857.0, 1861.0, 1863.0, 1863.0, 1861.0, 1859.0, 1858.0, 1858.0, 1860.0, 1858.0, 1857.0, 1854.0, 1852.0, 1854.0, 1861.0, 1863.0, 1861.0, 1858.0, 1859.0, 1860.0, 1858.0, 1858.0, 1858.0, 1858.0, 1853.0, 1851.0, 1856.0, 1859.0, 1862.0, 1862.0, 1860.0, 1855.0, 1852.0, 1853.0, 1859.0, 1860.0, 1858.0, 1859.0, 1858.0, 1855.0, 1854.0, 1852.0, 1856.0, 1860.0, 1861.0, 1858.0, 1855.0, 1855.0, 1850.0, 1849.0, 1849.0, 1851.0, 1854.0, 1857.0, 1858.0, 1859.0, 1861.0, 1861.0, 1859.0, 1855.0, 1851.0, 1850.0, 1851.0, 1855.0, 1860.0, 1857.0, 1853.0, 1850.0, 1854.0, 1855.0, 1858.0, 1857.0, 1856.0, 1851.0, 1855.0, 1859.0, 1860.0, 1859.0, 1858.0, 1858.0, 1859.0, 1858.0, 1855.0, 1853.0, 1857.0, 1856.0, 1860.0, 1860.0, 1859.0, 1857.0, 1859.0, 1863.0, 1859.0, 1853.0, 1853.0, 1852.0, 1852.0, 1851.0, 1855.0, 1856.0, 1853.0, 1852.0, 1852.0, 1855.0, 1859.0, 1862.0, 1859.0, 1854.0, 1853.0, 1854.0, 1857.0, 1858.0, 1855.0, 1853.0, 1854.0, 1856.0, 1857.0, 1857.0, 1853.0, 1852.0, 1851.0, 1856.0, 1859.0, 1857.0, 1858.0, 1858.0, 1858.0, 1858.0, 1860.0, 1860.0, 1856.0, 1855.0, 1852.0, 1851.0, 1857.0, 1861.0, 1858.0, 1855.0, 1852.0, 1853.0, 1858.0, 1861.0, 1860.0, 1859.0, 1856.0, 1854.0, 1853.0, 1854.0, 1857.0, 1856.0, 1855.0, 1854.0, 1855.0, 1860.0, 1861.0, 1857.0, 1857.0, 1857.0, 1856.0, 1856.0, 1854.0, 1851.0, 1853.0, 1852.0, 1854.0, 1854.0, 1858.0, 1858.0, 1855.0, 1853.0, 1855.0, 1856.0, 1855.0, 1858.0, 1858.0, 1858.0, 1862.0, 1862.0, 1861.0, 1861.0, 1858.0, 1854.0, 1856.0, 1859.0, 1862.0, 1860.0, 1859.0, 1860.0, 1862.0, 1860.0, 1859.0, 1858.0, 1856.0, 1857.0, 1859.0, 1857.0, 1857.0, 1857.0, 1857.0, 1852.0, 1853.0, 1854.0, 1862.0, 1863.0, 1860.0, 1859.0, 1864.0, 1866.0, 1862.0, 1859.0, 1857.0, 1857.0, 1857.0, 1859.0, 1861.0, 1861.0, 1859.0, 1857.0, 1861.0, 1864.0, 1869.0, 1867.0, 1868.0, 1866.0, 1861.0, 1857.0, 1857.0, 1859.0, 1860.0, 1862.0, 1860.0, 1856.0, 1855.0, 1856.0, 1856.0, 1855.0, 1854.0, 1856.0, 1860.0, 1864.0, 1861.0, 1857.0, 1855.0, 1858.0, 1860.0, 1859.0, 1859.0, 1858.0]
    },
    "slices": {}
  }
}