{
  "AcquisitionMatrixPE": 100,
  "AcquisitionNumber": 1,
  "AcquisitionTime": "15:36:41.035000",
  "BandwidthPerPixelPhaseEncode": 18.519,
  "BaseResolution": 100,
  "BodyPartExamined": "BRAIN",
  "ConsistencyInfo": "N4_VE11C_LATEST_20160120",
  "ConversionSoftware": "dcm2niix",
  "ConversionSoftwareVersion": "v1.0.20180622 GCC4.9.2",
  "DerivedVendorReportedEchoSpacing": 0.000539986,
  "DeviceSerialNumber": "166078",
  "DwellTime": 2.1e-06,
  "EchoTime": 0.034,
  "EchoTrainLength": 100,
  "EffectiveEchoSpacing": 0.000539986,
  "FlipAngle": 90,
  "ImageOrientationPatientDICOM": [1, 0, 0, 0, 0.989776, -0.142629],
  "ImageType": [
    "ORIGINAL",
    "PRIMARY",
    "M",
    "ND",
    "MOSAIC"
],
  "InPlanePhaseEncodingDirectionDICOM": "COL",
  "InstitutionAddress": "Street_StreetNo_Bei_Jing_District_CN_ZIP",
  "InstitutionName": "BeiJing_Normal_University",
  "InstitutionalDepartmentName": "Department",
  "MRAcquisitionType": "2D",
  "MagneticFieldStrength": 3,
  "Manufacturer": "Siemens",
  "ManufacturersModelName": "Prisma",
  "Modality": "MR",
  "MultibandAccelerationFactor": 3,
  "PartialFourier": 1,
  "PatientPosition": "HFS",
  "PercentPhaseFOV": 100,
  "PhaseEncodingDirection": "j-",
  "PhaseEncodingSteps": 100,
  "PhaseResolution": 1,
  "PixelBandwidth": 2380,
  "ProcedureStepDescription": "BNU_P2018_64CH_Zhen.ZongLei",
  "ProtocolName": "bold_100x100_s3_2x2x2_static_256",
  "PulseSequenceDetails": "%SiemensSeq%_ep2d_bold",
  "ReceiveCoilActiveElements": "HC1-7;NC1",
  "ReceiveCoilName": "HeadNeck_64",
  "ReconMatrixPE": 100,
  "RepetitionTime": 2,
  "SAR": 0.0822406,
  "ScanOptions": "FS",
  "ScanningSequence": "EP",
  "SequenceName": "_epfid2d1_100",
  "SequenceVariant": "SK",
  "SeriesDescription": "bold_100x100_s3_2x2x2_static_256",
  "SeriesNumber": 11,
  "ShimSetting": [-5473, -11478, -1247, 182, 26, -206, -220, 82],
  "SliceThickness": 2,
  "SliceTiming": [1.485, 0, 0.99, 0.0825, 1.0725, 0.165, 1.155, 0.2475, 1.2375, 0.33, 1.32, 0.4125, 1.4025, 0.5775, 1.5675, 0.66, 1.65, 0.7425, 1.7325, 0.825, 1.815, 0.9075, 1.8975, 0.495, 1.485, 0, 0.99, 0.0825, 1.0725, 0.165, 1.155, 0.2475, 1.2375, 0.33, 1.32, 0.4125, 1.4025, 0.5775, 1.5675, 0.66, 1.65, 0.7425, 1.7325, 0.825, 1.815, 0.9075, 1.8975, 0.495, 1.485, 0, 0.99, 0.0825, 1.0725, 0.165, 1.155, 0.2475, 1.2375, 0.33, 1.32, 0.4125, 1.4025, 0.5775, 1.5675, 0.66, 1.65, 0.7425, 1.7325, 0.825, 1.815, 0.9075, 1.8975, 0.495],
  "SoftwareVersions": "syngo_MR_E11",
  "SpacingBetweenSlices": 2,
  "StationName": "AWP166078",
  "TaskName": "naturalvision",
  "TotalReadoutTime": 0.0534586,
  "TxRefAmp": 249.511,
  "dcmmeta_affine": [
    [-2.0, 0.0, 0.0, 100.0],
    [0.0, 1.9795525074005127, -0.28525787591934204, -82.65454864501953],
    [0.0, 0.28525787591934204, 1.9795525074005127, -87.33609008789062],
    [0.0, 0.0, 0.0, 1.0]
],
  "dcmmeta_reorient_transform": [
    [0.0, -1.0, 0.0, 99.0],
    [1.0, 0.0, 0.0, 0.0],
    [0.0, 0.0, 1.0, 0.0],
    [0.0, 0.0, 0.0, 1.0]
],
  "dcmmeta_shape": [100, 100, 72, 256],
  "dcmmeta_slice_dim": 2,
  "dcmmeta_version": 0.6,
  "global": {
    "const": {
      "AcquisitionMatrix": [100, 0, 0, 100],
      "AngioFlag": "N",
      "BitsAllocated": 16,
      "BitsStored": 12,
      "BodyPartExamined": "BRAIN",
      "Columns": 900,
      "EchoNumbers": 1,
      "EchoTime": 34.0,
      "EchoTrainLength": 100,
      "FlipAngle": 90.0,
      "HighBit": 11,
      "ImageOrientationPatient": [1.0, 0.0, 0.0, 0.0, 0.98977622990198, -0.1426289406854],
      "ImagePositionPatient": [-900.0, -905.14212898362, 55.007594773571],
      "ImageType": [
        "ORIGINAL",
        "PRIMARY",
        "M",
        "ND",
        "MOSAIC"
],
      "ImagedNucleus": "1H",
      "ImagingFrequency": 123.25778,
      "InPlanePhaseEncodingDirection": "COL",
      "MRAcquisitionType": "2D",
      "MagneticFieldStrength": 3.0,
      "Manufacturer": "SIEMENS",
      "ManufacturerModelName": "Prisma",
      "Modality": "MR",
      "NumberOfAverages": 1.0,
      "NumberOfPhaseEncodingSteps": 100,
      "PercentPhaseFieldOfView": 100.0,
      "PercentSampling": 100.0,
      "PerformedProcedureStepStartTime": "143323.646000",
      "PhotometricInterpretation": "MONOCHROME2",
      "PixelBandwidth": 2380.0,
      "PixelRepresentation": 0,
      "PixelSpacing": [2.0, 2.0],
      "ProtocolName": "bold_100x100_s3_2x2x2_static_256",
      "RepetitionTime": 2000.0,
      "Rows": 900,
      "SAR": 0.08224063074196,
      "SamplesPerPixel": 1,
      "ScanOptions": "FS",
      "ScanningSequence": "EP",
      "SequenceName": "*epfid2d1_100",
      "SequenceVariant": "SK",
      "SeriesDescription": "bold_100x100_s3_2x2x2_static_256",
      "SeriesNumber": 11,
      "SeriesTime": "153644.078000",
      "SliceLocation": -74.654253255673,
      "SliceThickness": 2.0,
      "SmallestImagePixelValue": 0,
      "SoftwareVersions": "syngo MR E11",
      "SpacingBetweenSlices": 2.0000000089338,
      "SpecificCharacterSet": "ISO_IR 100",
      "StudyID": "1",
      "StudyTime": "143323.539000",
      "TransmitCoilName": "Body",
      "VariableFlipAngleFlag": "N",
      "WindowCenterWidthExplanation": "Algo1",
      "dBdt": 0.0},
    "slices": {}
  },
  "time": {
    "samples": {
      "AcquisitionNumber": [1, 2, 3, 4, 5, 6, 7, 8, 9, 10, 11, 12, 13, 14, 15, 16, 17, 18, 19, 20, 21, 22, 23, 24, 25, 26, 27, 28, 29, 30, 31, 32, 33, 34, 35, 36, 37, 38, 39, 40, 41, 42, 43, 44, 45, 46, 47, 48, 49, 50, 51, 52, 53, 54, 55, 56, 57, 58, 59, 60, 61, 62, 63, 64, 65, 66, 67, 68, 69, 70, 71, 72, 73, 74, 75, 76, 77, 78, 79, 80, 81, 82, 83, 84, 85, 86, 87, 88, 89, 90, 91, 92, 93, 94, 95, 96, 97, 98, 99, 100, 101, 102, 103, 104, 105, 106, 107, 108, 109, 110, 111, 112, 113, 114, 115, 116, 117, 118, 119, 120, 121, 122, 123, 124, 125, 126, 127, 128, 129, 130, 131, 132, 133, 134, 135, 136, 137, 138, 139, 140, 141, 142, 143, 144, 145, 146, 147, 148, 149, 150, 151, 152, 153, 154, 155, 156, 157, 158, 159, 160, 161, 162, 163, 164, 165, 166, 167, 168, 169, 170, 171, 172, 173, 174, 175, 176, 177, 178, 179, 180, 181, 182, 183, 184, 185, 186, 187, 188, 189, 190, 191, 192, 193, 194, 195, 196, 197, 198, 199, 200, 201, 202, 203, 204, 205, 206, 207, 208, 209, 210, 211, 212, 213, 214, 215, 216, 217, 218, 219, 220, 221, 222, 223, 224, 225, 226, 227, 228, 229, 230, 231, 232, 233, 234, 235, 236, 237, 238, 239, 240, 241, 242, 243, 244, 245, 246, 247, 248, 249, 250, 251, 252, 253, 254, 255, 256],
      "AcquisitionTime": ["153641.035000", "153643.035000", "153645.035000", "153647.035000", "153649.035000", "153651.035000", "153653.035000", "153655.035000", "153657.035000", "153659.035000", "153701.035000", "153703.035000", "153705.035000", "153707.035000", "153709.035000", "153711.035000", "153713.035000", "153715.035000", "153717.035000", "153719.035000", "153721.035000", "153723.035000", "153725.035000", "153727.035000", "153729.035000", "153731.035000", "153733.035000", "153735.035000", "153737.035000", "153739.035000", "153741.035000", "153743.035000", "153745.035000", "153747.035000", "153749.035000", "153751.035000", "153753.035000", "153755.035000", "153757.035000", "153759.035000", "153801.035000", "153803.035000", "153805.035000", "153807.035000", "153809.035000", "153811.035000", "153813.035000", "153815.035000", "153817.035000", "153819.035000", "153821.035000", "153823.035000", "153825.035000", "153827.035000", "153829.035000", "153831.035000", "153833.035000", "153835.035000", "153837.035000", "153839.035000", "153841.035000", "153843.035000", "153845.035000", "153847.035000", "153849.035000", "153851.035000", "153853.035000", "153855.035000", "153857.035000", "153859.035000", "153901.035000", "153903.035000", "153905.035000", "153907.035000", "153909.035000", "153911.035000", "153913.035000", "153915.035000", "153917.035000", "153919.035000", "153921.035000", "153923.035000", "153925.035000", "153927.035000", "153929.035000", "153931.035000", "153933.035000", "153935.035000", "153937.035000", "153939.035000", "153941.035000", "153943.035000", "153945.035000", "153947.035000", "153949.035000", "153951.035000", "153953.035000", "153955.035000", "153957.035000", "153959.035000", "154001.035000", "154003.035000", "154005.035000", "154007.035000", "154009.035000", "154011.035000", "154013.035000", "154015.035000", "154017.035000", "154019.035000", "154021.035000", "154023.035000", "154025.035000", "154027.035000", "154029.035000", "154031.035000", "154033.035000", "154035.035000", "154037.035000", "154039.035000", "154041.035000", "154043.035000", "154045.035000", "154047.035000", "154049.035000", "154051.035000", "154053.035000", "154055.035000", "154057.035000", "154059.035000", "154101.035000", "154103.035000", "154105.035000", "154107.035000", "154109.035000", "154111.035000", "154113.035000", "154115.035000", "154117.035000", "154119.035000", "154121.035000", "154123.035000", "154125.035000", "154127.035000", "154129.035000", "154131.035000", "154133.035000", "154135.035000", "154137.035000", "154139.035000", "154141.035000", "154143.035000", "154145.035000", "154147.035000", "154149.035000", "154151.035000", "154153.035000", "154155.035000", "154157.035000", "154159.035000", "154201.035000", "154203.035000", "154205.035000", "154207.035000", "154209.035000", "154211.035000", "154213.035000", "154215.035000", "154217.035000", "154219.035000", "154221.035000", "154223.035000", "154225.035000", "154227.035000", "154229.035000", "154231.035000", "154233.035000", "154235.035000", "154237.035000", "154239.035000", "154241.035000", "154243.035000", "154245.035000", "154247.035000", "154249.035000", "154251.035000", "154253.035000", "154255.035000", "154257.035000", "154259.035000", "154301.035000", "154303.035000", "154305.035000", "154307.035000", "154309.035000", "154311.035000", "154313.035000", "154315.035000", "154317.035000", "154319.035000", "154321.035000", "154323.035000", "154325.035000", "154327.035000", "154329.035000", "154331.035000", "154333.035000", "154335.035000", "154337.035000", "154339.035000", "154341.035000", "154343.035000", "154345.035000", "154347.035000", "154349.035000", "154351.035000", "154353.035000", "154355.035000", "154357.035000", "154359.035000", "154401.035000", "154403.035000", "154405.035000", "154407.035000", "154409.035000", "154411.035000", "154413.035000", "154415.035000", "154417.035000", "154419.035000", "154421.035000", "154423.035000", "154425.035000", "154427.035000", "154429.035000", "154431.035000", "154433.035000", "154435.035000", "154437.035000", "154439.035000", "154441.035000", "154443.035000", "154445.035000", "154447.035000", "154449.035000", "154451.035000", "154453.035000", "154455.035000", "154457.035000", "154459.035000", "154501.035000", "154503.035000", "154505.035000", "154507.035000", "154509.035000", "154511.035000"],
      "ContentTime": ["153644.082000", "153645.078000", "153647.578000", "153649.577000", "153651.578000", "153653.577000", "153655.577000", "153657.577000", "153659.577000", "153701.578000", "153703.577000", "153705.577000", "153707.577000", "153709.577000", "153711.577000", "153713.577000", "153715.577000", "153717.578000", "153719.077000", "153721.578000", "153723.577000", "153725.577000", "153727.578000", "153729.577000", "153731.577000", "153733.579000", "153735.578000", "153737.578000", "153739.577000", "153741.077000", "153743.578000", "153745.578000", "153747.578000", "153749.578000", "153751.577000", "153753.578000", "153755.578000", "153757.577000", "153759.577000", "153801.577000", "153803.577000", "153805.577000", "153807.077000", "153809.078000", "153811.578000", "153813.577000", "153815.578000", "153817.577000", "153819.577000", "153821.578000", "153823.577000", "153825.578000", "153827.578000", "153829.577000", "153831.578000", "153833.578000", "153835.577000", "153837.577000", "153839.578000", "153841.077000", "153843.578000", "153845.577000", "153847.578000", "153849.577000", "153851.078000", "153853.577000", "153855.577000", "153857.577000", "153859.577000", "153901.578000", "153903.577000", "153905.577000", "153907.078000", "153909.578000", "153911.577000", "153913.577000", "153915.577000", "153917.577000", "153919.577000", "153921.078000", "153923.577000", "153925.577000", "153927.578000", "153929.578000", "153931.578000", "153933.578000", "153935.578000", "153937.577000", "153939.077000", "153941.077000", "153943.577000", "153945.578000", "153947.578000", "153949.578000", "153951.577000", "153953.578000", "153955.577000", "153957.577000", "153959.577000", "154001.578000", "154003.577000", "154005.578000", "154007.577000", "154009.577000", "154011.578000", "154013.577000", "154015.577000", "154017.578000", "154019.578000", "154021.578000", "154023.578000", "154025.578000", "154027.577000", "154029.577000", "154031.577000", "154033.577000", "154035.577000", "154037.578000", "154039.577000", "154041.578000", "154043.078000", "154045.579000", "154047.577000", "154049.578000", "154051.578000", "154053.577000", "154055.578000", "154057.578000", "154059.578000", "154101.578000", "154103.578000", "154105.577000", "154107.589000", "154109.578000", "154111.577000", "154113.577000", "154115.578000", "154117.078000", "154119.578000", "154121.577000", "154123.578000", "154125.578000", "154127.577000", "154129.578000", "154131.577000", "154133.577000", "154135.578000", "154137.578000", "154139.578000", "154141.577000", "154143.578000", "154145.577000", "154147.577000", "154149.578000", "154151.577000", "154153.577000", "154155.578000", "154157.578000", "154159.578000", "154201.077000", "154203.578000", "154205.077000", "154207.577000", "154209.578000", "154211.578000", "154213.579000", "154215.577000", "154217.578000", "154219.578000", "154221.578000", "154223.577000", "154225.578000", "154227.577000", "154229.577000", "154231.578000", "154233.578000", "154235.577000", "154237.578000", "154239.577000", "154241.578000", "154243.578000", "154245.577000", "154247.578000", "154249.578000", "154251.577000", "154253.578000", "154255.578000", "154257.577000", "154259.578000", "154301.577000", "154303.578000", "154305.578000", "154307.578000", "154309.077000", "154311.577000", "154313.577000", "154315.577000", "154317.578000", "154319.577000", "154321.077000", "154323.578000", "154325.577000", "154327.578000", "154329.578000", "154331.077000", "154333.578000", "154335.578000", "154337.577000", "154339.577000", "154341.578000", "154343.077000", "154345.578000", "154347.577000", "154349.578000", "154351.578000", "154353.077000", "154355.577000", "154357.578000", "154359.578000", "154401.578000", "154403.577000", "154405.578000", "154407.578000", "154409.577000", "154411.578000", "154413.578000", "154415.578000", "154417.578000", "154419.578000", "154421.578000", "154423.578000", "154425.577000", "154427.577000", "154429.578000", "154431.577000", "154433.578000", "154435.577000", "154437.578000", "154439.577000", "154441.577000", "154443.577000", "154445.578000", "154447.577000", "154449.577000", "154451.577000", "154453.077000", "154455.577000", "154457.577000", "154459.578000", "154501.577000", "154503.577000", "154505.578000", "154507.077000", "154509.577000", "154511.078000", "154513.122000"],
      "InstanceCreationTime": ["153644.082000", "153645.078000", "153647.578000", "153649.577000", "153651.578000", "153653.577000", "153655.577000", "153657.577000", "153659.577000", "153701.578000", "153703.577000", "153705.577000", "153707.577000", "153709.577000", "153711.577000", "153713.577000", "153715.577000", "153717.578000", "153719.077000", "153721.578000", "153723.577000", "153725.577000", "153727.578000", "153729.577000", "153731.577000", "153733.579000", "153735.578000", "153737.578000", "153739.577000", "153741.077000", "153743.578000", "153745.578000", "153747.578000", "153749.578000", "153751.577000", "153753.578000", "153755.578000", "153757.577000", "153759.577000", "153801.577000", "153803.577000", "153805.577000", "153807.077000", "153809.078000", "153811.578000", "153813.577000", "153815.578000", "153817.577000", "153819.577000", "153821.578000", "153823.577000", "153825.578000", "153827.578000", "153829.577000", "153831.578000", "153833.578000", "153835.577000", "153837.577000", "153839.578000", "153841.077000", "153843.578000", "153845.577000", "153847.578000", "153849.577000", "153851.078000", "153853.577000", "153855.577000", "153857.577000", "153859.577000", "153901.578000", "153903.577000", "153905.577000", "153907.078000", "153909.578000", "153911.577000", "153913.577000", "153915.577000", "153917.577000", "153919.577000", "153921.078000", "153923.577000", "153925.577000", "153927.578000", "153929.578000", "153931.578000", "153933.578000", "153935.578000", "153937.577000", "153939.077000", "153941.077000", "153943.577000", "153945.578000", "153947.578000", "153949.578000", "153951.577000", "153953.578000", "153955.577000", "153957.577000", "153959.577000", "154001.578000", "154003.577000", "154005.578000", "154007.577000", "154009.577000", "154011.578000", "154013.577000", "154015.577000", "154017.578000", "154019.578000", "154021.578000", "154023.578000", "154025.578000", "154027.577000", "154029.577000", "154031.577000", "154033.577000", "154035.577000", "154037.578000", "154039.577000", "154041.578000", "154043.078000", "154045.579000", "154047.577000", "154049.578000", "154051.578000", "154053.577000", "154055.578000", "154057.578000", "154059.578000", "154101.578000", "154103.578000", "154105.577000", "154107.589000", "154109.578000", "154111.577000", "154113.577000", "154115.578000", "154117.078000", "154119.578000", "154121.577000", "154123.578000", "154125.578000", "154127.577000", "154129.578000", "154131.577000", "154133.577000", "154135.578000", "154137.578000", "154139.578000", "154141.577000", "154143.578000", "154145.577000", "154147.577000", "154149.578000", "154151.577000", "154153.577000", "154155.578000", "154157.578000", "154159.578000", "154201.077000", "154203.578000", "154205.077000", "154207.577000", "154209.578000", "154211.578000", "154213.579000", "154215.577000", "154217.578000", "154219.578000", "154221.578000", "154223.577000", "154225.578000", "154227.577000", "154229.577000", "154231.578000", "154233.578000", "154235.577000", "154237.578000", "154239.577000", "154241.578000", "154243.578000", "154245.577000", "154247.578000", "154249.578000", "154251.577000", "154253.578000", "154255.578000", "154257.577000", "154259.578000", "154301.577000", "154303.578000", "154305.578000", "154307.578000", "154309.077000", "154311.577000", "154313.577000", "154315.577000", "154317.578000", "154319.577000", "154321.077000", "154323.578000", "154325.577000", "154327.578000", "154329.578000", "154331.077000", "154333.578000", "154335.578000", "154337.577000", "154339.577000", "154341.578000", "154343.077000", "154345.578000", "154347.577000", "154349.578000", "154351.578000", "154353.077000", "154355.577000", "154357.578000", "154359.578000", "154401.578000", "154403.577000", "154405.578000", "154407.578000", "154409.577000", "154411.578000", "154413.578000", "154415.578000", "154417.578000", "154419.578000", "154421.578000", "154423.578000", "154425.577000", "154427.577000", "154429.578000", "154431.577000", "154433.578000", "154435.577000", "154437.578000", "154439.577000", "154441.577000", "154443.577000", "154445.578000", "154447.577000", "154449.577000", "154451.577000", "154453.077000", "154455.577000", "154457.577000", "154459.578000", "154501.577000", "154503.577000", "154505.578000", "154507.077000", "154509.577000", "154511.078000", "154513.122000"],
      "InstanceNumber": [1, 2, 3, 4, 5, 6, 7, 8, 9, 10, 11, 12, 13, 14, 15, 16, 17, 18, 19, 20, 21, 22, 23, 24, 25, 26, 27, 28, 29, 30, 31, 32, 33, 34, 35, 36, 37, 38, 39, 40, 41, 42, 43, 44, 45, 46, 47, 48, 49, 50, 51, 52, 53, 54, 55, 56, 57, 58, 59, 60, 61, 62, 63, 64, 65, 66, 67, 68, 69, 70, 71, 72, 73, 74, 75, 76, 77, 78, 79, 80, 81, 82, 83, 84, 85, 86, 87, 88, 89, 90, 91, 92, 93, 94, 95, 96, 97, 98, 99, 100, 101, 102, 103, 104, 105, 106, 107, 108, 109, 110, 111, 112, 113, 114, 115, 116, 117, 118, 119, 120, 121, 122, 123, 124, 125, 126, 127, 128, 129, 130, 131, 132, 133, 134, 135, 136, 137, 138, 139, 140, 141, 142, 143, 144, 145, 146, 147, 148, 149, 150, 151, 152, 153, 154, 155, 156, 157, 158, 159, 160, 161, 162, 163, 164, 165, 166, 167, 168, 169, 170, 171, 172, 173, 174, 175, 176, 177, 178, 179, 180, 181, 182, 183, 184, 185, 186, 187, 188, 189, 190, 191, 192, 193, 194, 195, 196, 197, 198, 199, 200, 201, 202, 203, 204, 205, 206, 207, 208, 209, 210, 211, 212, 213, 214, 215, 216, 217, 218, 219, 220, 221, 222, 223, 224, 225, 226, 227, 228, 229, 230, 231, 232, 233, 234, 235, 236, 237, 238, 239, 240, 241, 242, 243, 244, 245, 246, 247, 248, 249, 250, 251, 252, 253, 254, 255, 256],
      "LargestImagePixelValue": [3818, 3745, 3711, 3712, 3704, 3747, 3723, 3716, 3702, 3707, 3714, 3716, 3696, 3709, 3673, 3729, 3712, 3684, 3706, 3708, 3726, 3686, 3703, 3712, 3691, 3684, 3697, 3675, 3700, 3686, 3677, 3683, 3688, 3702, 3699, 3705, 3701, 3693, 3684, 3702, 3713, 3719, 3698, 3738, 3698, 3706, 3724, 3727, 3727, 3728, 3708, 3723, 3704, 3735, 3693, 3708, 3700, 3717, 3707, 3687, 3710, 3683, 3704, 3689, 3706, 3711, 3713, 3729, 3672, 3745, 3693, 3706, 3706, 3716, 3707, 3718, 3667, 3727, 3806, 3699, 3703, 3749, 3707, 3730, 3735, 3716, 3741, 3733, 3756, 3745, 3735, 3710, 3743, 3745, 3738, 3711, 3749, 3736, 3716, 3700, 3720, 3743, 3725, 3715, 3752, 3750, 3740, 3755, 3721, 3711, 3777, 3780, 3748, 3748, 3743, 3773, 3752, 3736, 3735, 3771, 3716, 3754, 3753, 3754, 3728, 3779, 3717, 3761, 3730, 3748, 3744, 3714, 3765, 3758, 3766, 3745, 3776, 3748, 3729, 3725, 3738, 3754, 3753, 3730, 3735, 3737, 3774, 3710, 3735, 3709, 3736, 3687, 3720, 3774, 3712, 3731, 3758, 3756, 3734, 3770, 3731, 3722, 3741, 3721, 3700, 3750, 3760, 3772, 3736, 3747, 3761, 3760, 3731, 3750, 3731, 3761, 3749, 3695, 3754, 3726, 3720, 3727, 3726, 3703, 3735, 3729, 3744, 3683, 3736, 3705, 3713, 3715, 3680, 3704, 3694, 3723, 3688, 3691, 3710, 3684, 3708, 3709, 3718, 3688, 3687, 3739, 3660, 3687, 3681, 3681, 3667, 3694, 3668, 3690, 3675, 3685, 3670, 3654, 3636, 3679, 3667, 3681, 3672, 3706, 3688, 3722, 3739, 3691, 3715, 3707, 3656, 3679, 3681, 3698, 3684, 3694, 3653, 3664, 3646, 3674, 3709, 3704, 3721, 3691, 3713, 3689, 3704, 3644, 3674, 3661, 3680, 3693, 3657, 3679, 3710, 3674],
      "WindowCenter": [885.0, 882.0, 881.0, 881.0, 882.0, 882.0, 882.0, 881.0, 881.0, 879.0, 881.0, 882.0, 882.0, 880.0, 880.0, 880.0, 879.0, 876.0, 875.0, 873.0, 873.0, 873.0, 874.0, 876.0, 878.0, 878.0, 878.0, 878.0, 880.0, 879.0, 878.0, 878.0, 878.0, 878.0, 878.0, 878.0, 879.0, 878.0, 877.0, 877.0, 878.0, 878.0, 880.0, 880.0, 879.0, 879.0, 879.0, 878.0, 879.0, 880.0, 881.0, 881.0, 880.0, 881.0, 880.0, 878.0, 879.0, 879.0, 880.0, 880.0, 879.0, 878.0, 878.0, 879.0, 879.0, 878.0, 877.0, 876.0, 875.0, 876.0, 877.0, 877.0, 878.0, 879.0, 879.0, 878.0, 879.0, 880.0, 881.0, 881.0, 879.0, 877.0, 877.0, 877.0, 879.0, 881.0, 881.0, 879.0, 879.0, 880.0, 881.0, 879.0, 878.0, 878.0, 879.0, 879.0, 880.0, 880.0, 880.0, 881.0, 882.0, 880.0, 880.0, 879.0, 879.0, 878.0, 877.0, 878.0, 879.0, 880.0, 879.0, 878.0, 878.0, 879.0, 880.0, 879.0, 878.0, 878.0, 880.0, 882.0, 881.0, 879.0, 879.0, 879.0, 879.0, 879.0, 878.0, 879.0, 880.0, 881.0, 880.0, 879.0, 879.0, 878.0, 877.0, 876.0, 879.0, 881.0, 881.0, 880.0, 876.0, 874.0, 875.0, 875.0, 877.0, 878.0, 877.0, 876.0, 878.0, 880.0, 881.0, 879.0, 879.0, 879.0, 879.0, 879.0, 880.0, 879.0, 880.0, 879.0, 879.0, 878.0, 879.0, 880.0, 879.0, 879.0, 879.0, 880.0, 879.0, 879.0, 879.0, 879.0, 879.0, 879.0, 879.0, 880.0, 878.0, 877.0, 877.0, 878.0, 880.0, 878.0, 877.0, 877.0, 878.0, 877.0, 877.0, 878.0, 878.0, 877.0, 878.0, 878.0, 878.0, 877.0, 877.0, 877.0, 877.0, 878.0, 879.0, 879.0, 878.0, 877.0, 878.0, 880.0, 879.0, 879.0, 878.0, 877.0, 876.0, 877.0, 878.0, 879.0, 877.0, 877.0, 878.0, 880.0, 880.0, 878.0, 877.0, 877.0, 877.0, 878.0, 877.0, 878.0, 878.0, 879.0, 879.0, 880.0, 879.0, 877.0, 876.0, 878.0, 879.0, 879.0, 878.0, 878.0, 878.0, 877.0, 878.0, 879.0, 880.0, 880.0, 880.0, 879.0, 879.0, 878.0, 879.0, 878.0, 877.0, 877.0, 879.0, 880.0, 879.0, 878.0, 877.0, 876.0],
      "WindowWidth": [1895.0, 1887.0, 1885.0, 1886.0, 1888.0, 1888.0, 1889.0, 1885.0, 1884.0, 1880.0, 1886.0, 1886.0, 1886.0, 1882.0, 1881.0, 1881.0, 1879.0, 1873.0, 1869.0, 1865.0, 1864.0, 1864.0, 1866.0, 1874.0, 1878.0, 1878.0, 1878.0, 1878.0, 1882.0, 1879.0, 1878.0, 1877.0, 1877.0, 1877.0, 1877.0, 1879.0, 1880.0, 1877.0, 1875.0, 1876.0, 1878.0, 1879.0, 1882.0, 1884.0, 1880.0, 1880.0, 1880.0, 1878.0, 1880.0, 1884.0, 1885.0, 1884.0, 1882.0, 1885.0, 1881.0, 1879.0, 1880.0, 1880.0, 1881.0, 1882.0, 1880.0, 1878.0, 1878.0, 1880.0, 1879.0, 1876.0, 1875.0, 1872.0, 1870.0, 1873.0, 1874.0, 1876.0, 1878.0, 1881.0, 1880.0, 1879.0, 1880.0, 1884.0, 1885.0, 1884.0, 1880.0, 1875.0, 1874.0, 1876.0, 1881.0, 1884.0, 1885.0, 1880.0, 1880.0, 1882.0, 1884.0, 1880.0, 1878.0, 1876.0, 1879.0, 1880.0, 1883.0, 1883.0, 1881.0, 1885.0, 1888.0, 1883.0, 1881.0, 1880.0, 1881.0, 1877.0, 1875.0, 1877.0, 1880.0, 1881.0, 1879.0, 1877.0, 1876.0, 1880.0, 1881.0, 1880.0, 1876.0, 1876.0, 1882.0, 1888.0, 1884.0, 1880.0, 1881.0, 1881.0, 1879.0, 1880.0, 1877.0, 1879.0, 1882.0, 1886.0, 1883.0, 1879.0, 1879.0, 1877.0, 1876.0, 1873.0, 1880.0, 1886.0, 1886.0, 1882.0, 1872.0, 1868.0, 1869.0, 1871.0, 1875.0, 1876.0, 1875.0, 1872.0, 1877.0, 1883.0, 1885.0, 1880.0, 1880.0, 1880.0, 1879.0, 1881.0, 1881.0, 1881.0, 1882.0, 1880.0, 1878.0, 1878.0, 1880.0, 1882.0, 1878.0, 1880.0, 1881.0, 1881.0, 1878.0, 1878.0, 1879.0, 1880.0, 1879.0, 1879.0, 1881.0, 1882.0, 1878.0, 1874.0, 1874.0, 1879.0, 1883.0, 1878.0, 1874.0, 1873.0, 1876.0, 1875.0, 1876.0, 1876.0, 1876.0, 1874.0, 1878.0, 1877.0, 1876.0, 1873.0, 1874.0, 1874.0, 1874.0, 1877.0, 1880.0, 1880.0, 1878.0, 1876.0, 1878.0, 1883.0, 1880.0, 1879.0, 1875.0, 1874.0, 1873.0, 1874.0, 1877.0, 1878.0, 1875.0, 1873.0, 1877.0, 1881.0, 1881.0, 1876.0, 1873.0, 1874.0, 1874.0, 1875.0, 1873.0, 1877.0, 1878.0, 1880.0, 1880.0, 1882.0, 1880.0, 1875.0, 1871.0, 1876.0, 1878.0, 1879.0, 1877.0, 1878.0, 1876.0, 1874.0, 1877.0, 1880.0, 1883.0, 1882.0, 1882.0, 1878.0, 1879.0, 1877.0, 1878.0, 1875.0, 1873.0, 1875.0, 1877.0, 1882.0, 1877.0, 1875.0, 1874.0, 1870.0]
    },
    "slices": {}
  }
}