{
 "AcquisitionMatrixPE": 100,
 "AcquisitionNumber": 1,
 "AcquisitionTime": "15:46:39.332500",
 "BandwidthPerPixelPhaseEncode": 18.519,
 "BaseResolution": 100,
 "BodyPartExamined": "BRAIN",
 "ConsistencyInfo": "N4_VE11C_LATEST_20160120",
 "ConversionSoftware": "dcm2niix",
 "ConversionSoftwareVersion": "v1.0.20180622 GCC4.9.2",
 "DerivedVendorReportedEchoSpacing": 0.000539986,
 "DeviceSerialNumber": "166078",
 "DwellTime": 2.1e-06,
 "EchoTime": 0.034,
 "EchoTrainLength": 100,
 "EffectiveEchoSpacing": 0.000539986,
 "FlipAngle": 90,
 "ImageOrientationPatientDICOM": [
  1,
  0,
  0,
  0,
  0.989776,
  -0.142629
 ],
 "ImageType": [
  "ORIGINAL",
  "PRIMARY",
  "M",
  "ND",
  "MOSAIC"
 ],
 "InPlanePhaseEncodingDirectionDICOM": "COL",
 "InstitutionAddress": "Street_StreetNo_Bei_Jing_District_CN_ZIP",
 "InstitutionName": "BeiJing_Normal_University",
 "InstitutionalDepartmentName": "Department",
 "MRAcquisitionType": "2D",
 "MagneticFieldStrength": 3,
 "Manufacturer": "Siemens",
 "ManufacturersModelName": "Prisma",
 "Modality": "MR",
 "MultibandAccelerationFactor": 3,
 "PartialFourier": 1,
 "PatientPosition": "HFS",
 "PercentPhaseFOV": 100,
 "PhaseEncodingDirection": "j-",
 "PhaseEncodingSteps": 100,
 "PhaseResolution": 1,
 "PixelBandwidth": 2380,
 "ProcedureStepDescription": "BNU_P2018_64CH_Zhen.ZongLei",
 "ProtocolName": "bold_100x100_s3_2x2x2_static_256",
 "PulseSequenceDetails": "%SiemensSeq%_ep2d_bold",
 "ReceiveCoilActiveElements": "HC1-7;NC1",
 "ReceiveCoilName": "HeadNeck_64",
 "ReconMatrixPE": 100,
 "RepetitionTime": 2,
 "SAR": 0.0822406,
 "ScanOptions": "FS",
 "ScanningSequence": "EP",
 "SequenceName": "_epfid2d1_100",
 "SequenceVariant": "SK",
 "SeriesDescription": "bold_100x100_s3_2x2x2_static_256",
 "SeriesNumber": 12,
 "ShimSetting": [
  -5473,
  -11478,
  -1247,
  182,
  26,
  -206,
  -220,
  82
 ],
 "SliceThickness": 2,
 "SliceTiming": [
  1.485,
  0,
  0.99,
  0.0825,
  1.0725,
  0.165,
  1.155,
  0.2475,
  1.2375,
  0.33,
  1.32,
  0.4125,
  1.4025,
  0.5775,
  1.5675,
  0.66,
  1.65,
  0.7425,
  1.7325,
  0.825,
  1.815,
  0.9075,
  1.8975,
  0.495,
  1.485,
  0,
  0.99,
  0.0825,
  1.0725,
  0.165,
  1.155,
  0.2475,
  1.2375,
  0.33,
  1.32,
  0.4125,
  1.4025,
  0.5775,
  1.5675,
  0.66,
  1.65,
  0.7425,
  1.7325,
  0.825,
  1.815,
  0.9075,
  1.8975,
  0.495,
  1.485,
  0,
  0.99,
  0.0825,
  1.0725,
  0.165,
  1.155,
  0.2475,
  1.2375,
  0.33,
  1.32,
  0.4125,
  1.4025,
  0.5775,
  1.5675,
  0.66,
  1.65,
  0.7425,
  1.7325,
  0.825,
  1.815,
  0.9075,
  1.8975,
  0.495
 ],
 "SoftwareVersions": "syngo_MR_E11",
 "SpacingBetweenSlices": 2,
 "StationName": "AWP166078",
 "TaskName": "imagenet",
 "TotalReadoutTime": 0.0534586,
 "TxRefAmp": 249.511,
 "dcmmeta_affine": [
  [
   -2.0,
   0.0,
   0.0,
   100.0
  ],
  [
   0.0,
   1.9795525074005127,
   -0.28525787591934204,
   -82.65454864501953
  ],
  [
   0.0,
   0.28525787591934204,
   1.9795525074005127,
   -87.33609008789062
  ],
  [
   0.0,
   0.0,
   0.0,
   1.0
  ]
 ],
 "dcmmeta_reorient_transform": [
  [
   0.0,
   -1.0,
   0.0,
   99.0
  ],
  [
   1.0,
   0.0,
   0.0,
   0.0
  ],
  [
   0.0,
   0.0,
   1.0,
   0.0
  ],
  [
   0.0,
   0.0,
   0.0,
   1.0
  ]
 ],
 "dcmmeta_shape": [
  100,
  100,
  72,
  256
 ],
 "dcmmeta_slice_dim": 2,
 "dcmmeta_version": 0.6,
 "global": {
  "const": {
   "AcquisitionMatrix": [
    100,
    0,
    0,
    100
   ],
   "AngioFlag": "N",
   "BitsAllocated": 16,
   "BitsStored": 12,
   "BodyPartExamined": "BRAIN",
   "Columns": 900,
   "EchoNumbers": 1,
   "EchoTime": 34.0,
   "EchoTrainLength": 100,
   "FlipAngle": 90.0,
   "HighBit": 11,
   "ImageOrientationPatient": [
    1.0,
    0.0,
    0.0,
    0.0,
    0.98977622990198,
    -0.1426289406854
   ],
   "ImagePositionPatient": [
    -900.0,
    -905.14212898362,
    55.007594773571
   ],
   "ImageType": [
    "ORIGINAL",
    "PRIMARY",
    "M",
    "ND",
    "MOSAIC"
   ],
   "ImagedNucleus": "1H",
   "ImagingFrequency": 123.257782,
   "InPlanePhaseEncodingDirection": "COL",
   "MRAcquisitionType": "2D",
   "MagneticFieldStrength": 3.0,
   "Manufacturer": "SIEMENS",
   "ManufacturerModelName": "Prisma",
   "Modality": "MR",
   "NumberOfAverages": 1.0,
   "NumberOfPhaseEncodingSteps": 100,
   "PercentPhaseFieldOfView": 100.0,
   "PercentSampling": 100.0,
   "PerformedProcedureStepStartTime": "143323.646000",
   "PhotometricInterpretation": "MONOCHROME2",
   "PixelBandwidth": 2380.0,
   "PixelRepresentation": 0,
   "PixelSpacing": [
    2.0,
    2.0
   ],
   "ProtocolName": "bold_100x100_s3_2x2x2_static_256",
   "RepetitionTime": 2000.0,
   "Rows": 900,
   "SAR": 0.08224063074196,
   "SamplesPerPixel": 1,
   "ScanOptions": "FS",
   "ScanningSequence": "EP",
   "SequenceName": "*epfid2d1_100",
   "SequenceVariant": "SK",
   "SeriesDescription": "bold_100x100_s3_2x2x2_static_256",
   "SeriesNumber": 12,
   "SeriesTime": "154641.471000",
   "SliceLocation": -74.654253255673,
   "SliceThickness": 2.0,
   "SmallestImagePixelValue": 0,
   "SoftwareVersions": "syngo MR E11",
   "SpacingBetweenSlices": 2.0000000089338,
   "SpecificCharacterSet": "ISO_IR 100",
   "StudyID": "1",
   "StudyTime": "143323.539000",
   "TransmitCoilName": "Body",
   "VariableFlipAngleFlag": "N",
   "WindowCenterWidthExplanation": "Algo1",
   "dBdt": 0.0
  },
  "slices": {}
 },
 "time": {
  "samples": {
   "AcquisitionNumber": [
    1,
    2,
    3,
    4,
    5,
    6,
    7,
    8,
    9,
    10,
    11,
    12,
    13,
    14,
    15,
    16,
    17,
    18,
    19,
    20,
    21,
    22,
    23,
    24,
    25,
    26,
    27,
    28,
    29,
    30,
    31,
    32,
    33,
    34,
    35,
    36,
    37,
    38,
    39,
    40,
    41,
    42,
    43,
    44,
    45,
    46,
    47,
    48,
    49,
    50,
    51,
    52,
    53,
    54,
    55,
    56,
    57,
    58,
    59,
    60,
    61,
    62,
    63,
    64,
    65,
    66,
    67,
    68,
    69,
    70,
    71,
    72,
    73,
    74,
    75,
    76,
    77,
    78,
    79,
    80,
    81,
    82,
    83,
    84,
    85,
    86,
    87,
    88,
    89,
    90,
    91,
    92,
    93,
    94,
    95,
    96,
    97,
    98,
    99,
    100,
    101,
    102,
    103,
    104,
    105,
    106,
    107,
    108,
    109,
    110,
    111,
    112,
    113,
    114,
    115,
    116,
    117,
    118,
    119,
    120,
    121,
    122,
    123,
    124,
    125,
    126,
    127,
    128,
    129,
    130,
    131,
    132,
    133,
    134,
    135,
    136,
    137,
    138,
    139,
    140,
    141,
    142,
    143,
    144,
    145,
    146,
    147,
    148,
    149,
    150,
    151,
    152,
    153,
    154,
    155,
    156,
    157,
    158,
    159,
    160,
    161,
    162,
    163,
    164,
    165,
    166,
    167,
    168,
    169,
    170,
    171,
    172,
    173,
    174,
    175,
    176,
    177,
    178,
    179,
    180,
    181,
    182,
    183,
    184,
    185,
    186,
    187,
    188,
    189,
    190,
    191,
    192,
    193,
    194,
    195,
    196,
    197,
    198,
    199,
    200,
    201,
    202,
    203,
    204,
    205,
    206,
    207,
    208,
    209,
    210,
    211,
    212,
    213,
    214,
    215,
    216,
    217,
    218,
    219,
    220,
    221,
    222,
    223,
    224,
    225,
    226,
    227,
    228,
    229,
    230,
    231,
    232,
    233,
    234,
    235,
    236,
    237,
    238,
    239,
    240,
    241,
    242,
    243,
    244,
    245,
    246,
    247,
    248,
    249,
    250,
    251,
    252,
    253,
    254,
    255,
    256
   ],
   "AcquisitionTime": [
    "154639.332500",
    "154641.332500",
    "154643.332500",
    "154645.332500",
    "154647.332500",
    "154649.332500",
    "154651.332500",
    "154653.332500",
    "154655.332500",
    "154657.332500",
    "154659.332500",
    "154701.332500",
    "154703.332500",
    "154705.332500",
    "154707.332500",
    "154709.332500",
    "154711.332500",
    "154713.332500",
    "154715.332500",
    "154717.332500",
    "154719.332500",
    "154721.332500",
    "154723.332500",
    "154725.332500",
    "154727.332500",
    "154729.332500",
    "154731.332500",
    "154733.332500",
    "154735.332500",
    "154737.332500",
    "154739.332500",
    "154741.332500",
    "154743.332500",
    "154745.332500",
    "154747.332500",
    "154749.332500",
    "154751.332500",
    "154753.332500",
    "154755.332500",
    "154757.332500",
    "154759.332500",
    "154801.332500",
    "154803.332500",
    "154805.332500",
    "154807.332500",
    "154809.332500",
    "154811.332500",
    "154813.332500",
    "154815.332500",
    "154817.332500",
    "154819.332500",
    "154821.332500",
    "154823.332500",
    "154825.332500",
    "154827.332500",
    "154829.332500",
    "154831.332500",
    "154833.332500",
    "154835.332500",
    "154837.332500",
    "154839.332500",
    "154841.332500",
    "154843.332500",
    "154845.332500",
    "154847.332500",
    "154849.332500",
    "154851.332500",
    "154853.332500",
    "154855.332500",
    "154857.332500",
    "154859.332500",
    "154901.332500",
    "154903.332500",
    "154905.332500",
    "154907.332500",
    "154909.332500",
    "154911.332500",
    "154913.332500",
    "154915.332500",
    "154917.332500",
    "154919.332500",
    "154921.332500",
    "154923.332500",
    "154925.332500",
    "154927.332500",
    "154929.332500",
    "154931.332500",
    "154933.332500",
    "154935.332500",
    "154937.332500",
    "154939.332500",
    "154941.332500",
    "154943.332500",
    "154945.332500",
    "154947.332500",
    "154949.332500",
    "154951.332500",
    "154953.332500",
    "154955.332500",
    "154957.332500",
    "154959.332500",
    "155001.332500",
    "155003.332500",
    "155005.332500",
    "155007.332500",
    "155009.332500",
    "155011.332500",
    "155013.332500",
    "155015.332500",
    "155017.332500",
    "155019.332500",
    "155021.332500",
    "155023.332500",
    "155025.332500",
    "155027.332500",
    "155029.332500",
    "155031.332500",
    "155033.332500",
    "155035.332500",
    "155037.332500",
    "155039.332500",
    "155041.332500",
    "155043.332500",
    "155045.332500",
    "155047.332500",
    "155049.332500",
    "155051.332500",
    "155053.332500",
    "155055.332500",
    "155057.332500",
    "155059.332500",
    "155101.332500",
    "155103.332500",
    "155105.332500",
    "155107.332500",
    "155109.332500",
    "155111.332500",
    "155113.332500",
    "155115.332500",
    "155117.332500",
    "155119.332500",
    "155121.332500",
    "155123.332500",
    "155125.332500",
    "155127.332500",
    "155129.332500",
    "155131.332500",
    "155133.332500",
    "155135.332500",
    "155137.332500",
    "155139.332500",
    "155141.332500",
    "155143.332500",
    "155145.332500",
    "155147.332500",
    "155149.332500",
    "155151.332500",
    "155153.332500",
    "155155.332500",
    "155157.332500",
    "155159.332500",
    "155201.332500",
    "155203.332500",
    "155205.332500",
    "155207.332500",
    "155209.332500",
    "155211.332500",
    "155213.332500",
    "155215.332500",
    "155217.332500",
    "155219.332500",
    "155221.332500",
    "155223.332500",
    "155225.332500",
    "155227.332500",
    "155229.332500",
    "155231.332500",
    "155233.332500",
    "155235.332500",
    "155237.332500",
    "155239.332500",
    "155241.332500",
    "155243.332500",
    "155245.332500",
    "155247.332500",
    "155249.332500",
    "155251.332500",
    "155253.332500",
    "155255.332500",
    "155257.332500",
    "155259.332500",
    "155301.332500",
    "155303.332500",
    "155305.332500",
    "155307.332500",
    "155309.332500",
    "155311.332500",
    "155313.332500",
    "155315.332500",
    "155317.332500",
    "155319.332500",
    "155321.332500",
    "155323.332500",
    "155325.332500",
    "155327.332500",
    "155329.332500",
    "155331.332500",
    "155333.332500",
    "155335.332500",
    "155337.332500",
    "155339.332500",
    "155341.332500",
    "155343.332500",
    "155345.332500",
    "155347.332500",
    "155349.332500",
    "155351.332500",
    "155353.332500",
    "155355.332500",
    "155357.332500",
    "155359.332500",
    "155401.332500",
    "155403.332500",
    "155405.332500",
    "155407.332500",
    "155409.332500",
    "155411.332500",
    "155413.332500",
    "155415.332500",
    "155417.332500",
    "155419.332500",
    "155421.332500",
    "155423.332500",
    "155425.332500",
    "155427.332500",
    "155429.332500",
    "155431.332500",
    "155433.332500",
    "155435.332500",
    "155437.332500",
    "155439.332500",
    "155441.332500",
    "155443.332500",
    "155445.332500",
    "155447.332500",
    "155449.332500",
    "155451.332500",
    "155453.332500",
    "155455.332500",
    "155457.332500",
    "155459.332500",
    "155501.332500",
    "155503.332500",
    "155505.332500",
    "155507.332500",
    "155509.332500"
   ],
   "ContentTime": [
    "154641.474000",
    "154642.968000",
    "154644.968000",
    "154646.969000",
    "154648.968000",
    "154650.968000",
    "154652.969000",
    "154654.969000",
    "154656.969000",
    "154658.969000",
    "154700.968000",
    "154702.969000",
    "154704.968000",
    "154706.968000",
    "154708.968000",
    "154710.969000",
    "154712.969000",
    "154714.970000",
    "154716.968000",
    "154718.969000",
    "154720.968000",
    "154722.968000",
    "154724.968000",
    "154726.968000",
    "154728.970000",
    "154730.970000",
    "154732.970000",
    "154734.968000",
    "154736.969000",
    "154738.969000",
    "154740.969000",
    "154742.968000",
    "154744.968000",
    "154746.970000",
    "154748.970000",
    "154750.970000",
    "154752.968000",
    "154754.969000",
    "154756.969000",
    "154758.968000",
    "154800.968000",
    "154802.969000",
    "154804.969000",
    "154806.969000",
    "154808.969000",
    "154810.968000",
    "154812.969000",
    "154814.969000",
    "154816.968000",
    "154818.968000",
    "154820.969000",
    "154822.969000",
    "154824.970000",
    "154826.968000",
    "154828.968000",
    "154830.969000",
    "154832.969000",
    "154834.969000",
    "154836.968000",
    "154838.970000",
    "154840.969000",
    "154842.970000",
    "154844.968000",
    "154846.968000",
    "154848.969000",
    "154850.968000",
    "154852.968000",
    "154854.968000",
    "154856.969000",
    "154858.969000",
    "154900.969000",
    "154902.968000",
    "154904.969000",
    "154906.969000",
    "154908.969000",
    "154910.969000",
    "154912.970000",
    "154914.969000",
    "154916.969000",
    "154918.970000",
    "154920.968000",
    "154922.968000",
    "154924.969000",
    "154926.968000",
    "154928.968000",
    "154930.970000",
    "154932.969000",
    "154934.970000",
    "154936.969000",
    "154938.968000",
    "154940.969000",
    "154942.968000",
    "154944.968000",
    "154946.968000",
    "154948.969000",
    "154950.970000",
    "154952.970000",
    "154954.968000",
    "154956.968000",
    "154958.968000",
    "155000.969000",
    "155002.969000",
    "155004.969000",
    "155006.969000",
    "155008.970000",
    "155010.969000",
    "155012.968000",
    "155014.968000",
    "155016.969000",
    "155018.968000",
    "155020.968000",
    "155022.969000",
    "155024.970000",
    "155026.970000",
    "155028.969000",
    "155030.968000",
    "155032.969000",
    "155034.969000",
    "155036.968000",
    "155038.968000",
    "155040.969000",
    "155042.969000",
    "155044.969000",
    "155046.969000",
    "155048.968000",
    "155050.969000",
    "155052.988000",
    "155054.969000",
    "155056.968000",
    "155058.969000",
    "155100.990000",
    "155102.969000",
    "155105.001000",
    "155106.969000",
    "155108.969000",
    "155110.968000",
    "155112.969000",
    "155114.969000",
    "155116.970000",
    "155118.970000",
    "155120.970000",
    "155122.968000",
    "155124.968000",
    "155126.969000",
    "155128.969000",
    "155130.968000",
    "155132.970000",
    "155134.969000",
    "155136.969000",
    "155138.969000",
    "155140.968000",
    "155142.969000",
    "155144.968000",
    "155146.969000",
    "155148.969000",
    "155150.969000",
    "155152.969000",
    "155154.970000",
    "155156.969000",
    "155158.968000",
    "155200.968000",
    "155202.968000",
    "155204.968000",
    "155206.969000",
    "155208.969000",
    "155210.970000",
    "155212.969000",
    "155214.969000",
    "155216.969000",
    "155218.968000",
    "155220.969000",
    "155222.969000",
    "155224.969000",
    "155226.969000",
    "155228.970000",
    "155230.969000",
    "155232.968000",
    "155234.968000",
    "155236.968000",
    "155238.969000",
    "155240.968000",
    "155242.990000",
    "155244.969000",
    "155246.969000",
    "155248.969000",
    "155250.969000",
    "155252.968000",
    "155254.969000",
    "155256.968000",
    "155258.968000",
    "155300.969000",
    "155302.969000",
    "155304.970000",
    "155306.969000",
    "155308.968000",
    "155310.968000",
    "155312.969000",
    "155314.969000",
    "155316.968000",
    "155318.969000",
    "155320.969000",
    "155322.969000",
    "155324.968000",
    "155326.968000",
    "155328.969000",
    "155330.968000",
    "155332.968000",
    "155334.969000",
    "155336.969000",
    "155338.969000",
    "155340.969000",
    "155342.968000",
    "155344.968000",
    "155346.969000",
    "155348.968000",
    "155350.968000",
    "155352.969000",
    "155354.970000",
    "155356.970000",
    "155358.969000",
    "155400.969000",
    "155402.968000",
    "155404.969000",
    "155406.969000",
    "155408.969000",
    "155410.969000",
    "155412.969000",
    "155414.969000",
    "155416.969000",
    "155418.968000",
    "155420.968000",
    "155422.968000",
    "155424.969000",
    "155426.989000",
    "155428.969000",
    "155430.969000",
    "155432.969000",
    "155434.968000",
    "155436.969000",
    "155438.969000",
    "155440.968000",
    "155442.968000",
    "155444.970000",
    "155446.970000",
    "155448.969000",
    "155450.970000",
    "155452.968000",
    "155454.968000",
    "155456.969000",
    "155458.969000",
    "155500.968000",
    "155502.970000",
    "155504.969000",
    "155506.970000",
    "155508.968000",
    "155510.775000"
   ],
   "InstanceCreationTime": [
    "154641.474000",
    "154642.968000",
    "154644.968000",
    "154646.969000",
    "154648.968000",
    "154650.968000",
    "154652.969000",
    "154654.969000",
    "154656.969000",
    "154658.969000",
    "154700.968000",
    "154702.969000",
    "154704.968000",
    "154706.968000",
    "154708.968000",
    "154710.969000",
    "154712.969000",
    "154714.970000",
    "154716.968000",
    "154718.969000",
    "154720.968000",
    "154722.968000",
    "154724.968000",
    "154726.968000",
    "154728.970000",
    "154730.970000",
    "154732.970000",
    "154734.968000",
    "154736.969000",
    "154738.969000",
    "154740.969000",
    "154742.968000",
    "154744.968000",
    "154746.970000",
    "154748.970000",
    "154750.970000",
    "154752.968000",
    "154754.969000",
    "154756.969000",
    "154758.968000",
    "154800.968000",
    "154802.969000",
    "154804.969000",
    "154806.969000",
    "154808.969000",
    "154810.968000",
    "154812.969000",
    "154814.969000",
    "154816.968000",
    "154818.968000",
    "154820.969000",
    "154822.969000",
    "154824.970000",
    "154826.968000",
    "154828.968000",
    "154830.969000",
    "154832.969000",
    "154834.969000",
    "154836.968000",
    "154838.970000",
    "154840.969000",
    "154842.970000",
    "154844.968000",
    "154846.968000",
    "154848.969000",
    "154850.968000",
    "154852.968000",
    "154854.968000",
    "154856.969000",
    "154858.969000",
    "154900.969000",
    "154902.968000",
    "154904.969000",
    "154906.969000",
    "154908.969000",
    "154910.969000",
    "154912.970000",
    "154914.969000",
    "154916.969000",
    "154918.970000",
    "154920.968000",
    "154922.968000",
    "154924.969000",
    "154926.968000",
    "154928.968000",
    "154930.970000",
    "154932.969000",
    "154934.970000",
    "154936.969000",
    "154938.968000",
    "154940.969000",
    "154942.968000",
    "154944.968000",
    "154946.968000",
    "154948.969000",
    "154950.970000",
    "154952.970000",
    "154954.968000",
    "154956.968000",
    "154958.968000",
    "155000.969000",
    "155002.969000",
    "155004.969000",
    "155006.969000",
    "155008.970000",
    "155010.969000",
    "155012.968000",
    "155014.968000",
    "155016.969000",
    "155018.968000",
    "155020.968000",
    "155022.969000",
    "155024.970000",
    "155026.970000",
    "155028.969000",
    "155030.968000",
    "155032.969000",
    "155034.969000",
    "155036.968000",
    "155038.968000",
    "155040.969000",
    "155042.969000",
    "155044.969000",
    "155046.969000",
    "155048.968000",
    "155050.969000",
    "155052.988000",
    "155054.969000",
    "155056.968000",
    "155058.969000",
    "155100.990000",
    "155102.969000",
    "155105.001000",
    "155106.969000",
    "155108.969000",
    "155110.968000",
    "155112.969000",
    "155114.969000",
    "155116.970000",
    "155118.970000",
    "155120.970000",
    "155122.968000",
    "155124.968000",
    "155126.969000",
    "155128.969000",
    "155130.968000",
    "155132.970000",
    "155134.969000",
    "155136.969000",
    "155138.969000",
    "155140.968000",
    "155142.969000",
    "155144.968000",
    "155146.969000",
    "155148.969000",
    "155150.969000",
    "155152.969000",
    "155154.970000",
    "155156.969000",
    "155158.968000",
    "155200.968000",
    "155202.968000",
    "155204.968000",
    "155206.969000",
    "155208.969000",
    "155210.970000",
    "155212.969000",
    "155214.969000",
    "155216.969000",
    "155218.968000",
    "155220.969000",
    "155222.969000",
    "155224.969000",
    "155226.969000",
    "155228.970000",
    "155230.969000",
    "155232.968000",
    "155234.968000",
    "155236.968000",
    "155238.969000",
    "155240.968000",
    "155242.990000",
    "155244.969000",
    "155246.969000",
    "155248.969000",
    "155250.969000",
    "155252.968000",
    "155254.969000",
    "155256.968000",
    "155258.968000",
    "155300.969000",
    "155302.969000",
    "155304.970000",
    "155306.969000",
    "155308.968000",
    "155310.968000",
    "155312.969000",
    "155314.969000",
    "155316.968000",
    "155318.969000",
    "155320.969000",
    "155322.969000",
    "155324.968000",
    "155326.968000",
    "155328.969000",
    "155330.968000",
    "155332.968000",
    "155334.969000",
    "155336.969000",
    "155338.969000",
    "155340.969000",
    "155342.968000",
    "155344.968000",
    "155346.969000",
    "155348.968000",
    "155350.968000",
    "155352.969000",
    "155354.970000",
    "155356.970000",
    "155358.969000",
    "155400.969000",
    "155402.968000",
    "155404.969000",
    "155406.969000",
    "155408.969000",
    "155410.969000",
    "155412.969000",
    "155414.969000",
    "155416.969000",
    "155418.968000",
    "155420.968000",
    "155422.968000",
    "155424.969000",
    "155426.989000",
    "155428.969000",
    "155430.969000",
    "155432.969000",
    "155434.968000",
    "155436.969000",
    "155438.969000",
    "155440.968000",
    "155442.968000",
    "155444.970000",
    "155446.970000",
    "155448.969000",
    "155450.970000",
    "155452.968000",
    "155454.968000",
    "155456.969000",
    "155458.969000",
    "155500.968000",
    "155502.970000",
    "155504.969000",
    "155506.970000",
    "155508.968000",
    "155510.775000"
   ],
   "InstanceNumber": [
    1,
    2,
    3,
    4,
    5,
    6,
    7,
    8,
    9,
    10,
    11,
    12,
    13,
    14,
    15,
    16,
    17,
    18,
    19,
    20,
    21,
    22,
    23,
    24,
    25,
    26,
    27,
    28,
    29,
    30,
    31,
    32,
    33,
    34,
    35,
    36,
    37,
    38,
    39,
    40,
    41,
    42,
    43,
    44,
    45,
    46,
    47,
    48,
    49,
    50,
    51,
    52,
    53,
    54,
    55,
    56,
    57,
    58,
    59,
    60,
    61,
    62,
    63,
    64,
    65,
    66,
    67,
    68,
    69,
    70,
    71,
    72,
    73,
    74,
    75,
    76,
    77,
    78,
    79,
    80,
    81,
    82,
    83,
    84,
    85,
    86,
    87,
    88,
    89,
    90,
    91,
    92,
    93,
    94,
    95,
    96,
    97,
    98,
    99,
    100,
    101,
    102,
    103,
    104,
    105,
    106,
    107,
    108,
    109,
    110,
    111,
    112,
    113,
    114,
    115,
    116,
    117,
    118,
    119,
    120,
    121,
    122,
    123,
    124,
    125,
    126,
    127,
    128,
    129,
    130,
    131,
    132,
    133,
    134,
    135,
    136,
    137,
    138,
    139,
    140,
    141,
    142,
    143,
    144,
    145,
    146,
    147,
    148,
    149,
    150,
    151,
    152,
    153,
    154,
    155,
    156,
    157,
    158,
    159,
    160,
    161,
    162,
    163,
    164,
    165,
    166,
    167,
    168,
    169,
    170,
    171,
    172,
    173,
    174,
    175,
    176,
    177,
    178,
    179,
    180,
    181,
    182,
    183,
    184,
    185,
    186,
    187,
    188,
    189,
    190,
    191,
    192,
    193,
    194,
    195,
    196,
    197,
    198,
    199,
    200,
    201,
    202,
    203,
    204,
    205,
    206,
    207,
    208,
    209,
    210,
    211,
    212,
    213,
    214,
    215,
    216,
    217,
    218,
    219,
    220,
    221,
    222,
    223,
    224,
    225,
    226,
    227,
    228,
    229,
    230,
    231,
    232,
    233,
    234,
    235,
    236,
    237,
    238,
    239,
    240,
    241,
    242,
    243,
    244,
    245,
    246,
    247,
    248,
    249,
    250,
    251,
    252,
    253,
    254,
    255,
    256
   ],
   "LargestImagePixelValue": [
    3821,
    3734,
    3717,
    3718,
    3724,
    3718,
    3708,
    3726,
    3729,
    3724,
    3753,
    3703,
    3755,
    3725,
    3734,
    3728,
    3734,
    3725,
    3705,
    3761,
    3644,
    3711,
    3726,
    3738,
    3710,
    3747,
    3756,
    3722,
    3716,
    3735,
    3719,
    3715,
    3706,
    3749,
    3699,
    3690,
    3701,
    3723,
    3717,
    3726,
    3737,
    3701,
    3715,
    3709,
    3717,
    3698,
    3741,
    3794,
    3747,
    3770,
    3718,
    3735,
    3734,
    3699,
    3716,
    3719,
    3741,
    3733,
    3753,
    3725,
    3708,
    3745,
    3732,
    3737,
    3763,
    3741,
    3734,
    3726,
    3728,
    3720,
    3711,
    3704,
    3723,
    3718,
    3747,
    3714,
    3725,
    3721,
    3700,
    3722,
    3718,
    3715,
    3693,
    3690,
    3690,
    3715,
    3695,
    3705,
    3735,
    3725,
    3708,
    3758,
    3724,
    3719,
    3718,
    3749,
    3730,
    3729,
    3742,
    3715,
    3733,
    3755,
    3748,
    3829,
    3794,
    3848,
    3760,
    3719,
    3732,
    3746,
    3724,
    3706,
    3699,
    3688,
    3676,
    3706,
    3688,
    3714,
    3702,
    3722,
    3672,
    3719,
    3721,
    3730,
    3702,
    3729,
    3715,
    3703,
    3729,
    3754,
    3722,
    3710,
    3724,
    3701,
    3726,
    3734,
    3724,
    3725,
    3730,
    3717,
    3702,
    3726,
    3708,
    3721,
    3716,
    3694,
    3715,
    3721,
    3705,
    3723,
    3694,
    3706,
    3734,
    3706,
    3731,
    3745,
    3744,
    3709,
    3706,
    3721,
    3686,
    3730,
    3696,
    3713,
    3705,
    3719,
    3707,
    3681,
    3725,
    3700,
    3722,
    3685,
    3711,
    3692,
    3720,
    3687,
    3686,
    3710,
    3713,
    3708,
    3670,
    3698,
    3683,
    3691,
    3735,
    3775,
    3727,
    3702,
    3707,
    3691,
    3707,
    3698,
    3708,
    3698,
    3707,
    3700,
    3658,
    3685,
    3674,
    3702,
    3696,
    3694,
    3669,
    3664,
    3689,
    3689,
    3690,
    3694,
    3685,
    3712,
    3758,
    3781,
    3745,
    3717,
    3691,
    3672,
    3658,
    3669,
    3664,
    3670,
    3716,
    3679,
    3648,
    3695,
    3676,
    3702,
    3686,
    3679,
    3691,
    3698,
    3679,
    3696,
    3694,
    3717,
    3697,
    3705,
    3730,
    3724,
    3711,
    3740,
    3741,
    3724,
    3721,
    3751,
    3703,
    3742,
    3742,
    3727,
    3735,
    3699,
    3696,
    3703,
    3700,
    3725,
    3748,
    3727
   ],
   "WindowCenter": [
    879.0,
    878.0,
    879.0,
    879.0,
    880.0,
    878.0,
    876.0,
    877.0,
    878.0,
    878.0,
    879.0,
    878.0,
    879.0,
    878.0,
    879.0,
    879.0,
    880.0,
    879.0,
    877.0,
    873.0,
    875.0,
    876.0,
    877.0,
    878.0,
    878.0,
    877.0,
    878.0,
    879.0,
    879.0,
    877.0,
    877.0,
    878.0,
    877.0,
    878.0,
    876.0,
    877.0,
    877.0,
    876.0,
    876.0,
    876.0,
    877.0,
    878.0,
    879.0,
    877.0,
    877.0,
    877.0,
    879.0,
    879.0,
    878.0,
    879.0,
    880.0,
    879.0,
    878.0,
    875.0,
    875.0,
    876.0,
    877.0,
    876.0,
    876.0,
    876.0,
    876.0,
    878.0,
    878.0,
    878.0,
    877.0,
    879.0,
    880.0,
    878.0,
    876.0,
    876.0,
    877.0,
    877.0,
    876.0,
    876.0,
    876.0,
    875.0,
    876.0,
    878.0,
    878.0,
    877.0,
    876.0,
    876.0,
    876.0,
    877.0,
    878.0,
    878.0,
    878.0,
    877.0,
    877.0,
    877.0,
    879.0,
    879.0,
    877.0,
    877.0,
    878.0,
    878.0,
    877.0,
    877.0,
    878.0,
    878.0,
    877.0,
    877.0,
    879.0,
    880.0,
    879.0,
    879.0,
    877.0,
    876.0,
    877.0,
    877.0,
    877.0,
    877.0,
    878.0,
    877.0,
    876.0,
    874.0,
    874.0,
    877.0,
    876.0,
    875.0,
    875.0,
    876.0,
    876.0,
    876.0,
    875.0,
    876.0,
