{
 "AcquisitionMatrixPE": 100,
 "AcquisitionNumber": 1,
 "AcquisitionTime": "16:06:14.625000",
 "BandwidthPerPixelPhaseEncode": 18.519,
 "BaseResolution": 100,
 "BodyPartExamined": "BRAIN",
 "ConsistencyInfo": "N4_VE11C_LATEST_20160120",
 "ConversionSoftware": "dcm2niix",
 "ConversionSoftwareVersion": "v1.0.20180622 GCC4.9.2",
 "DerivedVendorReportedEchoSpacing": 0.000539986,
 "DeviceSerialNumber": "166078",
 "DwellTime": 2.1e-06,
 "EchoTime": 0.034,
 "EchoTrainLength": 100,
 "EffectiveEchoSpacing": 0.000539986,
 "FlipAngle": 90,
 "ImageOrientationPatientDICOM": [
  1,
  0,
  0,
  0,
  0.989776,
  -0.142629
 ],
 "ImageType": [
  "ORIGINAL",
  "PRIMARY",
  "M",
  "ND",
  "MOSAIC"
 ],
 "InPlanePhaseEncodingDirectionDICOM": "COL",
 "InstitutionAddress": "Street_StreetNo_Bei_Jing_District_CN_ZIP",
 "InstitutionName": "BeiJing_Normal_University",
 "InstitutionalDepartmentName": "Department",
 "MRAcquisitionType": "2D",
 "MagneticFieldStrength": 3,
 "Manufacturer": "Siemens",
 "ManufacturersModelName": "Prisma",
 "Modality": "MR",
 "MultibandAccelerationFactor": 3,
 "PartialFourier": 1,
 "PatientPosition": "HFS",
 "PercentPhaseFOV": 100,
 "PhaseEncodingDirection": "j-",
 "PhaseEncodingSteps": 100,
 "PhaseResolution": 1,
 "PixelBandwidth": 2380,
 "ProcedureStepDescription": "BNU_P2018_64CH_Zhen.ZongLei",
 "ProtocolName": "bold_100x100_s3_2x2x2_static_256",
 "PulseSequenceDetails": "%SiemensSeq%_ep2d_bold",
 "ReceiveCoilActiveElements": "HC1-7;NC1",
 "ReceiveCoilName": "HeadNeck_64",
 "ReconMatrixPE": 100,
 "RepetitionTime": 2,
 "SAR": 0.0822406,
 "ScanOptions": "FS",
 "ScanningSequence": "EP",
 "SequenceName": "_epfid2d1_100",
 "SequenceVariant": "SK",
 "SeriesDescription": "bold_100x100_s3_2x2x2_static_256",
 "SeriesNumber": 14,
 "ShimSetting": [
  -5473,
  -11478,
  -1247,
  182,
  26,
  -206,
  -220,
  82
 ],
 "SliceThickness": 2,
 "SliceTiming": [
  1.4825,
  0,
  0.99,
  0.0825,
  1.0725,
  0.165,
  1.155,
  0.2475,
  1.2375,
  0.33,
  1.32,
  0.4125,
  1.4,
  0.5775,
  1.565,
  0.66,
  1.6475,
  0.7425,
  1.73,
  0.825,
  1.8125,
  0.9075,
  1.895,
  0.495,
  1.4825,
  0,
  0.99,
  0.0825,
  1.0725,
  0.165,
  1.155,
  0.2475,
  1.2375,
  0.33,
  1.32,
  0.4125,
  1.4,
  0.5775,
  1.565,
  0.66,
  1.6475,
  0.7425,
  1.73,
  0.825,
  1.8125,
  0.9075,
  1.895,
  0.495,
  1.4825,
  0,
  0.99,
  0.0825,
  1.0725,
  0.165,
  1.155,
  0.2475,
  1.2375,
  0.33,
  1.32,
  0.4125,
  1.4,
  0.5775,
  1.565,
  0.66,
  1.6475,
  0.7425,
  1.73,
  0.825,
  1.8125,
  0.9075,
  1.895,
  0.495
 ],
 "SoftwareVersions": "syngo_MR_E11",
 "SpacingBetweenSlices": 2,
 "StationName": "AWP166078",
 "TaskName": "imagenet",
 "TotalReadoutTime": 0.0534586,
 "TxRefAmp": 249.511,
 "dcmmeta_affine": [
  [
   -2.0,
   0.0,
   0.0,
   100.0
  ],
  [
   0.0,
   1.9795525074005127,
   -0.28525787591934204,
   -82.65454864501953
  ],
  [
   0.0,
   0.28525787591934204,
   1.9795525074005127,
   -87.33609008789062
  ],
  [
   0.0,
   0.0,
   0.0,
   1.0
  ]
 ],
 "dcmmeta_reorient_transform": [
  [
   0.0,
   -1.0,
   0.0,
   99.0
  ],
  [
   1.0,
   0.0,
   0.0,
   0.0
  ],
  [
   0.0,
   0.0,
   1.0,
   0.0
  ],
  [
   0.0,
   0.0,
   0.0,
   1.0
  ]
 ],
 "dcmmeta_shape": [
  100,
  100,
  72,
  256
 ],
 "dcmmeta_slice_dim": 2,
 "dcmmeta_version": 0.6,
 "global": {
  "const": {
   "AcquisitionMatrix": [
    100,
    0,
    0,
    100
   ],
   "AngioFlag": "N",
   "BitsAllocated": 16,
   "BitsStored": 12,
   "BodyPartExamined": "BRAIN",
   "Columns": 900,
   "EchoNumbers": 1,
   "EchoTime": 34.0,
   "EchoTrainLength": 100,
   "FlipAngle": 90.0,
   "HighBit": 11,
   "ImageOrientationPatient": [
    1.0,
    0.0,
    0.0,
    0.0,
    0.98977622990198,
    -0.1426289406854
   ],
   "ImagePositionPatient": [
    -900.0,
    -905.14212898362,
    55.007594773571
   ],
   "ImageType": [
    "ORIGINAL",
    "PRIMARY",
    "M",
    "ND",
    "MOSAIC"
   ],
   "ImagedNucleus": "1H",
   "ImagingFrequency": 123.257783,
   "InPlanePhaseEncodingDirection": "COL",
   "MRAcquisitionType": "2D",
   "MagneticFieldStrength": 3.0,
   "Manufacturer": "SIEMENS",
   "ManufacturerModelName": "Prisma",
   "Modality": "MR",
   "NumberOfAverages": 1.0,
   "NumberOfPhaseEncodingSteps": 100,
   "PercentPhaseFieldOfView": 100.0,
   "PercentSampling": 100.0,
   "PerformedProcedureStepStartTime": "143323.646000",
   "PhotometricInterpretation": "MONOCHROME2",
   "PixelBandwidth": 2380.0,
   "PixelRepresentation": 0,
   "PixelSpacing": [
    2.0,
    2.0
   ],
   "ProtocolName": "bold_100x100_s3_2x2x2_static_256",
   "RepetitionTime": 2000.0,
   "Rows": 900,
   "SAR": 0.08224063074196,
   "SamplesPerPixel": 1,
   "ScanOptions": "FS",
   "ScanningSequence": "EP",
   "SequenceName": "*epfid2d1_100",
   "SequenceVariant": "SK",
   "SeriesDescription": "bold_100x100_s3_2x2x2_static_256",
   "SeriesNumber": 14,
   "SeriesTime": "160617.765000",
   "SliceLocation": -74.654253255673,
   "SliceThickness": 2.0,
   "SmallestImagePixelValue": 0,
   "SoftwareVersions": "syngo MR E11",
   "SpacingBetweenSlices": 2.0000000089338,
   "SpecificCharacterSet": "ISO_IR 100",
   "StudyID": "1",
   "StudyTime": "143323.539000",
   "TransmitCoilName": "Body",
   "VariableFlipAngleFlag": "N",
   "WindowCenterWidthExplanation": "Algo1",
   "dBdt": 0.0
  },
  "slices": {}
 },
 "time": {
  "samples": {
   "AcquisitionNumber": [
    1,
    2,
    3,
    4,
    5,
    6,
    7,
    8,
    9,
    10,
    11,
    12,
    13,
    14,
    15,
    16,
    17,
    18,
    19,
    20,
    21,
    22,
    23,
    24,
    25,
    26,
    27,
    28,
    29,
    30,
    31,
    32,
    33,
    34,
    35,
    36,
    37,
    38,
    39,
    40,
    41,
    42,
    43,
    44,
    45,
    46,
    47,
    48,
    49,
    50,
    51,
    52,
    53,
    54,
    55,
    56,
    57,
    58,
    59,
    60,
    61,
    62,
    63,
    64,
    65,
    66,
    67,
    68,
    69,
    70,
    71,
    72,
    73,
    74,
    75,
    76,
    77,
    78,
    79,
    80,
    81,
    82,
    83,
    84,
    85,
    86,
    87,
    88,
    89,
    90,
    91,
    92,
    93,
    94,
    95,
    96,
    97,
    98,
    99,
    100,
    101,
    102,
    103,
    104,
    105,
    106,
    107,
    108,
    109,
    110,
    111,
    112,
    113,
    114,
    115,
    116,
    117,
    118,
    119,
    120,
    121,
    122,
    123,
    124,
    125,
    126,
    127,
    128,
    129,
    130,
    131,
    132,
    133,
    134,
    135,
    136,
    137,
    138,
    139,
    140,
    141,
    142,
    143,
    144,
    145,
    146,
    147,
    148,
    149,
    150,
    151,
    152,
    153,
    154,
    155,
    156,
    157,
    158,
    159,
    160,
    161,
    162,
    163,
    164,
    165,
    166,
    167,
    168,
    169,
    170,
    171,
    172,
    173,
    174,
    175,
    176,
    177,
    178,
    179,
    180,
    181,
    182,
    183,
    184,
    185,
    186,
    187,
    188,
    189,
    190,
    191,
    192,
    193,
    194,
    195,
    196,
    197,
    198,
    199,
    200,
    201,
    202,
    203,
    204,
    205,
    206,
    207,
    208,
    209,
    210,
    211,
    212,
    213,
    214,
    215,
    216,
    217,
    218,
    219,
    220,
    221,
    222,
    223,
    224,
    225,
    226,
    227,
    228,
    229,
    230,
    231,
    232,
    233,
    234,
    235,
    236,
    237,
    238,
    239,
    240,
    241,
    242,
    243,
    244,
    245,
    246,
    247,
    248,
    249,
    250,
    251,
    252,
    253,
    254,
    255,
    256
   ],
   "AcquisitionTime": [
    "160614.625000",
    "160616.625000",
    "160618.625000",
    "160620.625000",
    "160622.625000",
    "160624.625000",
    "160626.625000",
    "160628.625000",
    "160630.625000",
    "160632.625000",
    "160634.625000",
    "160636.625000",
    "160638.625000",
    "160640.625000",
    "160642.625000",
    "160644.625000",
    "160646.625000",
    "160648.625000",
    "160650.625000",
    "160652.625000",
    "160654.625000",
    "160656.625000",
    "160658.625000",
    "160700.625000",
    "160702.625000",
    "160704.625000",
    "160706.625000",
    "160708.625000",
    "160710.625000",
    "160712.625000",
    "160714.625000",
    "160716.625000",
    "160718.625000",
    "160720.625000",
    "160722.625000",
    "160724.625000",
    "160726.625000",
    "160728.625000",
    "160730.625000",
    "160732.625000",
    "160734.625000",
    "160736.625000",
    "160738.625000",
    "160740.625000",
    "160742.625000",
    "160744.625000",
    "160746.625000",
    "160748.625000",
    "160750.625000",
    "160752.625000",
    "160754.625000",
    "160756.625000",
    "160758.625000",
    "160800.625000",
    "160802.625000",
    "160804.625000",
    "160806.625000",
    "160808.625000",
    "160810.625000",
    "160812.625000",
    "160814.625000",
    "160816.625000",
    "160818.625000",
    "160820.625000",
    "160822.625000",
    "160824.625000",
    "160826.625000",
    "160828.625000",
    "160830.625000",
    "160832.625000",
    "160834.625000",
    "160836.625000",
    "160838.625000",
    "160840.625000",
    "160842.625000",
    "160844.625000",
    "160846.625000",
    "160848.625000",
    "160850.625000",
    "160852.625000",
    "160854.625000",
    "160856.625000",
    "160858.625000",
    "160900.625000",
    "160902.625000",
    "160904.625000",
    "160906.625000",
    "160908.625000",
    "160910.625000",
    "160912.625000",
    "160914.625000",
    "160916.625000",
    "160918.625000",
    "160920.625000",
    "160922.625000",
    "160924.625000",
    "160926.625000",
    "160928.625000",
    "160930.625000",
    "160932.625000",
    "160934.625000",
    "160936.625000",
    "160938.625000",
    "160940.625000",
    "160942.625000",
    "160944.625000",
    "160946.625000",
    "160948.625000",
    "160950.625000",
    "160952.625000",
    "160954.625000",
    "160956.625000",
    "160958.625000",
    "161000.625000",
    "161002.625000",
    "161004.625000",
    "161006.625000",
    "161008.625000",
    "161010.625000",
    "161012.625000",
    "161014.625000",
    "161016.625000",
    "161018.625000",
    "161020.625000",
    "161022.625000",
    "161024.625000",
    "161026.625000",
    "161028.625000",
    "161030.625000",
    "161032.625000",
    "161034.625000",
    "161036.625000",
    "161038.625000",
    "161040.625000",
    "161042.625000",
    "161044.625000",
    "161046.625000",
    "161048.625000",
    "161050.625000",
    "161052.625000",
    "161054.625000",
    "161056.625000",
    "161058.625000",
    "161100.625000",
    "161102.625000",
    "161104.625000",
    "161106.625000",
    "161108.625000",
    "161110.625000",
    "161112.625000",
    "161114.625000",
    "161116.625000",
    "161118.625000",
    "161120.625000",
    "161122.625000",
    "161124.625000",
    "161126.625000",
    "161128.625000",
    "161130.625000",
    "161132.625000",
    "161134.625000",
    "161136.625000",
    "161138.625000",
    "161140.625000",
    "161142.625000",
    "161144.625000",
    "161146.625000",
    "161148.625000",
    "161150.625000",
    "161152.625000",
    "161154.625000",
    "161156.625000",
    "161158.625000",
    "161200.625000",
    "161202.625000",
    "161204.625000",
    "161206.625000",
    "161208.625000",
    "161210.625000",
    "161212.625000",
    "161214.625000",
    "161216.625000",
    "161218.625000",
    "161220.625000",
    "161222.625000",
    "161224.625000",
    "161226.625000",
    "161228.625000",
    "161230.625000",
    "161232.625000",
    "161234.625000",
    "161236.625000",
    "161238.625000",
    "161240.625000",
    "161242.625000",
    "161244.625000",
    "161246.625000",
    "161248.625000",
    "161250.625000",
    "161252.625000",
    "161254.625000",
    "161256.625000",
    "161258.625000",
    "161300.625000",
    "161302.625000",
    "161304.625000",
    "161306.625000",
    "161308.625000",
    "161310.625000",
    "161312.625000",
    "161314.625000",
    "161316.625000",
    "161318.625000",
    "161320.625000",
    "161322.625000",
    "161324.625000",
    "161326.625000",
    "161328.625000",
    "161330.625000",
    "161332.625000",
    "161334.625000",
    "161336.625000",
    "161338.625000",
    "161340.625000",
    "161342.625000",
    "161344.625000",
    "161346.625000",
    "161348.625000",
    "161350.625000",
    "161352.625000",
    "161354.625000",
    "161356.625000",
    "161358.625000",
    "161400.625000",
    "161402.625000",
    "161404.625000",
    "161406.625000",
    "161408.625000",
    "161410.625000",
    "161412.625000",
    "161414.625000",
    "161416.625000",
    "161418.625000",
    "161420.625000",
    "161422.625000",
    "161424.625000",
    "161426.625000",
    "161428.625000",
    "161430.625000",
    "161432.625000",
    "161434.625000",
    "161436.625000",
    "161438.625000",
    "161440.625000",
    "161442.625000",
    "161444.625000"
   ],
   "ContentTime": [
    "160617.768000",
    "160619.263000",
    "160621.263000",
    "160623.263000",
    "160625.265000",
    "160627.265000",
    "160629.265000",
    "160631.265000",
    "160633.263000",
    "160635.263000",
    "160637.263000",
    "160639.263000",
    "160641.264000",
    "160643.264000",
    "160645.265000",
    "160647.265000",
    "160649.265000",
    "160651.263000",
    "160653.264000",
    "160655.264000",
    "160657.263000",
    "160659.265000",
    "160701.264000",
    "160703.264000",
    "160705.264000",
    "160707.263000",
    "160709.264000",
    "160711.264000",
    "160713.264000",
    "160715.264000",
    "160717.265000",
    "160719.265000",
    "160721.265000",
    "160723.264000",
    "160725.264000",
    "160727.263000",
    "160729.263000",
    "160731.263000",
    "160733.263000",
    "160735.264000",
    "160737.264000",
    "160739.265000",
    "160741.265000",
    "160743.264000",
    "160745.263000",
    "160747.263000",
    "160749.264000",
    "160751.263000",
    "160753.264000",
    "160755.264000",
    "160757.264000",
    "160759.264000",
    "160801.263000",
    "160803.264000",
    "160805.264000",
    "160807.263000",
    "160809.264000",
    "160811.264000",
    "160813.265000",
    "160815.264000",
    "160817.263000",
    "160819.263000",
    "160821.263000",
    "160823.263000",
    "160825.263000",
    "160827.264000",
    "160829.264000",
    "160831.265000",
    "160833.265000",
    "160835.263000",
    "160837.264000",
    "160839.264000",
    "160841.264000",
    "160843.264000",
    "160845.265000",
    "160847.264000",
    "160849.264000",
    "160851.264000",
    "160853.263000",
    "160855.263000",
    "160857.264000",
    "160859.263000",
    "160901.263000",
    "160903.264000",
    "160905.264000",
    "160907.264000",
    "160909.264000",
    "160911.263000",
    "160913.264000",
    "160915.264000",
    "160917.264000",
    "160919.265000",
    "160921.265000",
    "160923.264000",
    "160925.265000",
    "160927.263000",
    "160929.263000",
    "160931.264000",
    "160933.263000",
    "160935.264000",
    "160937.265000",
    "160939.264000",
    "160941.265000",
    "160943.264000",
    "160945.264000",
    "160947.263000",
    "160949.263000",
    "160951.264000",
    "160953.263000",
    "160955.265000",
    "160957.265000",
    "160959.264000",
    "161001.265000",
    "161003.263000",
    "161005.264000",
    "161007.263000",
    "161009.263000",
    "161011.263000",
    "161013.265000",
    "161015.265000",
    "161017.265000",
    "161019.264000",
    "161021.263000",
    "161023.263000",
    "161025.263000",
    "161027.263000",
    "161029.264000",
    "161031.265000",
    "161033.266000",
    "161035.265000",
    "161037.263000",
    "161039.263000",
    "161041.264000",
    "161043.264000",
    "161045.264000",
    "161047.264000",
    "161049.264000",
    "161051.264000",
    "161053.265000",
    "161055.264000",
    "161057.263000",
    "161059.264000",
    "161101.263000",
    "161103.264000",
    "161105.264000",
    "161107.264000",
    "161109.265000",
    "161111.265000",
    "161113.263000",
    "161115.264000",
    "161117.263000",
    "161119.264000",
    "161121.264000",
    "161123.265000",
    "161125.264000",
    "161127.264000",
    "161129.265000",
    "161131.264000",
    "161133.263000",
    "161135.263000",
    "161137.264000",
    "161139.264000",
    "161141.265000",
    "161143.264000",
    "161145.265000",
    "161147.263000",
    "161149.263000",
    "161151.263000",
    "161153.263000",
    "161155.263000",
    "161157.265000",
    "161159.265000",
    "161201.264000",
    "161203.264000",
    "161205.263000",
    "161207.264000",
    "161209.279000",
    "161211.263000",
    "161213.264000",
    "161215.264000",
    "161217.264000",
    "161219.265000",
    "161221.264000",
    "161223.264000",
    "161225.264000",
    "161227.264000",
    "161229.263000",
    "161231.265000",
    "161233.264000",
    "161235.265000",
    "161237.264000",
    "161239.265000",
    "161241.264000",
    "161243.264000",
    "161245.263000",
    "161247.263000",
    "161249.265000",
    "161251.265000",
    "161253.265000",
    "161255.264000",
    "161257.263000",
    "161259.264000",
    "161301.263000",
    "161303.263000",
    "161305.263000",
    "161307.264000",
    "161309.265000",
    "161311.264000",
    "161313.265000",
    "161315.263000",
    "161317.264000",
    "161319.264000",
    "161321.263000",
    "161323.264000",
    "161325.264000",
    "161327.264000",
    "161329.264000",
    "161331.265000",
    "161333.263000",
    "161335.263000",
    "161337.263000",
    "161339.264000",
    "161341.264000",
    "161343.265000",
    "161345.264000",
    "161347.264000",
    "161349.264000",
    "161351.264000",
    "161353.263000",
    "161355.264000",
    "161357.263000",
    "161359.265000",
    "161401.265000",
    "161403.264000",
    "161405.265000",
    "161407.263000",
    "161409.264000",
    "161411.264000",
    "161413.263000",
    "161415.264000",
    "161417.264000",
    "161419.265000",
    "161421.265000",
    "161423.264000",
    "161425.264000",
    "161427.263000",
    "161429.263000",
    "161431.264000",
    "161433.263000",
    "161435.264000",
    "161437.265000",
    "161439.265000",
    "161441.265000",
    "161443.264000",
    "161445.264000",
    "161446.817000"
   ],
   "InstanceCreationTime": [
    "160617.768000",
    "160619.263000",
    "160621.263000",
    "160623.263000",
    "160625.265000",
    "160627.265000",
    "160629.265000",
    "160631.265000",
    "160633.263000",
    "160635.263000",
    "160637.263000",
    "160639.263000",
    "160641.264000",
    "160643.264000",
    "160645.265000",
    "160647.265000",
    "160649.265000",
    "160651.263000",
    "160653.264000",
    "160655.264000",
    "160657.263000",
    "160659.265000",
    "160701.264000",
    "160703.264000",
    "160705.264000",
    "160707.263000",
    "160709.264000",
    "160711.264000",
    "160713.264000",
    "160715.264000",
    "160717.265000",
    "160719.265000",
    "160721.265000",
    "160723.264000",
    "160725.264000",
    "160727.263000",
    "160729.263000",
    "160731.263000",
    "160733.263000",
    "160735.264000",
    "160737.264000",
    "160739.265000",
    "160741.265000",
    "160743.264000",
    "160745.263000",
    "160747.263000",
    "160749.264000",
    "160751.263000",
    "160753.264000",
    "160755.264000",
    "160757.264000",
    "160759.264000",
    "160801.263000",
    "160803.264000",
    "160805.264000",
    "160807.263000",
    "160809.264000",
    "160811.264000",
    "160813.265000",
    "160815.264000",
    "160817.263000",
    "160819.263000",
    "160821.263000",
    "160823.263000",
    "160825.263000",
    "160827.264000",
    "160829.264000",
    "160831.265000",
    "160833.265000",
    "160835.263000",
    "160837.264000",
    "160839.264000",
    "160841.264000",
    "160843.264000",
    "160845.265000",
    "160847.264000",
    "160849.264000",
    "160851.264000",
    "160853.263000",
    "160855.263000",
    "160857.264000",
    "160859.263000",
    "160901.263000",
    "160903.264000",
    "160905.264000",
    "160907.264000",
    "160909.264000",
    "160911.263000",
    "160913.264000",
    "160915.264000",
    "160917.264000",
    "160919.265000",
    "160921.265000",
    "160923.264000",
    "160925.265000",
    "160927.263000",
    "160929.263000",
    "160931.264000",
    "160933.263000",
    "160935.264000",
    "160937.265000",
    "160939.264000",
    "160941.265000",
    "160943.264000",
    "160945.264000",
    "160947.263000",
    "160949.263000",
    "160951.264000",
    "160953.263000",
    "160955.265000",
    "160957.265000",
    "160959.264000",
    "161001.265000",
    "161003.263000",
    "161005.264000",
    "161007.263000",
    "161009.263000",
    "161011.263000",
    "161013.265000",
    "161015.265000",
    "161017.265000",
    "161019.264000",
    "161021.263000",
    "161023.263000",
    "161025.263000",
    "161027.263000",
    "161029.264000",
    "161031.265000",
    "161033.266000",
    "161035.265000",
    "161037.263000",
    "161039.263000",
    "161041.264000",
    "161043.264000",
    "161045.264000",
    "161047.264000",
    "161049.264000",
    "161051.264000",
    "161053.265000",
    "161055.264000",
    "161057.263000",
    "161059.264000",
    "161101.263000",
    "161103.264000",
    "161105.264000",
    "161107.264000",
    "161109.265000",
    "161111.265000",
    "161113.263000",
    "161115.264000",
    "161117.263000",
    "161119.264000",
    "161121.264000",
    "161123.265000",
    "161125.264000",
    "161127.264000",
    "161129.265000",
    "161131.264000",
    "161133.263000",
    "161135.263000",
    "161137.264000",
    "161139.264000",
    "161141.265000",
    "161143.264000",
    "161145.265000",
    "161147.263000",
    "161149.263000",
    "161151.263000",
    "161153.263000",
    "161155.263000",
    "161157.265000",
    "161159.265000",
    "161201.264000",
    "161203.264000",
    "161205.263000",
    "161207.264000",
    "161209.279000",
    "161211.263000",
    "161213.264000",
    "161215.264000",
    "161217.264000",
    "161219.265000",
    "161221.264000",
    "161223.264000",
    "161225.264000",
    "161227.264000",
    "161229.263000",
    "161231.265000",
    "161233.264000",
    "161235.265000",
    "161237.264000",
    "161239.265000",
    "161241.264000",
    "161243.264000",
    "161245.263000",
    "161247.263000",
    "161249.265000",
    "161251.265000",
    "161253.265000",
    "161255.264000",
    "161257.263000",
    "161259.264000",
    "161301.263000",
    "161303.263000",
    "161305.263000",
    "161307.264000",
    "161309.265000",
    "161311.264000",
    "161313.265000",
    "161315.263000",
    "161317.264000",
    "161319.264000",
    "161321.263000",
    "161323.264000",
    "161325.264000",
    "161327.264000",
    "161329.264000",
    "161331.265000",
    "161333.263000",
    "161335.263000",
    "161337.263000",
    "161339.264000",
    "161341.264000",
    "161343.265000",
    "161345.264000",
    "161347.264000",
    "161349.264000",
    "161351.264000",
    "161353.263000",
    "161355.264000",
    "161357.263000",
    "161359.265000",
    "161401.265000",
    "161403.264000",
    "161405.265000",
    "161407.263000",
    "161409.264000",
    "161411.264000",
    "161413.263000",
    "161415.264000",
    "161417.264000",
    "161419.265000",
    "161421.265000",
    "161423.264000",
    "161425.264000",
    "161427.263000",
    "161429.263000",
    "161431.264000",
    "161433.263000",
    "161435.264000",
    "161437.265000",
    "161439.265000",
    "161441.265000",
    "161443.264000",
    "161445.264000",
    "161446.817000"
   ],
   "InstanceNumber": [
    1,
    2,
    3,
    4,
    5,
    6,
    7,
    8,
    9,
    10,
    11,
    12,
    13,
    14,
    15,
    16,
    17,
    18,
    19,
    20,
    21,
    22,
    23,
    24,
    25,
    26,
    27,
    28,
    29,
    30,
    31,
    32,
    33,
    34,
    35,
    36,
    37,
    38,
    39,
    40,
    41,
    42,
    43,
    44,
    45,
    46,
    47,
    48,
    49,
    50,
    51,
    52,
    53,
    54,
    55,
    56,
    57,
    58,
    59,
    60,
    61,
    62,
    63,
    64,
    65,
    66,
    67,
    68,
    69,
    70,
    71,
    72,
    73,
    74,
    75,
    76,
    77,
    78,
    79,
    80,
    81,
    82,
    83,
    84,
    85,
    86,
    87,
    88,
    89,
    90,
    91,
    92,
    93,
    94,
    95,
    96,
    97,
    98,
    99,
    100,
    101,
    102,
    103,
    104,
    105,
    106,
    107,
    108,
    109,
    110,
    111,
    112,
    113,
    114,
    115,
    116,
    117,
    118,
    119,
    120,
    121,
    122,
    123,
    124,
    125,
    126,
    127,
    128,
    129,
    130,
    131,
    132,
    133,
    134,
    135,
    136,
    137,
    138,
    139,
    140,
    141,
    142,
    143,
    144,
    145,
    146,
    147,
    148,
    149,
    150,
    151,
    152,
    153,
    154,
    155,
    156,
    157,
    158,
    159,
    160,
    161,
    162,
    163,
    164,
    165,
    166,
    167,
    168,
    169,
    170,
    171,
    172,
    173,
    174,
    175,
    176,
    177,
    178,
    179,
    180,
    181,
    182,
    183,
    184,
    185,
    186,
    187,
    188,
    189,
    190,
    191,
    192,
    193,
    194,
    195,
    196,
    197,
    198,
    199,
    200,
    201,
    202,
    203,
    204,
    205,
    206,
    207,
    208,
    209,
    210,
    211,
    212,
    213,
    214,
    215,
    216,
    217,
    218,
    219,
    220,
    221,
    222,
    223,
    224,
    225,
    226,
    227,
    228,
    229,
    230,
    231,
    232,
    233,
    234,
    235,
    236,
    237,
    238,
    239,
    240,
    241,
    242,
    243,
    244,
    245,
    246,
    247,
    248,
    249,
    250,
    251,
    252,
    253,
    254,
    255,
    256
   ],
   "LargestImagePixelValue": [
    3734,
    3642,
    3613,
    3619,
    3611,
    3637,
    3621,
    3601,
    3631,
    3614,
    3593,
    3591,
    3588,
    3613,
    3612,
    3613,
    3618,
    3597,
    3629,
    3578,
    3680,
    3591,
    3641,
    3591,
    3616,
    3598,
    3625,
    3590,
    3590,
    3586,
    3603,
    3624,
    3601,
    3612,
    3584,
    3584,
    3593,
    3576,
    3594,
    3605,
    3605,
    3598,
    3623,
    3605,
    3621,
    3619,
    3631,
    3641,
    3597,
    3639,
    3649,
    3596,
    3626,
    3596,
    3639,
    3656,
    3624,
    3670,
    3645,
    3638,
    3636,
    3653,
    3632,
    3635,
    3648,
    3631,
    3615,
    3633,
    3607,
    3612,
    3645,
    3609,
    3625,
    3606,
    3672,
    3629,
    3643,
    3654,
    3635,
    3638,
    3638,
    3614,
    3679,
    3665,
    3642,
    3663,
    3667,
    3665,
    3638,
    3664,
    3672,
    3688,
    3675,
    3689,
    3676,
    3655,
    3638,
    3697,
    3662,
    3619,
    3636,
    3671,
    3664,
    3656,
    3648,
    3671,
    3657,
    3669,
    3644,
    3658,
    3661,
    3647,
    3679,
    3662,
    3634,
    3644,
    3672,
    3635,
    3712,
    3676,
    3680,
    3684,
    3648,
    3666,
    3655,
    3667,
    3672,
    3675,
    3653,
    3650,
    3649,
    3632,
    3594,
    3644,
    3600,
    3614,
    3649,
    3624,
    3636,
    3698,
    3605,
    3650,
    3675,
    3624,
    3643,
    3623,
    3592,
    3616,
    3672,
    3619,
    3644,
    3652,
    3660,
    3678,
    3642,
    3651,
    3686,
    3686,
    3696,
    3693,
    3657,
    3653,
    3658,
    3664,
    3655,
    3667,
    3723,
    3914,
    3680,
    3688,
    3655,
    3662,
    3625,
    3660,
    3640,
    3720,
    3690,
    3682,
    3684,
    3723,
    3730,
    3687,
    3721,
    3695,
    3674,
    3663,
    3653,
    3695,
    3658,
    3655,
    3660,
    3696,
    3705,
    3742,
    3701,
    3698,
    3690,
    3681,
    3673,
    3651,
    3673,
    3680,
    3669,
    3680,
    3693,
    3690,
    3692,
    3646,
    3701,
    3720,
    3719,
    3646,
    3712,
    3716,
    3720,
    3707,
    3698,
    3678,
    3682,
    3700,
    3682,
    3721,
    3676,
    3693,
    3700,
    3662,
    3672,
    3685,
    3694,
    3683,
    3707,
    3651,
    3672,
    3708,
    3694,
    3686,
    3667,
    3673,
    3648,
    3635,
    3675,
    3664,
    3659,
    3678,
    3662,
    3650,
    3644,
    3665,
    3677,
    3648,
    3667,
    3628,
    3650,
    3666,
    3635,
    3640
   ],
   "WindowCenter": [
    884.0,
    880.0,
    879.0,
    879.0,
    879.0,
    878.0,
    878.0,
    876.0,
    877.0,
    879.0,
    880.0,
    880.0,
    879.0,
    877.0,
    878.0,
    879.0,
    880.0,
    879.0,
    879.0,
    878.0,
    878.0,
    877.0,
    876.0,
    878.0,
    879.0,
    879.0,
    878.0,
    878.0,
    879.0,
    878.0,
    877.0,
    878.0,
    877.0,
    878.0,
    878.0,
    877.0,
    878.0,
    879.0,
    879.0,
    878.0,
    877.0,
    878.0,
    878.0,
    877.0,
    877.0,
    875.0,
    876.0,
    878.0,
    877.0,
    877.0,
    877.0,
    877.0,
    879.0,
    880.0,
    880.0,
    878.0,
    876.0,
    874.0,
    873.0,
    875.0,
    876.0,
    877.0,
    878.0,
    878.0,
    877.0,
    877.0,
    876.0,
    876.0,
    877.0,
    876.0,
    877.0,
    878.0,
    879.0,
    878.0,
    877.0,
    876.0,
    875.0,
    876.0,
    877.0,
    879.0,
    879.0,
    878.0,
    878.0,
    879.0,
    879.0,
    877.0,
    877.0,
    878.0,
    878.0,
    879.0,
    879.0,
    878.0,
    877.0,
    877.0,
    878.0,
    878.0,
    877.0,
    876.0,
    877.0,
    877.0,
    878.0,
    877.0,
    877.0,
    878.0,
    879.0,
    879.0,
    877.0,
    877.0,
    877.0,
    876.0,
    876.0,
    876.0,
    876.0,
    876.0,
    876.0,
    877.0,
    877.0,
    878.0,
    877.0,
    877.0,
    877.0,
    877.0,
    877.0,
    877.0,
    878.0,
    877.0,
    878.0,
