{
  "AcquisitionMatrixPE": 100,
  "AcquisitionNumber": 1,
  "AcquisitionTime": "16:07:36.630000",
  "BandwidthPerPixelPhaseEncode": 18.519,
  "BaseResolution": 100,
  "BodyPartExamined": "BRAIN",
  "ConsistencyInfo": "N4_VE11C_LATEST_20160120",
  "ConversionSoftware": "dcm2niix",
  "ConversionSoftwareVersion": "v1.0.20180622 GCC4.9.2",
  "DerivedVendorReportedEchoSpacing": 0.000539986,
  "DeviceSerialNumber": "166078",
  "DwellTime": 2.1e-06,
  "EchoTime": 0.034,
  "EchoTrainLength": 100,
  "EffectiveEchoSpacing": 0.000539986,
  "FlipAngle": 90,
  "ImageOrientationPatientDICOM": [1, 0, 0, 0, 0.982613, -0.185667],
  "ImageType": [
    "ORIGINAL",
    "PRIMARY",
    "M",
    "ND",
    "MOSAIC"
],
  "InPlanePhaseEncodingDirectionDICOM": "COL",
  "InstitutionAddress": "Street_StreetNo_Bei_Jing_District_CN_ZIP",
  "InstitutionName": "BeiJing_Normal_University",
  "InstitutionalDepartmentName": "Department",
  "MRAcquisitionType": "2D",
  "MagneticFieldStrength": 3,
  "Manufacturer": "Siemens",
  "ManufacturersModelName": "Prisma",
  "Modality": "MR",
  "MultibandAccelerationFactor": 3,
  "PartialFourier": 1,
  "PatientPosition": "HFS",
  "PercentPhaseFOV": 100,
  "PhaseEncodingDirection": "j-",
  "PhaseEncodingSteps": 100,
  "PhaseResolution": 1,
  "PixelBandwidth": 2380,
  "ProcedureStepDescription": "BNU_P2018_64CH_Zhen.ZongLei",
  "ProtocolName": "bold_100x100_s3_2x2x2_static_256",
  "PulseSequenceDetails": "%SiemensSeq%_ep2d_bold",
  "ReceiveCoilActiveElements": "HC1-7;NC1",
  "ReceiveCoilName": "HeadNeck_64",
  "ReconMatrixPE": 100,
  "RepetitionTime": 2,
  "SAR": 0.0862686,
  "ScanOptions": "FS",
  "ScanningSequence": "EP",
  "SequenceName": "_epfid2d1_100",
  "SequenceVariant": "SK",
  "SeriesDescription": "bold_100x100_s3_2x2x2_static_256",
  "SeriesNumber": 13,
  "ShimSetting": [-5452, -11487, -1226, 373, 2, -131, -150, 66],
  "SliceThickness": 2,
  "SliceTiming": [1.485, 0, 0.99, 0.0825, 1.0725, 0.165, 1.155, 0.2475, 1.2375, 0.33, 1.32, 0.4125, 1.4025, 0.5775, 1.5675, 0.66, 1.65, 0.7425, 1.7325, 0.825, 1.815, 0.9075, 1.8975, 0.495, 1.485, 0, 0.99, 0.0825, 1.0725, 0.165, 1.155, 0.2475, 1.2375, 0.33, 1.32, 0.4125, 1.4025, 0.5775, 1.5675, 0.66, 1.65, 0.7425, 1.7325, 0.825, 1.815, 0.9075, 1.8975, 0.495, 1.485, 0, 0.99, 0.0825, 1.0725, 0.165, 1.155, 0.2475, 1.2375, 0.33, 1.32, 0.4125, 1.4025, 0.5775, 1.5675, 0.66, 1.65, 0.7425, 1.7325, 0.825, 1.815, 0.9075, 1.8975, 0.495],
  "SoftwareVersions": "syngo_MR_E11",
  "SpacingBetweenSlices": 2,
  "StationName": "AWP166078",
  "TaskName": "naturalvision",
  "TotalReadoutTime": 0.0534586,
  "TxRefAmp": 228.481,
  "dcmmeta_affine": [
    [-2.0, 0.0, 0.0, 100.0],
    [0.0, 1.9652255773544312, -0.37133321166038513, -84.06312561035156],
    [0.0, 0.37133321166038513, 1.9652255773544312, -68.39456939697266],
    [0.0, 0.0, 0.0, 1.0]
],
  "dcmmeta_reorient_transform": [
    [0.0, -1.0, 0.0, 99.0],
    [1.0, 0.0, 0.0, 0.0],
    [0.0, 0.0, 1.0, 0.0],
    [0.0, 0.0, 0.0, 1.0]
],
  "dcmmeta_shape": [100, 100, 72, 256],
  "dcmmeta_slice_dim": 2,
  "dcmmeta_version": 0.6,
  "global": {
    "const": {
      "AcquisitionMatrix": [100, 0, 0, 100],
      "AngioFlag": "N",
      "BitsAllocated": 16,
      "BitsStored": 12,
      "BodyPartExamined": "BRAIN",
      "Columns": 900,
      "EchoNumbers": 1,
      "EchoTime": 34.0,
      "EchoTrainLength": 100,
      "FlipAngle": 90.0,
      "HighBit": 11,
      "ImageOrientationPatient": [1.0, 0.0, 0.0, 0.0, 0.9826127972607, -0.1856666115905],
      "ImagePositionPatient": [-900.0, -896.58444962539, 116.90070879329],
      "ImageType": [
        "ORIGINAL",
        "PRIMARY",
        "M",
        "ND",
        "MOSAIC"
],
      "ImagedNucleus": "1H",
      "ImagingFrequency": 123.257756,
      "InPlanePhaseEncodingDirection": "COL",
      "LargestImagePixelValue": 4095,
      "MRAcquisitionType": "2D",
      "MagneticFieldStrength": 3.0,
      "Manufacturer": "SIEMENS",
      "ManufacturerModelName": "Prisma",
      "Modality": "MR",
      "NumberOfAverages": 1.0,
      "NumberOfPhaseEncodingSteps": 100,
      "PercentPhaseFieldOfView": 100.0,
      "PercentSampling": 100.0,
      "PerformedProcedureStepStartTime": "144208.776000",
      "PhotometricInterpretation": "MONOCHROME2",
      "PixelBandwidth": 2380.0,
      "PixelRepresentation": 0,
      "PixelSpacing": [2.0, 2.0],
      "ProtocolName": "bold_100x100_s3_2x2x2_static_256",
      "RepetitionTime": 2000.0,
      "Rows": 900,
      "SAR": 0.08626863862993,
      "SamplesPerPixel": 1,
      "ScanOptions": "FS",
      "ScanningSequence": "EP",
      "SequenceName": "*epfid2d1_100",
      "SequenceVariant": "SK",
      "SeriesDescription": "bold_100x100_s3_2x2x2_static_256",
      "SeriesNumber": 13,
      "SeriesTime": "160739.493000",
      "SliceLocation": -51.59766429757,
      "SliceThickness": 2.0,
      "SmallestImagePixelValue": 0,
      "SoftwareVersions": "syngo MR E11",
      "SpacingBetweenSlices": 1.9999999496976,
      "SpecificCharacterSet": "ISO_IR 100",
      "StudyID": "1",
      "StudyTime": "144208.691000",
      "TransmitCoilName": "Body",
      "VariableFlipAngleFlag": "N",
      "WindowCenterWidthExplanation": "Algo1",
      "dBdt": 0.0},
    "slices": {}
  },
  "time": {
    "samples": {
      "AcquisitionNumber": [1, 2, 3, 4, 5, 6, 7, 8, 9, 10, 11, 12, 13, 14, 15, 16, 17, 18, 19, 20, 21, 22, 23, 24, 25, 26, 27, 28, 29, 30, 31, 32, 33, 34, 35, 36, 37, 38, 39, 40, 41, 42, 43, 44, 45, 46, 47, 48, 49, 50, 51, 52, 53, 54, 55, 56, 57, 58, 59, 60, 61, 62, 63, 64, 65, 66, 67, 68, 69, 70, 71, 72, 73, 74, 75, 76, 77, 78, 79, 80, 81, 82, 83, 84, 85, 86, 87, 88, 89, 90, 91, 92, 93, 94, 95, 96, 97, 98, 99, 100, 101, 102, 103, 104, 105, 106, 107, 108, 109, 110, 111, 112, 113, 114, 115, 116, 117, 118, 119, 120, 121, 122, 123, 124, 125, 126, 127, 128, 129, 130, 131, 132, 133, 134, 135, 136, 137, 138, 139, 140, 141, 142, 143, 144, 145, 146, 147, 148, 149, 150, 151, 152, 153, 154, 155, 156, 157, 158, 159, 160, 161, 162, 163, 164, 165, 166, 167, 168, 169, 170, 171, 172, 173, 174, 175, 176, 177, 178, 179, 180, 181, 182, 183, 184, 185, 186, 187, 188, 189, 190, 191, 192, 193, 194, 195, 196, 197, 198, 199, 200, 201, 202, 203, 204, 205, 206, 207, 208, 209, 210, 211, 212, 213, 214, 215, 216, 217, 218, 219, 220, 221, 222, 223, 224, 225, 226, 227, 228, 229, 230, 231, 232, 233, 234, 235, 236, 237, 238, 239, 240, 241, 242, 243, 244, 245, 246, 247, 248, 249, 250, 251, 252, 253, 254, 255, 256],
      "AcquisitionTime": ["160736.630000", "160738.630000", "160740.630000", "160742.630000", "160744.630000", "160746.630000", "160748.630000", "160750.630000", "160752.630000", "160754.630000", "160756.630000", "160758.630000", "160800.630000", "160802.630000", "160804.630000", "160806.630000", "160808.630000", "160810.630000", "160812.630000", "160814.630000", "160816.630000", "160818.630000", "160820.630000", "160822.630000", "160824.630000", "160826.630000", "160828.630000", "160830.630000", "160832.630000", "160834.630000", "160836.630000", "160838.630000", "160840.630000", "160842.630000", "160844.630000", "160846.630000", "160848.630000", "160850.630000", "160852.630000", "160854.630000", "160856.630000", "160858.630000", "160900.630000", "160902.630000", "160904.630000", "160906.630000", "160908.630000", "160910.630000", "160912.630000", "160914.630000", "160916.630000", "160918.630000", "160920.630000", "160922.630000", "160924.630000", "160926.630000", "160928.630000", "160930.630000", "160932.630000", "160934.630000", "160936.630000", "160938.630000", "160940.630000", "160942.630000", "160944.630000", "160946.630000", "160948.630000", "160950.630000", "160952.630000", "160954.630000", "160956.630000", "160958.630000", "161000.630000", "161002.630000", "161004.630000", "161006.630000", "161008.630000", "161010.630000", "161012.630000", "161014.630000", "161016.630000", "161018.630000", "161020.630000", "161022.630000", "161024.630000", "161026.630000", "161028.630000", "161030.630000", "161032.630000", "161034.630000", "161036.630000", "161038.630000", "161040.630000", "161042.630000", "161044.630000", "161046.630000", "161048.630000", "161050.630000", "161052.630000", "161054.630000", "161056.630000", "161058.630000", "161100.630000", "161102.630000", "161104.630000", "161106.630000", "161108.630000", "161110.630000", "161112.630000", "161114.630000", "161116.630000", "161118.630000", "161120.630000", "161122.630000", "161124.630000", "161126.630000", "161128.630000", "161130.630000", "161132.630000", "161134.630000", "161136.630000", "161138.630000", "161140.630000", "161142.630000", "161144.630000", "161146.630000", "161148.630000", "161150.630000", "161152.630000", "161154.630000", "161156.630000", "161158.630000", "161200.630000", "161202.630000", "161204.630000", "161206.630000", "161208.630000", "161210.630000", "161212.630000", "161214.630000", "161216.630000", "161218.630000", "161220.630000", "161222.630000", "161224.630000", "161226.630000", "161228.630000", "161230.630000", "161232.630000", "161234.630000", "161236.630000", "161238.630000", "161240.630000", "161242.630000", "161244.630000", "161246.630000", "161248.630000", "161250.630000", "161252.630000", "161254.630000", "161256.630000", "161258.630000", "161300.630000", "161302.630000", "161304.630000", "161306.630000", "161308.630000", "161310.630000", "161312.630000", "161314.630000", "161316.630000", "161318.630000", "161320.630000", "161322.630000", "161324.630000", "161326.630000", "161328.630000", "161330.630000", "161332.630000", "161334.630000", "161336.630000", "161338.630000", "161340.630000", "161342.630000", "161344.630000", "161346.630000", "161348.630000", "161350.630000", "161352.630000", "161354.630000", "161356.630000", "161358.630000", "161400.630000", "161402.630000", "161404.630000", "161406.630000", "161408.630000", "161410.630000", "161412.630000", "161414.630000", "161416.630000", "161418.630000", "161420.630000", "161422.630000", "161424.630000", "161426.630000", "161428.630000", "161430.630000", "161432.630000", "161434.630000", "161436.630000", "161438.630000", "161440.630000", "161442.630000", "161444.630000", "161446.630000", "161448.630000", "161450.630000", "161452.630000", "161454.630000", "161456.630000", "161458.630000", "161500.630000", "161502.630000", "161504.630000", "161506.630000", "161508.630000", "161510.630000", "161512.630000", "161514.630000", "161516.630000", "161518.630000", "161520.630000", "161522.630000", "161524.630000", "161526.630000", "161528.630000", "161530.630000", "161532.630000", "161534.630000", "161536.630000", "161538.630000", "161540.630000", "161542.630000", "161544.630000", "161546.630000", "161548.630000", "161550.630000", "161552.630000", "161554.630000", "161556.630000", "161558.630000", "161600.630000", "161602.630000", "161604.630000", "161606.630000"],
      "ContentTime": ["160739.497000", "160740.993000", "160742.993000", "160744.993000", "160746.992000", "160748.992000", "160750.993000", "160752.992000", "160754.992000", "160756.992000", "160758.993000", "160800.993000", "160802.993000", "160804.993000", "160806.992000", "160808.993000", "160810.992000", "160812.993000", "160814.993000", "160816.993000", "160818.992000", "160820.993000", "160822.993000", "160824.993000", "160826.993000", "160828.992000", "160830.993000", "160832.992000", "160834.993000", "160836.993000", "160838.992000", "160840.993000", "160842.992000", "160844.992000", "160846.993000", "160848.993000", "160850.993000", "160852.993000", "160854.993000", "160856.993000", "160858.993000", "160900.992000", "160902.993000", "160904.992000", "160906.993000", "160908.992000", "160910.993000", "160912.993000", "160914.993000", "160916.993000", "160918.993000", "160920.993000", "160922.992000", "160924.992000", "160926.992000", "160928.993000", "160930.992000", "160932.992000", "160934.993000", "160936.993000", "160938.992000", "160940.993000", "160942.993000", "160944.993000", "160946.993000", "160948.993000", "160950.993000", "160952.993000", "160954.992000", "160956.993000", "160958.992000", "161000.992000", "161002.993000", "161004.993000", "161006.993000", "161008.993000", "161010.992000", "161012.993000", "161014.992000", "161016.993000", "161018.993000", "161020.992000", "161022.993000", "161024.992000", "161026.993000", "161028.993000", "161030.993000", "161032.992000", "161034.993000", "161036.992000", "161038.992000", "161040.992000", "161042.993000", "161044.993000", "161046.992000", "161048.993000", "161050.992000", "161052.992000", "161054.992000", "161056.993000", "161058.993000", "161100.993000", "161102.992000", "161104.993000", "161106.992000", "161108.993000", "161110.992000", "161112.993000", "161114.992000", "161116.993000", "161118.992000", "161120.993000", "161122.993000", "161124.992000", "161126.993000", "161128.993000", "161130.993000", "161132.992000", "161134.993000", "161136.993000", "161138.993000", "161140.993000", "161142.992000", "161144.992000", "161146.992000", "161148.993000", "161150.993000", "161152.993000", "161154.993000", "161156.992000", "161158.992000", "161200.993000", "161202.992000", "161204.993000", "161206.992000", "161208.993000", "161210.993000", "161212.993000", "161214.993000", "161216.993000", "161218.992000", "161220.992000", "161222.993000", "161225.004000", "161226.992000", "161228.993000", "161230.993000", "161232.992000", "161234.993000", "161236.992000", "161238.992000", "161240.993000", "161242.993000", "161244.992000", "161246.993000", "161248.993000", "161250.992000", "161252.992000", "161254.993000", "161256.992000", "161258.992000", "161300.993000", "161302.993000", "161304.993000", "161306.993000", "161308.993000", "161310.993000", "161312.993000", "161314.992000", "161316.992000", "161318.993000", "161320.992000", "161322.993000", "161324.993000", "161326.993000", "161328.993000", "161330.993000", "161332.992000", "161334.992000", "161336.992000", "161338.993000", "161340.992000", "161342.993000", "161344.993000", "161346.993000", "161348.993000", "161350.993000", "161352.993000", "161354.993000", "161356.993000", "161358.992000", "161400.993000", "161402.992000", "161404.992000", "161406.992000", "161408.993000", "161410.993000", "161412.992000", "161414.994000", "161416.992000", "161418.993000", "161420.993000", "161422.993000", "161424.993000", "161426.993000", "161428.993000", "161430.993000", "161432.993000", "161434.993000", "161436.993000", "161438.992000", "161440.992000", "161442.993000", "161444.993000", "161446.993000", "161448.993000", "161450.992000", "161452.992000", "161454.992000", "161456.992000", "161458.993000", "161500.993000", "161502.992000", "161504.993000", "161506.994000", "161508.993000", "161510.993000", "161512.993000", "161514.993000", "161516.993000", "161518.992000", "161520.993000", "161522.993000", "161524.994000", "161526.993000", "161528.993000", "161530.992000", "161532.993000", "161534.993000", "161536.992000", "161538.992000", "161540.992000", "161542.992000", "161544.993000", "161546.992000", "161548.993000", "161550.992000", "161552.993000", "161554.993000", "161556.993000", "161558.993000", "161600.993000", "161602.993000", "161604.993000", "161606.993000", "161608.554000"],
      "InstanceCreationTime": ["160739.497000", "160740.993000", "160742.993000", "160744.993000", "160746.992000", "160748.992000", "160750.993000", "160752.992000", "160754.992000", "160756.992000", "160758.993000", "160800.993000", "160802.993000", "160804.993000", "160806.992000", "160808.993000", "160810.992000", "160812.993000", "160814.993000", "160816.993000", "160818.992000", "160820.993000", "160822.993000", "160824.993000", "160826.993000", "160828.992000", "160830.993000", "160832.992000", "160834.993000", "160836.993000", "160838.992000", "160840.993000", "160842.992000", "160844.992000", "160846.993000", "160848.993000", "160850.993000", "160852.993000", "160854.993000", "160856.993000", "160858.993000", "160900.992000", "160902.993000", "160904.992000", "160906.993000", "160908.992000", "160910.993000", "160912.993000", "160914.993000", "160916.993000", "160918.993000", "160920.993000", "160922.992000", "160924.992000", "160926.992000", "160928.993000", "160930.992000", "160932.992000", "160934.993000", "160936.993000", "160938.992000", "160940.993000", "160942.993000", "160944.993000", "160946.993000", "160948.993000", "160950.993000", "160952.993000", "160954.992000", "160956.993000", "160958.992000", "161000.992000", "161002.993000", "161004.993000", "161006.993000", "161008.993000", "161010.992000", "161012.993000", "161014.992000", "161016.993000", "161018.993000", "161020.992000", "161022.993000", "161024.992000", "161026.993000", "161028.993000", "161030.993000", "161032.992000", "161034.993000", "161036.992000", "161038.992000", "161040.992000", "161042.993000", "161044.993000", "161046.992000", "161048.993000", "161050.992000", "161052.992000", "161054.992000", "161056.993000", "161058.993000", "161100.993000", "161102.992000", "161104.993000", "161106.992000", "161108.993000", "161110.992000", "161112.993000", "161114.992000", "161116.993000", "161118.992000", "161120.993000", "161122.993000", "161124.992000", "161126.993000", "161128.993000", "161130.993000", "161132.992000", "161134.993000", "161136.993000", "161138.993000", "161140.993000", "161142.992000", "161144.992000", "161146.992000", "161148.993000", "161150.993000", "161152.993000", "161154.993000", "161156.992000", "161158.992000", "161200.993000", "161202.992000", "161204.993000", "161206.992000", "161208.993000", "161210.993000", "161212.993000", "161214.993000", "161216.993000", "161218.992000", "161220.992000", "161222.993000", "161225.004000", "161226.992000", "161228.993000", "161230.993000", "161232.992000", "161234.993000", "161236.992000", "161238.992000", "161240.993000", "161242.993000", "161244.992000", "161246.993000", "161248.993000", "161250.992000", "161252.992000", "161254.993000", "161256.992000", "161258.992000", "161300.993000", "161302.993000", "161304.993000", "161306.993000", "161308.993000", "161310.993000", "161312.993000", "161314.992000", "161316.992000", "161318.993000", "161320.992000", "161322.993000", "161324.993000", "161326.993000", "161328.993000", "161330.993000", "161332.992000", "161334.992000", "161336.992000", "161338.993000", "161340.992000", "161342.993000", "161344.993000", "161346.993000", "161348.993000", "161350.993000", "161352.993000", "161354.993000", "161356.993000", "161358.992000", "161400.993000", "161402.992000", "161404.992000", "161406.992000", "161408.993000", "161410.993000", "161412.992000", "161414.994000", "161416.992000", "161418.993000", "161420.993000", "161422.993000", "161424.993000", "161426.993000", "161428.993000", "161430.993000", "161432.993000", "161434.993000", "161436.993000", "161438.992000", "161440.992000", "161442.993000", "161444.993000", "161446.993000", "161448.993000", "161450.992000", "161452.992000", "161454.992000", "161456.992000", "161458.993000", "161500.993000", "161502.992000", "161504.993000", "161506.994000", "161508.993000", "161510.993000", "161512.993000", "161514.993000", "161516.993000", "161518.992000", "161520.993000", "161522.993000", "161524.994000", "161526.993000", "161528.993000", "161530.992000", "161532.993000", "161534.993000", "161536.992000", "161538.992000", "161540.992000", "161542.992000", "161544.993000", "161546.992000", "161548.993000", "161550.992000", "161552.993000", "161554.993000", "161556.993000", "161558.993000", "161600.993000", "161602.993000", "161604.993000", "161606.993000", "161608.554000"],
      "InstanceNumber": [1, 2, 3, 4, 5, 6, 7, 8, 9, 10, 11, 12, 13, 14, 15, 16, 17, 18, 19, 20, 21, 22, 23, 24, 25, 26, 27, 28, 29, 30, 31, 32, 33, 34, 35, 36, 37, 38, 39, 40, 41, 42, 43, 44, 45, 46, 47, 48, 49, 50, 51, 52, 53, 54, 55, 56, 57, 58, 59, 60, 61, 62, 63, 64, 65, 66, 67, 68, 69, 70, 71, 72, 73, 74, 75, 76, 77, 78, 79, 80, 81, 82, 83, 84, 85, 86, 87, 88, 89, 90, 91, 92, 93, 94, 95, 96, 97, 98, 99, 100, 101, 102, 103, 104, 105, 106, 107, 108, 109, 110, 111, 112, 113, 114, 115, 116, 117, 118, 119, 120, 121, 122, 123, 124, 125, 126, 127, 128, 129, 130, 131, 132, 133, 134, 135, 136, 137, 138, 139, 140, 141, 142, 143, 144, 145, 146, 147, 148, 149, 150, 151, 152, 153, 154, 155, 156, 157, 158, 159, 160, 161, 162, 163, 164, 165, 166, 167, 168, 169, 170, 171, 172, 173, 174, 175, 176, 177, 178, 179, 180, 181, 182, 183, 184, 185, 186, 187, 188, 189, 190, 191, 192, 193, 194, 195, 196, 197, 198, 199, 200, 201, 202, 203, 204, 205, 206, 207, 208, 209, 210, 211, 212, 213, 214, 215, 216, 217, 218, 219, 220, 221, 222, 223, 224, 225, 226, 227, 228, 229, 230, 231, 232, 233, 234, 235, 236, 237, 238, 239, 240, 241, 242, 243, 244, 245, 246, 247, 248, 249, 250, 251, 252, 253, 254, 255, 256],
      "WindowCenter": [891.0, 891.0, 890.0, 888.0, 887.0, 887.0, 887.0, 888.0, 887.0, 887.0, 888.0, 887.0, 886.0, 886.0, 886.0, 887.0, 886.0, 887.0, 887.0, 887.0, 886.0, 885.0, 884.0, 885.0, 886.0, 886.0, 885.0, 886.0, 886.0, 886.0, 886.0, 886.0, 885.0, 885.0, 886.0, 886.0, 885.0, 885.0, 885.0, 886.0, 886.0, 886.0, 885.0, 885.0, 885.0, 885.0, 885.0, 885.0, 884.0, 885.0, 887.0, 887.0, 887.0, 886.0, 885.0, 886.0, 886.0, 886.0, 886.0, 886.0, 887.0, 887.0, 886.0, 886.0, 887.0, 888.0, 888.0, 887.0, 886.0, 886.0, 887.0, 888.0, 888.0, 888.0, 887.0, 886.0, 886.0, 886.0, 886.0, 885.0, 886.0, 886.0, 886.0, 886.0, 885.0, 886.0, 888.0, 888.0, 886.0, 885.0, 885.0, 887.0, 887.0, 887.0, 887.0, 887.0, 887.0, 886.0, 886.0, 886.0, 887.0, 886.0, 886.0, 886.0, 885.0, 887.0, 887.0, 887.0, 886.0, 886.0, 887.0, 887.0, 887.0, 886.0, 885.0, 885.0, 885.0, 885.0, 885.0, 886.0, 887.0, 886.0, 886.0, 886.0, 886.0, 887.0, 887.0, 886.0, 885.0, 885.0, 887.0, 887.0, 887.0, 885.0, 885.0, 887.0, 888.0, 888.0, 887.0, 886.0, 885.0, 885.0, 885.0, 885.0, 886.0, 887.0, 888.0, 887.0, 887.0, 887.0, 887.0, 886.0, 885.0, 886.0, 887.0, 888.0, 888.0, 888.0, 888.0, 888.0, 888.0, 888.0, 887.0, 886.0, 886.0, 887.0, 888.0, 888.0, 888.0, 888.0, 888.0, 888.0, 887.0, 887.0, 887.0, 888.0, 887.0, 887.0, 886.0, 886.0, 887.0, 887.0, 887.0, 888.0, 888.0, 888.0, 887.0, 886.0, 885.0, 885.0, 887.0, 887.0, 887.0, 886.0, 886.0, 887.0, 887.0, 887.0, 887.0, 886.0, 885.0, 885.0, 886.0, 885.0, 885.0, 886.0, 886.0, 885.0, 885.0, 886.0, 886.0, 885.0, 886.0, 887.0, 886.0, 885.0, 884.0, 884.0, 886.0, 887.0, 886.0, 885.0, 885.0, 886.0, 886.0, 886.0, 886.0, 887.0, 887.0, 886.0, 886.0, 887.0, 888.0, 888.0, 886.0, 884.0, 884.0, 885.0, 887.0, 887.0, 887.0, 886.0, 885.0, 886.0, 887.0, 887.0, 887.0, 886.0, 885.0, 886.0, 887.0, 888.0, 887.0, 888.0, 887.0, 885.0],
      "WindowWidth": [1947.0, 1946.0, 1943.0, 1939.0, 1936.0, 1935.0, 1937.0, 1937.0, 1936.0, 1936.0, 1937.0, 1936.0, 1934.0, 1933.0, 1934.0, 1935.0, 1933.0, 1934.0, 1936.0, 1936.0, 1933.0, 1930.0, 1928.0, 1931.0, 1933.0, 1931.0, 1931.0, 1932.0, 1932.0, 1932.0, 1933.0, 1932.0, 1929.0, 1931.0, 1933.0, 1933.0, 1930.0, 1930.0, 1931.0, 1932.0, 1933.0, 1932.0, 1931.0, 1929.0, 1929.0, 1930.0, 1931.0, 1931.0, 1928.0, 1930.0, 1935.0, 1936.0, 1936.0, 1932.0, 1931.0, 1932.0, 1932.0, 1933.0, 1932.0, 1933.0, 1935.0, 1935.0, 1934.0, 1934.0, 1936.0, 1937.0, 1937.0, 1935.0, 1932.0, 1932.0, 1936.0, 1938.0, 1939.0, 1939.0, 1935.0, 1934.0, 1934.0, 1933.0, 1932.0, 1931.0, 1934.0, 1933.0, 1932.0, 1931.0, 1931.0, 1933.0, 1938.0, 1938.0, 1933.0, 1929.0, 1930.0, 1936.0, 1937.0, 1936.0, 1935.0, 1935.0, 1936.0, 1931.0, 1932.0, 1934.0, 1935.0, 1933.0, 1932.0, 1932.0, 1931.0, 1935.0, 1936.0, 1935.0, 1932.0, 1932.0, 1934.0, 1936.0, 1935.0, 1932.0, 1930.0, 1930.0, 1930.0, 1929.0, 1930.0, 1933.0, 1935.0, 1933.0, 1931.0, 1933.0, 1932.0, 1934.0, 1934.0, 1933.0, 1930.0, 1931.0, 1935.0, 1936.0, 1934.0, 1930.0, 1931.0, 1935.0, 1939.0, 1939.0, 1935.0, 1932.0, 1930.0, 1930.0, 1929.0, 1930.0, 1932.0, 1935.0, 1937.0, 1934.0, 1935.0, 1935.0, 1934.0, 1930.0, 1928.0, 1930.0, 1935.0, 1936.0, 1936.0, 1937.0, 1936.0, 1936.0, 1937.0, 1937.0, 1935.0, 1932.0, 1930.0, 1933.0, 1936.0, 1938.0, 1937.0, 1936.0, 1936.0, 1936.0, 1935.0, 1933.0, 1933.0, 1935.0, 1934.0, 1933.0, 1932.0, 1932.0, 1934.0, 1935.0, 1935.0, 1936.0, 1936.0, 1936.0, 1934.0, 1930.0, 1928.0, 1929.0, 1934.0, 1935.0, 1934.0, 1931.0, 1933.0, 1935.0, 1936.0, 1936.0, 1935.0, 1933.0, 1930.0, 1929.0, 1930.0, 1929.0, 1929.0, 1931.0, 1931.0, 1929.0, 1929.0, 1931.0, 1931.0, 1930.0, 1932.0, 1933.0, 1932.0, 1928.0, 1925.0, 1927.0, 1931.0, 1934.0, 1932.0, 1930.0, 1931.0, 1933.0, 1933.0, 1932.0, 1932.0, 1934.0, 1933.0, 1932.0, 1931.0, 1935.0, 1937.0, 1937.0, 1932.0, 1927.0, 1925.0, 1930.0, 1934.0, 1934.0, 1934.0, 1931.0, 1930.0, 1933.0, 1934.0, 1936.0, 1936.0, 1933.0, 1929.0, 1932.0, 1936.0, 1937.0, 1935.0, 1938.0, 1933.0, 1928.0]
    },
    "slices": {}
  }
}