{
  "AcquisitionMatrixPE": 100,
  "AcquisitionNumber": 1,
  "AcquisitionTime": "16:16:52.725000",
  "BandwidthPerPixelPhaseEncode": 18.519,
  "BaseResolution": 100,
  "BodyPartExamined": "BRAIN",
  "ConsistencyInfo": "N4_VE11C_LATEST_20160120",
  "ConversionSoftware": "dcm2niix",
  "ConversionSoftwareVersion": "v1.0.20180622 GCC4.9.2",
  "DerivedVendorReportedEchoSpacing": 0.000539986,
  "DeviceSerialNumber": "166078",
  "DwellTime": 2.1e-06,
  "EchoTime": 0.034,
  "EchoTrainLength": 100,
  "EffectiveEchoSpacing": 0.000539986,
  "FlipAngle": 90,
  "ImageOrientationPatientDICOM": [1, 0, 0, 0, 0.982613, -0.185667],
  "ImageType": [
    "ORIGINAL",
    "PRIMARY",
    "M",
    "ND",
    "MOSAIC"
],
  "InPlanePhaseEncodingDirectionDICOM": "COL",
  "InstitutionAddress": "Street_StreetNo_Bei_Jing_District_CN_ZIP",
  "InstitutionName": "BeiJing_Normal_University",
  "InstitutionalDepartmentName": "Department",
  "MRAcquisitionType": "2D",
  "MagneticFieldStrength": 3,
  "Manufacturer": "Siemens",
  "ManufacturersModelName": "Prisma",
  "Modality": "MR",
  "MultibandAccelerationFactor": 3,
  "PartialFourier": 1,
  "PatientPosition": "HFS",
  "PercentPhaseFOV": 100,
  "PhaseEncodingDirection": "j-",
  "PhaseEncodingSteps": 100,
  "PhaseResolution": 1,
  "PixelBandwidth": 2380,
  "ProcedureStepDescription": "BNU_P2018_64CH_Zhen.ZongLei",
  "ProtocolName": "bold_100x100_s3_2x2x2_static_256",
  "PulseSequenceDetails": "%SiemensSeq%_ep2d_bold",
  "ReceiveCoilActiveElements": "HC1-7;NC1",
  "ReceiveCoilName": "HeadNeck_64",
  "ReconMatrixPE": 100,
  "RepetitionTime": 2,
  "SAR": 0.0862686,
  "ScanOptions": "FS",
  "ScanningSequence": "EP",
  "SequenceName": "_epfid2d1_100",
  "SequenceVariant": "SK",
  "SeriesDescription": "bold_100x100_s3_2x2x2_static_256",
  "SeriesNumber": 14,
  "ShimSetting": [-5452, -11487, -1226, 373, 2, -131, -150, 66],
  "SliceThickness": 2,
  "SliceTiming": [1.485, 0, 0.99, 0.0825, 1.0725, 0.165, 1.155, 0.2475, 1.2375, 0.33, 1.32, 0.4125, 1.4025, 0.5775, 1.5675, 0.66, 1.65, 0.7425, 1.7325, 0.825, 1.815, 0.9075, 1.8975, 0.495, 1.485, 0, 0.99, 0.0825, 1.0725, 0.165, 1.155, 0.2475, 1.2375, 0.33, 1.32, 0.4125, 1.4025, 0.5775, 1.5675, 0.66, 1.65, 0.7425, 1.7325, 0.825, 1.815, 0.9075, 1.8975, 0.495, 1.485, 0, 0.99, 0.0825, 1.0725, 0.165, 1.155, 0.2475, 1.2375, 0.33, 1.32, 0.4125, 1.4025, 0.5775, 1.5675, 0.66, 1.65, 0.7425, 1.7325, 0.825, 1.815, 0.9075, 1.8975, 0.495],
  "SoftwareVersions": "syngo_MR_E11",
  "SpacingBetweenSlices": 2,
  "StationName": "AWP166078",
  "TaskName": "naturalvision",
  "TotalReadoutTime": 0.0534586,
  "TxRefAmp": 228.481,
  "dcmmeta_affine": [
    [-2.0, 0.0, 0.0, 100.0],
    [0.0, 1.9652255773544312, -0.37133321166038513, -84.06312561035156],
    [0.0, 0.37133321166038513, 1.9652255773544312, -68.39456939697266],
    [0.0, 0.0, 0.0, 1.0]
],
  "dcmmeta_reorient_transform": [
    [0.0, -1.0, 0.0, 99.0],
    [1.0, 0.0, 0.0, 0.0],
    [0.0, 0.0, 1.0, 0.0],
    [0.0, 0.0, 0.0, 1.0]
],
  "dcmmeta_shape": [100, 100, 72, 256],
  "dcmmeta_slice_dim": 2,
  "dcmmeta_version": 0.6,
  "global": {
    "const": {
      "AcquisitionMatrix": [100, 0, 0, 100],
      "AngioFlag": "N",
      "BitsAllocated": 16,
      "BitsStored": 12,
      "BodyPartExamined": "BRAIN",
      "Columns": 900,
      "EchoNumbers": 1,
      "EchoTime": 34.0,
      "EchoTrainLength": 100,
      "FlipAngle": 90.0,
      "HighBit": 11,
      "ImageOrientationPatient": [1.0, 0.0, 0.0, 0.0, 0.9826127972607, -0.1856666115905],
      "ImagePositionPatient": [-900.0, -896.58444962539, 116.90070879329],
      "ImageType": [
        "ORIGINAL",
        "PRIMARY",
        "M",
        "ND",
        "MOSAIC"
],
      "ImagedNucleus": "1H",
      "ImagingFrequency": 123.257757,
      "InPlanePhaseEncodingDirection": "COL",
      "MRAcquisitionType": "2D",
      "MagneticFieldStrength": 3.0,
      "Manufacturer": "SIEMENS",
      "ManufacturerModelName": "Prisma",
      "Modality": "MR",
      "NumberOfAverages": 1.0,
      "NumberOfPhaseEncodingSteps": 100,
      "PercentPhaseFieldOfView": 100.0,
      "PercentSampling": 100.0,
      "PerformedProcedureStepStartTime": "144208.776000",
      "PhotometricInterpretation": "MONOCHROME2",
      "PixelBandwidth": 2380.0,
      "PixelRepresentation": 0,
      "PixelSpacing": [2.0, 2.0],
      "ProtocolName": "bold_100x100_s3_2x2x2_static_256",
      "RepetitionTime": 2000.0,
      "Rows": 900,
      "SAR": 0.08626863862993,
      "SamplesPerPixel": 1,
      "ScanOptions": "FS",
      "ScanningSequence": "EP",
      "SequenceName": "*epfid2d1_100",
      "SequenceVariant": "SK",
      "SeriesDescription": "bold_100x100_s3_2x2x2_static_256",
      "SeriesNumber": 14,
      "SeriesTime": "161655.366000",
      "SliceLocation": -51.59766429757,
      "SliceThickness": 2.0,
      "SmallestImagePixelValue": 0,
      "SoftwareVersions": "syngo MR E11",
      "SpacingBetweenSlices": 1.9999999496976,
      "SpecificCharacterSet": "ISO_IR 100",
      "StudyID": "1",
      "StudyTime": "144208.691000",
      "TransmitCoilName": "Body",
      "VariableFlipAngleFlag": "N",
      "WindowCenterWidthExplanation": "Algo1",
      "dBdt": 0.0},
    "slices": {}
  },
  "time": {
    "samples": {
      "AcquisitionNumber": [1, 2, 3, 4, 5, 6, 7, 8, 9, 10, 11, 12, 13, 14, 15, 16, 17, 18, 19, 20, 21, 22, 23, 24, 25, 26, 27, 28, 29, 30, 31, 32, 33, 34, 35, 36, 37, 38, 39, 40, 41, 42, 43, 44, 45, 46, 47, 48, 49, 50, 51, 52, 53, 54, 55, 56, 57, 58, 59, 60, 61, 62, 63, 64, 65, 66, 67, 68, 69, 70, 71, 72, 73, 74, 75, 76, 77, 78, 79, 80, 81, 82, 83, 84, 85, 86, 87, 88, 89, 90, 91, 92, 93, 94, 95, 96, 97, 98, 99, 100, 101, 102, 103, 104, 105, 106, 107, 108, 109, 110, 111, 112, 113, 114, 115, 116, 117, 118, 119, 120, 121, 122, 123, 124, 125, 126, 127, 128, 129, 130, 131, 132, 133, 134, 135, 136, 137, 138, 139, 140, 141, 142, 143, 144, 145, 146, 147, 148, 149, 150, 151, 152, 153, 154, 155, 156, 157, 158, 159, 160, 161, 162, 163, 164, 165, 166, 167, 168, 169, 170, 171, 172, 173, 174, 175, 176, 177, 178, 179, 180, 181, 182, 183, 184, 185, 186, 187, 188, 189, 190, 191, 192, 193, 194, 195, 196, 197, 198, 199, 200, 201, 202, 203, 204, 205, 206, 207, 208, 209, 210, 211, 212, 213, 214, 215, 216, 217, 218, 219, 220, 221, 222, 223, 224, 225, 226, 227, 228, 229, 230, 231, 232, 233, 234, 235, 236, 237, 238, 239, 240, 241, 242, 243, 244, 245, 246, 247, 248, 249, 250, 251, 252, 253, 254, 255, 256],
      "AcquisitionTime": ["161652.725000", "161654.725000", "161656.725000", "161658.725000", "161700.725000", "161702.725000", "161704.725000", "161706.725000", "161708.725000", "161710.725000", "161712.725000", "161714.725000", "161716.725000", "161718.725000", "161720.725000", "161722.725000", "161724.725000", "161726.725000", "161728.725000", "161730.725000", "161732.725000", "161734.725000", "161736.725000", "161738.725000", "161740.725000", "161742.725000", "161744.725000", "161746.725000", "161748.725000", "161750.725000", "161752.725000", "161754.725000", "161756.725000", "161758.725000", "161800.725000", "161802.725000", "161804.725000", "161806.725000", "161808.725000", "161810.725000", "161812.725000", "161814.725000", "161816.725000", "161818.725000", "161820.725000", "161822.725000", "161824.725000", "161826.725000", "161828.725000", "161830.725000", "161832.725000", "161834.725000", "161836.725000", "161838.725000", "161840.725000", "161842.725000", "161844.725000", "161846.725000", "161848.725000", "161850.725000", "161852.725000", "161854.725000", "161856.725000", "161858.725000", "161900.725000", "161902.725000", "161904.725000", "161906.725000", "161908.725000", "161910.725000", "161912.725000", "161914.725000", "161916.725000", "161918.725000", "161920.725000", "161922.725000", "161924.725000", "161926.725000", "161928.725000", "161930.725000", "161932.725000", "161934.725000", "161936.725000", "161938.725000", "161940.725000", "161942.725000", "161944.725000", "161946.725000", "161948.725000", "161950.725000", "161952.725000", "161954.725000", "161956.725000", "161958.725000", "162000.725000", "162002.725000", "162004.725000", "162006.725000", "162008.725000", "162010.725000", "162012.725000", "162014.725000", "162016.725000", "162018.725000", "162020.725000", "162022.725000", "162024.725000", "162026.725000", "162028.725000", "162030.725000", "162032.725000", "162034.725000", "162036.725000", "162038.725000", "162040.725000", "162042.725000", "162044.725000", "162046.725000", "162048.725000", "162050.725000", "162052.725000", "162054.725000", "162056.725000", "162058.725000", "162100.725000", "162102.725000", "162104.725000", "162106.725000", "162108.725000", "162110.725000", "162112.725000", "162114.725000", "162116.725000", "162118.725000", "162120.725000", "162122.725000", "162124.725000", "162126.725000", "162128.725000", "162130.725000", "162132.725000", "162134.725000", "162136.725000", "162138.725000", "162140.725000", "162142.725000", "162144.725000", "162146.725000", "162148.725000", "162150.725000", "162152.725000", "162154.725000", "162156.725000", "162158.725000", "162200.725000", "162202.725000", "162204.725000", "162206.725000", "162208.725000", "162210.725000", "162212.725000", "162214.725000", "162216.725000", "162218.725000", "162220.725000", "162222.725000", "162224.725000", "162226.725000", "162228.725000", "162230.725000", "162232.725000", "162234.725000", "162236.725000", "162238.725000", "162240.725000", "162242.725000", "162244.725000", "162246.725000", "162248.725000", "162250.725000", "162252.725000", "162254.725000", "162256.725000", "162258.725000", "162300.725000", "162302.725000", "162304.725000", "162306.725000", "162308.725000", "162310.725000", "162312.725000", "162314.725000", "162316.725000", "162318.725000", "162320.725000", "162322.725000", "162324.725000", "162326.725000", "162328.725000", "162330.725000", "162332.725000", "162334.725000", "162336.725000", "162338.725000", "162340.725000", "162342.725000", "162344.725000", "162346.725000", "162348.725000", "162350.725000", "162352.725000", "162354.725000", "162356.725000", "162358.725000", "162400.725000", "162402.725000", "162404.725000", "162406.725000", "162408.725000", "162410.725000", "162412.725000", "162414.725000", "162416.725000", "162418.725000", "162420.725000", "162422.725000", "162424.725000", "162426.725000", "162428.725000", "162430.725000", "162432.725000", "162434.725000", "162436.725000", "162438.725000", "162440.725000", "162442.725000", "162444.725000", "162446.725000", "162448.725000", "162450.725000", "162452.725000", "162454.725000", "162456.725000", "162458.725000", "162500.725000", "162502.725000", "162504.725000", "162506.725000", "162508.725000", "162510.725000", "162512.725000", "162514.725000", "162516.725000", "162518.725000", "162520.725000", "162522.725000"],
      "ContentTime": ["161655.370000", "161656.850000", "161658.849000", "161700.849000", "161702.849000", "161704.848000", "161706.848000", "161708.848000", "161710.850000", "161712.850000", "161714.850000", "161716.849000", "161718.849000", "161720.849000", "161722.848000", "161724.848000", "161726.849000", "161728.850000", "161730.850000", "161732.849000", "161734.849000", "161736.849000", "161738.849000", "161740.848000", "161742.848000", "161744.850000", "161746.850000", "161748.849000", "161750.850000", "161752.850000", "161754.850000", "161756.849000", "161758.848000", "161800.849000", "161802.850000", "161804.850000", "161806.850000", "161808.850000", "161810.849000", "161812.850000", "161814.848000", "161816.848000", "161818.848000", "161820.849000", "161822.850000", "161824.850000", "161826.849000", "161828.850000", "161830.848000", "161832.848000", "161834.849000", "161836.849000", "161838.849000", "161840.850000", "161842.850000", "161844.849000", "161846.850000", "161848.848000", "161850.848000", "161852.848000", "161854.850000", "161856.849000", "161858.849000", "161900.850000", "161902.849000", "161904.849000", "161906.849000", "161908.849000", "161910.848000", "161912.849000", "161914.850000", "161916.849000", "161918.850000", "161920.850000", "161922.850000", "161924.849000", "161926.849000", "161928.848000", "161930.850000", "161932.850000", "161934.849000", "161936.850000", "161938.850000", "161940.849000", "161942.849000", "161944.848000", "161946.850000", "161948.850000", "161950.850000", "161952.849000", "161954.850000", "161956.850000", "161958.848000", "162000.849000", "162002.848000", "162004.850000", "162006.850000", "162008.850000", "162010.850000", "162012.849000", "162014.849000", "162016.849000", "162018.848000", "162020.849000", "162022.849000", "162024.850000", "162026.849000", "162028.850000", "162030.849000", "162032.849000", "162034.849000", "162036.848000", "162038.849000", "162040.850000", "162042.850000", "162044.850000", "162046.850000", "162048.850000", "162050.849000", "162052.848000", "162054.849000", "162056.850000", "162058.849000", "162100.850000", "162102.850000", "162104.849000", "162106.850000", "162108.849000", "162110.849000", "162112.848000", "162114.850000", "162116.850000", "162118.849000", "162120.849000", "162122.850000", "162124.849000", "162126.848000", "162128.849000", "162130.849000", "162132.849000", "162134.849000", "162136.850000", "162138.850000", "162140.849000", "162142.850000", "162144.849000", "162146.848000", "162148.848000", "162150.850000", "162152.850000", "162154.850000", "162156.849000", "162158.850000", "162200.849000", "162202.849000", "162204.849000", "162206.850000", "162208.849000", "162210.849000", "162212.850000", "162214.850000", "162216.849000", "162218.849000", "162220.849000", "162222.849000", "162224.858000", "162226.849000", "162228.849000", "162230.850000", "162232.850000", "162234.850000", "162236.848000", "162238.848000", "162240.849000", "162242.850000", "162244.850000", "162246.850000", "162248.849000", "162250.849000", "162252.850000", "162254.849000", "162256.849000", "162258.849000", "162300.850000", "162302.850000", "162304.850000", "162306.850000", "162308.849000", "162310.849000", "162312.849000", "162314.849000", "162316.850000", "162318.850000", "162320.850000", "162322.850000", "162324.850000", "162326.850000", "162328.848000", "162330.849000", "162332.849000", "162334.850000", "162336.850000", "162338.850000", "162340.850000", "162342.850000", "162344.849000", "162346.849000", "162348.849000", "162350.848000", "162352.850000", "162354.850000", "162356.850000", "162358.850000", "162400.850000", "162402.850000", "162404.849000", "162406.849000", "162408.848000", "162410.850000", "162412.850000", "162414.850000", "162416.849000", "162418.850000", "162420.849000", "162422.849000", "162424.849000", "162426.850000", "162428.849000", "162430.850000", "162432.850000", "162434.850000", "162436.849000", "162438.848000", "162440.849000", "162442.849000", "162444.849000", "162446.850000", "162448.849000", "162450.850000", "162452.850000", "162454.849000", "162456.849000", "162458.848000", "162500.849000", "162502.850000", "162504.849000", "162506.849000", "162508.849000", "162510.849000", "162512.850000", "162514.849000", "162516.849000", "162518.849000", "162520.850000", "162522.850000", "162524.551000"],
      "InstanceCreationTime": ["161655.370000", "161656.850000", "161658.849000", "161700.849000", "161702.849000", "161704.848000", "161706.848000", "161708.848000", "161710.850000", "161712.850000", "161714.850000", "161716.849000", "161718.849000", "161720.849000", "161722.848000", "161724.848000", "161726.849000", "161728.850000", "161730.850000", "161732.849000", "161734.849000", "161736.849000", "161738.849000", "161740.848000", "161742.848000", "161744.850000", "161746.850000", "161748.849000", "161750.850000", "161752.850000", "161754.850000", "161756.849000", "161758.848000", "161800.849000", "161802.850000", "161804.850000", "161806.850000", "161808.850000", "161810.849000", "161812.850000", "161814.848000", "161816.848000", "161818.848000", "161820.849000", "161822.850000", "161824.850000", "161826.849000", "161828.850000", "161830.848000", "161832.848000", "161834.849000", "161836.849000", "161838.849000", "161840.850000", "161842.850000", "161844.849000", "161846.850000", "161848.848000", "161850.848000", "161852.848000", "161854.850000", "161856.849000", "161858.849000", "161900.850000", "161902.849000", "161904.849000", "161906.849000", "161908.849000", "161910.848000", "161912.849000", "161914.850000", "161916.849000", "161918.850000", "161920.850000", "161922.850000", "161924.849000", "161926.849000", "161928.848000", "161930.850000", "161932.850000", "161934.849000", "161936.850000", "161938.850000", "161940.849000", "161942.849000", "161944.848000", "161946.850000", "161948.850000", "161950.850000", "161952.849000", "161954.850000", "161956.850000", "161958.848000", "162000.849000", "162002.848000", "162004.850000", "162006.850000", "162008.850000", "162010.850000", "162012.849000", "162014.849000", "162016.849000", "162018.848000", "162020.849000", "162022.849000", "162024.850000", "162026.849000", "162028.850000", "162030.849000", "162032.849000", "162034.849000", "162036.848000", "162038.849000", "162040.850000", "162042.850000", "162044.850000", "162046.850000", "162048.850000", "162050.849000", "162052.848000", "162054.849000", "162056.850000", "162058.849000", "162100.850000", "162102.850000", "162104.849000", "162106.850000", "162108.849000", "162110.849000", "162112.848000", "162114.850000", "162116.850000", "162118.849000", "162120.849000", "162122.850000", "162124.849000", "162126.848000", "162128.849000", "162130.849000", "162132.849000", "162134.849000", "162136.850000", "162138.850000", "162140.849000", "162142.850000", "162144.849000", "162146.848000", "162148.848000", "162150.850000", "162152.850000", "162154.850000", "162156.849000", "162158.850000", "162200.849000", "162202.849000", "162204.849000", "162206.850000", "162208.849000", "162210.849000", "162212.850000", "162214.850000", "162216.849000", "162218.849000", "162220.849000", "162222.849000", "162224.858000", "162226.849000", "162228.849000", "162230.850000", "162232.850000", "162234.850000", "162236.848000", "162238.848000", "162240.849000", "162242.850000", "162244.850000", "162246.850000", "162248.849000", "162250.849000", "162252.850000", "162254.849000", "162256.849000", "162258.849000", "162300.850000", "162302.850000", "162304.850000", "162306.850000", "162308.849000", "162310.849000", "162312.849000", "162314.849000", "162316.850000", "162318.850000", "162320.850000", "162322.850000", "162324.850000", "162326.850000", "162328.848000", "162330.849000", "162332.849000", "162334.850000", "162336.850000", "162338.850000", "162340.850000", "162342.850000", "162344.849000", "162346.849000", "162348.849000", "162350.848000", "162352.850000", "162354.850000", "162356.850000", "162358.850000", "162400.850000", "162402.850000", "162404.849000", "162406.849000", "162408.848000", "162410.850000", "162412.850000", "162414.850000", "162416.849000", "162418.850000", "162420.849000", "162422.849000", "162424.849000", "162426.850000", "162428.849000", "162430.850000", "162432.850000", "162434.850000", "162436.849000", "162438.848000", "162440.849000", "162442.849000", "162444.849000", "162446.850000", "162448.849000", "162450.850000", "162452.850000", "162454.849000", "162456.849000", "162458.848000", "162500.849000", "162502.850000", "162504.849000", "162506.849000", "162508.849000", "162510.849000", "162512.850000", "162514.849000", "162516.849000", "162518.849000", "162520.850000", "162522.850000", "162524.551000"],
      "InstanceNumber": [1, 2, 3, 4, 5, 6, 7, 8, 9, 10, 11, 12, 13, 14, 15, 16, 17, 18, 19, 20, 21, 22, 23, 24, 25, 26, 27, 28, 29, 30, 31, 32, 33, 34, 35, 36, 37, 38, 39, 40, 41, 42, 43, 44, 45, 46, 47, 48, 49, 50, 51, 52, 53, 54, 55, 56, 57, 58, 59, 60, 61, 62, 63, 64, 65, 66, 67, 68, 69, 70, 71, 72, 73, 74, 75, 76, 77, 78, 79, 80, 81, 82, 83, 84, 85, 86, 87, 88, 89, 90, 91, 92, 93, 94, 95, 96, 97, 98, 99, 100, 101, 102, 103, 104, 105, 106, 107, 108, 109, 110, 111, 112, 113, 114, 115, 116, 117, 118, 119, 120, 121, 122, 123, 124, 125, 126, 127, 128, 129, 130, 131, 132, 133, 134, 135, 136, 137, 138, 139, 140, 141, 142, 143, 144, 145, 146, 147, 148, 149, 150, 151, 152, 153, 154, 155, 156, 157, 158, 159, 160, 161, 162, 163, 164, 165, 166, 167, 168, 169, 170, 171, 172, 173, 174, 175, 176, 177, 178, 179, 180, 181, 182, 183, 184, 185, 186, 187, 188, 189, 190, 191, 192, 193, 194, 195, 196, 197, 198, 199, 200, 201, 202, 203, 204, 205, 206, 207, 208, 209, 210, 211, 212, 213, 214, 215, 216, 217, 218, 219, 220, 221, 222, 223, 224, 225, 226, 227, 228, 229, 230, 231, 232, 233, 234, 235, 236, 237, 238, 239, 240, 241, 242, 243, 244, 245, 246, 247, 248, 249, 250, 251, 252, 253, 254, 255, 256],
      "LargestImagePixelValue": [4095, 4095, 4065, 4071, 4063, 4039, 4014, 4060, 4024, 4049, 4051, 3995, 3952, 3988, 3982, 3933, 4021, 3990, 4001, 3930, 3934, 3921, 3924, 3901, 3931, 3927, 3921, 3936, 3972, 3924, 3891, 3949, 3955, 3932, 3952, 3983, 4001, 4037, 4008, 4004, 4042, 3997, 3993, 3999, 3990, 3984, 3978, 3942, 3950, 3993, 3932, 3958, 3971, 3967, 3963, 4017, 4003, 3963, 3962, 4002, 4008, 3999, 4003, 4004, 3985, 4013, 3981, 4022, 4000, 4024, 3986, 3989, 4047, 4015, 3959, 3973, 3985, 4002, 4001, 3998, 3984, 4014, 4020, 3999, 3991, 4002, 4041, 4037, 3989, 3982, 4028, 4027, 4027, 4061, 4047, 4027, 4033, 4029, 4007, 3983, 3988, 3980, 3990, 4010, 4007, 4003, 4001, 4033, 4022, 4012, 3988, 3950, 3962, 3988, 3998, 4013, 3965, 4023, 3979, 3956, 4011, 3980, 3984, 3999, 3993, 4039, 4016, 3990, 4007, 4003, 4004, 4008, 3995, 4026, 4044, 4005, 4036, 4032, 4020, 4050, 4050, 4037, 4039, 4020, 4028, 4028, 3995, 4026, 4051, 4049, 4057, 4014, 4033, 4052, 4037, 4033, 4062, 4037, 4030, 4053, 4051, 4042, 4044, 4038, 4024, 4072, 4051, 4079, 4017, 4047, 4055, 4052, 4064, 4050, 4039, 4036, 4070, 4067, 4038, 4040, 4047, 4068, 4038, 3997, 4036, 4014, 4033, 4055, 4027, 4042, 4010, 4056, 4055, 4051, 4040, 4027, 4027, 3999, 3985, 4009, 3984, 4002, 3995, 3994, 4063, 4017, 4034, 4059, 3994, 4021, 4025, 3974, 4035, 3993, 3981, 3988, 3931, 3957, 4024, 3975, 3955, 3970, 3959, 3972, 3973, 4030, 4042, 4010, 3994, 4021, 3998, 4023, 4001, 3993, 3983, 4009, 3980, 4016, 4009, 4048, 4015, 3978, 4001, 3943, 3990, 4012, 4002, 4008, 3946, 3978, 3964, 3958, 3952, 3941, 3937, 3943],
      "WindowCenter": [887.0, 886.0, 886.0, 886.0, 884.0, 883.0, 883.0, 884.0, 884.0, 885.0, 885.0, 885.0, 885.0, 884.0, 883.0, 885.0, 886.0, 885.0, 883.0, 882.0, 881.0, 880.0, 882.0, 884.0, 884.0, 883.0, 883.0, 883.0, 883.0, 882.0, 882.0, 882.0, 881.0, 881.0, 883.0, 883.0, 883.0, 883.0, 882.0, 882.0, 883.0, 884.0, 884.0, 883.0, 883.0, 883.0, 883.0, 883.0, 882.0, 881.0, 881.0, 881.0, 881.0, 880.0, 881.0, 882.0, 882.0, 882.0, 881.0, 882.0, 882.0, 883.0, 882.0, 882.0, 883.0, 883.0, 882.0, 881.0, 882.0, 883.0, 885.0, 886.0, 886.0, 884.0, 883.0, 883.0, 884.0, 885.0, 885.0, 884.0, 883.0, 884.0, 884.0, 882.0, 882.0, 882.0, 883.0, 883.0, 883.0, 885.0, 885.0, 884.0, 883.0, 884.0, 886.0, 886.0, 885.0, 885.0, 884.0, 885.0, 884.0, 883.0, 883.0, 883.0, 883.0, 883.0, 883.0, 885.0, 885.0, 887.0, 886.0, 883.0, 882.0, 882.0, 884.0, 885.0, 884.0, 884.0, 883.0, 883.0, 884.0, 884.0, 883.0, 883.0, 884.0, 883.0, 882.0, 881.0, 881.0, 882.0, 882.0, 883.0, 882.0, 881.0, 881.0, 883.0, 883.0, 884.0, 883.0, 882.0, 881.0, 881.0, 881.0, 882.0, 881.0, 882.0, 882.0, 883.0, 883.0, 883.0, 883.0, 882.0, 882.0, 882.0, 882.0, 883.0, 883.0, 882.0, 882.0, 882.0, 883.0, 883.0, 883.0, 881.0, 879.0, 879.0, 880.0, 883.0, 884.0, 883.0, 881.0, 881.0, 882.0, 882.0, 882.0, 881.0, 881.0, 881.0, 882.0, 882.0, 882.0, 882.0, 882.0, 882.0, 882.0, 882.0, 883.0, 882.0, 881.0, 882.0, 882.0, 881.0, 881.0, 882.0, 883.0, 884.0, 883.0, 882.0, 882.0, 882.0, 882.0, 882.0, 883.0, 884.0, 885.0, 883.0, 882.0, 882.0, 882.0, 883.0, 883.0, 883.0, 883.0, 882.0, 881.0, 882.0, 883.0, 883.0, 882.0, 882.0, 881.0, 881.0, 883.0, 882.0, 881.0, 882.0, 884.0, 884.0, 882.0, 881.0, 882.0, 883.0, 883.0, 883.0, 883.0, 883.0, 882.0, 882.0, 882.0, 882.0, 883.0, 883.0, 884.0, 884.0, 884.0, 883.0, 882.0, 882.0, 882.0, 883.0, 883.0, 883.0, 883.0, 882.0, 882.0, 882.0],
      "WindowWidth": [1934.0, 1933.0, 1932.0, 1931.0, 1926.0, 1922.0, 1923.0, 1926.0, 1925.0, 1928.0, 1929.0, 1929.0, 1928.0, 1925.0, 1924.0, 1928.0, 1931.0, 1928.0, 1924.0, 1919.0, 1917.0, 1916.0, 1919.0, 1924.0, 1925.0, 1922.0, 1921.0, 1923.0, 1923.0, 1920.0, 1920.0, 1919.0, 1917.0, 1919.0, 1922.0, 1923.0, 1922.0, 1922.0, 1921.0, 1921.0, 1924.0, 1925.0, 1926.0, 1924.0, 1922.0, 1922.0, 1922.0, 1922.0, 1919.0, 1918.0, 1917.0, 1918.0, 1918.0, 1915.0, 1917.0, 1921.0, 1921.0, 1919.0, 1918.0, 1921.0, 1921.0, 1922.0, 1922.0, 1921.0, 1923.0, 1922.0, 1921.0, 1919.0, 1920.0, 1923.0, 1928.0, 1931.0, 1931.0, 1926.0, 1922.0, 1922.0, 1925.0, 1928.0, 1928.0, 1925.0, 1923.0, 1925.0, 1924.0, 1920.0, 1920.0, 1921.0, 1922.0, 1923.0, 1923.0, 1927.0, 1928.0, 1926.0, 1923.0, 1926.0, 1931.0, 1931.0, 1929.0, 1928.0, 1926.0, 1926.0, 1924.0, 1922.0, 1921.0, 1921.0, 1921.0, 1923.0, 1924.0, 1927.0, 1929.0, 1934.0, 1929.0, 1923.0, 1918.0, 1919.0, 1926.0, 1927.0, 1925.0, 1925.0, 1923.0, 1922.0, 1924.0, 1924.0, 1922.0, 1923.0, 1924.0, 1923.0, 1920.0, 1918.0, 1918.0, 1920.0, 1921.0, 1920.0, 1920.0, 1917.0, 1918.0, 1921.0, 1924.0, 1926.0, 1922.0, 1921.0, 1917.0, 1916.0, 1919.0, 1919.0, 1919.0, 1920.0, 1920.0, 1922.0, 1923.0, 1922.0, 1923.0, 1921.0, 1920.0, 1920.0, 1921.0, 1923.0, 1923.0, 1920.0, 1920.0, 1921.0, 1922.0, 1923.0, 1922.0, 1917.0, 1913.0, 1913.0, 1916.0, 1923.0, 1925.0, 1922.0, 1917.0, 1916.0, 1919.0, 1921.0, 1921.0, 1917.0, 1917.0, 1919.0, 1921.0, 1921.0, 1920.0, 1921.0, 1921.0, 1921.0, 1920.0, 1921.0, 1921.0, 1919.0, 1917.0, 1921.0, 1920.0, 1919.0, 1919.0, 1919.0, 1923.0, 1926.0, 1923.0, 1920.0, 1919.0, 1920.0, 1920.0, 1921.0, 1922.0, 1925.0, 1928.0, 1923.0, 1919.0, 1920.0, 1921.0, 1922.0, 1922.0, 1922.0, 1921.0, 1919.0, 1918.0, 1919.0, 1921.0, 1922.0, 1920.0, 1918.0, 1916.0, 1918.0, 1920.0, 1919.0, 1917.0, 1920.0, 1925.0, 1923.0, 1918.0, 1917.0, 1918.0, 1921.0, 1921.0, 1921.0, 1922.0, 1922.0, 1919.0, 1918.0, 1917.0, 1918.0, 1921.0, 1922.0, 1924.0, 1923.0, 1924.0, 1921.0, 1918.0, 1918.0, 1918.0, 1922.0, 1922.0, 1921.0, 1921.0, 1918.0, 1919.0, 1919.0]
    },
    "slices": {}
  }
}