{
  "AcquisitionMatrixPE": 100,
  "AcquisitionNumber": 1,
  "AcquisitionTime": "15:07:49.995000",
  "BandwidthPerPixelPhaseEncode": 18.519,
  "BaseResolution": 100,
  "BodyPartExamined": "BRAIN",
  "ConsistencyInfo": "N4_VE11C_LATEST_20160120",
  "ConversionSoftware": "dcm2niix",
  "ConversionSoftwareVersion": "v1.0.20180622 GCC4.9.2",
  "DerivedVendorReportedEchoSpacing": 0.000539986,
  "DeviceSerialNumber": "166078",
  "DwellTime": 2.1e-06,
  "EchoTime": 0.034,
  "EchoTrainLength": 100,
  "EffectiveEchoSpacing": 0.000539986,
  "FlipAngle": 90,
  "ImageOrientationPatientDICOM": [1, 0, 0, 0, 0.982613, -0.185667],
  "ImageType": [
    "ORIGINAL",
    "PRIMARY",
    "M",
    "ND",
    "MOSAIC"
],
  "InPlanePhaseEncodingDirectionDICOM": "COL",
  "InstitutionAddress": "Street_StreetNo_Bei_Jing_District_CN_ZIP",
  "InstitutionName": "BeiJing_Normal_University",
  "InstitutionalDepartmentName": "Department",
  "MRAcquisitionType": "2D",
  "MagneticFieldStrength": 3,
  "Manufacturer": "Siemens",
  "ManufacturersModelName": "Prisma",
  "Modality": "MR",
  "MultibandAccelerationFactor": 3,
  "PartialFourier": 1,
  "PatientPosition": "HFS",
  "PercentPhaseFOV": 100,
  "PhaseEncodingDirection": "j-",
  "PhaseEncodingSteps": 100,
  "PhaseResolution": 1,
  "PixelBandwidth": 2380,
  "ProcedureStepDescription": "BNU_P2018_64CH_Zhen.ZongLei",
  "ProtocolName": "bold_100x100_s3_2x2x2_static_256",
  "PulseSequenceDetails": "%SiemensSeq%_ep2d_bold",
  "ReceiveCoilActiveElements": "HC1-7;NC1",
  "ReceiveCoilName": "HeadNeck_64",
  "ReconMatrixPE": 100,
  "RepetitionTime": 2,
  "SAR": 0.0862686,
  "ScanOptions": "FS",
  "ScanningSequence": "EP",
  "SequenceName": "_epfid2d1_100",
  "SequenceVariant": "SK",
  "SeriesDescription": "bold_100x100_s3_2x2x2_static_256",
  "SeriesNumber": 5,
  "ShimSetting": [-5452, -11487, -1226, 373, 2, -131, -150, 66],
  "SliceThickness": 2,
  "SliceTiming": [1.485, 0, 0.99, 0.0825, 1.0725, 0.165, 1.155, 0.2475, 1.2375, 0.33, 1.32, 0.4125, 1.4025, 0.5775, 1.5675, 0.66, 1.65, 0.7425, 1.7325, 0.825, 1.815, 0.9075, 1.8975, 0.495, 1.485, 0, 0.99, 0.0825, 1.0725, 0.165, 1.155, 0.2475, 1.2375, 0.33, 1.32, 0.4125, 1.4025, 0.5775, 1.5675, 0.66, 1.65, 0.7425, 1.7325, 0.825, 1.815, 0.9075, 1.8975, 0.495, 1.485, 0, 0.99, 0.0825, 1.0725, 0.165, 1.155, 0.2475, 1.2375, 0.33, 1.32, 0.4125, 1.4025, 0.5775, 1.5675, 0.66, 1.65, 0.7425, 1.7325, 0.825, 1.815, 0.9075, 1.8975, 0.495],
  "SoftwareVersions": "syngo_MR_E11",
  "SpacingBetweenSlices": 2,
  "StationName": "AWP166078",
  "TaskName": "naturalvision",
  "TotalReadoutTime": 0.0534586,
  "TxRefAmp": 228.481,
  "dcmmeta_affine": [
    [-2.0, 0.0, 0.0, 100.0],
    [0.0, 1.9652255773544312, -0.37133321166038513, -84.06312561035156],
    [0.0, 0.37133321166038513, 1.9652255773544312, -68.39456939697266],
    [0.0, 0.0, 0.0, 1.0]
],
  "dcmmeta_reorient_transform": [
    [0.0, -1.0, 0.0, 99.0],
    [1.0, 0.0, 0.0, 0.0],
    [0.0, 0.0, 1.0, 0.0],
    [0.0, 0.0, 0.0, 1.0]
],
  "dcmmeta_shape": [100, 100, 72, 256],
  "dcmmeta_slice_dim": 2,
  "dcmmeta_version": 0.6,
  "global": {
    "const": {
      "AcquisitionMatrix": [100, 0, 0, 100],
      "AngioFlag": "N",
      "BitsAllocated": 16,
      "BitsStored": 12,
      "BodyPartExamined": "BRAIN",
      "Columns": 900,
      "EchoNumbers": 1,
      "EchoTime": 34.0,
      "EchoTrainLength": 100,
      "FlipAngle": 90.0,
      "HighBit": 11,
      "ImageOrientationPatient": [1.0, 0.0, 0.0, 0.0, 0.9826127972607, -0.1856666115905],
      "ImagePositionPatient": [-900.0, -896.58444962539, 116.90070879329],
      "ImageType": [
        "ORIGINAL",
        "PRIMARY",
        "M",
        "ND",
        "MOSAIC"
],
      "ImagedNucleus": "1H",
      "ImagingFrequency": 123.257752,
      "InPlanePhaseEncodingDirection": "COL",
      "MRAcquisitionType": "2D",
      "MagneticFieldStrength": 3.0,
      "Manufacturer": "SIEMENS",
      "ManufacturerModelName": "Prisma",
      "Modality": "MR",
      "NumberOfAverages": 1.0,
      "NumberOfPhaseEncodingSteps": 100,
      "PercentPhaseFieldOfView": 100.0,
      "PercentSampling": 100.0,
      "PerformedProcedureStepStartTime": "144208.776000",
      "PhotometricInterpretation": "MONOCHROME2",
      "PixelBandwidth": 2380.0,
      "PixelRepresentation": 0,
      "PixelSpacing": [2.0, 2.0],
      "ProtocolName": "bold_100x100_s3_2x2x2_static_256",
      "RepetitionTime": 2000.0,
      "Rows": 900,
      "SAR": 0.08626863862993,
      "SamplesPerPixel": 1,
      "ScanOptions": "FS",
      "ScanningSequence": "EP",
      "SequenceName": "*epfid2d1_100",
      "SequenceVariant": "SK",
      "SeriesDescription": "bold_100x100_s3_2x2x2_static_256",
      "SeriesNumber": 5,
      "SeriesTime": "150751.990000",
      "SliceLocation": -51.59766429757,
      "SliceThickness": 2.0,
      "SmallestImagePixelValue": 0,
      "SoftwareVersions": "syngo MR E11",
      "SpacingBetweenSlices": 1.9999999496976,
      "SpecificCharacterSet": "ISO_IR 100",
      "StudyID": "1",
      "StudyTime": "144208.691000",
      "TransmitCoilName": "Body",
      "VariableFlipAngleFlag": "N",
      "WindowCenterWidthExplanation": "Algo1",
      "dBdt": 0.0},
    "slices": {}
  },
  "time": {
    "samples": {
      "AcquisitionNumber": [1, 2, 3, 4, 5, 6, 7, 8, 9, 10, 11, 12, 13, 14, 15, 16, 17, 18, 19, 20, 21, 22, 23, 24, 25, 26, 27, 28, 29, 30, 31, 32, 33, 34, 35, 36, 37, 38, 39, 40, 41, 42, 43, 44, 45, 46, 47, 48, 49, 50, 51, 52, 53, 54, 55, 56, 57, 58, 59, 60, 61, 62, 63, 64, 65, 66, 67, 68, 69, 70, 71, 72, 73, 74, 75, 76, 77, 78, 79, 80, 81, 82, 83, 84, 85, 86, 87, 88, 89, 90, 91, 92, 93, 94, 95, 96, 97, 98, 99, 100, 101, 102, 103, 104, 105, 106, 107, 108, 109, 110, 111, 112, 113, 114, 115, 116, 117, 118, 119, 120, 121, 122, 123, 124, 125, 126, 127, 128, 129, 130, 131, 132, 133, 134, 135, 136, 137, 138, 139, 140, 141, 142, 143, 144, 145, 146, 147, 148, 149, 150, 151, 152, 153, 154, 155, 156, 157, 158, 159, 160, 161, 162, 163, 164, 165, 166, 167, 168, 169, 170, 171, 172, 173, 174, 175, 176, 177, 178, 179, 180, 181, 182, 183, 184, 185, 186, 187, 188, 189, 190, 191, 192, 193, 194, 195, 196, 197, 198, 199, 200, 201, 202, 203, 204, 205, 206, 207, 208, 209, 210, 211, 212, 213, 214, 215, 216, 217, 218, 219, 220, 221, 222, 223, 224, 225, 226, 227, 228, 229, 230, 231, 232, 233, 234, 235, 236, 237, 238, 239, 240, 241, 242, 243, 244, 245, 246, 247, 248, 249, 250, 251, 252, 253, 254, 255, 256],
      "AcquisitionTime": ["150749.995000", "150751.995000", "150753.995000", "150755.995000", "150757.995000", "150759.995000", "150801.995000", "150803.995000", "150805.995000", "150807.995000", "150809.995000", "150811.995000", "150813.995000", "150815.995000", "150817.995000", "150819.995000", "150821.995000", "150823.995000", "150825.995000", "150827.995000", "150829.995000", "150831.995000", "150833.995000", "150835.995000", "150837.995000", "150839.995000", "150841.995000", "150843.995000", "150845.995000", "150847.995000", "150849.995000", "150851.995000", "150853.995000", "150855.995000", "150857.995000", "150859.995000", "150901.995000", "150903.995000", "150905.995000", "150907.995000", "150909.995000", "150911.995000", "150913.995000", "150915.995000", "150917.995000", "150919.995000", "150921.995000", "150923.995000", "150925.995000", "150927.995000", "150929.995000", "150931.995000", "150933.995000", "150935.995000", "150937.995000", "150939.995000", "150941.995000", "150943.995000", "150945.995000", "150947.995000", "150949.995000", "150951.995000", "150953.995000", "150955.995000", "150957.995000", "150959.995000", "151001.995000", "151003.995000", "151005.995000", "151007.995000", "151009.995000", "151011.995000", "151013.995000", "151015.995000", "151017.995000", "151019.995000", "151021.995000", "151023.995000", "151025.995000", "151027.995000", "151029.995000", "151031.995000", "151033.995000", "151035.995000", "151037.995000", "151039.995000", "151041.995000", "151043.995000", "151045.995000", "151047.995000", "151049.995000", "151051.995000", "151053.995000", "151055.995000", "151057.995000", "151059.995000", "151101.995000", "151103.995000", "151105.995000", "151107.995000", "151109.995000", "151111.995000", "151113.995000", "151115.995000", "151117.995000", "151119.995000", "151121.995000", "151123.995000", "151125.995000", "151127.995000", "151129.995000", "151131.995000", "151133.995000", "151135.995000", "151137.995000", "151139.995000", "151141.995000", "151143.995000", "151145.995000", "151147.995000", "151149.995000", "151151.995000", "151153.995000", "151155.995000", "151157.995000", "151159.995000", "151201.995000", "151203.995000", "151205.995000", "151207.995000", "151209.995000", "151211.995000", "151213.995000", "151215.995000", "151217.995000", "151219.995000", "151221.995000", "151223.995000", "151225.995000", "151227.995000", "151229.995000", "151231.995000", "151233.995000", "151235.995000", "151237.995000", "151239.995000", "151241.995000", "151243.995000", "151245.995000", "151247.995000", "151249.995000", "151251.995000", "151253.995000", "151255.995000", "151257.995000", "151259.995000", "151301.995000", "151303.995000", "151305.995000", "151307.995000", "151309.995000", "151311.995000", "151313.995000", "151315.995000", "151317.995000", "151319.995000", "151321.995000", "151323.995000", "151325.995000", "151327.995000", "151329.995000", "151331.995000", "151333.995000", "151335.995000", "151337.995000", "151339.995000", "151341.995000", "151343.995000", "151345.995000", "151347.995000", "151349.995000", "151351.995000", "151353.995000", "151355.995000", "151357.995000", "151359.995000", "151401.995000", "151403.995000", "151405.995000", "151407.995000", "151409.995000", "151411.995000", "151413.995000", "151415.995000", "151417.995000", "151419.995000", "151421.995000", "151423.995000", "151425.995000", "151427.995000", "151429.995000", "151431.995000", "151433.995000", "151435.995000", "151437.995000", "151439.995000", "151441.995000", "151443.995000", "151445.995000", "151447.995000", "151449.995000", "151451.995000", "151453.995000", "151455.995000", "151457.995000", "151459.995000", "151501.995000", "151503.995000", "151505.995000", "151507.995000", "151509.995000", "151511.995000", "151513.995000", "151515.995000", "151517.995000", "151519.995000", "151521.995000", "151523.995000", "151525.995000", "151527.995000", "151529.995000", "151531.995000", "151533.995000", "151535.995000", "151537.995000", "151539.995000", "151541.995000", "151543.995000", "151545.995000", "151547.995000", "151549.995000", "151551.995000", "151553.995000", "151555.995000", "151557.995000", "151559.995000", "151601.995000", "151603.995000", "151605.995000", "151607.995000", "151609.995000", "151611.995000", "151613.995000", "151615.995000", "151617.995000", "151619.995000"],
      "ContentTime": ["150751.994000", "150753.488000", "150755.489000", "150757.489000", "150759.488000", "150801.488000", "150803.488000", "150805.488000", "150807.490000", "150809.489000", "150811.989000", "150813.488000", "150815.488000", "150817.489000", "150819.488000", "150821.488000", "150823.490000", "150825.490000", "150827.489000", "150829.488000", "150831.489000", "150833.489000", "150835.488000", "150837.489000", "150839.489000", "150841.489000", "150843.489000", "150845.489000", "150847.488000", "150849.488000", "150851.488000", "150853.488000", "150855.488000", "150857.489000", "150859.489000", "150901.490000", "150903.488000", "150905.488000", "150907.488000", "150909.488000", "150911.488000", "150913.488000", "150915.489000", "150917.490000", "150919.490000", "150921.489000", "150923.488000", "150925.489000", "150927.489000", "150929.488000", "150931.489000", "150933.490000", "150935.490000", "150937.489000", "150939.489000", "150941.488000", "150943.489000", "150945.488000", "150947.489000", "150949.488000", "150951.489000", "150953.489000", "150955.489000", "150957.488000", "150959.489000", "151001.489000", "151003.489000", "151005.488000", "151007.488000", "151009.489000", "151011.489000", "151013.488000", "151015.488000", "151017.488000", "151019.488000", "151021.489000", "151023.989000", "151025.489000", "151027.490000", "151029.989000", "151031.488000", "151033.488000", "151035.489000", "151037.489000", "151039.489000", "151041.989000", "151043.990000", "151045.490000", "151047.489000", "151049.488000", "151051.988000", "151053.488000", "151055.489000", "151057.489000", "151059.489000", "151101.489000", "151103.489000", "151105.989000", "151107.489000", "151109.488000", "151111.488000", "151113.488000", "151115.989000", "151117.489000", "151119.489000", "151121.490000", "151123.488000", "151125.489000", "151127.488000", "151129.489000", "151131.489000", "151133.488000", "151135.488000", "151137.989000", "151139.489000", "151141.489000", "151143.488000", "151145.489000", "151147.489000", "151149.489000", "151151.989000", "151153.490000", "151155.490000", "151157.488000", "151159.489000", "151201.488000", "151203.488000", "151205.489000", "151207.489000", "151209.488000", "151211.490000", "151213.490000", "151215.504000", "151217.488000", "151219.488000", "151221.488000", "151223.988000", "151225.488000", "151227.488000", "151229.490000", "151231.490000", "151233.489000", "151235.489000", "151237.488000", "151239.489000", "151241.489000", "151243.488000", "151245.489000", "151247.490000", "151249.490000", "151251.989000", "151253.488000", "151255.488000", "151257.489000", "151259.489000", "151301.488000", "151303.489000", "151305.489000", "151307.989000", "151309.989000", "151311.488000", "151313.988000", "151315.489000", "151317.489000", "151319.489000", "151321.490000", "151323.490000", "151325.489000", "151327.488000", "151329.489000", "151331.489000", "151333.489000", "151335.488000", "151337.488000", "151339.490000", "151341.489000", "151343.489000", "151345.489000", "151347.488000", "151349.489000", "151351.489000", "151353.488000", "151355.489000", "151357.489000", "151359.490000", "151401.488000", "151403.489000", "151405.489000", "151407.489000", "151409.488000", "151411.489000", "151413.490000", "151415.989000", "151417.489000", "151419.489000", "151421.488000", "151423.489000", "151425.988000", "151427.489000", "151429.489000", "151431.489000", "151433.990000", "151435.489000", "151437.489000", "151439.488000", "151441.988000", "151443.488000", "151445.488000", "151447.488000", "151449.489000", "151451.489000", "151453.489000", "151455.488000", "151457.488000", "151459.988000", "151501.488000", "151503.488000", "151505.990000", "151507.489000", "151509.490000", "151511.489000", "151513.489000", "151515.489000", "151517.488000", "151519.488000", "151521.488000", "151523.490000", "151525.490000", "151527.489000", "151529.489000", "151531.989000", "151533.989000", "151535.489000", "151537.488000", "151539.489000", "151541.490000", "151543.490000", "151545.489000", "151547.488000", "151549.489000", "151551.988000", "151553.488000", "151555.489000", "151557.488000", "151559.490000", "151601.490000", "151603.489000", "151605.488000", "151607.989000", "151609.489000", "151611.489000", "151613.489000", "151615.489000", "151617.489000", "151619.489000", "151621.465000"],
      "InstanceCreationTime": ["150751.994000", "150753.488000", "150755.489000", "150757.489000", "150759.488000", "150801.488000", "150803.488000", "150805.488000", "150807.490000", "150809.489000", "150811.989000", "150813.488000", "150815.488000", "150817.489000", "150819.488000", "150821.488000", "150823.490000", "150825.490000", "150827.489000", "150829.488000", "150831.489000", "150833.489000", "150835.488000", "150837.489000", "150839.489000", "150841.489000", "150843.489000", "150845.489000", "150847.488000", "150849.488000", "150851.488000", "150853.488000", "150855.488000", "150857.489000", "150859.489000", "150901.490000", "150903.488000", "150905.488000", "150907.488000", "150909.488000", "150911.488000", "150913.488000", "150915.489000", "150917.490000", "150919.490000", "150921.489000", "150923.488000", "150925.489000", "150927.489000", "150929.488000", "150931.489000", "150933.490000", "150935.490000", "150937.489000", "150939.489000", "150941.488000", "150943.489000", "150945.488000", "150947.489000", "150949.488000", "150951.489000", "150953.489000", "150955.489000", "150957.488000", "150959.489000", "151001.489000", "151003.489000", "151005.488000", "151007.488000", "151009.489000", "151011.489000", "151013.488000", "151015.488000", "151017.488000", "151019.488000", "151021.489000", "151023.989000", "151025.489000", "151027.490000", "151029.989000", "151031.488000", "151033.488000", "151035.489000", "151037.489000", "151039.489000", "151041.989000", "151043.990000", "151045.490000", "151047.489000", "151049.488000", "151051.988000", "151053.488000", "151055.489000", "151057.489000", "151059.489000", "151101.489000", "151103.489000", "151105.989000", "151107.489000", "151109.488000", "151111.488000", "151113.488000", "151115.989000", "151117.489000", "151119.489000", "151121.490000", "151123.488000", "151125.489000", "151127.488000", "151129.489000", "151131.489000", "151133.488000", "151135.488000", "151137.989000", "151139.489000", "151141.489000", "151143.488000", "151145.489000", "151147.489000", "151149.489000", "151151.989000", "151153.490000", "151155.490000", "151157.488000", "151159.489000", "151201.488000", "151203.488000", "151205.489000", "151207.489000", "151209.488000", "151211.490000", "151213.490000", "151215.504000", "151217.488000", "151219.488000", "151221.488000", "151223.988000", "151225.488000", "151227.488000", "151229.490000", "151231.490000", "151233.489000", "151235.489000", "151237.488000", "151239.489000", "151241.489000", "151243.488000", "151245.489000", "151247.490000", "151249.490000", "151251.989000", "151253.488000", "151255.488000", "151257.489000", "151259.489000", "151301.488000", "151303.489000", "151305.489000", "151307.989000", "151309.989000", "151311.488000", "151313.988000", "151315.489000", "151317.489000", "151319.489000", "151321.490000", "151323.490000", "151325.489000", "151327.488000", "151329.489000", "151331.489000", "151333.489000", "151335.488000", "151337.488000", "151339.490000", "151341.489000", "151343.489000", "151345.489000", "151347.488000", "151349.489000", "151351.489000", "151353.488000", "151355.489000", "151357.489000", "151359.490000", "151401.488000", "151403.489000", "151405.489000", "151407.489000", "151409.488000", "151411.489000", "151413.490000", "151415.989000", "151417.489000", "151419.489000", "151421.488000", "151423.489000", "151425.988000", "151427.489000", "151429.489000", "151431.489000", "151433.990000", "151435.489000", "151437.489000", "151439.488000", "151441.988000", "151443.488000", "151445.488000", "151447.488000", "151449.489000", "151451.489000", "151453.489000", "151455.488000", "151457.488000", "151459.988000", "151501.488000", "151503.488000", "151505.990000", "151507.489000", "151509.490000", "151511.489000", "151513.489000", "151515.489000", "151517.488000", "151519.488000", "151521.488000", "151523.490000", "151525.490000", "151527.489000", "151529.489000", "151531.989000", "151533.989000", "151535.489000", "151537.488000", "151539.489000", "151541.490000", "151543.490000", "151545.489000", "151547.488000", "151549.489000", "151551.988000", "151553.488000", "151555.489000", "151557.488000", "151559.490000", "151601.490000", "151603.489000", "151605.488000", "151607.989000", "151609.489000", "151611.489000", "151613.489000", "151615.489000", "151617.489000", "151619.489000", "151621.465000"],
      "InstanceNumber": [1, 2, 3, 4, 5, 6, 7, 8, 9, 10, 11, 12, 13, 14, 15, 16, 17, 18, 19, 20, 21, 22, 23, 24, 25, 26, 27, 28, 29, 30, 31, 32, 33, 34, 35, 36, 37, 38, 39, 40, 41, 42, 43, 44, 45, 46, 47, 48, 49, 50, 51, 52, 53, 54, 55, 56, 57, 58, 59, 60, 61, 62, 63, 64, 65, 66, 67, 68, 69, 70, 71, 72, 73, 74, 75, 76, 77, 78, 79, 80, 81, 82, 83, 84, 85, 86, 87, 88, 89, 90, 91, 92, 93, 94, 95, 96, 97, 98, 99, 100, 101, 102, 103, 104, 105, 106, 107, 108, 109, 110, 111, 112, 113, 114, 115, 116, 117, 118, 119, 120, 121, 122, 123, 124, 125, 126, 127, 128, 129, 130, 131, 132, 133, 134, 135, 136, 137, 138, 139, 140, 141, 142, 143, 144, 145, 146, 147, 148, 149, 150, 151, 152, 153, 154, 155, 156, 157, 158, 159, 160, 161, 162, 163, 164, 165, 166, 167, 168, 169, 170, 171, 172, 173, 174, 175, 176, 177, 178, 179, 180, 181, 182, 183, 184, 185, 186, 187, 188, 189, 190, 191, 192, 193, 194, 195, 196, 197, 198, 199, 200, 201, 202, 203, 204, 205, 206, 207, 208, 209, 210, 211, 212, 213, 214, 215, 216, 217, 218, 219, 220, 221, 222, 223, 224, 225, 226, 227, 228, 229, 230, 231, 232, 233, 234, 235, 236, 237, 238, 239, 240, 241, 242, 243, 244, 245, 246, 247, 248, 249, 250, 251, 252, 253, 254, 255, 256],
      "LargestImagePixelValue": [4095, 4095, 4095, 4095, 4095, 4095, 4095, 4095, 4095, 4095, 4095, 4095, 4095, 4095, 4093, 4095, 4095, 4095, 4095, 4095, 4095, 4095, 4094, 4095, 4066, 4087, 4095, 4095, 4095, 4095, 4067, 4076, 4095, 4076, 4095, 4095, 4095, 4095, 4095, 4095, 4095, 4095, 4095, 4095, 4095, 4089, 4095, 4095, 4095, 4095, 4095, 4095, 4095, 4095, 4095, 4095, 4081, 4089, 4095, 4095, 4095, 4084, 4095, 4095, 4095, 4095, 4090, 4092, 4073, 4095, 4065, 4066, 4094, 4083, 4078, 4049, 4080, 4053, 4031, 4056, 4030, 4062, 4068, 4064, 4056, 4051, 4095, 4041, 4056, 4052, 4092, 4085, 4081, 4077, 4036, 4064, 4069, 4041, 4062, 4076, 4060, 4073, 4049, 4095, 4062, 4047, 4071, 4070, 4055, 4090, 4065, 4082, 4051, 4045, 4066, 4056, 4034, 4042, 4053, 4040, 4036, 4052, 4074, 4044, 4057, 4042, 4061, 4056, 4057, 4057, 4064, 4058, 4031, 4095, 4095, 4095, 4090, 4060, 4095, 4051, 4055, 4062, 4052, 4056, 4042, 4070, 4053, 4060, 4063, 4046, 4055, 4059, 4069, 4043, 4045, 4039, 4037, 4044, 4068, 4041, 4026, 4023, 4066, 4035, 4017, 4007, 4029, 4009, 4009, 4026, 4034, 4018, 4067, 4030, 4031, 4042, 4005, 4019, 4058, 4030, 4044, 4036, 4054, 4047, 4039, 4061, 4048, 4057, 4050, 4074, 4039, 4050, 4012, 4016, 4044, 4021, 4023, 4002, 4034, 3988, 4024, 4033, 4021, 4083, 4032, 4019, 4039, 3997, 4031, 3996, 4032, 4043, 4038, 4056, 4020, 3992, 3978, 3999, 4005, 4029, 3996, 3986, 4006, 4039, 4031, 3981, 3977, 3985, 3948, 3989, 4013, 3974, 3972, 3986, 3988, 3990, 3953, 4051, 4060, 4095, 4095, 3995, 4030, 3999, 4001, 4039, 4084, 4049, 4014, 3997, 3986, 4064, 4031, 4054, 4082, 4055],
      "WindowCenter": [884.0, 881.0, 881.0, 880.0, 880.0, 879.0, 878.0, 877.0, 878.0, 879.0, 879.0, 878.0, 878.0, 879.0, 880.0, 878.0, 877.0, 877.0, 878.0, 877.0, 877.0, 878.0, 878.0, 878.0, 877.0, 876.0, 875.0, 876.0, 876.0, 877.0, 876.0, 876.0, 876.0, 877.0, 878.0, 878.0, 879.0, 878.0, 878.0, 878.0, 877.0, 877.0, 877.0, 879.0, 880.0, 878.0, 877.0, 877.0, 878.0, 878.0, 878.0, 877.0, 877.0, 877.0, 876.0, 876.0, 875.0, 876.0, 877.0, 877.0, 876.0, 876.0, 876.0, 877.0, 878.0, 878.0, 878.0, 876.0, 875.0, 875.0, 876.0, 878.0, 878.0, 878.0, 878.0, 877.0, 877.0, 877.0, 876.0, 875.0, 874.0, 875.0, 876.0, 877.0, 878.0, 877.0, 877.0, 876.0, 877.0, 876.0, 878.0, 879.0, 879.0, 877.0, 876.0, 876.0, 878.0, 880.0, 879.0, 879.0, 878.0, 878.0, 877.0, 877.0, 876.0, 878.0, 879.0, 879.0, 878.0, 878.0, 878.0, 877.0, 877.0, 876.0, 877.0, 876.0, 875.0, 874.0, 875.0, 876.0, 875.0, 875.0, 875.0, 876.0, 877.0, 877.0, 876.0, 876.0, 877.0, 877.0, 877.0, 878.0, 877.0, 878.0, 878.0, 876.0, 875.0, 876.0, 877.0, 876.0, 876.0, 876.0, 877.0, 878.0, 878.0, 878.0, 877.0, 878.0, 879.0, 878.0, 878.0, 878.0, 877.0, 877.0, 878.0, 879.0, 878.0, 877.0, 877.0, 878.0, 877.0, 876.0, 876.0, 877.0, 876.0, 875.0, 875.0, 876.0, 876.0, 876.0, 876.0, 876.0, 877.0, 878.0, 878.0, 875.0, 875.0, 875.0, 876.0, 877.0, 877.0, 878.0, 877.0, 876.0, 876.0, 877.0, 878.0, 877.0, 875.0, 875.0, 878.0, 878.0, 878.0, 876.0, 876.0, 877.0, 878.0, 878.0, 878.0, 876.0, 875.0, 876.0, 878.0, 879.0, 879.0, 878.0, 877.0, 878.0, 877.0, 877.0, 877.0, 877.0, 877.0, 877.0, 876.0, 874.0, 874.0, 875.0, 876.0, 876.0, 876.0, 876.0, 876.0, 876.0, 877.0, 877.0, 876.0, 876.0, 877.0, 878.0, 878.0, 877.0, 877.0, 877.0, 877.0, 877.0, 877.0, 878.0, 878.0, 879.0, 881.0, 878.0, 876.0, 875.0, 876.0, 878.0, 878.0, 876.0, 875.0, 875.0, 878.0, 879.0, 879.0, 878.0, 878.0, 879.0],
      "WindowWidth": [1932.0, 1926.0, 1924.0, 1922.0, 1921.0, 1919.0, 1915.0, 1914.0, 1916.0, 1918.0, 1919.0, 1917.0, 1918.0, 1921.0, 1921.0, 1916.0, 1914.0, 1915.0, 1917.0, 1915.0, 1914.0, 1917.0, 1918.0, 1917.0, 1913.0, 1910.0, 1909.0, 1911.0, 1913.0, 1915.0, 1912.0, 1912.0, 1912.0, 1913.0, 1916.0, 1917.0, 1919.0, 1918.0, 1916.0, 1916.0, 1915.0, 1914.0, 1915.0, 1920.0, 1922.0, 1918.0, 1915.0, 1915.0, 1917.0, 1917.0, 1917.0, 1915.0, 1915.0, 1915.0, 1912.0, 1911.0, 1909.0, 1910.0, 1914.0, 1913.0, 1911.0, 1911.0, 1912.0, 1914.0, 1916.0, 1919.0, 1917.0, 1912.0, 1908.0, 1910.0, 1912.0, 1916.0, 1919.0, 1918.0, 1917.0, 1915.0, 1915.0, 1914.0, 1911.0, 1907.0, 1907.0, 1909.0, 1911.0, 1915.0, 1915.0, 1913.0, 1914.0, 1912.0, 1913.0, 1912.0, 1916.0, 1921.0, 1919.0, 1915.0, 1911.0, 1912.0, 1918.0, 1921.0, 1920.0, 1919.0, 1916.0, 1915.0, 1915.0, 1914.0, 1912.0, 1915.0, 1919.0, 1919.0, 1917.0, 1918.0, 1917.0, 1915.0, 1913.0, 1912.0, 1913.0, 1911.0, 1908.0, 1906.0, 1909.0, 1910.0, 1909.0, 1909.0, 1909.0, 1911.0, 1914.0, 1913.0, 1912.0, 1911.0, 1914.0, 1915.0, 1916.0, 1916.0, 1913.0, 1915.0, 1915.0, 1912.0, 1909.0, 1910.0, 1914.0, 1911.0, 1910.0, 1909.0, 1913.0, 1917.0, 1917.0, 1916.0, 1914.0, 1916.0, 1919.0, 1917.0, 1915.0, 1915.0, 1913.0, 1912.0, 1914.0, 1918.0, 1915.0, 1913.0, 1913.0, 1915.0, 1914.0, 1911.0, 1912.0, 1912.0, 1910.0, 1907.0, 1908.0, 1910.0, 1911.0, 1911.0, 1911.0, 1910.0, 1913.0, 1917.0, 1915.0, 1909.0, 1907.0, 1908.0, 1911.0, 1913.0, 1914.0, 1915.0, 1914.0, 1910.0, 1910.0, 1914.0, 1916.0, 1913.0, 1908.0, 1910.0, 1915.0, 1917.0, 1915.0, 1910.0, 1910.0, 1913.0, 1915.0, 1917.0, 1915.0, 1911.0, 1908.0, 1909.0, 1914.0, 1919.0, 1918.0, 1914.0, 1914.0, 1914.0, 1913.0, 1913.0, 1912.0, 1912.0, 1913.0, 1913.0, 1909.0, 1905.0, 1905.0, 1908.0, 1910.0, 1911.0, 1911.0, 1909.0, 1909.0, 1911.0, 1912.0, 1911.0, 1910.0, 1910.0, 1912.0, 1916.0, 1915.0, 1912.0, 1911.0, 1912.0, 1911.0, 1911.0, 1913.0, 1915.0, 1916.0, 1919.0, 1923.0, 1916.0, 1909.0, 1907.0, 1911.0, 1915.0, 1915.0, 1909.0, 1906.0, 1908.0, 1914.0, 1918.0, 1918.0, 1916.0, 1916.0, 1917.0]
    },
    "slices": {}
  }
}