{
 "AcquisitionMatrixPE": 100,
 "AcquisitionNumber": 1,
 "AcquisitionTime": "15:58:24.227500",
 "BandwidthPerPixelPhaseEncode": 18.519,
 "BaseResolution": 100,
 "BodyPartExamined": "BRAIN",
 "ConsistencyInfo": "N4_VE11C_LATEST_20160120",
 "ConversionSoftware": "dcm2niix",
 "ConversionSoftwareVersion": "v1.0.20180622 GCC4.9.2",
 "DerivedVendorReportedEchoSpacing": 0.000539986,
 "DeviceSerialNumber": "166078",
 "DwellTime": 2.1e-06,
 "EchoTime": 0.034,
 "EchoTrainLength": 100,
 "EffectiveEchoSpacing": 0.000539986,
 "FlipAngle": 90,
 "ImageOrientationPatientDICOM": [
  1,
  0,
  0,
  0,
  0.982613,
  -0.185667
 ],
 "ImageType": [
  "ORIGINAL",
  "PRIMARY",
  "M",
  "ND",
  "MOSAIC"
 ],
 "InPlanePhaseEncodingDirectionDICOM": "COL",
 "InstitutionAddress": "Street_StreetNo_Bei_Jing_District_CN_ZIP",
 "InstitutionName": "BeiJing_Normal_University",
 "InstitutionalDepartmentName": "Department",
 "MRAcquisitionType": "2D",
 "MagneticFieldStrength": 3,
 "Manufacturer": "Siemens",
 "ManufacturersModelName": "Prisma",
 "Modality": "MR",
 "MultibandAccelerationFactor": 3,
 "PartialFourier": 1,
 "PatientPosition": "HFS",
 "PercentPhaseFOV": 100,
 "PhaseEncodingDirection": "j-",
 "PhaseEncodingSteps": 100,
 "PhaseResolution": 1,
 "PixelBandwidth": 2380,
 "ProcedureStepDescription": "BNU_P2018_64CH_Zhen.ZongLei",
 "ProtocolName": "bold_100x100_s3_2x2x2_static_256",
 "PulseSequenceDetails": "%SiemensSeq%_ep2d_bold",
 "ReceiveCoilActiveElements": "HC1-7;NC1",
 "ReceiveCoilName": "HeadNeck_64",
 "ReconMatrixPE": 100,
 "RepetitionTime": 2,
 "SAR": 0.0862686,
 "ScanOptions": "FS",
 "ScanningSequence": "EP",
 "SequenceName": "_epfid2d1_100",
 "SequenceVariant": "SK",
 "SeriesDescription": "bold_100x100_s3_2x2x2_static_256",
 "SeriesNumber": 12,
 "ShimSetting": [
  -5452,
  -11487,
  -1226,
  373,
  2,
  -131,
  -150,
  66
 ],
 "SliceThickness": 2,
 "SliceTiming": [
  1.485,
  0,
  0.99,
  0.0825,
  1.0725,
  0.165,
  1.155,
  0.2475,
  1.2375,
  0.33,
  1.32,
  0.4125,
  1.4025,
  0.5775,
  1.5675,
  0.66,
  1.65,
  0.7425,
  1.7325,
  0.825,
  1.815,
  0.9075,
  1.8975,
  0.495,
  1.485,
  0,
  0.99,
  0.0825,
  1.0725,
  0.165,
  1.155,
  0.2475,
  1.2375,
  0.33,
  1.32,
  0.4125,
  1.4025,
  0.5775,
  1.5675,
  0.66,
  1.65,
  0.7425,
  1.7325,
  0.825,
  1.815,
  0.9075,
  1.8975,
  0.495,
  1.485,
  0,
  0.99,
  0.0825,
  1.0725,
  0.165,
  1.155,
  0.2475,
  1.2375,
  0.33,
  1.32,
  0.4125,
  1.4025,
  0.5775,
  1.5675,
  0.66,
  1.65,
  0.7425,
  1.7325,
  0.825,
  1.815,
  0.9075,
  1.8975,
  0.495
 ],
 "SoftwareVersions": "syngo_MR_E11",
 "SpacingBetweenSlices": 2,
 "StationName": "AWP166078",
 "TaskName": "imagenet",
 "TotalReadoutTime": 0.0534586,
 "TxRefAmp": 228.481,
 "dcmmeta_affine": [
  [
   -2.0,
   0.0,
   0.0,
   100.0
  ],
  [
   0.0,
   1.9652255773544312,
   -0.37133321166038513,
   -84.06312561035156
  ],
  [
   0.0,
   0.37133321166038513,
   1.9652255773544312,
   -68.39456939697266
  ],
  [
   0.0,
   0.0,
   0.0,
   1.0
  ]
 ],
 "dcmmeta_reorient_transform": [
  [
   0.0,
   -1.0,
   0.0,
   99.0
  ],
  [
   1.0,
   0.0,
   0.0,
   0.0
  ],
  [
   0.0,
   0.0,
   1.0,
   0.0
  ],
  [
   0.0,
   0.0,
   0.0,
   1.0
  ]
 ],
 "dcmmeta_shape": [
  100,
  100,
  72,
  256
 ],
 "dcmmeta_slice_dim": 2,
 "dcmmeta_version": 0.6,
 "global": {
  "const": {
   "AcquisitionMatrix": [
    100,
    0,
    0,
    100
   ],
   "AngioFlag": "N",
   "BitsAllocated": 16,
   "BitsStored": 12,
   "BodyPartExamined": "BRAIN",
   "Columns": 900,
   "EchoNumbers": 1,
   "EchoTime": 34.0,
   "EchoTrainLength": 100,
   "FlipAngle": 90.0,
   "HighBit": 11,
   "ImageOrientationPatient": [
    1.0,
    0.0,
    0.0,
    0.0,
    0.9826127972607,
    -0.1856666115905
   ],
   "ImagePositionPatient": [
    -900.0,
    -896.58444962539,
    116.90070879329
   ],
   "ImageType": [
    "ORIGINAL",
    "PRIMARY",
    "M",
    "ND",
    "MOSAIC"
   ],
   "ImagedNucleus": "1H",
   "ImagingFrequency": 123.257756,
   "InPlanePhaseEncodingDirection": "COL",
   "MRAcquisitionType": "2D",
   "MagneticFieldStrength": 3.0,
   "Manufacturer": "SIEMENS",
   "ManufacturerModelName": "Prisma",
   "Modality": "MR",
   "NumberOfAverages": 1.0,
   "NumberOfPhaseEncodingSteps": 100,
   "PercentPhaseFieldOfView": 100.0,
   "PercentSampling": 100.0,
   "PerformedProcedureStepStartTime": "144208.776000",
   "PhotometricInterpretation": "MONOCHROME2",
   "PixelBandwidth": 2380.0,
   "PixelRepresentation": 0,
   "PixelSpacing": [
    2.0,
    2.0
   ],
   "ProtocolName": "bold_100x100_s3_2x2x2_static_256",
   "RepetitionTime": 2000.0,
   "Rows": 900,
   "SAR": 0.08626863862993,
   "SamplesPerPixel": 1,
   "ScanOptions": "FS",
   "ScanningSequence": "EP",
   "SequenceName": "*epfid2d1_100",
   "SequenceVariant": "SK",
   "SeriesDescription": "bold_100x100_s3_2x2x2_static_256",
   "SeriesNumber": 12,
   "SeriesTime": "155826.513000",
   "SliceLocation": -51.59766429757,
   "SliceThickness": 2.0,
   "SmallestImagePixelValue": 0,
   "SoftwareVersions": "syngo MR E11",
   "SpacingBetweenSlices": 1.9999999496976,
   "SpecificCharacterSet": "ISO_IR 100",
   "StudyID": "1",
   "StudyTime": "144208.691000",
   "TransmitCoilName": "Body",
   "VariableFlipAngleFlag": "N",
   "WindowCenterWidthExplanation": "Algo1",
   "dBdt": 0.0
  },
  "slices": {}
 },
 "time": {
  "samples": {
   "AcquisitionNumber": [
    1,
    2,
    3,
    4,
    5,
    6,
    7,
    8,
    9,
    10,
    11,
    12,
    13,
    14,
    15,
    16,
    17,
    18,
    19,
    20,
    21,
    22,
    23,
    24,
    25,
    26,
    27,
    28,
    29,
    30,
    31,
    32,
    33,
    34,
    35,
    36,
    37,
    38,
    39,
    40,
    41,
    42,
    43,
    44,
    45,
    46,
    47,
    48,
    49,
    50,
    51,
    52,
    53,
    54,
    55,
    56,
    57,
    58,
    59,
    60,
    61,
    62,
    63,
    64,
    65,
    66,
    67,
    68,
    69,
    70,
    71,
    72,
    73,
    74,
    75,
    76,
    77,
    78,
    79,
    80,
    81,
    82,
    83,
    84,
    85,
    86,
    87,
    88,
    89,
    90,
    91,
    92,
    93,
    94,
    95,
    96,
    97,
    98,
    99,
    100,
    101,
    102,
    103,
    104,
    105,
    106,
    107,
    108,
    109,
    110,
    111,
    112,
    113,
    114,
    115,
    116,
    117,
    118,
    119,
    120,
    121,
    122,
    123,
    124,
    125,
    126,
    127,
    128,
    129,
    130,
    131,
    132,
    133,
    134,
    135,
    136,
    137,
    138,
    139,
    140,
    141,
    142,
    143,
    144,
    145,
    146,
    147,
    148,
    149,
    150,
    151,
    152,
    153,
    154,
    155,
    156,
    157,
    158,
    159,
    160,
    161,
    162,
    163,
    164,
    165,
    166,
    167,
    168,
    169,
    170,
    171,
    172,
    173,
    174,
    175,
    176,
    177,
    178,
    179,
    180,
    181,
    182,
    183,
    184,
    185,
    186,
    187,
    188,
    189,
    190,
    191,
    192,
    193,
    194,
    195,
    196,
    197,
    198,
    199,
    200,
    201,
    202,
    203,
    204,
    205,
    206,
    207,
    208,
    209,
    210,
    211,
    212,
    213,
    214,
    215,
    216,
    217,
    218,
    219,
    220,
    221,
    222,
    223,
    224,
    225,
    226,
    227,
    228,
    229,
    230,
    231,
    232,
    233,
    234,
    235,
    236,
    237,
    238,
    239,
    240,
    241,
    242,
    243,
    244,
    245,
    246,
    247,
    248,
    249,
    250,
    251,
    252,
    253,
    254,
    255,
    256
   ],
   "AcquisitionTime": [
    "155824.227500",
    "155826.227500",
    "155828.227500",
    "155830.227500",
    "155832.227500",
    "155834.227500",
    "155836.227500",
    "155838.227500",
    "155840.227500",
    "155842.227500",
    "155844.227500",
    "155846.227500",
    "155848.227500",
    "155850.227500",
    "155852.227500",
    "155854.227500",
    "155856.227500",
    "155858.227500",
    "155900.227500",
    "155902.227500",
    "155904.227500",
    "155906.227500",
    "155908.227500",
    "155910.227500",
    "155912.227500",
    "155914.227500",
    "155916.227500",
    "155918.227500",
    "155920.227500",
    "155922.227500",
    "155924.227500",
    "155926.227500",
    "155928.227500",
    "155930.227500",
    "155932.227500",
    "155934.227500",
    "155936.227500",
    "155938.227500",
    "155940.227500",
    "155942.227500",
    "155944.227500",
    "155946.227500",
    "155948.227500",
    "155950.227500",
    "155952.227500",
    "155954.227500",
    "155956.227500",
    "155958.227500",
    "160000.227500",
    "160002.227500",
    "160004.227500",
    "160006.227500",
    "160008.227500",
    "160010.227500",
    "160012.227500",
    "160014.227500",
    "160016.227500",
    "160018.227500",
    "160020.227500",
    "160022.227500",
    "160024.227500",
    "160026.227500",
    "160028.227500",
    "160030.227500",
    "160032.227500",
    "160034.227500",
    "160036.227500",
    "160038.227500",
    "160040.227500",
    "160042.227500",
    "160044.227500",
    "160046.227500",
    "160048.227500",
    "160050.227500",
    "160052.227500",
    "160054.227500",
    "160056.227500",
    "160058.227500",
    "160100.227500",
    "160102.227500",
    "160104.227500",
    "160106.227500",
    "160108.227500",
    "160110.227500",
    "160112.227500",
    "160114.227500",
    "160116.227500",
    "160118.227500",
    "160120.227500",
    "160122.227500",
    "160124.227500",
    "160126.227500",
    "160128.227500",
    "160130.227500",
    "160132.227500",
    "160134.227500",
    "160136.227500",
    "160138.227500",
    "160140.227500",
    "160142.227500",
    "160144.227500",
    "160146.227500",
    "160148.227500",
    "160150.227500",
    "160152.227500",
    "160154.227500",
    "160156.227500",
    "160158.227500",
    "160200.227500",
    "160202.227500",
    "160204.227500",
    "160206.227500",
    "160208.227500",
    "160210.227500",
    "160212.227500",
    "160214.227500",
    "160216.227500",
    "160218.227500",
    "160220.227500",
    "160222.227500",
    "160224.227500",
    "160226.227500",
    "160228.227500",
    "160230.227500",
    "160232.227500",
    "160234.227500",
    "160236.227500",
    "160238.227500",
    "160240.227500",
    "160242.227500",
    "160244.227500",
    "160246.227500",
    "160248.227500",
    "160250.227500",
    "160252.227500",
    "160254.227500",
    "160256.227500",
    "160258.227500",
    "160300.227500",
    "160302.227500",
    "160304.227500",
    "160306.227500",
    "160308.227500",
    "160310.227500",
    "160312.227500",
    "160314.227500",
    "160316.227500",
    "160318.227500",
    "160320.227500",
    "160322.227500",
    "160324.227500",
    "160326.227500",
    "160328.227500",
    "160330.227500",
    "160332.227500",
    "160334.227500",
    "160336.227500",
    "160338.227500",
    "160340.227500",
    "160342.227500",
    "160344.227500",
    "160346.227500",
    "160348.227500",
    "160350.227500",
    "160352.227500",
    "160354.227500",
    "160356.227500",
    "160358.227500",
    "160400.227500",
    "160402.227500",
    "160404.227500",
    "160406.227500",
    "160408.227500",
    "160410.227500",
    "160412.227500",
    "160414.227500",
    "160416.227500",
    "160418.227500",
    "160420.227500",
    "160422.227500",
    "160424.227500",
    "160426.227500",
    "160428.227500",
    "160430.227500",
    "160432.227500",
    "160434.227500",
    "160436.227500",
    "160438.227500",
    "160440.227500",
    "160442.227500",
    "160444.227500",
    "160446.227500",
    "160448.227500",
    "160450.227500",
    "160452.227500",
    "160454.227500",
    "160456.227500",
    "160458.227500",
    "160500.227500",
    "160502.227500",
    "160504.227500",
    "160506.227500",
    "160508.227500",
    "160510.227500",
    "160512.227500",
    "160514.227500",
    "160516.227500",
    "160518.227500",
    "160520.227500",
    "160522.227500",
    "160524.227500",
    "160526.227500",
    "160528.227500",
    "160530.227500",
    "160532.227500",
    "160534.227500",
    "160536.227500",
    "160538.227500",
    "160540.227500",
    "160542.227500",
    "160544.227500",
    "160546.227500",
    "160548.227500",
    "160550.227500",
    "160552.227500",
    "160554.227500",
    "160556.227500",
    "160558.227500",
    "160600.227500",
    "160602.227500",
    "160604.227500",
    "160606.227500",
    "160608.227500",
    "160610.227500",
    "160612.227500",
    "160614.227500",
    "160616.227500",
    "160618.227500",
    "160620.227500",
    "160622.227500",
    "160624.227500",
    "160626.227500",
    "160628.227500",
    "160630.227500",
    "160632.227500",
    "160634.227500",
    "160636.227500",
    "160638.227500",
    "160640.227500",
    "160642.227500",
    "160644.227500",
    "160646.227500",
    "160648.227500",
    "160650.227500",
    "160652.227500",
    "160654.227500"
   ],
   "ContentTime": [
    "155826.517000",
    "155828.012000",
    "155830.013000",
    "155832.013000",
    "155834.013000",
    "155836.012000",
    "155838.012000",
    "155840.013000",
    "155842.013000",
    "155844.012000",
    "155846.013000",
    "155848.013000",
    "155850.013000",
    "155852.012000",
    "155854.013000",
    "155856.013000",
    "155858.012000",
    "155900.013000",
    "155902.013000",
    "155904.013000",
    "155906.014000",
    "155908.012000",
    "155910.012000",
    "155912.013000",
    "155914.013000",
    "155916.013000",
    "155918.012000",
    "155920.013000",
    "155922.012000",
    "155924.013000",
    "155926.013000",
    "155928.013000",
    "155930.012000",
    "155932.012000",
    "155934.012000",
    "155936.013000",
    "155938.013000",
    "155940.012000",
    "155942.012000",
    "155944.012000",
    "155946.013000",
    "155948.013000",
    "155950.012000",
    "155952.012000",
    "155954.012000",
    "155956.013000",
    "155958.013000",
    "160000.012000",
    "160002.012000",
    "160004.013000",
    "160006.013000",
    "160008.012000",
    "160010.012000",
    "160012.013000",
    "160014.013000",
    "160016.014000",
    "160018.013000",
    "160020.012000",
    "160022.012000",
    "160024.013000",
    "160026.013000",
    "160028.013000",
    "160030.013000",
    "160032.013000",
    "160034.013000",
    "160036.013000",
    "160038.013000",
    "160040.012000",
    "160042.013000",
    "160044.013000",
    "160046.012000",
    "160048.012000",
    "160050.013000",
    "160052.013000",
    "160054.013000",
    "160056.013000",
    "160058.013000",
    "160100.012000",
    "160102.012000",
    "160104.012000",
    "160106.012000",
    "160108.014000",
    "160110.013000",
    "160112.013000",
    "160114.013000",
    "160116.013000",
    "160118.012000",
    "160120.013000",
    "160122.012000",
    "160124.012000",
    "160126.013000",
    "160128.012000",
    "160130.013000",
    "160132.013000",
    "160134.012000",
    "160136.013000",
    "160138.013000",
    "160140.012000",
    "160142.012000",
    "160144.013000",
    "160146.013000",
    "160148.012000",
    "160150.013000",
    "160152.012000",
    "160154.012000",
    "160156.013000",
    "160158.013000",
    "160200.012000",
    "160202.013000",
    "160204.012000",
    "160206.013000",
    "160208.012000",
    "160210.012000",
    "160212.012000",
    "160214.012000",
    "160216.012000",
    "160218.013000",
    "160220.012000",
    "160222.013000",
    "160224.013000",
    "160226.013000",
    "160228.030000",
    "160230.012000",
    "160232.013000",
    "160234.013000",
    "160236.013000",
    "160238.013000",
    "160240.013000",
    "160242.013000",
    "160244.013000",
    "160246.012000",
    "160248.013000",
    "160250.013000",
    "160252.013000",
    "160254.012000",
    "160256.013000",
    "160258.012000",
    "160300.013000",
    "160302.013000",
    "160304.013000",
    "160306.013000",
    "160308.012000",
    "160310.013000",
    "160312.012000",
    "160314.012000",
    "160316.012000",
    "160318.013000",
    "160320.013000",
    "160322.013000",
    "160324.012000",
    "160326.012000",
    "160328.013000",
    "160330.012000",
    "160332.012000",
    "160334.013000",
    "160336.013000",
    "160338.012000",
    "160340.013000",
    "160342.012000",
    "160344.012000",
    "160346.013000",
    "160348.012000",
    "160350.012000",
    "160352.012000",
    "160354.013000",
    "160356.013000",
    "160358.013000",
    "160400.013000",
    "160402.013000",
    "160404.013000",
    "160406.013000",
    "160408.012000",
    "160410.013000",
    "160412.013000",
    "160414.012000",
    "160416.012000",
    "160418.012000",
    "160420.013000",
    "160422.013000",
    "160424.013000",
    "160426.012000",
    "160428.013000",
    "160430.012000",
    "160432.013000",
    "160434.013000",
    "160436.013000",
    "160438.014000",
    "160440.013000",
    "160442.013000",
    "160444.013000",
    "160446.013000",
    "160448.013000",
    "160450.013000",
    "160452.013000",
    "160454.013000",
    "160456.014000",
    "160458.012000",
    "160500.012000",
    "160502.012000",
    "160504.013000",
    "160506.012000",
    "160508.012000",
    "160510.013000",
    "160512.013000",
    "160514.012000",
    "160516.013000",
    "160518.012000",
    "160520.013000",
    "160522.013000",
    "160524.013000",
    "160526.013000",
    "160528.013000",
    "160530.013000",
    "160532.013000",
    "160534.012000",
    "160536.012000",
    "160538.013000",
    "160540.013000",
    "160542.013000",
    "160544.013000",
    "160546.013000",
    "160548.014000",
    "160550.012000",
    "160552.013000",
    "160554.013000",
    "160556.013000",
    "160558.013000",
    "160600.013000",
    "160602.013000",
    "160604.013000",
    "160606.013000",
    "160608.013000",
    "160610.012000",
    "160612.013000",
    "160614.013000",
    "160616.012000",
    "160618.013000",
    "160620.013000",
    "160622.012000",
    "160624.012000",
    "160626.013000",
    "160628.013000",
    "160630.012000",
    "160632.013000",
    "160634.013000",
    "160636.013000",
    "160638.013000",
    "160640.014000",
    "160642.013000",
    "160644.012000",
    "160646.013000",
    "160648.013000",
    "160650.013000",
    "160652.013000",
    "160654.013000",
    "160655.696000"
   ],
   "InstanceCreationTime": [
    "155826.517000",
    "155828.012000",
    "155830.013000",
    "155832.013000",
    "155834.013000",
    "155836.012000",
    "155838.012000",
    "155840.013000",
    "155842.013000",
    "155844.012000",
    "155846.013000",
    "155848.013000",
    "155850.013000",
    "155852.012000",
    "155854.013000",
    "155856.013000",
    "155858.012000",
    "155900.013000",
    "155902.013000",
    "155904.013000",
    "155906.014000",
    "155908.012000",
    "155910.012000",
    "155912.013000",
    "155914.013000",
    "155916.013000",
    "155918.012000",
    "155920.013000",
    "155922.012000",
    "155924.013000",
    "155926.013000",
    "155928.013000",
    "155930.012000",
    "155932.012000",
    "155934.012000",
    "155936.013000",
    "155938.013000",
    "155940.012000",
    "155942.012000",
    "155944.012000",
    "155946.013000",
    "155948.013000",
    "155950.012000",
    "155952.012000",
    "155954.012000",
    "155956.013000",
    "155958.013000",
    "160000.012000",
    "160002.012000",
    "160004.013000",
    "160006.013000",
    "160008.012000",
    "160010.012000",
    "160012.013000",
    "160014.013000",
    "160016.014000",
    "160018.013000",
    "160020.012000",
    "160022.012000",
    "160024.013000",
    "160026.013000",
    "160028.013000",
    "160030.013000",
    "160032.013000",
    "160034.013000",
    "160036.013000",
    "160038.013000",
    "160040.012000",
    "160042.013000",
    "160044.013000",
    "160046.012000",
    "160048.012000",
    "160050.013000",
    "160052.013000",
    "160054.013000",
    "160056.013000",
    "160058.013000",
    "160100.012000",
    "160102.012000",
    "160104.012000",
    "160106.012000",
    "160108.014000",
    "160110.013000",
    "160112.013000",
    "160114.013000",
    "160116.013000",
    "160118.012000",
    "160120.013000",
    "160122.012000",
    "160124.012000",
    "160126.013000",
    "160128.012000",
    "160130.013000",
    "160132.013000",
    "160134.012000",
    "160136.013000",
    "160138.013000",
    "160140.012000",
    "160142.012000",
    "160144.013000",
    "160146.013000",
    "160148.012000",
    "160150.013000",
    "160152.012000",
    "160154.012000",
    "160156.013000",
    "160158.013000",
    "160200.012000",
    "160202.013000",
    "160204.012000",
    "160206.013000",
    "160208.012000",
    "160210.012000",
    "160212.012000",
    "160214.012000",
    "160216.012000",
    "160218.013000",
    "160220.012000",
    "160222.013000",
    "160224.013000",
    "160226.013000",
    "160228.030000",
    "160230.012000",
    "160232.013000",
    "160234.013000",
    "160236.013000",
    "160238.013000",
    "160240.013000",
    "160242.013000",
    "160244.013000",
    "160246.012000",
    "160248.013000",
    "160250.013000",
    "160252.013000",
    "160254.012000",
    "160256.013000",
    "160258.012000",
    "160300.013000",
    "160302.013000",
    "160304.013000",
    "160306.013000",
    "160308.012000",
    "160310.013000",
    "160312.012000",
    "160314.012000",
    "160316.012000",
    "160318.013000",
    "160320.013000",
    "160322.013000",
    "160324.012000",
    "160326.012000",
    "160328.013000",
    "160330.012000",
    "160332.012000",
    "160334.013000",
    "160336.013000",
    "160338.012000",
    "160340.013000",
    "160342.012000",
    "160344.012000",
    "160346.013000",
    "160348.012000",
    "160350.012000",
    "160352.012000",
    "160354.013000",
    "160356.013000",
    "160358.013000",
    "160400.013000",
    "160402.013000",
    "160404.013000",
    "160406.013000",
    "160408.012000",
    "160410.013000",
    "160412.013000",
    "160414.012000",
    "160416.012000",
    "160418.012000",
    "160420.013000",
    "160422.013000",
    "160424.013000",
    "160426.012000",
    "160428.013000",
    "160430.012000",
    "160432.013000",
    "160434.013000",
    "160436.013000",
    "160438.014000",
    "160440.013000",
    "160442.013000",
    "160444.013000",
    "160446.013000",
    "160448.013000",
    "160450.013000",
    "160452.013000",
    "160454.013000",
    "160456.014000",
    "160458.012000",
    "160500.012000",
    "160502.012000",
    "160504.013000",
    "160506.012000",
    "160508.012000",
    "160510.013000",
    "160512.013000",
    "160514.012000",
    "160516.013000",
    "160518.012000",
    "160520.013000",
    "160522.013000",
    "160524.013000",
    "160526.013000",
    "160528.013000",
    "160530.013000",
    "160532.013000",
    "160534.012000",
    "160536.012000",
    "160538.013000",
    "160540.013000",
    "160542.013000",
    "160544.013000",
    "160546.013000",
    "160548.014000",
    "160550.012000",
    "160552.013000",
    "160554.013000",
    "160556.013000",
    "160558.013000",
    "160600.013000",
    "160602.013000",
    "160604.013000",
    "160606.013000",
    "160608.013000",
    "160610.012000",
    "160612.013000",
    "160614.013000",
    "160616.012000",
    "160618.013000",
    "160620.013000",
    "160622.012000",
    "160624.012000",
    "160626.013000",
    "160628.013000",
    "160630.012000",
    "160632.013000",
    "160634.013000",
    "160636.013000",
    "160638.013000",
    "160640.014000",
    "160642.013000",
    "160644.012000",
    "160646.013000",
    "160648.013000",
    "160650.013000",
    "160652.013000",
    "160654.013000",
    "160655.696000"
   ],
   "InstanceNumber": [
    1,
    2,
    3,
    4,
    5,
    6,
    7,
    8,
    9,
    10,
    11,
    12,
    13,
    14,
    15,
    16,
    17,
    18,
    19,
    20,
    21,
    22,
    23,
    24,
    25,
    26,
    27,
    28,
    29,
    30,
    31,
    32,
    33,
    34,
    35,
    36,
    37,
    38,
    39,
    40,
    41,
    42,
    43,
    44,
    45,
    46,
    47,
    48,
    49,
    50,
    51,
    52,
    53,
    54,
    55,
    56,
    57,
    58,
    59,
    60,
    61,
    62,
    63,
    64,
    65,
    66,
    67,
    68,
    69,
    70,
    71,
    72,
    73,
    74,
    75,
    76,
    77,
    78,
    79,
    80,
    81,
    82,
    83,
    84,
    85,
    86,
    87,
    88,
    89,
    90,
    91,
    92,
    93,
    94,
    95,
    96,
    97,
    98,
    99,
    100,
    101,
    102,
    103,
    104,
    105,
    106,
    107,
    108,
    109,
    110,
    111,
    112,
    113,
    114,
    115,
    116,
    117,
    118,
    119,
    120,
    121,
    122,
    123,
    124,
    125,
    126,
    127,
    128,
    129,
    130,
    131,
    132,
    133,
    134,
    135,
    136,
    137,
    138,
    139,
    140,
    141,
    142,
    143,
    144,
    145,
    146,
    147,
    148,
    149,
    150,
    151,
    152,
    153,
    154,
    155,
    156,
    157,
    158,
    159,
    160,
    161,
    162,
    163,
    164,
    165,
    166,
    167,
    168,
    169,
    170,
    171,
    172,
    173,
    174,
    175,
    176,
    177,
    178,
    179,
    180,
    181,
    182,
    183,
    184,
    185,
    186,
    187,
    188,
    189,
    190,
    191,
    192,
    193,
    194,
    195,
    196,
    197,
    198,
    199,
    200,
    201,
    202,
    203,
    204,
    205,
    206,
    207,
    208,
    209,
    210,
    211,
    212,
    213,
    214,
    215,
    216,
    217,
    218,
    219,
    220,
    221,
    222,
    223,
    224,
    225,
    226,
    227,
    228,
    229,
    230,
    231,
    232,
    233,
    234,
    235,
    236,
    237,
    238,
    239,
    240,
    241,
    242,
    243,
    244,
    245,
    246,
    247,
    248,
    249,
    250,
    251,
    252,
    253,
    254,
    255,
    256
   ],
   "LargestImagePixelValue": [
    4095,
    4095,
    4088,
    4095,
    4088,
    4095,
    4059,
    4088,
    4090,
    4095,
    4095,
    4095,
    4086,
    4089,
    4095,
    4095,
    4095,
    4095,
    4088,
    4095,
    4095,
    4095,
    4095,
    4095,
    4095,
    4095,
    4095,
    4095,
    4095,
    4095,
    4095,
    4095,
    4095,
    4095,
    4095,
    4095,
    4095,
    4095,
    4095,
    4095,
    4095,
    4095,
    4095,
    4095,
    4095,
    4095,
    4095,
    4095,
    4095,
    4095,
    4095,
    4095,
    4095,
    4095,
    4095,
    4095,
    4095,
    4095,
    4095,
    4095,
    4095,
    4095,
    4095,
    4095,
    4095,
    4095,
    4095,
    4095,
    4095,
    4095,
    4095,
    4095,
    4095,
    4095,
    4095,
    4095,
    4095,
    4095,
    4095,
    4095,
    4095,
    4095,
    4095,
    4095,
    4095,
    4095,
    4095,
    4095,
    4095,
    4095,
    4095,
    4095,
    4095,
    4095,
    4095,
    4095,
    4095,
    4095,
    4095,
    4095,
    4095,
    4095,
    4095,
    4095,
    4095,
    4095,
    4095,
    4095,
    4095,
    4095,
    4095,
    4095,
    4095,
    4095,
    4095,
    4095,
    4095,
    4095,
    4095,
    4095,
    4095,
    4095,
    4095,
    4095,
    4095,
    4095,
    4095,
    4095,
    4095,
    4095,
    4095,
    4095,
    4095,
    4095,
    4095,
    4095,
    4095,
    4095,
    4095,
    4095,
    4095,
    4095,
    4095,
    4095,
    4095,
    4095,
    4095,
    4095,
    4095,
    4095,
    4095,
    4095,
    4095,
    4095,
    4095,
    4095,
    4095,
    4095,
    4095,
    4095,
    4095,
    4095,
    4095,
    4095,
    4095,
    4095,
    4095,
    4095,
    4095,
    4095,
    4095,
    4095,
    4095,
    4095,
    4095,
    4095,
    4095,
    4095,
    4095,
    4095,
    4095,
    4095,
    4095,
    4095,
    4095,
    4095,
    4095,
    4095,
    4095,
    4095,
    4095,
    4095,
    4095,
    4095,
    4095,
    4095,
    4095,
    4095,
    4095,
    4095,
    4095,
    4095,
    4095,
    4095,
    4095,
    4095,
    4095,
    4095,
    4095,
    4094,
    4095,
    4095,
    4095,
    4092,
    4065,
    4093,
    4083,
    4065,
    4094,
    4045,
    4064,
    4035,
    4070,
    4076,
    4034,
    4051,
    4047,
    4086,
    4073,
    4033,
    4046,
    4030,
    4018,
    4051,
    4035,
    4042,
    4052,
    4064,
    4062,
    4067,
    4050,
    4063,
    4029,
    4038,
    3975,
    3975,
    3968,
    3988,
    4035,
    4047,
    4049,
    4050,
    4012,
    4034,
    4004,
    4019
   ],
   "WindowCenter": [
    888.0,
    886.0,
    886.0,
    886.0,
    886.0,
    886.0,
    885.0,
    885.0,
    885.0,
    886.0,
    886.0,
    887.0,
    886.0,
    885.0,
    884.0,
    884.0,
    885.0,
    886.0,
    886.0,
    884.0,
    883.0,
    883.0,
    883.0,
    884.0,
    883.0,
    883.0,
    883.0,
    884.0,
    884.0,
    883.0,
    883.0,
    883.0,
    882.0,
    882.0,
    882.0,
    882.0,
    883.0,
    883.0,
    883.0,
    883.0,
    883.0,
    884.0,
    885.0,
    884.0,
    883.0,
    882.0,
    882.0,
    882.0,
    882.0,
    882.0,
    882.0,
    882.0,
    882.0,
    882.0,
    882.0,
    882.0,
    881.0,
    880.0,
    880.0,
    881.0,
    881.0,
    882.0,
    882.0,
    882.0,
    882.0,
    882.0,
    883.0,
    883.0,
    883.0,
    883.0,
    883.0,
    884.0,
    884.0,
    885.0,
    884.0,
    883.0,
    883.0,
    884.0,
    883.0,
    882.0,
    882.0,
    882.0,
    882.0,
    883.0,
    883.0,
    884.0,
    884.0,
    884.0,
    883.0,
    883.0,
    883.0,
    882.0,
    882.0,
    883.0,
    884.0,
    884.0,
    883.0,
    883.0,
    883.0,
    883.0,
    882.0,
    883.0,
    883.0,
    884.0,
    884.0,
    883.0,
    883.0,
    884.0,
    884.0,
    883.0,
    883.0,
    883.0,
    883.0,
    883.0,
    884.0,
    883.0,
    883.0,
    882.0,
    883.0,
    883.0,
    883.0,
    882.0,
    883.0,
    884.0,
    884.0,
    883.0,
    882.0,
