{
 "AcquisitionMatrixPE": 100,
 "AcquisitionNumber": 1,
 "AcquisitionTime": "10:57:23.635000",
 "BandwidthPerPixelPhaseEncode": 18.519,
 "BaseResolution": 100,
 "BodyPartExamined": "BRAIN",
 "ConsistencyInfo": "N4_VE11C_LATEST_20160120",
 "ConversionSoftware": "dcm2niix",
 "ConversionSoftwareVersion": "v1.0.20180622 GCC4.9.2",
 "DerivedVendorReportedEchoSpacing": 0.000539986,
 "DeviceSerialNumber": "166078",
 "DwellTime": 2.1e-06,
 "EchoTime": 0.034,
 "EchoTrainLength": 100,
 "EffectiveEchoSpacing": 0.000539986,
 "FlipAngle": 90,
 "ImageOrientationPatientDICOM": [
  1,
  0,
  0,
  0,
  0.974761,
  -0.22325
 ],
 "ImageType": [
  "ORIGINAL",
  "PRIMARY",
  "M",
  "ND",
  "MOSAIC"
 ],
 "InPlanePhaseEncodingDirectionDICOM": "COL",
 "InstitutionAddress": "Street_StreetNo_Bei_Jing_District_CN_ZIP",
 "InstitutionName": "BeiJing_Normal_University",
 "InstitutionalDepartmentName": "Department",
 "MRAcquisitionType": "2D",
 "MagneticFieldStrength": 3,
 "Manufacturer": "Siemens",
 "ManufacturersModelName": "Prisma",
 "Modality": "MR",
 "MultibandAccelerationFactor": 3,
 "PartialFourier": 1,
 "PatientPosition": "HFS",
 "PercentPhaseFOV": 100,
 "PhaseEncodingDirection": "j-",
 "PhaseEncodingSteps": 100,
 "PhaseResolution": 1,
 "PixelBandwidth": 2380,
 "ProcedureStepDescription": "BNU_P2018_64CH_Zhen.ZongLei",
 "ProtocolName": "bold_100x100_s3_2x2x2_static_test_241",
 "PulseSequenceDetails": "%SiemensSeq%_ep2d_bold",
 "ReceiveCoilActiveElements": "HC1-7;NC1",
 "ReceiveCoilName": "HeadNeck_64",
 "ReconMatrixPE": 100,
 "RepetitionTime": 2,
 "SAR": 0.0874073,
 "ScanOptions": "FS",
 "ScanningSequence": "EP",
 "SequenceName": "_epfid2d1_100",
 "SequenceVariant": "SK",
 "SeriesDescription": "bold_100x100_s3_2x2x2_static_test_241",
 "SeriesNumber": 3,
 "ShimSetting": [
  -5453,
  -11475,
  -1269,
  418,
  14,
  -109,
  -155,
  53
 ],
 "SliceThickness": 2,
 "SliceTiming": [
  1.485,
  0,
  0.99,
  0.0825,
  1.0725,
  0.165,
  1.155,
  0.2475,
  1.2375,
  0.33,
  1.32,
  0.4125,
  1.4025,
  0.5775,
  1.5675,
  0.66,
  1.65,
  0.7425,
  1.7325,
  0.825,
  1.815,
  0.9075,
  1.8975,
  0.495,
  1.485,
  0,
  0.99,
  0.0825,
  1.0725,
  0.165,
  1.155,
  0.2475,
  1.2375,
  0.33,
  1.32,
  0.4125,
  1.4025,
  0.5775,
  1.5675,
  0.66,
  1.65,
  0.7425,
  1.7325,
  0.825,
  1.815,
  0.9075,
  1.8975,
  0.495,
  1.485,
  0,
  0.99,
  0.0825,
  1.0725,
  0.165,
  1.155,
  0.2475,
  1.2375,
  0.33,
  1.32,
  0.4125,
  1.4025,
  0.5775,
  1.5675,
  0.66,
  1.65,
  0.7425,
  1.7325,
  0.825,
  1.815,
  0.9075,
  1.8975,
  0.495
 ],
 "SoftwareVersions": "syngo_MR_E11",
 "SpacingBetweenSlices": 2,
 "StationName": "AWP166078",
 "TaskName": "coco",
 "TotalReadoutTime": 0.0534586,
 "TxRefAmp": 233.327,
 "dcmmeta_affine": [
  [
   -2.0,
   0.0,
   0.0,
   100.67469787597656
  ],
  [
   0.0,
   1.9495223760604858,
   -0.4465002119541168,
   -77.77222442626953
  ],
  [
   0.0,
   0.4465002119541168,
   1.9495223760604858,
   -96.25282287597656
  ],
  [
   0.0,
   0.0,
   0.0,
   1.0
  ]
 ],
 "dcmmeta_reorient_transform": [
  [
   0.0,
   -1.0,
   0.0,
   99.0
  ],
  [
   1.0,
   0.0,
   0.0,
   0.0
  ],
  [
   0.0,
   0.0,
   1.0,
   0.0
  ],
  [
   0.0,
   0.0,
   0.0,
   1.0
  ]
 ],
 "dcmmeta_shape": [
  100,
  100,
  72,
  241
 ],
 "dcmmeta_slice_dim": 2,
 "dcmmeta_version": 0.6,
 "global": {
  "const": {
   "AcquisitionMatrix": [
    100,
    0,
    0,
    100
   ],
   "AngioFlag": "N",
   "BitsAllocated": 16,
   "BitsStored": 12,
   "BodyPartExamined": "BRAIN",
   "Columns": 900,
   "EchoNumbers": 1,
   "EchoTime": 34.0,
   "EchoTrainLength": 100,
   "FlipAngle": 90.0,
   "HighBit": 11,
   "ImageOrientationPatient": [
    1.0,
    0.0,
    0.0,
    0.0,
    0.9747611962791,
    -0.2232501068948
   ],
   "ImagePositionPatient": [
    -900.67469877005,
    -895.0394502016,
    126.55078285083
   ],
   "ImageType": [
    "ORIGINAL",
    "PRIMARY",
    "M",
    "ND",
    "MOSAIC"
   ],
   "ImagedNucleus": "1H",
   "ImagingFrequency": 123.257759,
   "InPlanePhaseEncodingDirection": "COL",
   "MRAcquisitionType": "2D",
   "MagneticFieldStrength": 3.0,
   "Manufacturer": "SIEMENS",
   "ManufacturerModelName": "Prisma",
   "Modality": "MR",
   "NumberOfAverages": 1.0,
   "NumberOfPhaseEncodingSteps": 100,
   "PercentPhaseFieldOfView": 100.0,
   "PercentSampling": 100.0,
   "PerformedProcedureStepStartTime": "105223.445000",
   "PhotometricInterpretation": "MONOCHROME2",
   "PixelBandwidth": 2380.0,
   "PixelRepresentation": 0,
   "PixelSpacing": [
    2.0,
    2.0
   ],
   "ProtocolName": "bold_100x100_s3_2x2x2_static_test_241",
   "RepetitionTime": 2000.0,
   "Rows": 900,
   "SAR": 0.08740728806732,
   "SamplesPerPixel": 1,
   "ScanOptions": "FS",
   "ScanningSequence": "EP",
   "SequenceName": "*epfid2d1_100",
   "SequenceVariant": "SK",
   "SeriesDescription": "bold_100x100_s3_2x2x2_static_test_241",
   "SeriesNumber": 3,
   "SeriesTime": "105726.028000",
   "SliceLocation": -76.460860450842,
   "SliceThickness": 2.0,
   "SmallestImagePixelValue": 0,
   "SoftwareVersions": "syngo MR E11",
   "SpacingBetweenSlices": 2.0000000341638,
   "SpecificCharacterSet": "ISO_IR 100",
   "StudyID": "1",
   "StudyTime": "105223.381000",
   "TransmitCoilName": "Body",
   "VariableFlipAngleFlag": "N",
   "WindowCenterWidthExplanation": "Algo1",
   "dBdt": 0.0
  },
  "slices": {}
 },
 "time": {
  "samples": {
   "AcquisitionNumber": [
    1,
    2,
    3,
    4,
    5,
    6,
    7,
    8,
    9,
    10,
    11,
    12,
    13,
    14,
    15,
    16,
    17,
    18,
    19,
    20,
    21,
    22,
    23,
    24,
    25,
    26,
    27,
    28,
    29,
    30,
    31,
    32,
    33,
    34,
    35,
    36,
    37,
    38,
    39,
    40,
    41,
    42,
    43,
    44,
    45,
    46,
    47,
    48,
    49,
    50,
    51,
    52,
    53,
    54,
    55,
    56,
    57,
    58,
    59,
    60,
    61,
    62,
    63,
    64,
    65,
    66,
    67,
    68,
    69,
    70,
    71,
    72,
    73,
    74,
    75,
    76,
    77,
    78,
    79,
    80,
    81,
    82,
    83,
    84,
    85,
    86,
    87,
    88,
    89,
    90,
    91,
    92,
    93,
    94,
    95,
    96,
    97,
    98,
    99,
    100,
    101,
    102,
    103,
    104,
    105,
    106,
    107,
    108,
    109,
    110,
    111,
    112,
    113,
    114,
    115,
    116,
    117,
    118,
    119,
    120,
    121,
    122,
    123,
    124,
    125,
    126,
    127,
    128,
    129,
    130,
    131,
    132,
    133,
    134,
    135,
    136,
    137,
    138,
    139,
    140,
    141,
    142,
    143,
    144,
    145,
    146,
    147,
    148,
    149,
    150,
    151,
    152,
    153,
    154,
    155,
    156,
    157,
    158,
    159,
    160,
    161,
    162,
    163,
    164,
    165,
    166,
    167,
    168,
    169,
    170,
    171,
    172,
    173,
    174,
    175,
    176,
    177,
    178,
    179,
    180,
    181,
    182,
    183,
    184,
    185,
    186,
    187,
    188,
    189,
    190,
    191,
    192,
    193,
    194,
    195,
    196,
    197,
    198,
    199,
    200,
    201,
    202,
    203,
    204,
    205,
    206,
    207,
    208,
    209,
    210,
    211,
    212,
    213,
    214,
    215,
    216,
    217,
    218,
    219,
    220,
    221,
    222,
    223,
    224,
    225,
    226,
    227,
    228,
    229,
    230,
    231,
    232,
    233,
    234,
    235,
    236,
    237,
    238,
    239,
    240,
    241
   ],
   "AcquisitionTime": [
    "105723.635000",
    "105725.635000",
    "105727.635000",
    "105729.635000",
    "105731.635000",
    "105733.635000",
    "105735.635000",
    "105737.635000",
    "105739.635000",
    "105741.635000",
    "105743.635000",
    "105745.635000",
    "105747.635000",
    "105749.635000",
    "105751.635000",
    "105753.635000",
    "105755.635000",
    "105757.635000",
    "105759.635000",
    "105801.635000",
    "105803.635000",
    "105805.635000",
    "105807.635000",
    "105809.635000",
    "105811.635000",
    "105813.635000",
    "105815.635000",
    "105817.635000",
    "105819.635000",
    "105821.635000",
    "105823.635000",
    "105825.635000",
    "105827.635000",
    "105829.635000",
    "105831.635000",
    "105833.635000",
    "105835.635000",
    "105837.635000",
    "105839.635000",
    "105841.635000",
    "105843.635000",
    "105845.635000",
    "105847.635000",
    "105849.635000",
    "105851.635000",
    "105853.635000",
    "105855.635000",
    "105857.635000",
    "105859.635000",
    "105901.635000",
    "105903.635000",
    "105905.635000",
    "105907.635000",
    "105909.635000",
    "105911.635000",
    "105913.635000",
    "105915.635000",
    "105917.635000",
    "105919.635000",
    "105921.635000",
    "105923.635000",
    "105925.635000",
    "105927.635000",
    "105929.635000",
    "105931.635000",
    "105933.635000",
    "105935.635000",
    "105937.635000",
    "105939.635000",
    "105941.635000",
    "105943.635000",
    "105945.635000",
    "105947.635000",
    "105949.635000",
    "105951.635000",
    "105953.635000",
    "105955.635000",
    "105957.635000",
    "105959.635000",
    "110001.635000",
    "110003.635000",
    "110005.635000",
    "110007.635000",
    "110009.635000",
    "110011.635000",
    "110013.635000",
    "110015.635000",
    "110017.635000",
    "110019.635000",
    "110021.635000",
    "110023.635000",
    "110025.635000",
    "110027.635000",
    "110029.635000",
    "110031.635000",
    "110033.635000",
    "110035.635000",
    "110037.635000",
    "110039.635000",
    "110041.635000",
    "110043.635000",
    "110045.635000",
    "110047.635000",
    "110049.635000",
    "110051.635000",
    "110053.635000",
    "110055.635000",
    "110057.635000",
    "110059.635000",
    "110101.635000",
    "110103.635000",
    "110105.635000",
    "110107.635000",
    "110109.635000",
    "110111.635000",
    "110113.635000",
    "110115.635000",
    "110117.635000",
    "110119.635000",
    "110121.635000",
    "110123.635000",
    "110125.635000",
    "110127.635000",
    "110129.635000",
    "110131.635000",
    "110133.635000",
    "110135.635000",
    "110137.635000",
    "110139.635000",
    "110141.635000",
    "110143.635000",
    "110145.635000",
    "110147.635000",
    "110149.635000",
    "110151.635000",
    "110153.635000",
    "110155.635000",
    "110157.635000",
    "110159.635000",
    "110201.635000",
    "110203.635000",
    "110205.635000",
    "110207.635000",
    "110209.635000",
    "110211.635000",
    "110213.635000",
    "110215.635000",
    "110217.635000",
    "110219.635000",
    "110221.635000",
    "110223.635000",
    "110225.635000",
    "110227.635000",
    "110229.635000",
    "110231.635000",
    "110233.635000",
    "110235.635000",
    "110237.635000",
    "110239.635000",
    "110241.635000",
    "110243.635000",
    "110245.635000",
    "110247.635000",
    "110249.635000",
    "110251.635000",
    "110253.635000",
    "110255.635000",
    "110257.635000",
    "110259.635000",
    "110301.635000",
    "110303.635000",
    "110305.635000",
    "110307.635000",
    "110309.635000",
    "110311.635000",
    "110313.635000",
    "110315.635000",
    "110317.635000",
    "110319.635000",
    "110321.635000",
    "110323.635000",
    "110325.635000",
    "110327.635000",
    "110329.635000",
    "110331.635000",
    "110333.635000",
    "110335.635000",
    "110337.635000",
    "110339.635000",
    "110341.635000",
    "110343.635000",
    "110345.635000",
    "110347.635000",
    "110349.635000",
    "110351.635000",
    "110353.635000",
    "110355.635000",
    "110357.635000",
    "110359.635000",
    "110401.635000",
    "110403.635000",
    "110405.635000",
    "110407.635000",
    "110409.635000",
    "110411.635000",
    "110413.635000",
    "110415.635000",
    "110417.635000",
    "110419.635000",
    "110421.635000",
    "110423.635000",
    "110425.635000",
    "110427.635000",
    "110429.635000",
    "110431.635000",
    "110433.635000",
    "110435.635000",
    "110437.635000",
    "110439.635000",
    "110441.635000",
    "110443.635000",
    "110445.635000",
    "110447.635000",
    "110449.635000",
    "110451.635000",
    "110453.635000",
    "110455.635000",
    "110457.635000",
    "110459.635000",
    "110501.635000",
    "110503.635000",
    "110505.635000",
    "110507.635000",
    "110509.635000",
    "110511.635000",
    "110513.635000",
    "110515.635000",
    "110517.635000",
    "110519.635000",
    "110521.635000",
    "110523.635000"
   ],
   "ContentTime": [
    "105726.031000",
    "105727.527000",
    "105729.527000",
    "105731.526000",
    "105733.526000",
    "105735.526000",
    "105737.526000",
    "105739.526000",
    "105741.527000",
    "105743.527000",
    "105745.527000",
    "105747.527000",
    "105749.527000",
    "105751.527000",
    "105753.527000",
    "105755.526000",
    "105757.527000",
    "105759.527000",
    "105801.526000",
    "105803.527000",
    "105805.527000",
    "105807.527000",
    "105809.526000",
    "105811.527000",
    "105813.527000",
    "105815.526000",
    "105817.527000",
    "105819.527000",
    "105821.527000",
    "105823.527000",
    "105825.526000",
    "105827.526000",
    "105829.527000",
    "105831.526000",
    "105833.527000",
    "105835.527000",
    "105837.527000",
    "105839.527000",
    "105841.527000",
    "105843.527000",
    "105845.527000",
    "105847.527000",
    "105849.526000",
    "105851.527000",
    "105853.526000",
    "105855.528000",
    "105857.527000",
    "105859.526000",
    "105901.526000",
    "105903.527000",
    "105905.527000",
    "105907.526000",
    "105909.527000",
    "105911.526000",
    "105913.527000",
    "105915.527000",
    "105917.526000",
    "105919.527000",
    "105921.526000",
    "105923.527000",
    "105925.526000",
    "105927.527000",
    "105929.527000",
    "105931.527000",
    "105933.527000",
    "105935.526000",
    "105937.527000",
    "105939.526000",
    "105941.526000",
    "105943.526000",
    "105945.527000",
    "105947.528000",
    "105949.527000",
    "105951.527000",
    "105953.526000",
    "105955.527000",
    "105957.526000",
    "105959.527000",
    "110001.526000",
    "110003.526000",
    "110005.527000",
    "110007.527000",
    "110009.526000",
    "110011.526000",
    "110013.526000",
    "110015.527000",
    "110017.526000",
    "110019.527000",
    "110021.527000",
    "110023.527000",
    "110025.527000",
    "110027.526000",
    "110029.526000",
    "110031.527000",
    "110033.526000",
    "110035.526000",
    "110037.527000",
    "110039.528000",
    "110041.527000",
    "110043.527000",
    "110045.527000",
    "110047.526000",
    "110049.526000",
    "110051.527000",
    "110053.527000",
    "110055.527000",
    "110057.528000",
    "110059.527000",
    "110101.526000",
    "110103.526000",
    "110105.527000",
    "110107.527000",
    "110109.527000",
    "110111.526000",
    "110113.526000",
    "110115.527000",
    "110117.527000",
    "110119.526000",
    "110121.527000",
    "110123.527000",
    "110125.527000",
    "110127.527000",
    "110129.527000",
    "110131.526000",
    "110133.527000",
    "110135.528000",
    "110137.526000",
    "110139.526000",
    "110141.527000",
    "110143.526000",
    "110145.526000",
    "110147.527000",
    "110149.527000",
    "110151.528000",
    "110153.527000",
    "110155.527000",
    "110157.527000",
    "110159.527000",
    "110201.526000",
    "110203.526000",
    "110205.526000",
    "110207.528000",
    "110209.528000",
    "110211.526000",
    "110213.527000",
    "110215.526000",
    "110217.526000",
    "110219.526000",
    "110221.526000",
    "110223.527000",
    "110225.528000",
    "110227.528000",
    "110229.527000",
    "110231.526000",
    "110233.527000",
    "110235.526000",
    "110237.527000",
    "110239.526000",
    "110241.527000",
    "110243.528000",
    "110245.527000",
    "110247.527000",
    "110249.527000",
    "110251.526000",
    "110253.526000",
    "110255.527000",
    "110257.526000",
    "110259.527000",
    "110301.528000",
    "110303.528000",
    "110305.527000",
    "110307.527000",
    "110309.527000",
    "110311.527000",
    "110313.526000",
    "110315.527000",
    "110317.528000",
    "110319.527000",
    "110321.526000",
    "110323.527000",
    "110325.527000",
    "110327.527000",
    "110329.527000",
    "110331.526000",
    "110333.527000",
    "110335.528000",
    "110337.528000",
    "110339.526000",
    "110341.527000",
    "110343.527000",
    "110345.526000",
    "110347.527000",
    "110349.527000",
    "110351.527000",
    "110353.528000",
    "110355.527000",
    "110357.527000",
    "110359.527000",
    "110401.527000",
    "110403.527000",
    "110405.527000",
    "110407.527000",
    "110409.528000",
    "110411.528000",
    "110413.528000",
    "110415.526000",
    "110417.527000",
    "110419.527000",
    "110421.526000",
    "110423.526000",
    "110425.527000",
    "110427.527000",
    "110429.528000",
    "110431.527000",
    "110433.526000",
    "110435.527000",
    "110437.527000",
    "110439.527000",
    "110441.527000",
    "110443.527000",
    "110445.528000",
    "110447.527000",
    "110449.526000",
    "110451.527000",
    "110453.526000",
    "110455.526000",
    "110457.526000",
    "110459.527000",
    "110501.526000",
    "110503.528000",
    "110505.528000",
    "110507.527000",
    "110509.527000",
    "110511.527000",
    "110513.527000",
    "110515.527000",
    "110517.527000",
    "110519.527000",
    "110521.527000",
    "110523.528000",
    "110525.338000"
   ],
   "InstanceCreationTime": [
    "105726.031000",
    "105727.527000",
    "105729.527000",
    "105731.526000",
    "105733.526000",
    "105735.526000",
    "105737.526000",
    "105739.526000",
    "105741.527000",
    "105743.527000",
    "105745.527000",
    "105747.527000",
    "105749.527000",
    "105751.527000",
    "105753.527000",
    "105755.526000",
    "105757.527000",
    "105759.527000",
    "105801.526000",
    "105803.527000",
    "105805.527000",
    "105807.527000",
    "105809.526000",
    "105811.527000",
    "105813.527000",
    "105815.526000",
    "105817.527000",
    "105819.527000",
    "105821.527000",
    "105823.527000",
    "105825.526000",
    "105827.526000",
    "105829.527000",
    "105831.526000",
    "105833.527000",
    "105835.527000",
    "105837.527000",
    "105839.527000",
    "105841.527000",
    "105843.527000",
    "105845.527000",
    "105847.527000",
    "105849.526000",
    "105851.527000",
    "105853.526000",
    "105855.528000",
    "105857.527000",
    "105859.526000",
    "105901.526000",
    "105903.527000",
    "105905.527000",
    "105907.526000",
    "105909.527000",
    "105911.526000",
    "105913.527000",
    "105915.527000",
    "105917.526000",
    "105919.527000",
    "105921.526000",
    "105923.527000",
    "105925.526000",
    "105927.527000",
    "105929.527000",
    "105931.527000",
    "105933.527000",
    "105935.526000",
    "105937.527000",
    "105939.526000",
    "105941.526000",
    "105943.526000",
    "105945.527000",
    "105947.528000",
    "105949.527000",
    "105951.527000",
    "105953.526000",
    "105955.527000",
    "105957.526000",
    "105959.527000",
    "110001.526000",
    "110003.526000",
    "110005.527000",
    "110007.527000",
    "110009.526000",
    "110011.526000",
    "110013.526000",
    "110015.527000",
    "110017.526000",
    "110019.527000",
    "110021.527000",
    "110023.527000",
    "110025.527000",
    "110027.526000",
    "110029.526000",
    "110031.527000",
    "110033.526000",
    "110035.526000",
    "110037.527000",
    "110039.528000",
    "110041.527000",
    "110043.527000",
    "110045.527000",
    "110047.526000",
    "110049.526000",
    "110051.527000",
    "110053.527000",
    "110055.527000",
    "110057.528000",
    "110059.527000",
    "110101.526000",
    "110103.526000",
    "110105.527000",
    "110107.527000",
    "110109.527000",
    "110111.526000",
    "110113.526000",
    "110115.527000",
    "110117.527000",
    "110119.526000",
    "110121.527000",
    "110123.527000",
    "110125.527000",
    "110127.527000",
    "110129.527000",
    "110131.526000",
    "110133.527000",
    "110135.528000",
    "110137.526000",
    "110139.526000",
    "110141.527000",
    "110143.526000",
    "110145.526000",
    "110147.527000",
    "110149.527000",
    "110151.528000",
    "110153.527000",
    "110155.527000",
    "110157.527000",
    "110159.527000",
    "110201.526000",
    "110203.526000",
    "110205.526000",
    "110207.528000",
    "110209.528000",
    "110211.526000",
    "110213.527000",
    "110215.526000",
    "110217.526000",
    "110219.526000",
    "110221.526000",
    "110223.527000",
    "110225.528000",
    "110227.528000",
    "110229.527000",
    "110231.526000",
    "110233.527000",
    "110235.526000",
    "110237.527000",
    "110239.526000",
    "110241.527000",
    "110243.528000",
    "110245.527000",
    "110247.527000",
    "110249.527000",
    "110251.526000",
    "110253.526000",
    "110255.527000",
    "110257.526000",
    "110259.527000",
    "110301.528000",
    "110303.528000",
    "110305.527000",
    "110307.527000",
    "110309.527000",
    "110311.527000",
    "110313.526000",
    "110315.527000",
    "110317.528000",
    "110319.527000",
    "110321.526000",
    "110323.527000",
    "110325.527000",
    "110327.527000",
    "110329.527000",
    "110331.526000",
    "110333.527000",
    "110335.528000",
    "110337.528000",
    "110339.526000",
    "110341.527000",
    "110343.527000",
    "110345.526000",
    "110347.527000",
    "110349.527000",
    "110351.527000",
    "110353.528000",
    "110355.527000",
    "110357.527000",
    "110359.527000",
    "110401.527000",
    "110403.527000",
    "110405.527000",
    "110407.527000",
    "110409.528000",
    "110411.528000",
    "110413.528000",
    "110415.526000",
    "110417.527000",
    "110419.527000",
    "110421.526000",
    "110423.526000",
    "110425.527000",
    "110427.527000",
    "110429.528000",
    "110431.527000",
    "110433.526000",
    "110435.527000",
    "110437.527000",
    "110439.527000",
    "110441.527000",
    "110443.527000",
    "110445.528000",
    "110447.527000",
    "110449.526000",
    "110451.527000",
    "110453.526000",
    "110455.526000",
    "110457.526000",
    "110459.527000",
    "110501.526000",
    "110503.528000",
    "110505.528000",
    "110507.527000",
    "110509.527000",
    "110511.527000",
    "110513.527000",
    "110515.527000",
    "110517.527000",
    "110519.527000",
    "110521.527000",
    "110523.528000",
    "110525.338000"
   ],
   "InstanceNumber": [
    1,
    2,
    3,
    4,
    5,
    6,
    7,
    8,
    9,
    10,
    11,
    12,
    13,
    14,
    15,
    16,
    17,
    18,
    19,
    20,
    21,
    22,
    23,
    24,
    25,
    26,
    27,
    28,
    29,
    30,
    31,
    32,
    33,
    34,
    35,
    36,
    37,
    38,
    39,
    40,
    41,
    42,
    43,
    44,
    45,
    46,
    47,
    48,
    49,
    50,
    51,
    52,
    53,
    54,
    55,
    56,
    57,
    58,
    59,
    60,
    61,
    62,
    63,
    64,
    65,
    66,
    67,
    68,
    69,
    70,
    71,
    72,
    73,
    74,
    75,
    76,
    77,
    78,
    79,
    80,
    81,
    82,
    83,
    84,
    85,
    86,
    87,
    88,
    89,
    90,
    91,
    92,
    93,
    94,
    95,
    96,
    97,
    98,
    99,
    100,
    101,
    102,
    103,
    104,
    105,
    106,
    107,
    108,
    109,
    110,
    111,
    112,
    113,
    114,
    115,
    116,
    117,
    118,
    119,
    120,
    121,
    122,
    123,
    124,
    125,
    126,
    127,
    128,
    129,
    130,
    131,
    132,
    133,
    134,
    135,
    136,
    137,
    138,
    139,
    140,
    141,
    142,
    143,
    144,
    145,
    146,
    147,
    148,
    149,
    150,
    151,
    152,
    153,
    154,
    155,
    156,
    157,
    158,
    159,
    160,
    161,
    162,
    163,
    164,
    165,
    166,
    167,
    168,
    169,
    170,
    171,
    172,
    173,
    174,
    175,
    176,
    177,
    178,
    179,
    180,
    181,
    182,
    183,
    184,
    185,
    186,
    187,
    188,
    189,
    190,
    191,
    192,
    193,
    194,
    195,
    196,
    197,
    198,
    199,
    200,
    201,
    202,
    203,
    204,
    205,
    206,
    207,
    208,
    209,
    210,
    211,
    212,
    213,
    214,
    215,
    216,
    217,
    218,
    219,
    220,
    221,
    222,
    223,
    224,
    225,
    226,
    227,
    228,
    229,
    230,
    231,
    232,
    233,
    234,
    235,
    236,
    237,
    238,
    239,
    240,
    241
   ],
   "LargestImagePixelValue": [
    3679,
    3586,
    3535,
    3516,
    3526,
    3565,
    3556,
    3560,
    3554,
    3552,
    3506,
    3532,
    3526,
    3506,
    3494,
    3529,
    3555,
    3520,
    3533,
    3542,
    3520,
    3538,
    3489,
    3557,
    3541,
    3516,
    3529,
    3491,
    3503,
    3492,
    3504,
    3477,
    3480,
    3494,
    3460,
    3473,
    3524,
    3509,
    3523,
    3491,
    3468,
    3497,
    3478,
    3457,
    3476,
    3528,
    3501,
    3487,
    3455,
    3449,
    3436,
    3443,
    3478,
    3432,
    3450,
    3413,
    3415,
    3416,
    3436,
    3405,
    3414,
    3400,
    3435,
    3417,
    3433,
    3452,
    3435,
    3443,
    3416,
    3420,
    3404,
    3448,
    3406,
    3479,
    3420,
    3456,
    3432,
    3445,
    3438,
    3460,
    3424,
    3468,
    3459,
    3452,
    3483,
    3460,
    3477,
    3429,
    3480,
    3476,
    3489,
    3500,
    3494,
    3482,
    3496,
    3496,
    3492,
    3514,
    3490,
    3478,
    3470,
    3483,
    3448,
    3513,
    3490,
    3469,
    3453,
    3465,
    3462,
    3457,
    3463,
    3482,
    3468,
    3471,
    3532,
    3491,
    3492,
    3485,
    3478,
    3488,
    3457,
    3442,
    3451,
    3475,
    3474,
    3472,
    3507,
    3493,
    3547,
    3486,
    3501,
    3472,
    3493,
    3512,
    3488,
    3513,
    3509,
    3510,
    3519,
    3508,
    3484,
    3493,
    3487,
    3494,
    3505,
    3518,
    3530,
    3521,
    3524,
    3521,
    3507,
    3520,
    3500,
    3493,
    3487,
    3495,
    3507,
    3500,
    3495,
    3499,
    3529,
    3500,
    3501,
    3489,
    3518,
    3507,
    3524,
    3525,
    3474,
    3498,
    3507,
    3509,
    3483,
    3516,
    3511,
    3501,
    3492,
    3498,
    3517,
    3517,
    3511,
    3506,
    3504,
    3513,
    3522,
    3511,
    3495,
    3470,
    3533,
    3524,
    3503,
    3499,
    3521,
    3509,
    3534,
    3514,
    3513,
    3537,
    3517,
    3534,
    3504,
    3520,
    3521,
    3485,
    3498,
    3467,
    3526,
    3520,
    3548,
    3511,
    3526,
    3533,
    3528,
    3543,
    3517,
    3541,
    3532,
    3536,
    3549,
    3561,
    3544,
    3515,
    3548,
    3544,
    3523,
    3517,
    3537,
    3531,
    3525,
    3533,
    3534,
    3506,
    3523,
    3512,
    3531,
    3492,
    3491,
    3516,
    3537,
    3509,
    3540
   ],
   "WindowCenter": [
    844.0,
    842.0,
    843.0,
    843.0,
    841.0,
    839.0,
    837.0,
    838.0,
    839.0,
    840.0,
    840.0,
    840.0,
    838.0,
    837.0,
    838.0,
    840.0,
    840.0,
    839.0,
    838.0,
    838.0,
    839.0,
    841.0,
    841.0,
    840.0,
    839.0,
    839.0,
    839.0,
    839.0,
    840.0,
    841.0,
    840.0,
    838.0,
    837.0,
    837.0,
    839.0,
    840.0,
    840.0,
    839.0,
    838.0,
    839.0,
    840.0,
    841.0,
    840.0,
    839.0,
    839.0,
    840.0,
    841.0,
    841.0,
    839.0,
    838.0,
    838.0,
    839.0,
    839.0,
    838.0,
    839.0,
    839.0,
    839.0,
    838.0,
    838.0,
    837.0,
    837.0,
    837.0,
    837.0,
    837.0,
    838.0,
    838.0,
    838.0,
    837.0,
    838.0,
    838.0,
    839.0,
    839.0,
    838.0,
    837.0,
    838.0,
    839.0,
    839.0,
    839.0,
    839.0,
    838.0,
    837.0,
    837.0,
    838.0,
    840.0,
    839.0,
    838.0,
    838.0,
    838.0,
    837.0,
    836.0,
    836.0,
    836.0,
    837.0,
    838.0,
    838.0,
    837.0,
    837.0,
    837.0,
    837.0,
    839.0,
    840.0,
    839.0,
    838.0,
    840.0,
    840.0,
    838.0,
    837.0,
    837.0,
    839.0,
    840.0,
    840.0,
    840.0,
    840.0,
    840.0,
    840.0,
    839.0,
    838.0,
    837.0,
    839.0,
    840.0,
    839.0,
    839.0,
    840.0,
    839.0,
    838.0,
    837.0,
    838.0,
    839.0,
    839.0,
    838.0,
    837.0,
    837.0,
    838.0,
    838.0,
    839.0,
    840.0,
    839.0,
    838.0,
    836.0,
    835.0,
    837.0,
    838.0,
    838.0,
    837.0,
    836.0,
    837.0,
    839.0,
    838.0,
    838.0,
    837.0,
    837.0,
    837.0,
    837.0,
    836.0,
    836.0,
    837.0,
    837.0,
    837.0,
    837.0,
    837.0,
    838.0,
    838.0,
    838.0,
    837.0,
    837.0,
    838.0,
    838.0,
    839.0,
    839.0,
    840.0,
    840.0,
    839.0,
    839.0,
    839.0,
    839.0,
    838.0,
    839.0,
    840.0,
    840.0,
    839.0,
    838.0,
    838.0,
    837.0,
    836.0,
    835.0,
    835.0,
    836.0,
    837.0,
    838.0,
    837.0,
    836.0,
    837.0,
    838.0,
    838.0,
    838.0,
    837.0,
    838.0,
    839.0,
    840.0,
    840.0,
    839.0,
    839.0,
    838.0,
    837.0,
    837.0,
    839.0,
    841.0,
    839.0,
    837.0,
    836.0,
    836.0,
    838.0,
    839.0,
    839.0,
    838.0,
    838.0,
    838.0,
    836.0,
    836.0,
    836.0,
    837.0,
    838.0,
    838.0,
    837.0,
    836.0,
    837.0,
    838.0,
    838.0,
    838.0,
    837.0,
    837.0,
    836.0,
    837.0,
    838.0,
    837.0,
    835.0,
    835.0,
    836.0,
    837.0,
    839.0,
    840.0
   ],
   "WindowWidth": [
    1818.0,
    1813.0,
    1816.0,
    1814.0,
