{
 "AcquisitionMatrixPE": 100,
 "AcquisitionNumber": 1,
 "AcquisitionTime": "11:06:22.990000",
 "BandwidthPerPixelPhaseEncode": 18.519,
 "BaseResolution": 100,
 "BodyPartExamined": "BRAIN",
 "ConsistencyInfo": "N4_VE11C_LATEST_20160120",
 "ConversionSoftware": "dcm2niix",
 "ConversionSoftwareVersion": "v1.0.20180622 GCC4.9.2",
 "DerivedVendorReportedEchoSpacing": 0.000539986,
 "DeviceSerialNumber": "166078",
 "DwellTime": 2.1e-06,
 "EchoTime": 0.034,
 "EchoTrainLength": 100,
 "EffectiveEchoSpacing": 0.000539986,
 "FlipAngle": 90,
 "ImageOrientationPatientDICOM": [
  1,
  0,
  0,
  0,
  0.974761,
  -0.22325
 ],
 "ImageType": [
  "ORIGINAL",
  "PRIMARY",
  "M",
  "ND",
  "MOSAIC"
 ],
 "InPlanePhaseEncodingDirectionDICOM": "COL",
 "InstitutionAddress": "Street_StreetNo_Bei_Jing_District_CN_ZIP",
 "InstitutionName": "BeiJing_Normal_University",
 "InstitutionalDepartmentName": "Department",
 "MRAcquisitionType": "2D",
 "MagneticFieldStrength": 3,
 "Manufacturer": "Siemens",
 "ManufacturersModelName": "Prisma",
 "Modality": "MR",
 "MultibandAccelerationFactor": 3,
 "PartialFourier": 1,
 "PatientPosition": "HFS",
 "PercentPhaseFOV": 100,
 "PhaseEncodingDirection": "j-",
 "PhaseEncodingSteps": 100,
 "PhaseResolution": 1,
 "PixelBandwidth": 2380,
 "ProcedureStepDescription": "BNU_P2018_64CH_Zhen.ZongLei",
 "ProtocolName": "bold_100x100_s3_2x2x2_static_test_241",
 "PulseSequenceDetails": "%SiemensSeq%_ep2d_bold",
 "ReceiveCoilActiveElements": "HC1-7;NC1",
 "ReceiveCoilName": "HeadNeck_64",
 "ReconMatrixPE": 100,
 "RepetitionTime": 2,
 "SAR": 0.0874073,
 "ScanOptions": "FS",
 "ScanningSequence": "EP",
 "SequenceName": "_epfid2d1_100",
 "SequenceVariant": "SK",
 "SeriesDescription": "bold_100x100_s3_2x2x2_static_test_241",
 "SeriesNumber": 4,
 "ShimSetting": [
  -5453,
  -11475,
  -1269,
  418,
  14,
  -109,
  -155,
  53
 ],
 "SliceThickness": 2,
 "SliceTiming": [
  1.485,
  0,
  0.99,
  0.0825,
  1.0725,
  0.165,
  1.155,
  0.2475,
  1.2375,
  0.33,
  1.32,
  0.4125,
  1.4025,
  0.5775,
  1.5675,
  0.66,
  1.65,
  0.7425,
  1.7325,
  0.825,
  1.815,
  0.9075,
  1.8975,
  0.495,
  1.485,
  0,
  0.99,
  0.0825,
  1.0725,
  0.165,
  1.155,
  0.2475,
  1.2375,
  0.33,
  1.32,
  0.4125,
  1.4025,
  0.5775,
  1.5675,
  0.66,
  1.65,
  0.7425,
  1.7325,
  0.825,
  1.815,
  0.9075,
  1.8975,
  0.495,
  1.485,
  0,
  0.99,
  0.0825,
  1.0725,
  0.165,
  1.155,
  0.2475,
  1.2375,
  0.33,
  1.32,
  0.4125,
  1.4025,
  0.5775,
  1.5675,
  0.66,
  1.65,
  0.7425,
  1.7325,
  0.825,
  1.815,
  0.9075,
  1.8975,
  0.495
 ],
 "SoftwareVersions": "syngo_MR_E11",
 "SpacingBetweenSlices": 2,
 "StationName": "AWP166078",
 "TaskName": "coco",
 "TotalReadoutTime": 0.0534586,
 "TxRefAmp": 233.327,
 "dcmmeta_affine": [
  [
   -2.0,
   0.0,
   0.0,
   100.67469787597656
  ],
  [
   0.0,
   1.9495223760604858,
   -0.4465002119541168,
   -77.77222442626953
  ],
  [
   0.0,
   0.4465002119541168,
   1.9495223760604858,
   -96.25282287597656
  ],
  [
   0.0,
   0.0,
   0.0,
   1.0
  ]
 ],
 "dcmmeta_reorient_transform": [
  [
   0.0,
   -1.0,
   0.0,
   99.0
  ],
  [
   1.0,
   0.0,
   0.0,
   0.0
  ],
  [
   0.0,
   0.0,
   1.0,
   0.0
  ],
  [
   0.0,
   0.0,
   0.0,
   1.0
  ]
 ],
 "dcmmeta_shape": [
  100,
  100,
  72,
  241
 ],
 "dcmmeta_slice_dim": 2,
 "dcmmeta_version": 0.6,
 "global": {
  "const": {
   "AcquisitionMatrix": [
    100,
    0,
    0,
    100
   ],
   "AngioFlag": "N",
   "BitsAllocated": 16,
   "BitsStored": 12,
   "BodyPartExamined": "BRAIN",
   "Columns": 900,
   "EchoNumbers": 1,
   "EchoTime": 34.0,
   "EchoTrainLength": 100,
   "FlipAngle": 90.0,
   "HighBit": 11,
   "ImageOrientationPatient": [
    1.0,
    0.0,
    0.0,
    0.0,
    0.9747611962791,
    -0.2232501068948
   ],
   "ImagePositionPatient": [
    -900.67469877005,
    -895.0394502016,
    126.55078285083
   ],
   "ImageType": [
    "ORIGINAL",
    "PRIMARY",
    "M",
    "ND",
    "MOSAIC"
   ],
   "ImagedNucleus": "1H",
   "ImagingFrequency": 123.257766,
   "InPlanePhaseEncodingDirection": "COL",
   "MRAcquisitionType": "2D",
   "MagneticFieldStrength": 3.0,
   "Manufacturer": "SIEMENS",
   "ManufacturerModelName": "Prisma",
   "Modality": "MR",
   "NumberOfAverages": 1.0,
   "NumberOfPhaseEncodingSteps": 100,
   "PercentPhaseFieldOfView": 100.0,
   "PercentSampling": 100.0,
   "PerformedProcedureStepStartTime": "105223.445000",
   "PhotometricInterpretation": "MONOCHROME2",
   "PixelBandwidth": 2380.0,
   "PixelRepresentation": 0,
   "PixelSpacing": [
    2.0,
    2.0
   ],
   "ProtocolName": "bold_100x100_s3_2x2x2_static_test_241",
   "RepetitionTime": 2000.0,
   "Rows": 900,
   "SAR": 0.08740728806732,
   "SamplesPerPixel": 1,
   "ScanOptions": "FS",
   "ScanningSequence": "EP",
   "SequenceName": "*epfid2d1_100",
   "SequenceVariant": "SK",
   "SeriesDescription": "bold_100x100_s3_2x2x2_static_test_241",
   "SeriesNumber": 4,
   "SeriesTime": "110624.964000",
   "SliceLocation": -76.460860450842,
   "SliceThickness": 2.0,
   "SmallestImagePixelValue": 0,
   "SoftwareVersions": "syngo MR E11",
   "SpacingBetweenSlices": 2.0000000341638,
   "SpecificCharacterSet": "ISO_IR 100",
   "StudyID": "1",
   "StudyTime": "105223.381000",
   "TransmitCoilName": "Body",
   "VariableFlipAngleFlag": "N",
   "WindowCenterWidthExplanation": "Algo1",
   "dBdt": 0.0
  },
  "slices": {}
 },
 "time": {
  "samples": {
   "AcquisitionNumber": [
    1,
    2,
    3,
    4,
    5,
    6,
    7,
    8,
    9,
    10,
    11,
    12,
    13,
    14,
    15,
    16,
    17,
    18,
    19,
    20,
    21,
    22,
    23,
    24,
    25,
    26,
    27,
    28,
    29,
    30,
    31,
    32,
    33,
    34,
    35,
    36,
    37,
    38,
    39,
    40,
    41,
    42,
    43,
    44,
    45,
    46,
    47,
    48,
    49,
    50,
    51,
    52,
    53,
    54,
    55,
    56,
    57,
    58,
    59,
    60,
    61,
    62,
    63,
    64,
    65,
    66,
    67,
    68,
    69,
    70,
    71,
    72,
    73,
    74,
    75,
    76,
    77,
    78,
    79,
    80,
    81,
    82,
    83,
    84,
    85,
    86,
    87,
    88,
    89,
    90,
    91,
    92,
    93,
    94,
    95,
    96,
    97,
    98,
    99,
    100,
    101,
    102,
    103,
    104,
    105,
    106,
    107,
    108,
    109,
    110,
    111,
    112,
    113,
    114,
    115,
    116,
    117,
    118,
    119,
    120,
    121,
    122,
    123,
    124,
    125,
    126,
    127,
    128,
    129,
    130,
    131,
    132,
    133,
    134,
    135,
    136,
    137,
    138,
    139,
    140,
    141,
    142,
    143,
    144,
    145,
    146,
    147,
    148,
    149,
    150,
    151,
    152,
    153,
    154,
    155,
    156,
    157,
    158,
    159,
    160,
    161,
    162,
    163,
    164,
    165,
    166,
    167,
    168,
    169,
    170,
    171,
    172,
    173,
    174,
    175,
    176,
    177,
    178,
    179,
    180,
    181,
    182,
    183,
    184,
    185,
    186,
    187,
    188,
    189,
    190,
    191,
    192,
    193,
    194,
    195,
    196,
    197,
    198,
    199,
    200,
    201,
    202,
    203,
    204,
    205,
    206,
    207,
    208,
    209,
    210,
    211,
    212,
    213,
    214,
    215,
    216,
    217,
    218,
    219,
    220,
    221,
    222,
    223,
    224,
    225,
    226,
    227,
    228,
    229,
    230,
    231,
    232,
    233,
    234,
    235,
    236,
    237,
    238,
    239,
    240,
    241
   ],
   "AcquisitionTime": [
    "110622.990000",
    "110624.990000",
    "110626.990000",
    "110628.990000",
    "110630.990000",
    "110632.990000",
    "110634.990000",
    "110636.990000",
    "110638.990000",
    "110640.990000",
    "110642.990000",
    "110644.990000",
    "110646.990000",
    "110648.990000",
    "110650.990000",
    "110652.990000",
    "110654.990000",
    "110656.990000",
    "110658.990000",
    "110700.990000",
    "110702.990000",
    "110704.990000",
    "110706.990000",
    "110708.990000",
    "110710.990000",
    "110712.990000",
    "110714.990000",
    "110716.990000",
    "110718.990000",
    "110720.990000",
    "110722.990000",
    "110724.990000",
    "110726.990000",
    "110728.990000",
    "110730.990000",
    "110732.990000",
    "110734.990000",
    "110736.990000",
    "110738.990000",
    "110740.990000",
    "110742.990000",
    "110744.990000",
    "110746.990000",
    "110748.990000",
    "110750.990000",
    "110752.990000",
    "110754.990000",
    "110756.990000",
    "110758.990000",
    "110800.990000",
    "110802.990000",
    "110804.990000",
    "110806.990000",
    "110808.990000",
    "110810.990000",
    "110812.990000",
    "110814.990000",
    "110816.990000",
    "110818.990000",
    "110820.990000",
    "110822.990000",
    "110824.990000",
    "110826.990000",
    "110828.990000",
    "110830.990000",
    "110832.990000",
    "110834.990000",
    "110836.990000",
    "110838.990000",
    "110840.990000",
    "110842.990000",
    "110844.990000",
    "110846.990000",
    "110848.990000",
    "110850.990000",
    "110852.990000",
    "110854.990000",
    "110856.990000",
    "110858.990000",
    "110900.990000",
    "110902.990000",
    "110904.990000",
    "110906.990000",
    "110908.990000",
    "110910.990000",
    "110912.990000",
    "110914.990000",
    "110916.990000",
    "110918.990000",
    "110920.990000",
    "110922.990000",
    "110924.990000",
    "110926.990000",
    "110928.990000",
    "110930.990000",
    "110932.990000",
    "110934.990000",
    "110936.990000",
    "110938.990000",
    "110940.990000",
    "110942.990000",
    "110944.990000",
    "110946.990000",
    "110948.990000",
    "110950.990000",
    "110952.990000",
    "110954.990000",
    "110956.990000",
    "110958.990000",
    "111000.990000",
    "111002.990000",
    "111004.990000",
    "111006.990000",
    "111008.990000",
    "111010.990000",
    "111012.990000",
    "111014.990000",
    "111016.990000",
    "111018.990000",
    "111020.990000",
    "111022.990000",
    "111024.990000",
    "111026.990000",
    "111028.990000",
    "111030.990000",
    "111032.990000",
    "111034.990000",
    "111036.990000",
    "111038.990000",
    "111040.990000",
    "111042.990000",
    "111044.990000",
    "111046.990000",
    "111048.990000",
    "111050.990000",
    "111052.990000",
    "111054.990000",
    "111056.990000",
    "111058.990000",
    "111100.990000",
    "111102.990000",
    "111104.990000",
    "111106.990000",
    "111108.990000",
    "111110.990000",
    "111112.990000",
    "111114.990000",
    "111116.990000",
    "111118.990000",
    "111120.990000",
    "111122.990000",
    "111124.990000",
    "111126.990000",
    "111128.990000",
    "111130.990000",
    "111132.990000",
    "111134.990000",
    "111136.990000",
    "111138.990000",
    "111140.990000",
    "111142.990000",
    "111144.990000",
    "111146.990000",
    "111148.990000",
    "111150.990000",
    "111152.990000",
    "111154.990000",
    "111156.990000",
    "111158.990000",
    "111200.990000",
    "111202.990000",
    "111204.990000",
    "111206.990000",
    "111208.990000",
    "111210.990000",
    "111212.990000",
    "111214.990000",
    "111216.990000",
    "111218.990000",
    "111220.990000",
    "111222.990000",
    "111224.990000",
    "111226.990000",
    "111228.990000",
    "111230.990000",
    "111232.990000",
    "111234.990000",
    "111236.990000",
    "111238.990000",
    "111240.990000",
    "111242.990000",
    "111244.990000",
    "111246.990000",
    "111248.990000",
    "111250.990000",
    "111252.990000",
    "111254.990000",
    "111256.990000",
    "111258.990000",
    "111300.990000",
    "111302.990000",
    "111304.990000",
    "111306.990000",
    "111308.990000",
    "111310.990000",
    "111312.990000",
    "111314.990000",
    "111316.990000",
    "111318.990000",
    "111320.990000",
    "111322.990000",
    "111324.990000",
    "111326.990000",
    "111328.990000",
    "111330.990000",
    "111332.990000",
    "111334.990000",
    "111336.990000",
    "111338.990000",
    "111340.990000",
    "111342.990000",
    "111344.990000",
    "111346.990000",
    "111348.990000",
    "111350.990000",
    "111352.990000",
    "111354.990000",
    "111356.990000",
    "111358.990000",
    "111400.990000",
    "111402.990000",
    "111404.990000",
    "111406.990000",
    "111408.990000",
    "111410.990000",
    "111412.990000",
    "111414.990000",
    "111416.990000",
    "111418.990000",
    "111420.990000",
    "111422.990000"
   ],
   "ContentTime": [
    "110624.968000",
    "110626.463000",
    "110628.463000",
    "110630.464000",
    "110632.964000",
    "110634.965000",
    "110636.964000",
    "110638.463000",
    "110640.463000",
    "110642.964000",
    "110644.963000",
    "110646.965000",
    "110648.465000",
    "110650.464000",
    "110652.464000",
    "110654.463000",
    "110656.963000",
    "110658.463000",
    "110700.464000",
    "110702.963000",
    "110704.465000",
    "110706.464000",
    "110708.965000",
    "110710.964000",
    "110712.964000",
    "110714.464000",
    "110716.463000",
    "110718.963000",
    "110720.964000",
    "110722.964000",
    "110724.964000",
    "110726.964000",
    "110728.465000",
    "110730.464000",
    "110732.463000",
    "110734.463000",
    "110736.463000",
    "110738.964000",
    "110740.964000",
    "110742.965000",
    "110744.465000",
    "110746.463000",
    "110748.463000",
    "110750.963000",
    "110752.463000",
    "110754.963000",
    "110756.465000",
    "110758.964000",
    "110800.965000",
    "110802.464000",
    "110804.963000",
    "110806.465000",
    "110808.963000",
    "110810.465000",
    "110812.463000",
    "110814.464000",
    "110816.464000",
    "110818.965000",
    "110820.464000",
    "110822.463000",
    "110824.463000",
    "110826.464000",
    "110828.463000",
    "110830.464000",
    "110832.464000",
    "110834.965000",
    "110836.464000",
    "110838.964000",
    "110840.464000",
    "110842.463000",
    "110844.963000",
    "110846.963000",
    "110848.463000",
    "110850.465000",
    "110852.464000",
    "110854.465000",
    "110856.464000",
    "110858.463000",
    "110900.464000",
    "110902.463000",
    "110904.463000",
    "110906.964000",
    "110908.464000",
    "110910.464000",
    "110912.464000",
    "110914.463000",
    "110916.464000",
    "110918.964000",
    "110920.964000",
    "110922.964000",
    "110924.464000",
    "110926.464000",
    "110928.465000",
    "110930.965000",
    "110932.964000",
    "110934.963000",
    "110936.463000",
    "110938.464000",
    "110940.964000",
    "110942.465000",
    "110944.465000",
    "110946.964000",
    "110948.963000",
    "110950.463000",
    "110952.464000",
    "110954.963000",
    "110956.964000",
    "110958.965000",
    "111000.965000",
    "111002.464000",
    "111004.464000",
    "111006.463000",
    "111008.963000",
    "111010.964000",
    "111012.464000",
    "111014.964000",
    "111016.464000",
    "111018.965000",
    "111020.465000",
    "111022.965000",
    "111024.463000",
    "111026.463000",
    "111028.463000",
    "111030.463000",
    "111032.463000",
    "111034.464000",
    "111036.465000",
    "111038.964000",
    "111040.465000",
    "111042.463000",
    "111044.463000",
    "111046.464000",
    "111048.964000",
    "111050.964000",
    "111052.464000",
    "111054.464000",
    "111056.464000",
    "111058.964000",
    "111100.463000",
    "111102.463000",
    "111104.964000",
    "111106.964000",
    "111108.965000",
    "111110.464000",
    "111112.465000",
    "111114.464000",
    "111116.464000",
    "111118.964000",
    "111120.963000",
    "111122.963000",
    "111124.463000",
    "111126.465000",
    "111128.464000",
    "111130.965000",
    "111132.465000",
    "111134.964000",
    "111136.463000",
    "111138.463000",
    "111140.463000",
    "111142.964000",
    "111144.464000",
    "111146.465000",
    "111148.464000",
    "111150.464000",
    "111152.464000",
    "111154.972000",
    "111156.464000",
    "111158.964000",
    "111200.464000",
    "111202.464000",
    "111204.965000",
    "111206.965000",
    "111208.465000",
    "111210.464000",
    "111212.964000",
    "111214.964000",
    "111216.463000",
    "111218.463000",
    "111220.464000",
    "111222.464000",
    "111224.464000",
    "111226.463000",
    "111228.463000",
    "111230.464000",
    "111232.464000",
    "111234.464000",
    "111236.965000",
    "111238.465000",
    "111240.965000",
    "111242.965000",
    "111244.463000",
    "111246.964000",
    "111248.464000",
    "111250.463000",
    "111252.463000",
    "111254.465000",
    "111256.464000",
    "111258.965000",
    "111300.465000",
    "111302.463000",
    "111304.464000",
    "111306.464000",
    "111308.464000",
    "111310.464000",
    "111312.965000",
    "111314.465000",
    "111316.965000",
    "111318.964000",
    "111320.964000",
    "111322.964000",
    "111324.463000",
    "111326.463000",
    "111328.464000",
    "111330.464000",
    "111332.465000",
    "111334.464000",
    "111336.963000",
    "111338.463000",
    "111340.964000",
    "111342.464000",
    "111344.463000",
    "111346.964000",
    "111348.465000",
    "111350.964000",
    "111352.965000",
    "111354.463000",
    "111356.463000",
    "111358.963000",
    "111400.464000",
    "111402.463000",
    "111404.964000",
    "111406.964000",
    "111408.964000",
    "111410.465000",
    "111412.463000",
    "111414.464000",
    "111416.463000",
    "111418.963000",
    "111420.463000",
    "111422.465000",
    "111424.475000"
   ],
   "InstanceCreationTime": [
    "110624.968000",
    "110626.463000",
    "110628.463000",
    "110630.464000",
    "110632.964000",
    "110634.965000",
    "110636.964000",
    "110638.463000",
    "110640.463000",
    "110642.964000",
    "110644.963000",
    "110646.965000",
    "110648.465000",
    "110650.464000",
    "110652.464000",
    "110654.463000",
    "110656.963000",
    "110658.463000",
    "110700.464000",
    "110702.963000",
    "110704.465000",
    "110706.464000",
    "110708.965000",
    "110710.964000",
    "110712.964000",
    "110714.464000",
    "110716.463000",
    "110718.963000",
    "110720.964000",
    "110722.964000",
    "110724.964000",
    "110726.964000",
    "110728.465000",
    "110730.464000",
    "110732.463000",
    "110734.463000",
    "110736.463000",
    "110738.964000",
    "110740.964000",
    "110742.965000",
    "110744.465000",
    "110746.463000",
    "110748.463000",
    "110750.963000",
    "110752.463000",
    "110754.963000",
    "110756.465000",
    "110758.964000",
    "110800.965000",
    "110802.464000",
    "110804.963000",
    "110806.465000",
    "110808.963000",
    "110810.465000",
    "110812.463000",
    "110814.464000",
    "110816.464000",
    "110818.965000",
    "110820.464000",
    "110822.463000",
    "110824.463000",
    "110826.464000",
    "110828.463000",
    "110830.464000",
    "110832.464000",
    "110834.965000",
    "110836.464000",
    "110838.964000",
    "110840.464000",
    "110842.463000",
    "110844.963000",
    "110846.963000",
    "110848.463000",
    "110850.465000",
    "110852.464000",
    "110854.465000",
    "110856.464000",
    "110858.463000",
    "110900.464000",
    "110902.463000",
    "110904.463000",
    "110906.964000",
    "110908.464000",
    "110910.464000",
    "110912.464000",
    "110914.463000",
    "110916.464000",
    "110918.964000",
    "110920.964000",
    "110922.964000",
    "110924.464000",
    "110926.464000",
    "110928.465000",
    "110930.965000",
    "110932.964000",
    "110934.963000",
    "110936.463000",
    "110938.464000",
    "110940.964000",
    "110942.465000",
    "110944.465000",
    "110946.964000",
    "110948.963000",
    "110950.463000",
    "110952.464000",
    "110954.963000",
    "110956.964000",
    "110958.965000",
    "111000.965000",
    "111002.464000",
    "111004.464000",
    "111006.463000",
    "111008.963000",
    "111010.964000",
    "111012.464000",
    "111014.964000",
    "111016.464000",
    "111018.965000",
    "111020.465000",
    "111022.965000",
    "111024.463000",
    "111026.463000",
    "111028.463000",
    "111030.463000",
    "111032.463000",
    "111034.464000",
    "111036.465000",
    "111038.964000",
    "111040.465000",
    "111042.463000",
    "111044.463000",
    "111046.464000",
    "111048.964000",
    "111050.964000",
    "111052.464000",
    "111054.464000",
    "111056.464000",
    "111058.964000",
    "111100.463000",
    "111102.463000",
    "111104.964000",
    "111106.964000",
    "111108.965000",
    "111110.464000",
    "111112.465000",
    "111114.464000",
    "111116.464000",
    "111118.964000",
    "111120.963000",
    "111122.963000",
    "111124.463000",
    "111126.465000",
    "111128.464000",
    "111130.965000",
    "111132.465000",
    "111134.964000",
    "111136.463000",
    "111138.463000",
    "111140.463000",
    "111142.964000",
    "111144.464000",
    "111146.465000",
    "111148.464000",
    "111150.464000",
    "111152.464000",
    "111154.972000",
    "111156.464000",
    "111158.964000",
    "111200.464000",
    "111202.464000",
    "111204.965000",
    "111206.965000",
    "111208.465000",
    "111210.464000",
    "111212.964000",
    "111214.964000",
    "111216.463000",
    "111218.463000",
    "111220.464000",
    "111222.464000",
    "111224.464000",
    "111226.463000",
    "111228.463000",
    "111230.464000",
    "111232.464000",
    "111234.464000",
    "111236.965000",
    "111238.465000",
    "111240.965000",
    "111242.965000",
    "111244.463000",
    "111246.964000",
    "111248.464000",
    "111250.463000",
    "111252.463000",
    "111254.465000",
    "111256.464000",
    "111258.965000",
    "111300.465000",
    "111302.463000",
    "111304.464000",
    "111306.464000",
    "111308.464000",
    "111310.464000",
    "111312.965000",
    "111314.465000",
    "111316.965000",
    "111318.964000",
    "111320.964000",
    "111322.964000",
    "111324.463000",
    "111326.463000",
    "111328.464000",
    "111330.464000",
    "111332.465000",
    "111334.464000",
    "111336.963000",
    "111338.463000",
    "111340.964000",
    "111342.464000",
    "111344.463000",
    "111346.964000",
    "111348.465000",
    "111350.964000",
    "111352.965000",
    "111354.463000",
    "111356.463000",
    "111358.963000",
    "111400.464000",
    "111402.463000",
    "111404.964000",
    "111406.964000",
    "111408.964000",
    "111410.465000",
    "111412.463000",
    "111414.464000",
    "111416.463000",
    "111418.963000",
    "111420.463000",
    "111422.465000",
    "111424.475000"
   ],
   "InstanceNumber": [
    1,
    2,
    3,
    4,
    5,
    6,
    7,
    8,
    9,
    10,
    11,
    12,
    13,
    14,
    15,
    16,
    17,
    18,
    19,
    20,
    21,
    22,
    23,
    24,
    25,
    26,
    27,
    28,
    29,
    30,
    31,
    32,
    33,
    34,
    35,
    36,
    37,
    38,
    39,
    40,
    41,
    42,
    43,
    44,
    45,
    46,
    47,
    48,
    49,
    50,
    51,
    52,
    53,
    54,
    55,
    56,
    57,
    58,
    59,
    60,
    61,
    62,
    63,
    64,
    65,
    66,
    67,
    68,
    69,
    70,
    71,
    72,
    73,
    74,
    75,
    76,
    77,
    78,
    79,
    80,
    81,
    82,
    83,
    84,
    85,
    86,
    87,
    88,
    89,
    90,
    91,
    92,
    93,
    94,
    95,
    96,
    97,
    98,
    99,
    100,
    101,
    102,
    103,
    104,
    105,
    106,
    107,
    108,
    109,
    110,
    111,
    112,
    113,
    114,
    115,
    116,
    117,
    118,
    119,
    120,
    121,
    122,
    123,
    124,
    125,
    126,
    127,
    128,
    129,
    130,
    131,
    132,
    133,
    134,
    135,
    136,
    137,
    138,
    139,
    140,
    141,
    142,
    143,
    144,
    145,
    146,
    147,
    148,
    149,
    150,
    151,
    152,
    153,
    154,
    155,
    156,
    157,
    158,
    159,
    160,
    161,
    162,
    163,
    164,
    165,
    166,
    167,
    168,
    169,
    170,
    171,
    172,
    173,
    174,
    175,
    176,
    177,
    178,
    179,
    180,
    181,
    182,
    183,
    184,
    185,
    186,
    187,
    188,
    189,
    190,
    191,
    192,
    193,
    194,
    195,
    196,
    197,
    198,
    199,
    200,
    201,
    202,
    203,
    204,
    205,
    206,
    207,
    208,
    209,
    210,
    211,
    212,
    213,
    214,
    215,
    216,
    217,
    218,
    219,
    220,
    221,
    222,
    223,
    224,
    225,
    226,
    227,
    228,
    229,
    230,
    231,
    232,
    233,
    234,
    235,
    236,
    237,
    238,
    239,
    240,
    241
   ],
   "LargestImagePixelValue": [
    3634,
    3586,
    3528,
    3495,
    3483,
    3486,
    3509,
    3527,
    3516,
    3528,
    3550,
    3515,
    3504,
    3509,
    3537,
    3530,
    3509,
    3512,
    3496,
    3492,
    3535,
    3516,
    3510,
    3525,
    3492,
    3493,
    3516,
    3512,
    3482,
    3489,
    3515,
    3496,
    3496,
    3502,
    3483,
    3487,
    3505,
    3475,
    3520,
    3459,
    3479,
    3439,
    3460,
    3484,
    3487,
    3495,
    3453,
    3469,
    3456,
    3489,
    3505,
    3464,
    3469,
    3509,
    3519,
    3486,
    3485,
    3481,
    3505,
    3488,
    3483,
    3489,
    3490,
    3483,
    3475,
    3479,
    3455,
    3489,
    3476,
    3474,
    3491,
    3497,
    3485,
    3495,
    3524,
    3488,
    3507,
    3478,
    3498,
    3507,
    3492,
    3515,
    3504,
    3501,
    3487,
    3530,
    3525,
    3507,
    3514,
    3518,
    3533,
    3500,
    3489,
    3505,
    3486,
    3511,
    3516,
    3526,
    3488,
    3516,
    3514,
    3525,
    3509,
    3505,
    3493,
    3509,
    3515,
    3477,
    3467,
    3516,
    3470,
    3507,
    3524,
    3529,
    3541,
    3532,
    3524,
    3514,
    3533,
    3538,
    3497,
    3477,
    3511,
    3495,
    3515,
    3548,
    3519,
    3532,
    3528,
    3521,
    3528,
    3528,
    3535,
    3522,
    3529,
    3517,
    3533,
    3512,
    3521,
    3523,
    3528,
    3574,
    3547,
    3526,
    3534,
    3551,
    3555,
    3540,
    3553,
    3595,
    3565,
    3557,
    3604,
    3590,
    3607,
    3583,
    3568,
    3541,
    3602,
    3570,
    3589,
    3594,
    3567,
    3600,
    3617,
    3615,
    3617,
    3587,
    3580,
    3576,
    3560,
    3596,
    3587,
    3593,
    3582,
    3618,
    3612,
    3579,
    3548,
    3577,
    3573,
    3575,
    3612,
    3602,
    3583,
    3586,
    3608,
    3572,
    3573,
    3592,
    3592,
    3623,
    3580,
    3588,
    3586,
    3618,
    3628,
    3627,
    3618,
    3617,
    3599,
    3615,
    3581,
    3625,
    3607,
    3599,
    3588,
    3623,
    3624,
    3625,
    3602,
    3604,
    3560,
    3587,
    3575,
    3619,
    3580,
    3587,
    3550,
    3593,
    3606,
    3605,
    3587,
    3587,
    3589,
    3632,
    3660,
    3649,
    3616,
    3576,
    3573,
    3586,
    3613,
    3620,
    3636,
    3633,
    3615,
    3655,
    3668,
    3654,
    3616
   ],
   "WindowCenter": [
    841.0,
    842.0,
    842.0,
    842.0,
    840.0,
    842.0,
    842.0,
    842.0,
    842.0,
    841.0,
    842.0,
    843.0,
    844.0,
    844.0,
    844.0,
    844.0,
    845.0,
    845.0,
    844.0,
    843.0,
    844.0,
    844.0,
    843.0,
    843.0,
    842.0,
    843.0,
    844.0,
    844.0,
    842.0,
    842.0,
    842.0,
    842.0,
    843.0,
    842.0,
    841.0,
    840.0,
    840.0,
    841.0,
    842.0,
    843.0,
    844.0,
    843.0,
    841.0,
    841.0,
    840.0,
    840.0,
    840.0,
    840.0,
    840.0,
    841.0,
    842.0,
    842.0,
    841.0,
    841.0,
    841.0,
    841.0,
    841.0,
    840.0,
    840.0,
    840.0,
    840.0,
    840.0,
    840.0,
    841.0,
    842.0,
    842.0,
    842.0,
    842.0,
    841.0,
    839.0,
    839.0,
    842.0,
    843.0,
    842.0,
    841.0,
    839.0,
    838.0,
    838.0,
    840.0,
    839.0,
    839.0,
    839.0,
    838.0,
    839.0,
    842.0,
    842.0,
    841.0,
    840.0,
    841.0,
    842.0,
    842.0,
    842.0,
    841.0,
    839.0,
    839.0,
    840.0,
    840.0,
    841.0,
    841.0,
    841.0,
    841.0,
    842.0,
    841.0,
    840.0,
    840.0,
    840.0,
    841.0,
    840.0,
    838.0,
    838.0,
    837.0,
    838.0,
    840.0,
    841.0,
    841.0,
    840.0,
    841.0,
    842.0,
    841.0,
    841.0,
    841.0,
    842.0,
    842.0,
    841.0,
    840.0,
    840.0,
    840.0,
    842.0,
    842.0,
    842.0,
    841.0,
    841.0,
    841.0,
    841.0,
    841.0,
    841.0,
    840.0,
    840.0,
    841.0,
    841.0,
    841.0,
    842.0,
    842.0,
    842.0,
    843.0,
    844.0,
    842.0,
    841.0,
    840.0,
    841.0,
    842.0,
    841.0,
    840.0,
    839.0,
    840.0,
    841.0,
    841.0,
    840.0,
    840.0,
    840.0,
    844.0,
    844.0,
    842.0,
    841.0,
    840.0,
    840.0,
    841.0,
    841.0,
    842.0,
    841.0,
    841.0,
    840.0,
    839.0,
    839.0,
    839.0,
    839.0,
    841.0,
    842.0,
    843.0,
    843.0,
    842.0,
    841.0,
    841.0,
    841.0,
    842.0,
    843.0,
    842.0,
    841.0,
    841.0,
    841.0,
    840.0,
    840.0,
    839.0,
    840.0,
    841.0,
    841.0,
    841.0,
    841.0,
    842.0,
    841.0,
    840.0,
    841.0,
    841.0,
    840.0,
    841.0,
    841.0,
    842.0,
    842.0,
    840.0,
    840.0,
    840.0,
    842.0,
    845.0,
    844.0,
    842.0,
    839.0,
    839.0,
    842.0,
    843.0,
    843.0,
    841.0,
    840.0,
    841.0,
    842.0,
    840.0,
    839.0,
    838.0,
    839.0,
    841.0,
    841.0,
    839.0,
    838.0,
    839.0,
    841.0,
    841.0,
    840.0,
    839.0,
    839.0,
    840.0,
    840.0,
    841.0
   ],
   "WindowWidth": [
    1810.0,
    1811.0,
    1811.0,
    1809.0,
