{
 "AcquisitionMatrixPE": 100,
 "AcquisitionNumber": 1,
 "AcquisitionTime": "10:22:31.280000",
 "BandwidthPerPixelPhaseEncode": 18.519,
 "BaseResolution": 100,
 "BodyPartExamined": "BRAIN",
 "ConsistencyInfo": "N4_VE11C_LATEST_20160120",
 "ConversionSoftware": "dcm2niix",
 "ConversionSoftwareVersion": "v1.0.20180622 GCC4.9.2",
 "DerivedVendorReportedEchoSpacing": 0.000539986,
 "DeviceSerialNumber": "166078",
 "DwellTime": 2.1e-06,
 "EchoTime": 0.034,
 "EchoTrainLength": 100,
 "EffectiveEchoSpacing": 0.000539986,
 "FlipAngle": 90,
 "ImageOrientationPatientDICOM": [
  1,
  0,
  0,
  0,
  0.999962,
  -0.00872654
 ],
 "ImageType": [
  "ORIGINAL",
  "PRIMARY",
  "M",
  "ND",
  "MOSAIC"
 ],
 "InPlanePhaseEncodingDirectionDICOM": "COL",
 "InstitutionAddress": "Street_StreetNo_Bei_Jing_District_CN_ZIP",
 "InstitutionName": "BeiJing_Normal_University",
 "InstitutionalDepartmentName": "Department",
 "MRAcquisitionType": "2D",
 "MagneticFieldStrength": 3,
 "Manufacturer": "Siemens",
 "ManufacturersModelName": "Prisma",
 "Modality": "MR",
 "MultibandAccelerationFactor": 3,
 "PartialFourier": 1,
 "PatientPosition": "HFS",
 "PercentPhaseFOV": 100,
 "PhaseEncodingDirection": "j-",
 "PhaseEncodingSteps": 100,
 "PhaseResolution": 1,
 "PixelBandwidth": 2380,
 "ProcedureStepDescription": "BNU_P2018_64CH_Zhen.ZongLei",
 "ProtocolName": "bold_100x100_s3_2x2x2_static_256",
 "PulseSequenceDetails": "%SiemensSeq%_ep2d_bold",
 "ReceiveCoilActiveElements": "HC1-7;NC1",
 "ReceiveCoilName": "HeadNeck_64",
 "ReconMatrixPE": 100,
 "RepetitionTime": 2,
 "SAR": 0.0616759,
 "ScanOptions": "FS",
 "ScanningSequence": "EP",
 "SequenceName": "_epfid2d1_100",
 "SequenceVariant": "SK",
 "SeriesDescription": "bold_100x100_s3_2x2x2_static_256",
 "SeriesNumber": 12,
 "ShimSetting": [
  -5448,
  -11460,
  -1288,
  444,
  -55,
  -313,
  -216,
  133
 ],
 "SliceThickness": 2,
 "SliceTiming": [
  1.485,
  0,
  0.99,
  0.0825,
  1.0725,
  0.165,
  1.155,
  0.2475,
  1.2375,
  0.33,
  1.32,
  0.4125,
  1.4025,
  0.5775,
  1.5675,
  0.66,
  1.65,
  0.7425,
  1.7325,
  0.825,
  1.815,
  0.9075,
  1.8975,
  0.495,
  1.485,
  0,
  0.99,
  0.0825,
  1.0725,
  0.165,
  1.155,
  0.2475,
  1.2375,
  0.33,
  1.32,
  0.4125,
  1.4025,
  0.5775,
  1.5675,
  0.66,
  1.65,
  0.7425,
  1.7325,
  0.825,
  1.815,
  0.9075,
  1.8975,
  0.495,
  1.485,
  0,
  0.99,
  0.0825,
  1.0725,
  0.165,
  1.155,
  0.2475,
  1.2375,
  0.33,
  1.32,
  0.4125,
  1.4025,
  0.5775,
  1.5675,
  0.66,
  1.65,
  0.7425,
  1.7325,
  0.825,
  1.815,
  0.9075,
  1.8975,
  0.495
 ],
 "SoftwareVersions": "syngo_MR_E11",
 "SpacingBetweenSlices": 2,
 "StationName": "AWP166078",
 "TaskName": "imagenet",
 "TotalReadoutTime": 0.0534586,
 "TxRefAmp": 212.039,
 "dcmmeta_affine": [
  [
   -2.0,
   0.0,
   0.0,
   100.0
  ],
  [
   0.0,
   1.999923825263977,
   -0.017453070729970932,
   -87.86094665527344
  ],
  [
   0.0,
   0.017453070729970932,
   1.999923825263977,
   -79.48445892333984
  ],
  [
   0.0,
   0.0,
   0.0,
   1.0
  ]
 ],
 "dcmmeta_reorient_transform": [
  [
   0.0,
   -1.0,
   0.0,
   99.0
  ],
  [
   1.0,
   0.0,
   0.0,
   0.0
  ],
  [
   0.0,
   0.0,
   1.0,
   0.0
  ],
  [
   0.0,
   0.0,
   0.0,
   1.0
  ]
 ],
 "dcmmeta_shape": [
  100,
  100,
  72,
  256
 ],
 "dcmmeta_slice_dim": 2,
 "dcmmeta_version": 0.6,
 "global": {
  "const": {
   "AcquisitionMatrix": [
    100,
    0,
    0,
    100
   ],
   "AngioFlag": "N",
   "BitsAllocated": 16,
   "BitsStored": 12,
   "BodyPartExamined": "BRAIN",
   "Columns": 900,
   "EchoNumbers": 1,
   "EchoTime": 34.0,
   "EchoTrainLength": 100,
   "FlipAngle": 90.0,
   "HighBit": 11,
   "ImageOrientationPatient": [
    1.0,
    0.0,
    0.0,
    0.0,
    0.99996192306517,
    -0.0087265353836
   ],
   "ImagePositionPatient": [
    -900.0,
    -910.10105332945,
    -70.775375356877
   ],
   "ImageType": [
    "ORIGINAL",
    "PRIMARY",
    "M",
    "ND",
    "MOSAIC"
   ],
   "ImagedNucleus": "1H",
   "ImagingFrequency": 123.257744,
   "InPlanePhaseEncodingDirection": "COL",
   "MRAcquisitionType": "2D",
   "MagneticFieldStrength": 3.0,
   "Manufacturer": "SIEMENS",
   "ManufacturerModelName": "Prisma",
   "Modality": "MR",
   "NumberOfAverages": 1.0,
   "NumberOfPhaseEncodingSteps": 100,
   "PercentPhaseFieldOfView": 100.0,
   "PercentSampling": 100.0,
   "PerformedProcedureStepStartTime": "090101.576000",
   "PhotometricInterpretation": "MONOCHROME2",
   "PixelBandwidth": 2380.0,
   "PixelRepresentation": 0,
   "PixelSpacing": [
    2.0,
    2.0
   ],
   "ProtocolName": "bold_100x100_s3_2x2x2_static_256",
   "RepetitionTime": 2000.0,
   "Rows": 900,
   "SAR": 0.06167587837942,
   "SamplesPerPixel": 1,
   "ScanOptions": "FS",
   "ScanningSequence": "EP",
   "SequenceName": "*epfid2d1_100",
   "SequenceVariant": "SK",
   "SeriesDescription": "bold_100x100_s3_2x2x2_static_256",
   "SeriesNumber": 12,
   "SeriesTime": "102234.167000",
   "SliceLocation": -78.714709492085,
   "SliceThickness": 2.0,
   "SmallestImagePixelValue": 0,
   "SoftwareVersions": "syngo MR E11",
   "SpacingBetweenSlices": 1.9999999673994,
   "SpecificCharacterSet": "ISO_IR 100",
   "StudyID": "1",
   "StudyTime": "090101.320000",
   "TransmitCoilName": "Body",
   "VariableFlipAngleFlag": "N",
   "WindowCenterWidthExplanation": "Algo1",
   "dBdt": 0.0
  },
  "slices": {}
 },
 "time": {
  "samples": {
   "AcquisitionNumber": [
    1,
    2,
    3,
    4,
    5,
    6,
    7,
    8,
    9,
    10,
    11,
    12,
    13,
    14,
    15,
    16,
    17,
    18,
    19,
    20,
    21,
    22,
    23,
    24,
    25,
    26,
    27,
    28,
    29,
    30,
    31,
    32,
    33,
    34,
    35,
    36,
    37,
    38,
    39,
    40,
    41,
    42,
    43,
    44,
    45,
    46,
    47,
    48,
    49,
    50,
    51,
    52,
    53,
    54,
    55,
    56,
    57,
    58,
    59,
    60,
    61,
    62,
    63,
    64,
    65,
    66,
    67,
    68,
    69,
    70,
    71,
    72,
    73,
    74,
    75,
    76,
    77,
    78,
    79,
    80,
    81,
    82,
    83,
    84,
    85,
    86,
    87,
    88,
    89,
    90,
    91,
    92,
    93,
    94,
    95,
    96,
    97,
    98,
    99,
    100,
    101,
    102,
    103,
    104,
    105,
    106,
    107,
    108,
    109,
    110,
    111,
    112,
    113,
    114,
    115,
    116,
    117,
    118,
    119,
    120,
    121,
    122,
    123,
    124,
    125,
    126,
    127,
    128,
    129,
    130,
    131,
    132,
    133,
    134,
    135,
    136,
    137,
    138,
    139,
    140,
    141,
    142,
    143,
    144,
    145,
    146,
    147,
    148,
    149,
    150,
    151,
    152,
    153,
    154,
    155,
    156,
    157,
    158,
    159,
    160,
    161,
    162,
    163,
    164,
    165,
    166,
    167,
    168,
    169,
    170,
    171,
    172,
    173,
    174,
    175,
    176,
    177,
    178,
    179,
    180,
    181,
    182,
    183,
    184,
    185,
    186,
    187,
    188,
    189,
    190,
    191,
    192,
    193,
    194,
    195,
    196,
    197,
    198,
    199,
    200,
    201,
    202,
    203,
    204,
    205,
    206,
    207,
    208,
    209,
    210,
    211,
    212,
    213,
    214,
    215,
    216,
    217,
    218,
    219,
    220,
    221,
    222,
    223,
    224,
    225,
    226,
    227,
    228,
    229,
    230,
    231,
    232,
    233,
    234,
    235,
    236,
    237,
    238,
    239,
    240,
    241,
    242,
    243,
    244,
    245,
    246,
    247,
    248,
    249,
    250,
    251,
    252,
    253,
    254,
    255,
    256
   ],
   "AcquisitionTime": [
    "102231.280000",
    "102233.280000",
    "102235.280000",
    "102237.280000",
    "102239.280000",
    "102241.280000",
    "102243.280000",
    "102245.280000",
    "102247.280000",
    "102249.280000",
    "102251.280000",
    "102253.280000",
    "102255.280000",
    "102257.280000",
    "102259.280000",
    "102301.280000",
    "102303.280000",
    "102305.280000",
    "102307.280000",
    "102309.280000",
    "102311.280000",
    "102313.280000",
    "102315.280000",
    "102317.280000",
    "102319.280000",
    "102321.280000",
    "102323.280000",
    "102325.280000",
    "102327.280000",
    "102329.280000",
    "102331.280000",
    "102333.280000",
    "102335.280000",
    "102337.280000",
    "102339.280000",
    "102341.280000",
    "102343.280000",
    "102345.280000",
    "102347.280000",
    "102349.280000",
    "102351.280000",
    "102353.280000",
    "102355.280000",
    "102357.280000",
    "102359.280000",
    "102401.280000",
    "102403.280000",
    "102405.280000",
    "102407.280000",
    "102409.280000",
    "102411.280000",
    "102413.280000",
    "102415.280000",
    "102417.280000",
    "102419.280000",
    "102421.280000",
    "102423.280000",
    "102425.280000",
    "102427.280000",
    "102429.280000",
    "102431.280000",
    "102433.280000",
    "102435.280000",
    "102437.280000",
    "102439.280000",
    "102441.280000",
    "102443.280000",
    "102445.280000",
    "102447.280000",
    "102449.280000",
    "102451.280000",
    "102453.280000",
    "102455.280000",
    "102457.280000",
    "102459.280000",
    "102501.280000",
    "102503.280000",
    "102505.280000",
    "102507.280000",
    "102509.280000",
    "102511.280000",
    "102513.280000",
    "102515.280000",
    "102517.280000",
    "102519.280000",
    "102521.280000",
    "102523.280000",
    "102525.280000",
    "102527.280000",
    "102529.280000",
    "102531.280000",
    "102533.280000",
    "102535.280000",
    "102537.280000",
    "102539.280000",
    "102541.280000",
    "102543.280000",
    "102545.280000",
    "102547.280000",
    "102549.280000",
    "102551.280000",
    "102553.280000",
    "102555.280000",
    "102557.280000",
    "102559.280000",
    "102601.280000",
    "102603.280000",
    "102605.280000",
    "102607.280000",
    "102609.280000",
    "102611.280000",
    "102613.280000",
    "102615.280000",
    "102617.280000",
    "102619.280000",
    "102621.280000",
    "102623.280000",
    "102625.280000",
    "102627.280000",
    "102629.280000",
    "102631.280000",
    "102633.280000",
    "102635.280000",
    "102637.280000",
    "102639.280000",
    "102641.280000",
    "102643.280000",
    "102645.280000",
    "102647.280000",
    "102649.280000",
    "102651.280000",
    "102653.280000",
    "102655.280000",
    "102657.280000",
    "102659.280000",
    "102701.280000",
    "102703.280000",
    "102705.280000",
    "102707.280000",
    "102709.280000",
    "102711.280000",
    "102713.280000",
    "102715.280000",
    "102717.280000",
    "102719.280000",
    "102721.280000",
    "102723.280000",
    "102725.280000",
    "102727.280000",
    "102729.280000",
    "102731.280000",
    "102733.280000",
    "102735.280000",
    "102737.280000",
    "102739.280000",
    "102741.280000",
    "102743.280000",
    "102745.280000",
    "102747.280000",
    "102749.280000",
    "102751.280000",
    "102753.280000",
    "102755.280000",
    "102757.280000",
    "102759.280000",
    "102801.280000",
    "102803.280000",
    "102805.280000",
    "102807.280000",
    "102809.280000",
    "102811.280000",
    "102813.280000",
    "102815.280000",
    "102817.280000",
    "102819.280000",
    "102821.280000",
    "102823.280000",
    "102825.280000",
    "102827.280000",
    "102829.280000",
    "102831.280000",
    "102833.280000",
    "102835.280000",
    "102837.280000",
    "102839.280000",
    "102841.280000",
    "102843.280000",
    "102845.280000",
    "102847.280000",
    "102849.280000",
    "102851.280000",
    "102853.280000",
    "102855.280000",
    "102857.280000",
    "102859.280000",
    "102901.280000",
    "102903.280000",
    "102905.280000",
    "102907.280000",
    "102909.280000",
    "102911.280000",
    "102913.280000",
    "102915.280000",
    "102917.280000",
    "102919.280000",
    "102921.280000",
    "102923.280000",
    "102925.280000",
    "102927.280000",
    "102929.280000",
    "102931.280000",
    "102933.280000",
    "102935.280000",
    "102937.280000",
    "102939.280000",
    "102941.280000",
    "102943.280000",
    "102945.280000",
    "102947.280000",
    "102949.280000",
    "102951.280000",
    "102953.280000",
    "102955.280000",
    "102957.280000",
    "102959.280000",
    "103001.280000",
    "103003.280000",
    "103005.280000",
    "103007.280000",
    "103009.280000",
    "103011.280000",
    "103013.280000",
    "103015.280000",
    "103017.280000",
    "103019.280000",
    "103021.280000",
    "103023.280000",
    "103025.280000",
    "103027.280000",
    "103029.280000",
    "103031.280000",
    "103033.280000",
    "103035.280000",
    "103037.280000",
    "103039.280000",
    "103041.280000",
    "103043.280000",
    "103045.280000",
    "103047.280000",
    "103049.280000",
    "103051.280000",
    "103053.280000",
    "103055.280000",
    "103057.280000",
    "103059.280000",
    "103101.280000"
   ],
   "ContentTime": [
    "102234.171000",
    "102235.630000",
    "102237.630000",
    "102239.631000",
    "102241.632000",
    "102243.631000",
    "102245.630000",
    "102247.631000",
    "102249.632000",
    "102251.631000",
    "102253.632000",
    "102255.631000",
    "102257.631000",
    "102259.631000",
    "102301.630000",
    "102303.630000",
    "102305.631000",
    "102307.630000",
    "102309.630000",
    "102311.631000",
    "102313.630000",
    "102315.631000",
    "102317.632000",
    "102319.631000",
    "102321.631000",
    "102323.630000",
    "102325.630000",
    "102327.631000",
    "102329.630000",
    "102331.630000",
    "102333.632000",
    "102335.631000",
    "102337.630000",
    "102339.631000",
    "102341.630000",
    "102343.631000",
    "102345.630000",
    "102347.631000",
    "102349.631000",
    "102351.632000",
    "102353.631000",
    "102355.631000",
    "102357.630000",
    "102359.630000",
    "102401.631000",
    "102403.631000",
    "102405.630000",
    "102407.631000",
    "102409.632000",
    "102411.630000",
    "102413.631000",
    "102415.631000",
    "102417.631000",
    "102419.630000",
    "102421.631000",
    "102423.631000",
    "102425.630000",
    "102427.632000",
    "102429.631000",
    "102431.631000",
    "102433.630000",
    "102435.630000",
    "102437.631000",
    "102439.630000",
    "102441.630000",
    "102443.631000",
    "102445.631000",
    "102447.630000",
    "102449.631000",
    "102451.631000",
    "102453.631000",
    "102455.630000",
    "102457.631000",
    "102459.630000",
    "102501.631000",
    "102503.630000",
    "102505.630000",
    "102507.630000",
    "102509.630000",
    "102511.630000",
    "102513.631000",
    "102515.630000",
    "102517.631000",
    "102519.631000",
    "102521.630000",
    "102523.630000",
    "102525.630000",
    "102527.631000",
    "102529.630000",
    "102531.630000",
    "102533.630000",
    "102535.632000",
    "102537.632000",
    "102539.631000",
    "102541.631000",
    "102543.630000",
    "102545.630000",
    "102547.630000",
    "102549.631000",
    "102551.630000",
    "102553.631000",
    "102555.630000",
    "102557.630000",
    "102559.631000",
    "102601.630000",
    "102603.630000",
    "102605.630000",
    "102607.630000",
    "102609.631000",
    "102611.632000",
    "102613.631000",
    "102615.631000",
    "102617.631000",
    "102619.630000",
    "102621.631000",
    "102623.630000",
    "102625.630000",
    "102627.631000",
    "102629.632000",
    "102631.630000",
    "102633.630000",
    "102635.630000",
    "102637.631000",
    "102639.631000",
    "102641.631000",
    "102643.631000",
    "102645.632000",
    "102647.632000",
    "102649.631000",
    "102651.631000",
    "102653.631000",
    "102655.631000",
    "102657.631000",
    "102659.630000",
    "102701.630000",
    "102703.631000",
    "102705.631000",
    "102707.631000",
    "102709.631000",
    "102711.630000",
    "102713.631000",
    "102715.630000",
    "102717.631000",
    "102719.631000",
    "102721.631000",
    "102723.630000",
    "102725.630000",
    "102727.630000",
    "102729.630000",
    "102731.630000",
    "102733.630000",
    "102735.630000",
    "102737.630000",
    "102739.631000",
    "102741.631000",
    "102743.630000",
    "102745.631000",
    "102747.631000",
    "102749.631000",
    "102751.631000",
    "102753.631000",
    "102755.632000",
    "102757.631000",
    "102759.631000",
    "102801.630000",
    "102803.630000",
    "102805.630000",
    "102807.630000",
    "102809.630000",
    "102811.630000",
    "102813.631000",
    "102815.630000",
    "102817.630000",
    "102819.631000",
    "102821.631000",
    "102823.631000",
    "102825.647000",
    "102827.630000",
    "102829.630000",
    "102831.631000",
    "102833.630000",
    "102835.630000",
    "102837.630000",
    "102839.630000",
    "102841.630000",
    "102843.630000",
    "102845.630000",
    "102847.630000",
    "102849.631000",
    "102851.631000",
    "102853.631000",
    "102855.630000",
    "102857.630000",
    "102859.631000",
    "102901.631000",
    "102903.630000",
    "102905.631000",
    "102907.631000",
    "102909.631000",
    "102911.630000",
    "102913.631000",
    "102915.630000",
    "102917.630000",
    "102919.630000",
    "102921.630000",
    "102923.632000",
    "102925.630000",
    "102927.631000",
    "102929.631000",
    "102931.630000",
    "102933.630000",
    "102935.630000",
    "102937.630000",
    "102939.630000",
    "102941.631000",
    "102943.631000",
    "102945.630000",
    "102947.630000",
    "102949.630000",
    "102951.631000",
    "102953.630000",
    "102955.631000",
    "102957.631000",
    "102959.632000",
    "103001.630000",
    "103003.630000",
    "103005.630000",
    "103007.630000",
    "103009.630000",
    "103011.630000",
    "103013.630000",
    "103015.631000",
    "103017.631000",
    "103019.630000",
    "103021.630000",
    "103023.631000",
    "103025.631000",
    "103027.631000",
    "103029.630000",
    "103031.631000",
    "103033.631000",
    "103035.630000",
    "103037.630000",
    "103039.630000",
    "103041.630000",
    "103043.630000",
    "103045.630000",
    "103047.630000",
    "103049.630000",
    "103051.631000",
    "103053.630000",
    "103055.631000",
    "103057.631000",
    "103059.631000",
    "103101.631000",
    "103103.386000"
   ],
   "InstanceCreationTime": [
    "102234.171000",
    "102235.630000",
    "102237.630000",
    "102239.631000",
    "102241.632000",
    "102243.631000",
    "102245.630000",
    "102247.631000",
    "102249.632000",
    "102251.631000",
    "102253.632000",
    "102255.631000",
    "102257.631000",
    "102259.631000",
    "102301.630000",
    "102303.630000",
    "102305.631000",
    "102307.630000",
    "102309.630000",
    "102311.631000",
    "102313.630000",
    "102315.631000",
    "102317.632000",
    "102319.631000",
    "102321.631000",
    "102323.630000",
    "102325.630000",
    "102327.631000",
    "102329.630000",
    "102331.630000",
    "102333.632000",
    "102335.631000",
    "102337.630000",
    "102339.631000",
    "102341.630000",
    "102343.631000",
    "102345.630000",
    "102347.631000",
    "102349.631000",
    "102351.632000",
    "102353.631000",
    "102355.631000",
    "102357.630000",
    "102359.630000",
    "102401.631000",
    "102403.631000",
    "102405.630000",
    "102407.631000",
    "102409.632000",
    "102411.630000",
    "102413.631000",
    "102415.631000",
    "102417.631000",
    "102419.630000",
    "102421.631000",
    "102423.631000",
    "102425.630000",
    "102427.632000",
    "102429.631000",
    "102431.631000",
    "102433.630000",
    "102435.630000",
    "102437.631000",
    "102439.630000",
    "102441.630000",
    "102443.631000",
    "102445.631000",
    "102447.630000",
    "102449.631000",
    "102451.631000",
    "102453.631000",
    "102455.630000",
    "102457.631000",
    "102459.630000",
    "102501.631000",
    "102503.630000",
    "102505.630000",
    "102507.630000",
    "102509.630000",
    "102511.630000",
    "102513.631000",
    "102515.630000",
    "102517.631000",
    "102519.631000",
    "102521.630000",
    "102523.630000",
    "102525.630000",
    "102527.631000",
    "102529.630000",
    "102531.630000",
    "102533.630000",
    "102535.632000",
    "102537.632000",
    "102539.631000",
    "102541.631000",
    "102543.630000",
    "102545.630000",
    "102547.630000",
    "102549.631000",
    "102551.630000",
    "102553.631000",
    "102555.630000",
    "102557.630000",
    "102559.631000",
    "102601.630000",
    "102603.630000",
    "102605.630000",
    "102607.630000",
    "102609.631000",
    "102611.632000",
    "102613.631000",
    "102615.631000",
    "102617.631000",
    "102619.630000",
    "102621.631000",
    "102623.630000",
    "102625.630000",
    "102627.631000",
    "102629.632000",
    "102631.630000",
    "102633.630000",
    "102635.630000",
    "102637.631000",
    "102639.631000",
    "102641.631000",
    "102643.631000",
    "102645.632000",
    "102647.632000",
    "102649.631000",
    "102651.631000",
    "102653.631000",
    "102655.631000",
    "102657.631000",
    "102659.630000",
    "102701.630000",
    "102703.631000",
    "102705.631000",
    "102707.631000",
    "102709.631000",
    "102711.630000",
    "102713.631000",
    "102715.630000",
    "102717.631000",
    "102719.631000",
    "102721.631000",
    "102723.630000",
    "102725.630000",
    "102727.630000",
    "102729.630000",
    "102731.630000",
    "102733.630000",
    "102735.630000",
    "102737.630000",
    "102739.631000",
    "102741.631000",
    "102743.630000",
    "102745.631000",
    "102747.631000",
    "102749.631000",
    "102751.631000",
    "102753.631000",
    "102755.632000",
    "102757.631000",
    "102759.631000",
    "102801.630000",
    "102803.630000",
    "102805.630000",
    "102807.630000",
    "102809.630000",
    "102811.630000",
    "102813.631000",
    "102815.630000",
    "102817.630000",
    "102819.631000",
    "102821.631000",
    "102823.631000",
    "102825.647000",
    "102827.630000",
    "102829.630000",
    "102831.631000",
    "102833.630000",
    "102835.630000",
    "102837.630000",
    "102839.630000",
    "102841.630000",
    "102843.630000",
    "102845.630000",
    "102847.630000",
    "102849.631000",
    "102851.631000",
    "102853.631000",
    "102855.630000",
    "102857.630000",
    "102859.631000",
    "102901.631000",
    "102903.630000",
    "102905.631000",
    "102907.631000",
    "102909.631000",
    "102911.630000",
    "102913.631000",
    "102915.630000",
    "102917.630000",
    "102919.630000",
    "102921.630000",
    "102923.632000",
    "102925.630000",
    "102927.631000",
    "102929.631000",
    "102931.630000",
    "102933.630000",
    "102935.630000",
    "102937.630000",
    "102939.630000",
    "102941.631000",
    "102943.631000",
    "102945.630000",
    "102947.630000",
    "102949.630000",
    "102951.631000",
    "102953.630000",
    "102955.631000",
    "102957.631000",
    "102959.632000",
    "103001.630000",
    "103003.630000",
    "103005.630000",
    "103007.630000",
    "103009.630000",
    "103011.630000",
    "103013.630000",
    "103015.631000",
    "103017.631000",
    "103019.630000",
    "103021.630000",
    "103023.631000",
    "103025.631000",
    "103027.631000",
    "103029.630000",
    "103031.631000",
    "103033.631000",
    "103035.630000",
    "103037.630000",
    "103039.630000",
    "103041.630000",
    "103043.630000",
    "103045.630000",
    "103047.630000",
    "103049.630000",
    "103051.631000",
    "103053.630000",
    "103055.631000",
    "103057.631000",
    "103059.631000",
    "103101.631000",
    "103103.386000"
   ],
   "InstanceNumber": [
    1,
    2,
    3,
    4,
    5,
    6,
    7,
    8,
    9,
    10,
    11,
    12,
    13,
    14,
    15,
    16,
    17,
    18,
    19,
    20,
    21,
    22,
    23,
    24,
    25,
    26,
    27,
    28,
    29,
    30,
    31,
    32,
    33,
    34,
    35,
    36,
    37,
    38,
    39,
    40,
    41,
    42,
    43,
    44,
    45,
    46,
    47,
    48,
    49,
    50,
    51,
    52,
    53,
    54,
    55,
    56,
    57,
    58,
    59,
    60,
    61,
    62,
    63,
    64,
    65,
    66,
    67,
    68,
    69,
    70,
    71,
    72,
    73,
    74,
    75,
    76,
    77,
    78,
    79,
    80,
    81,
    82,
    83,
    84,
    85,
    86,
    87,
    88,
    89,
    90,
    91,
    92,
    93,
    94,
    95,
    96,
    97,
    98,
    99,
    100,
    101,
    102,
    103,
    104,
    105,
    106,
    107,
    108,
    109,
    110,
    111,
    112,
    113,
    114,
    115,
    116,
    117,
    118,
    119,
    120,
    121,
    122,
    123,
    124,
    125,
    126,
    127,
    128,
    129,
    130,
    131,
    132,
    133,
    134,
    135,
    136,
    137,
    138,
    139,
    140,
    141,
    142,
    143,
    144,
    145,
    146,
    147,
    148,
    149,
    150,
    151,
    152,
    153,
    154,
    155,
    156,
    157,
    158,
    159,
    160,
    161,
    162,
    163,
    164,
    165,
    166,
    167,
    168,
    169,
    170,
    171,
    172,
    173,
    174,
    175,
    176,
    177,
    178,
    179,
    180,
    181,
    182,
    183,
    184,
    185,
    186,
    187,
    188,
    189,
    190,
    191,
    192,
    193,
    194,
    195,
    196,
    197,
    198,
    199,
    200,
    201,
    202,
    203,
    204,
    205,
    206,
    207,
    208,
    209,
    210,
    211,
    212,
    213,
    214,
    215,
    216,
    217,
    218,
    219,
    220,
    221,
    222,
    223,
    224,
    225,
    226,
    227,
    228,
    229,
    230,
    231,
    232,
    233,
    234,
    235,
    236,
    237,
    238,
    239,
    240,
    241,
    242,
    243,
    244,
    245,
    246,
    247,
    248,
    249,
    250,
    251,
    252,
    253,
    254,
    255,
    256
   ],
   "LargestImagePixelValue": [
    2983,
    2991,
    2968,
    2936,
    2974,
    2948,
    2972,
    2984,
    2948,
    2962,
    2969,
    2944,
    3003,
    2954,
    2974,
    2988,
    2968,
    3007,
    2994,
    2953,
    3001,
    2946,
    2988,
    2951,
    2942,
    2993,
    2930,
    2960,
    2975,
    2942,
    2983,
    3023,
    3001,
    3006,
    2985,
    2972,
    3001,
    3007,
    2952,
    2983,
    2955,
    2980,
    3007,
    2955,
    2993,
    2992,
    2947,
    2978,
    2955,
    2955,
    2982,
    2964,
    3021,
    2966,
    2969,
    2997,
    2988,
    3004,
    2977,
    2977,
    2987,
    2967,
    3007,
    2994,
    2992,
    3053,
    2984,
    3000,
    2992,
    2991,
    2997,
    2968,
    3029,
    2995,
    2992,
    2989,
    2981,
    3004,
    2994,
    2995,
    2978,
    2971,
    2990,
    2991,
    2997,
    3004,
    3005,
    3015,
    3014,
    2996,
    2988,
    2978,
    3005,
    2994,
    3009,
    3006,
    2970,
    2965,
    3019,
    2975,
    3020,
    3003,
    2980,
    2977,
    2975,
    3009,
    2974,
    3004,
    2986,
    2990,
    3011,
    2954,
    3027,
    2974,
    2979,
    3010,
    2959,
    2959,
    2982,
    2954,
    3030,
    2982,
    2963,
    3013,
    2961,
    2997,
    2976,
    3017,
    2978,
    2984,
    3005,
    2982,
    2997,
    2981,
    2972,
    2994,
    2975,
    3005,
    2991,
    2978,
    2990,
    2997,
    3008,
    2997,
    2999,
    3010,
    3021,
    2966,
    2976,
    2985,
    3019,
    2994,
    2997,
    2972,
    2967,
    2960,
    2980,
    2968,
    2960,
    2944,
    2994,
    2982,
    3002,
    2976,
    2988,
    2959,
    2968,
    2978,
    2991,
    3020,
    2986,
    2977,
    2987,
    2971,
    3004,
    3003,
    3000,
    2962,
    2966,
    2974,
    2990,
    2963,
    2986,
    2967,
    2992,
    2966,
    3002,
    3008,
    3005,
    2973,
    2970,
    2963,
    2978,
    3010,
    2999,
    2960,
    2954,
    2996,
    3013,
    2999,
    2994,
    3006,
    3012,
    2985,
    2964,
    3001,
    2986,
    2970,
    2990,
    2975,
    2967,
    2955,
    3002,
    3011,
    3010,
    2974,
    3001,
    2972,
    2991,
    2986,
    2969,
    3007,
    2997,
    2970,
    2989,
    2982,
    2993,
    3025,
    2985,
    2980,
    3000,
    2972,
    2963,
    2969,
    3019,
    2996,
    2998,
    2981,
    2988,
    3002,
    3002,
    2970,
    2963,
    2975,
    2978,
    2968,
    2974,
    2950,
    2963,
    2995,
    2981,
    2973,
    2996,
    2968,
    2983,
    2984
   ],
   "WindowCenter": [
    765.0,
    764.0,
    764.0,
    763.0,
    763.0,
    763.0,
    763.0,
    763.0,
    762.0,
    762.0,
    762.0,
    762.0,
    763.0,
    763.0,
    763.0,
    762.0,
    762.0,
    763.0,
    763.0,
    763.0,
    764.0,
    763.0,
    763.0,
    762.0,
    762.0,
    761.0,
    761.0,
    761.0,
    762.0,
    761.0,
    762.0,
    762.0,
    762.0,
    762.0,
    762.0,
    762.0,
    764.0,
    764.0,
    763.0,
    762.0,
    761.0,
    761.0,
    761.0,
    760.0,
    760.0,
    760.0,
    762.0,
    765.0,
    764.0,
    763.0,
    762.0,
    762.0,
    762.0,
    761.0,
    761.0,
    762.0,
    762.0,
    761.0,
    761.0,
    761.0,
    761.0,
    762.0,
    762.0,
    761.0,
    762.0,
    762.0,
    762.0,
    762.0,
    762.0,
    762.0,
    762.0,
    762.0,
    762.0,
    762.0,
    762.0,
    761.0,
    761.0,
    761.0,
    762.0,
    762.0,
    761.0,
    761.0,
    762.0,
    762.0,
    763.0,
    764.0,
    763.0,
    763.0,
    762.0,
    762.0,
    762.0,
    763.0,
    763.0,
    763.0,
    762.0,
    762.0,
    762.0,
    761.0,
    762.0,
    762.0,
    762.0,
    762.0,
    761.0,
    761.0,
    761.0,
    761.0,
    761.0,
    761.0,
    761.0,
    761.0,
    763.0,
    763.0,
    764.0,
    763.0,
    762.0,
    762.0,
    762.0,
    762.0,
    763.0,
    762.0,
    763.0,
    762.0,
    761.0,
    761.0,
    761.0,
    762.0,
