{
  "AcquisitionMatrixPE": 100,
  "AcquisitionNumber": 1,
  "AcquisitionTime": "09:27:24.852500",
  "BandwidthPerPixelPhaseEncode": 18.519,
  "BaseResolution": 100,
  "BodyPartExamined": "BRAIN",
  "ConsistencyInfo": "N4_VE11C_LATEST_20160120",
  "ConversionSoftware": "dcm2niix",
  "ConversionSoftwareVersion": "v1.0.20180622 GCC4.9.2",
  "DerivedVendorReportedEchoSpacing": 0.000539986,
  "DeviceSerialNumber": "166078",
  "DwellTime": 2.1e-06,
  "EchoTime": 0.034,
  "EchoTrainLength": 100,
  "EffectiveEchoSpacing": 0.000539986,
  "FlipAngle": 90,
  "ImageOrientationPatientDICOM": [1, 0, 0, 0, 0.999962, -0.00872654],
  "ImageType": [
    "ORIGINAL",
    "PRIMARY",
    "M",
    "ND",
    "MOSAIC"
],
  "InPlanePhaseEncodingDirectionDICOM": "COL",
  "InstitutionAddress": "Street_StreetNo_Bei_Jing_District_CN_ZIP",
  "InstitutionName": "BeiJing_Normal_University",
  "InstitutionalDepartmentName": "Department",
  "MRAcquisitionType": "2D",
  "MagneticFieldStrength": 3,
  "Manufacturer": "Siemens",
  "ManufacturersModelName": "Prisma",
  "Modality": "MR",
  "MultibandAccelerationFactor": 3,
  "PartialFourier": 1,
  "PatientPosition": "HFS",
  "PercentPhaseFOV": 100,
  "PhaseEncodingDirection": "j-",
  "PhaseEncodingSteps": 100,
  "PhaseResolution": 1,
  "PixelBandwidth": 2380,
  "ProcedureStepDescription": "BNU_P2018_64CH_Zhen.ZongLei",
  "ProtocolName": "bold_100x100_s3_2x2x2_static_256",
  "PulseSequenceDetails": "%SiemensSeq%_ep2d_bold",
  "ReceiveCoilActiveElements": "HC1-7;NC1",
  "ReceiveCoilName": "HeadNeck_64",
  "ReconMatrixPE": 100,
  "RepetitionTime": 2,
  "SAR": 0.0616759,
  "ScanOptions": "FS",
  "ScanningSequence": "EP",
  "SequenceName": "_epfid2d1_100",
  "SequenceVariant": "SK",
  "SeriesDescription": "bold_100x100_s3_2x2x2_static_256",
  "SeriesNumber": 5,
  "ShimSetting": [-5448, -11460, -1288, 444, -55, -313, -216, 133],
  "SliceThickness": 2,
  "SliceTiming": [1.485, 0, 0.99, 0.0825, 1.0725, 0.165, 1.155, 0.2475, 1.2375, 0.33, 1.32, 0.4125, 1.4025, 0.5775, 1.5675, 0.66, 1.65, 0.7425, 1.7325, 0.825, 1.815, 0.9075, 1.8975, 0.495, 1.485, 0, 0.99, 0.0825, 1.0725, 0.165, 1.155, 0.2475, 1.2375, 0.33, 1.32, 0.4125, 1.4025, 0.5775, 1.5675, 0.66, 1.65, 0.7425, 1.7325, 0.825, 1.815, 0.9075, 1.8975, 0.495, 1.485, 0, 0.99, 0.0825, 1.0725, 0.165, 1.155, 0.2475, 1.2375, 0.33, 1.32, 0.4125, 1.4025, 0.5775, 1.5675, 0.66, 1.65, 0.7425, 1.7325, 0.825, 1.815, 0.9075, 1.8975, 0.495],
  "SoftwareVersions": "syngo_MR_E11",
  "SpacingBetweenSlices": 2,
  "StationName": "AWP166078",
  "TaskName": "naturalvision",
  "TotalReadoutTime": 0.0534586,
  "TxRefAmp": 212.039,
  "dcmmeta_affine": [
    [-2.0, 0.0, 0.0, 100.0],
    [0.0, 1.999923825263977, -0.017453070729970932, -87.86094665527344],
    [0.0, 0.017453070729970932, 1.999923825263977, -79.48445892333984],
    [0.0, 0.0, 0.0, 1.0]
],
  "dcmmeta_reorient_transform": [
    [0.0, -1.0, 0.0, 99.0],
    [1.0, 0.0, 0.0, 0.0],
    [0.0, 0.0, 1.0, 0.0],
    [0.0, 0.0, 0.0, 1.0]
],
  "dcmmeta_shape": [100, 100, 72, 256],
  "dcmmeta_slice_dim": 2,
  "dcmmeta_version": 0.6,
  "global": {
    "const": {
      "AcquisitionMatrix": [100, 0, 0, 100],
      "AngioFlag": "N",
      "BitsAllocated": 16,
      "BitsStored": 12,
      "BodyPartExamined": "BRAIN",
      "Columns": 900,
      "EchoNumbers": 1,
      "EchoTime": 34.0,
      "EchoTrainLength": 100,
      "FlipAngle": 90.0,
      "HighBit": 11,
      "ImageOrientationPatient": [1.0, 0.0, 0.0, 0.0, 0.99996192306517, -0.0087265353836],
      "ImagePositionPatient": [-900.0, -910.10105332945, -70.775375356877],
      "ImageType": [
        "ORIGINAL",
        "PRIMARY",
        "M",
        "ND",
        "MOSAIC"
],
      "ImagedNucleus": "1H",
      "ImagingFrequency": 123.257741,
      "InPlanePhaseEncodingDirection": "COL",
      "MRAcquisitionType": "2D",
      "MagneticFieldStrength": 3.0,
      "Manufacturer": "SIEMENS",
      "ManufacturerModelName": "Prisma",
      "Modality": "MR",
      "NumberOfAverages": 1.0,
      "NumberOfPhaseEncodingSteps": 100,
      "PercentPhaseFieldOfView": 100.0,
      "PercentSampling": 100.0,
      "PerformedProcedureStepStartTime": "090101.576000",
      "PhotometricInterpretation": "MONOCHROME2",
      "PixelBandwidth": 2380.0,
      "PixelRepresentation": 0,
      "PixelSpacing": [2.0, 2.0],
      "ProtocolName": "bold_100x100_s3_2x2x2_static_256",
      "RepetitionTime": 2000.0,
      "Rows": 900,
      "SAR": 0.06167587837942,
      "SamplesPerPixel": 1,
      "ScanOptions": "FS",
      "ScanningSequence": "EP",
      "SequenceName": "*epfid2d1_100",
      "SequenceVariant": "SK",
      "SeriesDescription": "bold_100x100_s3_2x2x2_static_256",
      "SeriesNumber": 5,
      "SeriesTime": "092727.119000",
      "SliceLocation": -78.714709492085,
      "SliceThickness": 2.0,
      "SmallestImagePixelValue": 0,
      "SoftwareVersions": "syngo MR E11",
      "SpacingBetweenSlices": 1.9999999673994,
      "SpecificCharacterSet": "ISO_IR 100",
      "StudyID": "1",
      "StudyTime": "090101.320000",
      "TransmitCoilName": "Body",
      "VariableFlipAngleFlag": "N",
      "WindowCenterWidthExplanation": "Algo1",
      "dBdt": 0.0},
    "slices": {}
  },
  "time": {
    "samples": {
      "AcquisitionNumber": [1, 2, 3, 4, 5, 6, 7, 8, 9, 10, 11, 12, 13, 14, 15, 16, 17, 18, 19, 20, 21, 22, 23, 24, 25, 26, 27, 28, 29, 30, 31, 32, 33, 34, 35, 36, 37, 38, 39, 40, 41, 42, 43, 44, 45, 46, 47, 48, 49, 50, 51, 52, 53, 54, 55, 56, 57, 58, 59, 60, 61, 62, 63, 64, 65, 66, 67, 68, 69, 70, 71, 72, 73, 74, 75, 76, 77, 78, 79, 80, 81, 82, 83, 84, 85, 86, 87, 88, 89, 90, 91, 92, 93, 94, 95, 96, 97, 98, 99, 100, 101, 102, 103, 104, 105, 106, 107, 108, 109, 110, 111, 112, 113, 114, 115, 116, 117, 118, 119, 120, 121, 122, 123, 124, 125, 126, 127, 128, 129, 130, 131, 132, 133, 134, 135, 136, 137, 138, 139, 140, 141, 142, 143, 144, 145, 146, 147, 148, 149, 150, 151, 152, 153, 154, 155, 156, 157, 158, 159, 160, 161, 162, 163, 164, 165, 166, 167, 168, 169, 170, 171, 172, 173, 174, 175, 176, 177, 178, 179, 180, 181, 182, 183, 184, 185, 186, 187, 188, 189, 190, 191, 192, 193, 194, 195, 196, 197, 198, 199, 200, 201, 202, 203, 204, 205, 206, 207, 208, 209, 210, 211, 212, 213, 214, 215, 216, 217, 218, 219, 220, 221, 222, 223, 224, 225, 226, 227, 228, 229, 230, 231, 232, 233, 234, 235, 236, 237, 238, 239, 240, 241, 242, 243, 244, 245, 246, 247, 248, 249, 250, 251, 252, 253, 254, 255, 256],
      "AcquisitionTime": ["092724.852500", "092726.852500", "092728.852500", "092730.852500", "092732.852500", "092734.852500", "092736.852500", "092738.852500", "092740.852500", "092742.852500", "092744.852500", "092746.852500", "092748.852500", "092750.852500", "092752.852500", "092754.852500", "092756.852500", "092758.852500", "092800.852500", "092802.852500", "092804.852500", "092806.852500", "092808.852500", "092810.852500", "092812.852500", "092814.852500", "092816.852500", "092818.852500", "092820.852500", "092822.852500", "092824.852500", "092826.852500", "092828.852500", "092830.852500", "092832.852500", "092834.852500", "092836.852500", "092838.852500", "092840.852500", "092842.852500", "092844.852500", "092846.852500", "092848.852500", "092850.852500", "092852.852500", "092854.852500", "092856.852500", "092858.852500", "092900.852500", "092902.852500", "092904.852500", "092906.852500", "092908.852500", "092910.852500", "092912.852500", "092914.852500", "092916.852500", "092918.852500", "092920.852500", "092922.852500", "092924.852500", "092926.852500", "092928.852500", "092930.852500", "092932.852500", "092934.852500", "092936.852500", "092938.852500", "092940.852500", "092942.852500", "092944.852500", "092946.852500", "092948.852500", "092950.852500", "092952.852500", "092954.852500", "092956.852500", "092958.852500", "093000.852500", "093002.852500", "093004.852500", "093006.852500", "093008.852500", "093010.852500", "093012.852500", "093014.852500", "093016.852500", "093018.852500", "093020.852500", "093022.852500", "093024.852500", "093026.852500", "093028.852500", "093030.852500", "093032.852500", "093034.852500", "093036.852500", "093038.852500", "093040.852500", "093042.852500", "093044.852500", "093046.852500", "093048.852500", "093050.852500", "093052.852500", "093054.852500", "093056.852500", "093058.852500", "093100.852500", "093102.852500", "093104.852500", "093106.852500", "093108.852500", "093110.852500", "093112.852500", "093114.852500", "093116.852500", "093118.852500", "093120.852500", "093122.852500", "093124.852500", "093126.852500", "093128.852500", "093130.852500", "093132.852500", "093134.852500", "093136.852500", "093138.852500", "093140.852500", "093142.852500", "093144.852500", "093146.852500", "093148.852500", "093150.852500", "093152.852500", "093154.852500", "093156.852500", "093158.852500", "093200.852500", "093202.852500", "093204.852500", "093206.852500", "093208.852500", "093210.852500", "093212.852500", "093214.852500", "093216.852500", "093218.852500", "093220.852500", "093222.852500", "093224.852500", "093226.852500", "093228.852500", "093230.852500", "093232.852500", "093234.852500", "093236.852500", "093238.852500", "093240.852500", "093242.852500", "093244.852500", "093246.852500", "093248.852500", "093250.852500", "093252.852500", "093254.852500", "093256.852500", "093258.852500", "093300.852500", "093302.852500", "093304.852500", "093306.852500", "093308.852500", "093310.852500", "093312.852500", "093314.852500", "093316.852500", "093318.852500", "093320.852500", "093322.852500", "093324.852500", "093326.852500", "093328.852500", "093330.852500", "093332.852500", "093334.852500", "093336.852500", "093338.852500", "093340.852500", "093342.852500", "093344.852500", "093346.852500", "093348.852500", "093350.852500", "093352.852500", "093354.852500", "093356.852500", "093358.852500", "093400.852500", "093402.852500", "093404.852500", "093406.852500", "093408.852500", "093410.852500", "093412.852500", "093414.852500", "093416.852500", "093418.852500", "093420.852500", "093422.852500", "093424.852500", "093426.852500", "093428.852500", "093430.852500", "093432.852500", "093434.852500", "093436.852500", "093438.852500", "093440.852500", "093442.852500", "093444.852500", "093446.852500", "093448.852500", "093450.852500", "093452.852500", "093454.852500", "093456.852500", "093458.852500", "093500.852500", "093502.852500", "093504.852500", "093506.852500", "093508.852500", "093510.852500", "093512.852500", "093514.852500", "093516.852500", "093518.852500", "093520.852500", "093522.852500", "093524.852500", "093526.852500", "093528.852500", "093530.852500", "093532.852500", "093534.852500", "093536.852500", "093538.852500", "093540.852500", "093542.852500", "093544.852500", "093546.852500", "093548.852500", "093550.852500", "093552.852500", "093554.852500"],
      "ContentTime": ["092727.122000", "092728.608000", "092730.607000", "092732.607000", "092734.607000", "092736.607000", "092738.607000", "092740.607000", "092742.607000", "092744.607000", "092746.607000", "092748.607000", "092750.607000", "092752.607000", "092754.607000", "092756.608000", "092758.608000", "092800.607000", "092802.607000", "092804.607000", "092806.607000", "092808.608000", "092810.607000", "092812.607000", "092814.608000", "092816.607000", "092818.607000", "092820.607000", "092822.607000", "092824.608000", "092826.607000", "092828.607000", "092830.607000", "092832.607000", "092834.607000", "092836.608000", "092838.607000", "092840.608000", "092842.607000", "092844.608000", "092846.608000", "092848.607000", "092850.608000", "092852.608000", "092854.607000", "092856.607000", "092858.607000", "092900.607000", "092902.608000", "092904.607000", "092906.608000", "092908.607000", "092910.607000", "092912.607000", "092914.607000", "092916.607000", "092918.607000", "092920.607000", "092922.607000", "092924.607000", "092926.607000", "092928.607000", "092930.607000", "092932.607000", "092934.608000", "092936.608000", "092938.607000", "092940.607000", "092942.607000", "092944.607000", "092946.607000", "092948.607000", "092950.608000", "092952.607000", "092954.607000", "092956.607000", "092958.607000", "093000.607000", "093002.608000", "093004.607000", "093006.607000", "093008.607000", "093010.607000", "093012.607000", "093014.607000", "093016.607000", "093018.608000", "093020.607000", "093022.608000", "093024.609000", "093026.609000", "093028.608000", "093030.609000", "093032.607000", "093034.607000", "093036.608000", "093038.607000", "093040.608000", "093042.607000", "093044.607000", "093046.607000", "093048.608000", "093050.607000", "093052.607000", "093054.607000", "093056.608000", "093058.607000", "093100.607000", "093102.607000", "093104.607000", "093106.608000", "093108.607000", "093110.607000", "093112.607000", "093114.608000", "093116.608000", "093118.607000", "093120.608000", "093122.607000", "093124.607000", "093126.608000", "093128.608000", "093130.608000", "093132.607000", "093134.607000", "093136.607000", "093138.607000", "093140.608000", "093142.608000", "093144.607000", "093146.608000", "093148.607000", "093150.608000", "093152.607000", "093154.607000", "093156.607000", "093158.609000", "093200.607000", "093202.607000", "093204.607000", "093206.607000", "093208.607000", "093210.607000", "093212.607000", "093214.608000", "093216.607000", "093218.607000", "093220.608000", "093222.607000", "093224.607000", "093226.607000", "093228.607000", "093230.608000", "093232.607000", "093234.607000", "093236.608000", "093238.607000", "093240.607000", "093242.607000", "093244.607000", "093246.607000", "093248.607000", "093250.607000", "093252.607000", "093254.607000", "093256.607000", "093258.607000", "093300.607000", "093302.607000", "093304.607000", "093306.607000", "093308.608000", "093310.607000", "093312.608000", "093314.607000", "093316.607000", "093318.621000", "093320.608000", "093322.627000", "093324.608000", "093326.607000", "093328.607000", "093330.607000", "093332.608000", "093334.607000", "093336.608000", "093338.607000", "093340.607000", "093342.607000", "093344.608000", "093346.608000", "093348.608000", "093350.608000", "093352.607000", "093354.607000", "093356.607000", "093358.608000", "093400.608000", "093402.608000", "093404.608000", "093406.607000", "093408.608000", "093410.608000", "093412.608000", "093414.608000", "093416.608000", "093418.609000", "093420.607000", "093422.607000", "093424.607000", "093426.608000", "093428.607000", "093430.608000", "093432.607000", "093434.607000", "093436.607000", "093438.608000", "093440.608000", "093442.607000", "093444.607000", "093446.608000", "093448.608000", "093450.607000", "093452.607000", "093454.607000", "093456.608000", "093458.608000", "093500.607000", "093502.607000", "093504.608000", "093506.608000", "093508.608000", "093510.607000", "093512.607000", "093514.608000", "093516.607000", "093518.608000", "093520.608000", "093522.608000", "093524.607000", "093526.608000", "093528.607000", "093530.608000", "093532.608000", "093534.608000", "093536.608000", "093538.608000", "093540.608000", "093542.608000", "093544.608000", "093546.608000", "093548.607000", "093550.608000", "093552.608000", "093554.608000", "093556.466000"],
      "InstanceCreationTime": ["092727.122000", "092728.608000", "092730.607000", "092732.607000", "092734.607000", "092736.607000", "092738.607000", "092740.607000", "092742.607000", "092744.607000", "092746.607000", "092748.607000", "092750.607000", "092752.607000", "092754.607000", "092756.608000", "092758.608000", "092800.607000", "092802.607000", "092804.607000", "092806.607000", "092808.608000", "092810.607000", "092812.607000", "092814.608000", "092816.607000", "092818.607000", "092820.607000", "092822.607000", "092824.608000", "092826.607000", "092828.607000", "092830.607000", "092832.607000", "092834.607000", "092836.608000", "092838.607000", "092840.608000", "092842.607000", "092844.608000", "092846.608000", "092848.607000", "092850.608000", "092852.608000", "092854.607000", "092856.607000", "092858.607000", "092900.607000", "092902.608000", "092904.607000", "092906.608000", "092908.607000", "092910.607000", "092912.607000", "092914.607000", "092916.607000", "092918.607000", "092920.607000", "092922.607000", "092924.607000", "092926.607000", "092928.607000", "092930.607000", "092932.607000", "092934.608000", "092936.608000", "092938.607000", "092940.607000", "092942.607000", "092944.607000", "092946.607000", "092948.607000", "092950.608000", "092952.607000", "092954.607000", "092956.607000", "092958.607000", "093000.607000", "093002.608000", "093004.607000", "093006.607000", "093008.607000", "093010.607000", "093012.607000", "093014.607000", "093016.607000", "093018.608000", "093020.607000", "093022.608000", "093024.609000", "093026.609000", "093028.608000", "093030.609000", "093032.607000", "093034.607000", "093036.608000", "093038.607000", "093040.608000", "093042.607000", "093044.607000", "093046.607000", "093048.608000", "093050.607000", "093052.607000", "093054.607000", "093056.608000", "093058.607000", "093100.607000", "093102.607000", "093104.607000", "093106.608000", "093108.607000", "093110.607000", "093112.607000", "093114.608000", "093116.608000", "093118.607000", "093120.608000", "093122.607000", "093124.607000", "093126.608000", "093128.608000", "093130.608000", "093132.607000", "093134.607000", "093136.607000", "093138.607000", "093140.608000", "093142.608000", "093144.607000", "093146.608000", "093148.607000", "093150.608000", "093152.607000", "093154.607000", "093156.607000", "093158.609000", "093200.607000", "093202.607000", "093204.607000", "093206.607000", "093208.607000", "093210.607000", "093212.607000", "093214.608000", "093216.607000", "093218.607000", "093220.608000", "093222.607000", "093224.607000", "093226.607000", "093228.607000", "093230.608000", "093232.607000", "093234.607000", "093236.608000", "093238.607000", "093240.607000", "093242.607000", "093244.607000", "093246.607000", "093248.607000", "093250.607000", "093252.607000", "093254.607000", "093256.607000", "093258.607000", "093300.607000", "093302.607000", "093304.607000", "093306.607000", "093308.608000", "093310.607000", "093312.608000", "093314.607000", "093316.607000", "093318.621000", "093320.608000", "093322.627000", "093324.608000", "093326.607000", "093328.607000", "093330.607000", "093332.608000", "093334.607000", "093336.608000", "093338.607000", "093340.607000", "093342.607000", "093344.608000", "093346.608000", "093348.608000", "093350.608000", "093352.607000", "093354.607000", "093356.607000", "093358.608000", "093400.608000", "093402.608000", "093404.608000", "093406.607000", "093408.608000", "093410.608000", "093412.608000", "093414.608000", "093416.608000", "093418.609000", "093420.607000", "093422.607000", "093424.607000", "093426.608000", "093428.607000", "093430.608000", "093432.607000", "093434.607000", "093436.607000", "093438.608000", "093440.608000", "093442.607000", "093444.607000", "093446.608000", "093448.608000", "093450.607000", "093452.607000", "093454.607000", "093456.608000", "093458.608000", "093500.607000", "093502.607000", "093504.608000", "093506.608000", "093508.608000", "093510.607000", "093512.607000", "093514.608000", "093516.607000", "093518.608000", "093520.608000", "093522.608000", "093524.607000", "093526.608000", "093528.607000", "093530.608000", "093532.608000", "093534.608000", "093536.608000", "093538.608000", "093540.608000", "093542.608000", "093544.608000", "093546.608000", "093548.607000", "093550.608000", "093552.608000", "093554.608000", "093556.466000"],
      "InstanceNumber": [1, 2, 3, 4, 5, 6, 7, 8, 9, 10, 11, 12, 13, 14, 15, 16, 17, 18, 19, 20, 21, 22, 23, 24, 25, 26, 27, 28, 29, 30, 31, 32, 33, 34, 35, 36, 37, 38, 39, 40, 41, 42, 43, 44, 45, 46, 47, 48, 49, 50, 51, 52, 53, 54, 55, 56, 57, 58, 59, 60, 61, 62, 63, 64, 65, 66, 67, 68, 69, 70, 71, 72, 73, 74, 75, 76, 77, 78, 79, 80, 81, 82, 83, 84, 85, 86, 87, 88, 89, 90, 91, 92, 93, 94, 95, 96, 97, 98, 99, 100, 101, 102, 103, 104, 105, 106, 107, 108, 109, 110, 111, 112, 113, 114, 115, 116, 117, 118, 119, 120, 121, 122, 123, 124, 125, 126, 127, 128, 129, 130, 131, 132, 133, 134, 135, 136, 137, 138, 139, 140, 141, 142, 143, 144, 145, 146, 147, 148, 149, 150, 151, 152, 153, 154, 155, 156, 157, 158, 159, 160, 161, 162, 163, 164, 165, 166, 167, 168, 169, 170, 171, 172, 173, 174, 175, 176, 177, 178, 179, 180, 181, 182, 183, 184, 185, 186, 187, 188, 189, 190, 191, 192, 193, 194, 195, 196, 197, 198, 199, 200, 201, 202, 203, 204, 205, 206, 207, 208, 209, 210, 211, 212, 213, 214, 215, 216, 217, 218, 219, 220, 221, 222, 223, 224, 225, 226, 227, 228, 229, 230, 231, 232, 233, 234, 235, 236, 237, 238, 239, 240, 241, 242, 243, 244, 245, 246, 247, 248, 249, 250, 251, 252, 253, 254, 255, 256],
      "LargestImagePixelValue": [2935, 2888, 2876, 2870, 2860, 2873, 2877, 2878, 2883, 2856, 2871, 2880, 2879, 2855, 2895, 2880, 2875, 2875, 2879, 2864, 2885, 2889, 2871, 2883, 2896, 2868, 2861, 2863, 2874, 2877, 2890, 2866, 2885, 2893, 2873, 2873, 2863, 2895, 2908, 2903, 2896, 2877, 2889, 2895, 2876, 2889, 2886, 2899, 2867, 2876, 2880, 2927, 2869, 2887, 2918, 2901, 2884, 2874, 2893, 2890, 2899, 2898, 2847, 2891, 2877, 2864, 2898, 2894, 2900, 2907, 2881, 2898, 2897, 2906, 2890, 2894, 2866, 2875, 2886, 2902, 2901, 2887, 2904, 2881, 2894, 2884, 2890, 2868, 2886, 2906, 2876, 2885, 2897, 2885, 2884, 2907, 2870, 2889, 2885, 2887, 2861, 2885, 2908, 2863, 2894, 2875, 2874, 2873, 2886, 2882, 2916, 2892, 2900, 2887, 2870, 2884, 2873, 2893, 2901, 2892, 2913, 2905, 2886, 2901, 2905, 2905, 2918, 2875, 2900, 2877, 2903, 2872, 2885, 2888, 2876, 2896, 2903, 2866, 2917, 2897, 2885, 2873, 2899, 2915, 2911, 2901, 2892, 2872, 2897, 2903, 2874, 2924, 2890, 2879, 2905, 2879, 2878, 2887, 2893, 2902, 2897, 2907, 2884, 2882, 2905, 2882, 2882, 2903, 2864, 2890, 2872, 2877, 2912, 2882, 2879, 2906, 2872, 2886, 2862, 2896, 2867, 2889, 2873, 2858, 2874, 2896, 2883, 2869, 2890, 2883, 2893, 2888, 2890, 2894, 2875, 2893, 2874, 2934, 2906, 2900, 2912, 2875, 2886, 2905, 2887, 2880, 2876, 2857, 2871, 2888, 2869, 2873, 2889, 2876, 2863, 2897, 2865, 2883, 2851, 2897, 2886, 2869, 2882, 2889, 2882, 2884, 2868, 2866, 2861, 2890, 2881, 2889, 2911, 2900, 2880, 2854, 2911, 2864, 2873, 2889, 2905, 2903, 2890, 2876, 2868, 2879, 2888, 2869, 2873, 2886, 2882, 2890, 2886, 2865, 2861, 2883],
      "WindowCenter": [768.0, 767.0, 767.0, 766.0, 766.0, 766.0, 766.0, 766.0, 766.0, 766.0, 768.0, 768.0, 767.0, 766.0, 767.0, 768.0, 769.0, 767.0, 766.0, 765.0, 765.0, 765.0, 766.0, 767.0, 766.0, 766.0, 765.0, 765.0, 766.0, 765.0, 765.0, 765.0, 766.0, 766.0, 766.0, 766.0, 766.0, 766.0, 766.0, 765.0, 764.0, 765.0, 767.0, 767.0, 765.0, 765.0, 764.0, 766.0, 766.0, 766.0, 765.0, 766.0, 766.0, 766.0, 766.0, 765.0, 763.0, 763.0, 764.0, 766.0, 766.0, 766.0, 766.0, 766.0, 766.0, 766.0, 765.0, 765.0, 765.0, 765.0, 765.0, 765.0, 765.0, 765.0, 764.0, 765.0, 764.0, 764.0, 764.0, 765.0, 766.0, 766.0, 765.0, 764.0, 765.0, 765.0, 765.0, 765.0, 765.0, 765.0, 765.0, 764.0, 764.0, 764.0, 765.0, 766.0, 766.0, 766.0, 765.0, 764.0, 764.0, 765.0, 766.0, 765.0, 764.0, 763.0, 764.0, 764.0, 764.0, 764.0, 765.0, 767.0, 767.0, 766.0, 764.0, 764.0, 764.0, 763.0, 763.0, 764.0, 765.0, 764.0, 764.0, 764.0, 764.0, 765.0, 765.0, 765.0, 764.0, 763.0, 764.0, 764.0, 764.0, 765.0, 765.0, 764.0, 764.0, 764.0, 766.0, 766.0, 765.0, 765.0, 764.0, 764.0, 764.0, 764.0, 765.0, 765.0, 765.0, 765.0, 764.0, 764.0, 764.0, 764.0, 764.0, 764.0, 764.0, 764.0, 764.0, 764.0, 765.0, 765.0, 765.0, 763.0, 763.0, 763.0, 764.0, 765.0, 766.0, 766.0, 765.0, 764.0, 764.0, 763.0, 763.0, 764.0, 765.0, 765.0, 763.0, 764.0, 764.0, 765.0, 765.0, 765.0, 765.0, 764.0, 764.0, 764.0, 764.0, 764.0, 764.0, 764.0, 765.0, 766.0, 766.0, 766.0, 766.0, 766.0, 765.0, 764.0, 764.0, 763.0, 763.0, 763.0, 764.0, 765.0, 766.0, 765.0, 764.0, 764.0, 765.0, 766.0, 765.0, 764.0, 763.0, 763.0, 764.0, 765.0, 766.0, 766.0, 764.0, 763.0, 764.0, 765.0, 765.0, 765.0, 764.0, 764.0, 765.0, 765.0, 764.0, 764.0, 765.0, 765.0, 765.0, 765.0, 765.0, 764.0, 764.0, 764.0, 764.0, 765.0, 766.0, 766.0, 765.0, 764.0, 764.0, 763.0, 763.0, 763.0, 762.0, 762.0, 763.0, 764.0, 765.0, 766.0],
      "WindowWidth": [1661.0, 1657.0, 1657.0, 1655.0, 1654.0, 1655.0, 1655.0, 1655.0, 1655.0, 1655.0, 1660.0, 1658.0, 1658.0, 1655.0, 1658.0, 1660.0, 1662.0, 1659.0, 1655.0, 1652.0, 1652.0, 1652.0, 1655.0, 1657.0, 1656.0, 1653.0, 1652.0, 1653.0, 1655.0, 1653.0, 1652.0, 1652.0, 1654.0, 1654.0, 1654.0, 1654.0, 1654.0, 1654.0, 1653.0, 1651.0, 1650.0, 1653.0, 1656.0, 1657.0, 1653.0, 1651.0, 1651.0, 1654.0, 1655.0, 1655.0, 1653.0, 1654.0, 1654.0, 1656.0, 1655.0, 1651.0, 1647.0, 1647.0, 1651.0, 1654.0, 1655.0, 1655.0, 1654.0, 1655.0, 1655.0, 1654.0, 1652.0, 1651.0, 1651.0, 1652.0, 1652.0, 1653.0, 1653.0, 1651.0, 1650.0, 1651.0, 1650.0, 1649.0, 1650.0, 1652.0, 1654.0, 1654.0, 1653.0, 1650.0, 1651.0, 1651.0, 1653.0, 1652.0, 1650.0, 1651.0, 1651.0, 1650.0, 1650.0, 1649.0, 1650.0, 1653.0, 1655.0, 1655.0, 1652.0, 1649.0, 1649.0, 1651.0, 1653.0, 1651.0, 1649.0, 1647.0, 1649.0, 1649.0, 1650.0, 1650.0, 1653.0, 1656.0, 1657.0, 1653.0, 1649.0, 1648.0, 1648.0, 1647.0, 1648.0, 1649.0, 1651.0, 1650.0, 1650.0, 1650.0, 1649.0, 1651.0, 1653.0, 1652.0, 1649.0, 1648.0, 1649.0, 1650.0, 1650.0, 1651.0, 1651.0, 1650.0, 1649.0, 1650.0, 1653.0, 1654.0, 1652.0, 1651.0, 1650.0, 1649.0, 1649.0, 1650.0, 1652.0, 1651.0, 1651.0, 1651.0, 1650.0, 1649.0, 1648.0, 1648.0, 1650.0, 1649.0, 1649.0, 1649.0, 1650.0, 1650.0, 1652.0, 1653.0, 1651.0, 1647.0, 1646.0, 1646.0, 1649.0, 1653.0, 1654.0, 1655.0, 1653.0, 1649.0, 1648.0, 1645.0, 1647.0, 1650.0, 1652.0, 1651.0, 1647.0, 1648.0, 1649.0, 1650.0, 1653.0, 1651.0, 1651.0, 1650.0, 1649.0, 1649.0, 1650.0, 1649.0, 1650.0, 1649.0, 1651.0, 1653.0, 1654.0, 1654.0, 1654.0, 1654.0, 1652.0, 1650.0, 1648.0, 1645.0, 1645.0, 1647.0, 1649.0, 1652.0, 1654.0, 1651.0, 1649.0, 1649.0, 1651.0, 1653.0, 1652.0, 1648.0, 1646.0, 1647.0, 1649.0, 1652.0, 1654.0, 1654.0, 1651.0, 1647.0, 1648.0, 1651.0, 1653.0, 1650.0, 1649.0, 1650.0, 1651.0, 1652.0, 1650.0, 1649.0, 1650.0, 1652.0, 1651.0, 1650.0, 1651.0, 1649.0, 1649.0, 1649.0, 1650.0, 1652.0, 1656.0, 1654.0, 1651.0, 1648.0, 1648.0, 1646.0, 1646.0, 1645.0, 1643.0, 1644.0, 1645.0, 1649.0, 1652.0, 1654.0]
    },
    "slices": {}
  }
}