{
 "AcquisitionMatrixPE": 100,
 "AcquisitionNumber": 1,
 "AcquisitionTime": "09:49:12.325000",
 "BandwidthPerPixelPhaseEncode": 18.519,
 "BaseResolution": 100,
 "BodyPartExamined": "BRAIN",
 "ConsistencyInfo": "N4_VE11C_LATEST_20160120",
 "ConversionSoftware": "dcm2niix",
 "ConversionSoftwareVersion": "v1.0.20180622 GCC4.9.2",
 "DerivedVendorReportedEchoSpacing": 0.000539986,
 "DeviceSerialNumber": "166078",
 "DwellTime": 2.1e-06,
 "EchoTime": 0.034,
 "EchoTrainLength": 100,
 "EffectiveEchoSpacing": 0.000539986,
 "FlipAngle": 90,
 "ImageOrientationPatientDICOM": [
  1,
  0,
  0,
  0,
  0.999962,
  -0.00872654
 ],
 "ImageType": [
  "ORIGINAL",
  "PRIMARY",
  "M",
  "ND",
  "MOSAIC"
 ],
 "InPlanePhaseEncodingDirectionDICOM": "COL",
 "InstitutionAddress": "Street_StreetNo_Bei_Jing_District_CN_ZIP",
 "InstitutionName": "BeiJing_Normal_University",
 "InstitutionalDepartmentName": "Department",
 "MRAcquisitionType": "2D",
 "MagneticFieldStrength": 3,
 "Manufacturer": "Siemens",
 "ManufacturersModelName": "Prisma",
 "Modality": "MR",
 "MultibandAccelerationFactor": 3,
 "PartialFourier": 1,
 "PatientPosition": "HFS",
 "PercentPhaseFOV": 100,
 "PhaseEncodingDirection": "j-",
 "PhaseEncodingSteps": 100,
 "PhaseResolution": 1,
 "PixelBandwidth": 2380,
 "ProcedureStepDescription": "BNU_P2018_64CH_Zhen.ZongLei",
 "ProtocolName": "bold_100x100_s3_2x2x2_static_256",
 "PulseSequenceDetails": "%SiemensSeq%_ep2d_bold",
 "ReceiveCoilActiveElements": "HC1-7;NC1",
 "ReceiveCoilName": "HeadNeck_64",
 "ReconMatrixPE": 100,
 "RepetitionTime": 2,
 "SAR": 0.0616759,
 "ScanOptions": "FS",
 "ScanningSequence": "EP",
 "SequenceName": "_epfid2d1_100",
 "SequenceVariant": "SK",
 "SeriesDescription": "bold_100x100_s3_2x2x2_static_256",
 "SeriesNumber": 7,
 "ShimSetting": [
  -5448,
  -11460,
  -1288,
  444,
  -55,
  -313,
  -216,
  133
 ],
 "SliceThickness": 2,
 "SliceTiming": [
  1.485,
  0,
  0.99,
  0.0825,
  1.0725,
  0.165,
  1.155,
  0.2475,
  1.2375,
  0.33,
  1.32,
  0.4125,
  1.4025,
  0.5775,
  1.5675,
  0.66,
  1.65,
  0.7425,
  1.7325,
  0.825,
  1.815,
  0.9075,
  1.8975,
  0.495,
  1.485,
  0,
  0.99,
  0.0825,
  1.0725,
  0.165,
  1.155,
  0.2475,
  1.2375,
  0.33,
  1.32,
  0.4125,
  1.4025,
  0.5775,
  1.5675,
  0.66,
  1.65,
  0.7425,
  1.7325,
  0.825,
  1.815,
  0.9075,
  1.8975,
  0.495,
  1.485,
  0,
  0.99,
  0.0825,
  1.0725,
  0.165,
  1.155,
  0.2475,
  1.2375,
  0.33,
  1.32,
  0.4125,
  1.4025,
  0.5775,
  1.5675,
  0.66,
  1.65,
  0.7425,
  1.7325,
  0.825,
  1.815,
  0.9075,
  1.8975,
  0.495
 ],
 "SoftwareVersions": "syngo_MR_E11",
 "SpacingBetweenSlices": 2,
 "StationName": "AWP166078",
 "TaskName": "imagenet",
 "TotalReadoutTime": 0.0534586,
 "TxRefAmp": 212.039,
 "dcmmeta_affine": [
  [
   -2.0,
   0.0,
   0.0,
   100.0
  ],
  [
   0.0,
   1.999923825263977,
   -0.017453070729970932,
   -87.86094665527344
  ],
  [
   0.0,
   0.017453070729970932,
   1.999923825263977,
   -79.48445892333984
  ],
  [
   0.0,
   0.0,
   0.0,
   1.0
  ]
 ],
 "dcmmeta_reorient_transform": [
  [
   0.0,
   -1.0,
   0.0,
   99.0
  ],
  [
   1.0,
   0.0,
   0.0,
   0.0
  ],
  [
   0.0,
   0.0,
   1.0,
   0.0
  ],
  [
   0.0,
   0.0,
   0.0,
   1.0
  ]
 ],
 "dcmmeta_shape": [
  100,
  100,
  72,
  256
 ],
 "dcmmeta_slice_dim": 2,
 "dcmmeta_version": 0.6,
 "global": {
  "const": {
   "AcquisitionMatrix": [
    100,
    0,
    0,
    100
   ],
   "AngioFlag": "N",
   "BitsAllocated": 16,
   "BitsStored": 12,
   "BodyPartExamined": "BRAIN",
   "Columns": 900,
   "EchoNumbers": 1,
   "EchoTime": 34.0,
   "EchoTrainLength": 100,
   "FlipAngle": 90.0,
   "HighBit": 11,
   "ImageOrientationPatient": [
    1.0,
    0.0,
    0.0,
    0.0,
    0.99996192306517,
    -0.0087265353836
   ],
   "ImagePositionPatient": [
    -900.0,
    -910.10105332945,
    -70.775375356877
   ],
   "ImageType": [
    "ORIGINAL",
    "PRIMARY",
    "M",
    "ND",
    "MOSAIC"
   ],
   "ImagedNucleus": "1H",
   "ImagingFrequency": 123.257744,
   "InPlanePhaseEncodingDirection": "COL",
   "MRAcquisitionType": "2D",
   "MagneticFieldStrength": 3.0,
   "Manufacturer": "SIEMENS",
   "ManufacturerModelName": "Prisma",
   "Modality": "MR",
   "NumberOfAverages": 1.0,
   "NumberOfPhaseEncodingSteps": 100,
   "PercentPhaseFieldOfView": 100.0,
   "PercentSampling": 100.0,
   "PerformedProcedureStepStartTime": "090101.576000",
   "PhotometricInterpretation": "MONOCHROME2",
   "PixelBandwidth": 2380.0,
   "PixelRepresentation": 0,
   "PixelSpacing": [
    2.0,
    2.0
   ],
   "ProtocolName": "bold_100x100_s3_2x2x2_static_256",
   "RepetitionTime": 2000.0,
   "Rows": 900,
   "SAR": 0.06167587837942,
   "SamplesPerPixel": 1,
   "ScanOptions": "FS",
   "ScanningSequence": "EP",
   "SequenceName": "*epfid2d1_100",
   "SequenceVariant": "SK",
   "SeriesDescription": "bold_100x100_s3_2x2x2_static_256",
   "SeriesNumber": 7,
   "SeriesTime": "094914.787000",
   "SliceLocation": -78.714709492085,
   "SliceThickness": 2.0,
   "SmallestImagePixelValue": 0,
   "SoftwareVersions": "syngo MR E11",
   "SpacingBetweenSlices": 1.9999999673994,
   "SpecificCharacterSet": "ISO_IR 100",
   "StudyID": "1",
   "StudyTime": "090101.320000",
   "TransmitCoilName": "Body",
   "VariableFlipAngleFlag": "N",
   "WindowCenterWidthExplanation": "Algo1",
   "dBdt": 0.0
  },
  "slices": {}
 },
 "time": {
  "samples": {
   "AcquisitionNumber": [
    1,
    2,
    3,
    4,
    5,
    6,
    7,
    8,
    9,
    10,
    11,
    12,
    13,
    14,
    15,
    16,
    17,
    18,
    19,
    20,
    21,
    22,
    23,
    24,
    25,
    26,
    27,
    28,
    29,
    30,
    31,
    32,
    33,
    34,
    35,
    36,
    37,
    38,
    39,
    40,
    41,
    42,
    43,
    44,
    45,
    46,
    47,
    48,
    49,
    50,
    51,
    52,
    53,
    54,
    55,
    56,
    57,
    58,
    59,
    60,
    61,
    62,
    63,
    64,
    65,
    66,
    67,
    68,
    69,
    70,
    71,
    72,
    73,
    74,
    75,
    76,
    77,
    78,
    79,
    80,
    81,
    82,
    83,
    84,
    85,
    86,
    87,
    88,
    89,
    90,
    91,
    92,
    93,
    94,
    95,
    96,
    97,
    98,
    99,
    100,
    101,
    102,
    103,
    104,
    105,
    106,
    107,
    108,
    109,
    110,
    111,
    112,
    113,
    114,
    115,
    116,
    117,
    118,
    119,
    120,
    121,
    122,
    123,
    124,
    125,
    126,
    127,
    128,
    129,
    130,
    131,
    132,
    133,
    134,
    135,
    136,
    137,
    138,
    139,
    140,
    141,
    142,
    143,
    144,
    145,
    146,
    147,
    148,
    149,
    150,
    151,
    152,
    153,
    154,
    155,
    156,
    157,
    158,
    159,
    160,
    161,
    162,
    163,
    164,
    165,
    166,
    167,
    168,
    169,
    170,
    171,
    172,
    173,
    174,
    175,
    176,
    177,
    178,
    179,
    180,
    181,
    182,
    183,
    184,
    185,
    186,
    187,
    188,
    189,
    190,
    191,
    192,
    193,
    194,
    195,
    196,
    197,
    198,
    199,
    200,
    201,
    202,
    203,
    204,
    205,
    206,
    207,
    208,
    209,
    210,
    211,
    212,
    213,
    214,
    215,
    216,
    217,
    218,
    219,
    220,
    221,
    222,
    223,
    224,
    225,
    226,
    227,
    228,
    229,
    230,
    231,
    232,
    233,
    234,
    235,
    236,
    237,
    238,
    239,
    240,
    241,
    242,
    243,
    244,
    245,
    246,
    247,
    248,
    249,
    250,
    251,
    252,
    253,
    254,
    255,
    256
   ],
   "AcquisitionTime": [
    "094912.325000",
    "094914.325000",
    "094916.325000",
    "094918.325000",
    "094920.325000",
    "094922.325000",
    "094924.325000",
    "094926.325000",
    "094928.325000",
    "094930.325000",
    "094932.325000",
    "094934.325000",
    "094936.325000",
    "094938.325000",
    "094940.325000",
    "094942.325000",
    "094944.325000",
    "094946.325000",
    "094948.325000",
    "094950.325000",
    "094952.325000",
    "094954.325000",
    "094956.325000",
    "094958.325000",
    "095000.325000",
    "095002.325000",
    "095004.325000",
    "095006.325000",
    "095008.325000",
    "095010.325000",
    "095012.325000",
    "095014.325000",
    "095016.325000",
    "095018.325000",
    "095020.325000",
    "095022.325000",
    "095024.325000",
    "095026.325000",
    "095028.325000",
    "095030.325000",
    "095032.325000",
    "095034.325000",
    "095036.325000",
    "095038.325000",
    "095040.325000",
    "095042.325000",
    "095044.325000",
    "095046.325000",
    "095048.325000",
    "095050.325000",
    "095052.325000",
    "095054.325000",
    "095056.325000",
    "095058.325000",
    "095100.325000",
    "095102.325000",
    "095104.325000",
    "095106.325000",
    "095108.325000",
    "095110.325000",
    "095112.325000",
    "095114.325000",
    "095116.325000",
    "095118.325000",
    "095120.325000",
    "095122.325000",
    "095124.325000",
    "095126.325000",
    "095128.325000",
    "095130.325000",
    "095132.325000",
    "095134.325000",
    "095136.325000",
    "095138.325000",
    "095140.325000",
    "095142.325000",
    "095144.325000",
    "095146.325000",
    "095148.325000",
    "095150.325000",
    "095152.325000",
    "095154.325000",
    "095156.325000",
    "095158.325000",
    "095200.325000",
    "095202.325000",
    "095204.325000",
    "095206.325000",
    "095208.325000",
    "095210.325000",
    "095212.325000",
    "095214.325000",
    "095216.325000",
    "095218.325000",
    "095220.325000",
    "095222.325000",
    "095224.325000",
    "095226.325000",
    "095228.325000",
    "095230.325000",
    "095232.325000",
    "095234.325000",
    "095236.325000",
    "095238.325000",
    "095240.325000",
    "095242.325000",
    "095244.325000",
    "095246.325000",
    "095248.325000",
    "095250.325000",
    "095252.325000",
    "095254.325000",
    "095256.325000",
    "095258.325000",
    "095300.325000",
    "095302.325000",
    "095304.325000",
    "095306.325000",
    "095308.325000",
    "095310.325000",
    "095312.325000",
    "095314.325000",
    "095316.325000",
    "095318.325000",
    "095320.325000",
    "095322.325000",
    "095324.325000",
    "095326.325000",
    "095328.325000",
    "095330.325000",
    "095332.325000",
    "095334.325000",
    "095336.325000",
    "095338.325000",
    "095340.325000",
    "095342.325000",
    "095344.325000",
    "095346.325000",
    "095348.325000",
    "095350.325000",
    "095352.325000",
    "095354.325000",
    "095356.325000",
    "095358.325000",
    "095400.325000",
    "095402.325000",
    "095404.325000",
    "095406.325000",
    "095408.325000",
    "095410.325000",
    "095412.325000",
    "095414.325000",
    "095416.325000",
    "095418.325000",
    "095420.325000",
    "095422.325000",
    "095424.325000",
    "095426.325000",
    "095428.325000",
    "095430.325000",
    "095432.325000",
    "095434.325000",
    "095436.325000",
    "095438.325000",
    "095440.325000",
    "095442.325000",
    "095444.325000",
    "095446.325000",
    "095448.325000",
    "095450.325000",
    "095452.325000",
    "095454.325000",
    "095456.325000",
    "095458.325000",
    "095500.325000",
    "095502.325000",
    "095504.325000",
    "095506.325000",
    "095508.325000",
    "095510.325000",
    "095512.325000",
    "095514.325000",
    "095516.325000",
    "095518.325000",
    "095520.325000",
    "095522.325000",
    "095524.325000",
    "095526.325000",
    "095528.325000",
    "095530.325000",
    "095532.325000",
    "095534.325000",
    "095536.325000",
    "095538.325000",
    "095540.325000",
    "095542.325000",
    "095544.325000",
    "095546.325000",
    "095548.325000",
    "095550.325000",
    "095552.325000",
    "095554.325000",
    "095556.325000",
    "095558.325000",
    "095600.325000",
    "095602.325000",
    "095604.325000",
    "095606.325000",
    "095608.325000",
    "095610.325000",
    "095612.325000",
    "095614.325000",
    "095616.325000",
    "095618.325000",
    "095620.325000",
    "095622.325000",
    "095624.325000",
    "095626.325000",
    "095628.325000",
    "095630.325000",
    "095632.325000",
    "095634.325000",
    "095636.325000",
    "095638.325000",
    "095640.325000",
    "095642.325000",
    "095644.325000",
    "095646.325000",
    "095648.325000",
    "095650.325000",
    "095652.325000",
    "095654.325000",
    "095656.325000",
    "095658.325000",
    "095700.325000",
    "095702.325000",
    "095704.325000",
    "095706.325000",
    "095708.325000",
    "095710.325000",
    "095712.325000",
    "095714.325000",
    "095716.325000",
    "095718.325000",
    "095720.325000",
    "095722.325000",
    "095724.325000",
    "095726.325000",
    "095728.325000",
    "095730.325000",
    "095732.325000",
    "095734.325000",
    "095736.325000",
    "095738.325000",
    "095740.325000",
    "095742.325000"
   ],
   "ContentTime": [
    "094914.791000",
    "094916.287000",
    "094918.287000",
    "094920.286000",
    "094922.286000",
    "094924.286000",
    "094926.286000",
    "094928.287000",
    "094930.286000",
    "094932.286000",
    "094934.287000",
    "094936.286000",
    "094938.287000",
    "094940.286000",
    "094942.286000",
    "094944.286000",
    "094946.286000",
    "094948.286000",
    "094950.287000",
    "094952.286000",
    "094954.286000",
    "094956.286000",
    "094958.287000",
    "095000.287000",
    "095002.286000",
    "095004.287000",
    "095006.287000",
    "095008.287000",
    "095010.287000",
    "095012.287000",
    "095014.287000",
    "095016.287000",
    "095018.286000",
    "095020.286000",
    "095022.286000",
    "095024.287000",
    "095026.286000",
    "095028.287000",
    "095030.286000",
    "095032.287000",
    "095034.286000",
    "095036.285000",
    "095038.286000",
    "095040.286000",
    "095042.286000",
    "095044.286000",
    "095046.286000",
    "095048.287000",
    "095050.287000",
    "095052.286000",
    "095054.286000",
    "095056.286000",
    "095058.287000",
    "095100.286000",
    "095102.287000",
    "095104.287000",
    "095106.287000",
    "095108.287000",
    "095110.287000",
    "095112.285000",
    "095114.286000",
    "095116.286000",
    "095118.286000",
    "095120.286000",
    "095122.286000",
    "095124.286000",
    "095126.286000",
    "095128.286000",
    "095130.287000",
    "095132.287000",
    "095134.286000",
    "095136.286000",
    "095138.287000",
    "095140.286000",
    "095142.287000",
    "095144.286000",
    "095146.285000",
    "095148.287000",
    "095150.287000",
    "095152.286000",
    "095154.287000",
    "095156.287000",
    "095158.287000",
    "095200.286000",
    "095202.286000",
    "095204.286000",
    "095206.286000",
    "095208.286000",
    "095210.286000",
    "095212.286000",
    "095214.286000",
    "095216.286000",
    "095218.286000",
    "095220.286000",
    "095222.286000",
    "095224.287000",
    "095226.286000",
    "095228.286000",
    "095230.287000",
    "095232.287000",
    "095234.286000",
    "095236.287000",
    "095238.285000",
    "095240.286000",
    "095242.287000",
    "095244.287000",
    "095246.286000",
    "095248.287000",
    "095250.286000",
    "095252.287000",
    "095254.287000",
    "095256.285000",
    "095258.287000",
    "095300.287000",
    "095302.286000",
    "095304.287000",
    "095306.287000",
    "095308.286000",
    "095310.287000",
    "095312.286000",
    "095314.285000",
    "095316.286000",
    "095318.287000",
    "095320.286000",
    "095322.287000",
    "095324.286000",
    "095326.286000",
    "095328.286000",
    "095330.286000",
    "095332.285000",
    "095334.286000",
    "095336.286000",
    "095338.286000",
    "095340.287000",
    "095342.287000",
    "095344.287000",
    "095346.287000",
    "095348.285000",
    "095350.286000",
    "095352.287000",
    "095354.286000",
    "095356.286000",
    "095358.286000",
    "095400.286000",
    "095402.287000",
    "095404.286000",
    "095406.285000",
    "095408.287000",
    "095410.286000",
    "095412.287000",
    "095414.286000",
    "095416.286000",
    "095418.287000",
    "095420.286000",
    "095422.286000",
    "095424.286000",
    "095426.286000",
    "095428.287000",
    "095430.286000",
    "095432.286000",
    "095434.287000",
    "095436.287000",
    "095438.287000",
    "095440.287000",
    "095442.286000",
    "095444.287000",
    "095446.287000",
    "095448.286000",
    "095450.287000",
    "095452.287000",
    "095454.287000",
    "095456.287000",
    "095458.286000",
    "095500.287000",
    "095502.287000",
    "095504.287000",
    "095506.287000",
    "095508.287000",
    "095510.287000",
    "095512.287000",
    "095514.287000",
    "095516.286000",
    "095518.286000",
    "095520.287000",
    "095522.287000",
    "095524.287000",
    "095526.287000",
    "095528.287000",
    "095530.287000",
    "095532.286000",
    "095534.285000",
    "095536.287000",
    "095538.287000",
    "095540.286000",
    "095542.287000",
    "095544.287000",
    "095546.287000",
    "095548.287000",
    "095550.286000",
    "095552.287000",
    "095554.286000",
    "095556.287000",
    "095558.287000",
    "095600.287000",
    "095602.287000",
    "095604.286000",
    "095606.286000",
    "095608.286000",
    "095610.287000",
    "095612.287000",
    "095614.287000",
    "095616.287000",
    "095618.287000",
    "095620.286000",
    "095622.287000",
    "095624.286000",
    "095626.286000",
    "095628.286000",
    "095630.286000",
    "095632.287000",
    "095634.299000",
    "095636.286000",
    "095638.286000",
    "095640.286000",
    "095642.287000",
    "095644.286000",
    "095646.287000",
    "095648.287000",
    "095650.286000",
    "095652.286000",
    "095654.287000",
    "095656.287000",
    "095658.287000",
    "095700.286000",
    "095702.287000",
    "095704.287000",
    "095706.287000",
    "095708.286000",
    "095710.287000",
    "095712.287000",
    "095714.287000",
    "095716.287000",
    "095718.286000",
    "095720.287000",
    "095722.287000",
    "095724.287000",
    "095726.287000",
    "095728.287000",
    "095730.286000",
    "095732.287000",
    "095734.286000",
    "095736.286000",
    "095738.287000",
    "095740.287000",
    "095742.286000",
    "095744.176000"
   ],
   "InstanceCreationTime": [
    "094914.791000",
    "094916.287000",
    "094918.287000",
    "094920.286000",
    "094922.286000",
    "094924.286000",
    "094926.286000",
    "094928.287000",
    "094930.286000",
    "094932.286000",
    "094934.287000",
    "094936.286000",
    "094938.287000",
    "094940.286000",
    "094942.286000",
    "094944.286000",
    "094946.286000",
    "094948.286000",
    "094950.287000",
    "094952.286000",
    "094954.286000",
    "094956.286000",
    "094958.287000",
    "095000.287000",
    "095002.286000",
    "095004.287000",
    "095006.287000",
    "095008.287000",
    "095010.287000",
    "095012.287000",
    "095014.287000",
    "095016.287000",
    "095018.286000",
    "095020.286000",
    "095022.286000",
    "095024.287000",
    "095026.286000",
    "095028.287000",
    "095030.286000",
    "095032.287000",
    "095034.286000",
    "095036.285000",
    "095038.286000",
    "095040.286000",
    "095042.286000",
    "095044.286000",
    "095046.286000",
    "095048.287000",
    "095050.287000",
    "095052.286000",
    "095054.286000",
    "095056.286000",
    "095058.287000",
    "095100.286000",
    "095102.287000",
    "095104.287000",
    "095106.287000",
    "095108.287000",
    "095110.287000",
    "095112.285000",
    "095114.286000",
    "095116.286000",
    "095118.286000",
    "095120.286000",
    "095122.286000",
    "095124.286000",
    "095126.286000",
    "095128.286000",
    "095130.287000",
    "095132.287000",
    "095134.286000",
    "095136.286000",
    "095138.287000",
    "095140.286000",
    "095142.287000",
    "095144.286000",
    "095146.285000",
    "095148.287000",
    "095150.287000",
    "095152.286000",
    "095154.287000",
    "095156.287000",
    "095158.287000",
    "095200.286000",
    "095202.286000",
    "095204.286000",
    "095206.286000",
    "095208.286000",
    "095210.286000",
    "095212.286000",
    "095214.286000",
    "095216.286000",
    "095218.286000",
    "095220.286000",
    "095222.286000",
    "095224.287000",
    "095226.286000",
    "095228.286000",
    "095230.287000",
    "095232.287000",
    "095234.286000",
    "095236.287000",
    "095238.285000",
    "095240.286000",
    "095242.287000",
    "095244.287000",
    "095246.286000",
    "095248.287000",
    "095250.286000",
    "095252.287000",
    "095254.287000",
    "095256.285000",
    "095258.287000",
    "095300.287000",
    "095302.286000",
    "095304.287000",
    "095306.287000",
    "095308.286000",
    "095310.287000",
    "095312.286000",
    "095314.285000",
    "095316.286000",
    "095318.287000",
    "095320.286000",
    "095322.287000",
    "095324.286000",
    "095326.286000",
    "095328.286000",
    "095330.286000",
    "095332.285000",
    "095334.286000",
    "095336.286000",
    "095338.286000",
    "095340.287000",
    "095342.287000",
    "095344.287000",
    "095346.287000",
    "095348.285000",
    "095350.286000",
    "095352.287000",
    "095354.286000",
    "095356.286000",
    "095358.286000",
    "095400.286000",
    "095402.287000",
    "095404.286000",
    "095406.285000",
    "095408.287000",
    "095410.286000",
    "095412.287000",
    "095414.286000",
    "095416.286000",
    "095418.287000",
    "095420.286000",
    "095422.286000",
    "095424.286000",
    "095426.286000",
    "095428.287000",
    "095430.286000",
    "095432.286000",
    "095434.287000",
    "095436.287000",
    "095438.287000",
    "095440.287000",
    "095442.286000",
    "095444.287000",
    "095446.287000",
    "095448.286000",
    "095450.287000",
    "095452.287000",
    "095454.287000",
    "095456.287000",
    "095458.286000",
    "095500.287000",
    "095502.287000",
    "095504.287000",
    "095506.287000",
    "095508.287000",
    "095510.287000",
    "095512.287000",
    "095514.287000",
    "095516.286000",
    "095518.286000",
    "095520.287000",
    "095522.287000",
    "095524.287000",
    "095526.287000",
    "095528.287000",
    "095530.287000",
    "095532.286000",
    "095534.285000",
    "095536.287000",
    "095538.287000",
    "095540.286000",
    "095542.287000",
    "095544.287000",
    "095546.287000",
    "095548.287000",
    "095550.286000",
    "095552.287000",
    "095554.286000",
    "095556.287000",
    "095558.287000",
    "095600.287000",
    "095602.287000",
    "095604.286000",
    "095606.286000",
    "095608.286000",
    "095610.287000",
    "095612.287000",
    "095614.287000",
    "095616.287000",
    "095618.287000",
    "095620.286000",
    "095622.287000",
    "095624.286000",
    "095626.286000",
    "095628.286000",
    "095630.286000",
    "095632.287000",
    "095634.299000",
    "095636.286000",
    "095638.286000",
    "095640.286000",
    "095642.287000",
    "095644.286000",
    "095646.287000",
    "095648.287000",
    "095650.286000",
    "095652.286000",
    "095654.287000",
    "095656.287000",
    "095658.287000",
    "095700.286000",
    "095702.287000",
    "095704.287000",
    "095706.287000",
    "095708.286000",
    "095710.287000",
    "095712.287000",
    "095714.287000",
    "095716.287000",
    "095718.286000",
    "095720.287000",
    "095722.287000",
    "095724.287000",
    "095726.287000",
    "095728.287000",
    "095730.286000",
    "095732.287000",
    "095734.286000",
    "095736.286000",
    "095738.287000",
    "095740.287000",
    "095742.286000",
    "095744.176000"
   ],
   "InstanceNumber": [
    1,
    2,
    3,
    4,
    5,
    6,
    7,
    8,
    9,
    10,
    11,
    12,
    13,
    14,
    15,
    16,
    17,
    18,
    19,
    20,
    21,
    22,
    23,
    24,
    25,
    26,
    27,
    28,
    29,
    30,
    31,
    32,
    33,
    34,
    35,
    36,
    37,
    38,
    39,
    40,
    41,
    42,
    43,
    44,
    45,
    46,
    47,
    48,
    49,
    50,
    51,
    52,
    53,
    54,
    55,
    56,
    57,
    58,
    59,
    60,
    61,
    62,
    63,
    64,
    65,
    66,
    67,
    68,
    69,
    70,
    71,
    72,
    73,
    74,
    75,
    76,
    77,
    78,
    79,
    80,
    81,
    82,
    83,
    84,
    85,
    86,
    87,
    88,
    89,
    90,
    91,
    92,
    93,
    94,
    95,
    96,
    97,
    98,
    99,
    100,
    101,
    102,
    103,
    104,
    105,
    106,
    107,
    108,
    109,
    110,
    111,
    112,
    113,
    114,
    115,
    116,
    117,
    118,
    119,
    120,
    121,
    122,
    123,
    124,
    125,
    126,
    127,
    128,
    129,
    130,
    131,
    132,
    133,
    134,
    135,
    136,
    137,
    138,
    139,
    140,
    141,
    142,
    143,
    144,
    145,
    146,
    147,
    148,
    149,
    150,
    151,
    152,
    153,
    154,
    155,
    156,
    157,
    158,
    159,
    160,
    161,
    162,
    163,
    164,
    165,
    166,
    167,
    168,
    169,
    170,
    171,
    172,
    173,
    174,
    175,
    176,
    177,
    178,
    179,
    180,
    181,
    182,
    183,
    184,
    185,
    186,
    187,
    188,
    189,
    190,
    191,
    192,
    193,
    194,
    195,
    196,
    197,
    198,
    199,
    200,
    201,
    202,
    203,
    204,
    205,
    206,
    207,
    208,
    209,
    210,
    211,
    212,
    213,
    214,
    215,
    216,
    217,
    218,
    219,
    220,
    221,
    222,
    223,
    224,
    225,
    226,
    227,
    228,
    229,
    230,
    231,
    232,
    233,
    234,
    235,
    236,
    237,
    238,
    239,
    240,
    241,
    242,
    243,
    244,
    245,
    246,
    247,
    248,
    249,
    250,
    251,
    252,
    253,
    254,
    255,
    256
   ],
   "LargestImagePixelValue": [
    2892,
    2910,
    2887,
    2891,
    2888,
    2864,
    2918,
    2908,
    2909,
    2888,
    2857,
    2887,
    2903,
    2874,
    2918,
    2872,
    2835,
    2901,
    2858,
    2882,
    2905,
    2909,
    2875,
    2901,
    2915,
    2851,
    2857,
    2870,
    2868,
    2866,
    2863,
    2877,
    2850,
    2864,
    2856,
    2891,
    2827,
    2840,
    2875,
    2876,
    2853,
    2880,
    2862,
    2834,
    2887,
    2892,
    2874,
    2871,
    2870,
    2867,
    2855,
    2840,
    2859,
    2877,
    2845,
    2868,
    2832,
    2868,
    2842,
    2823,
    2824,
    2864,
    2855,
    2860,
    2841,
    2837,
    2874,
    2865,
    2875,
    2861,
    2863,
    2840,
    2857,
    2861,
    2846,
    2870,
    2863,
    2855,
    2844,
    2834,
    2874,
    2841,
    2852,
    2863,
    2840,
    2860,
    2858,
    2848,
    2864,
    2863,
    2868,
    2886,
    2869,
    2844,
    2828,
    2837,
    2855,
    2824,
    2817,
    2845,
    2836,
    2853,
    2859,
    2842,
    2833,
    2868,
    2863,
    2849,
    2867,
    2828,
    2841,
    2839,
    2831,
    2833,
    2855,
    2848,
    2841,
    2892,
    2856,
    2837,
    2816,
    2849,
    2836,
    2821,
    2870,
    2830,
    2850,
    2881,
    2865,
    2873,
    2860,
    2849,
    2894,
    2891,
    2860,
    2870,
    2881,
    2892,
    2875,
    2871,
    2847,
    2885,
    2904,
    2889,
    2896,
    2875,
    2879,
    2874,
    2868,
    2869,
    2876,
    2847,
    2840,
    2861,
    2910,
    2874,
    2852,
    2838,
    2861,
    2848,
    2874,
    2919,
    2884,
    2882,
    2894,
    2903,
    2920,
    2925,
    2919,
    2901,
    2906,
    2885,
    2919,
    2952,
    2905,
    2915,
    2889,
    2919,
    2910,
    2934,
    2950,
    2891,
    2920,
    2928,
    2962,
    2940,
    2926,
    2923,
    2899,
    2905,
    2870,
    2882,
    2892,
    2902,
    2853,
    2867,
    2855,
    2899,
    2888,
    2888,
    2888,
    2901,
    2895,
    2904,
    2893,
    2921,
    2897,
    2920,
    2899,
    2918,
    2911,
    2918,
    2961,
    2930,
    2941,
    2918,
    2899,
    2899,
    2921,
    2916,
    2919,
    2934,
    2943,
    2929,
    2947,
    2924,
    2912,
    2931,
    2920,
    2926,
    2910,
    2899,
    2933,
    2900,
    2893,
    2899,
    2912,
    2906,
    2896,
    2925,
    2935,
    2918,
    2936,
    2906,
    2907,
    2903,
    2907,
    2910,
    2923,
    2918,
    2907,
    2944,
    2911,
    2913,
    2887,
    2886
   ],
   "WindowCenter": [
    762.0,
    761.0,
    761.0,
    762.0,
    762.0,
    762.0,
    762.0,
    762.0,
    762.0,
    761.0,
    760.0,
    760.0,
    761.0,
    761.0,
    762.0,
    761.0,
    760.0,
    761.0,
    761.0,
    761.0,
    761.0,
    761.0,
    760.0,
    761.0,
    761.0,
    760.0,
    760.0,
    761.0,
    760.0,
    760.0,
    760.0,
    761.0,
    760.0,
    759.0,
    759.0,
    759.0,
    759.0,
    761.0,
    761.0,
    761.0,
    760.0,
    761.0,
    761.0,
    761.0,
    761.0,
    761.0,
    760.0,
    761.0,
    761.0,
    760.0,
    759.0,
    758.0,
    759.0,
    759.0,
    759.0,
    758.0,
    757.0,
    758.0,
    758.0,
    758.0,
    759.0,
    760.0,
    760.0,
    760.0,
    759.0,
    759.0,
    760.0,
    759.0,
    759.0,
    758.0,
    759.0,
    760.0,
    761.0,
    760.0,
    759.0,
    759.0,
    759.0,
    759.0,
    759.0,
    759.0,
    759.0,
    759.0,
    760.0,
    760.0,
    760.0,
    759.0,
    758.0,
    757.0,
    758.0,
    759.0,
    760.0,
    760.0,
    759.0,
    759.0,
    759.0,
    760.0,
    760.0,
    759.0,
    759.0,
    759.0,
    759.0,
    759.0,
    759.0,
    758.0,
    758.0,
    757.0,
    758.0,
    759.0,
    760.0,
    759.0,
    759.0,
    759.0,
    758.0,
    758.0,
    758.0,
    759.0,
    760.0,
    760.0,
    759.0,
    758.0,
    758.0,
    758.0,
    758.0,
    758.0,
    759.0,
    759.0,
