{
 "AcquisitionMatrixPE": 100,
 "AcquisitionNumber": 1,
 "AcquisitionTime": "14:57:31.172500",
 "BandwidthPerPixelPhaseEncode": 18.519,
 "BaseResolution": 100,
 "BodyPartExamined": "BRAIN",
 "ConsistencyInfo": "N4_VE11C_LATEST_20160120",
 "ConversionSoftware": "dcm2niix",
 "ConversionSoftwareVersion": "v1.0.20180622 GCC4.9.2",
 "DerivedVendorReportedEchoSpacing": 0.000539986,
 "DeviceSerialNumber": "166078",
 "DwellTime": 2.1e-06,
 "EchoTime": 0.034,
 "EchoTrainLength": 100,
 "EffectiveEchoSpacing": 0.000539986,
 "FlipAngle": 90,
 "ImageOrientationPatientDICOM": [
  0.999962,
  0.00193335,
  0.00850967,
  -2.73757e-09,
  0.975149,
  -0.221548
 ],
 "ImageType": [
  "ORIGINAL",
  "PRIMARY",
  "M",
  "ND",
  "MOSAIC"
 ],
 "InPlanePhaseEncodingDirectionDICOM": "COL",
 "InstitutionAddress": "Street_StreetNo_Bei_Jing_District_CN_ZIP",
 "InstitutionName": "BeiJing_Normal_University",
 "InstitutionalDepartmentName": "Department",
 "MRAcquisitionType": "2D",
 "MagneticFieldStrength": 3,
 "Manufacturer": "Siemens",
 "ManufacturersModelName": "Prisma",
 "Modality": "MR",
 "MultibandAccelerationFactor": 3,
 "PartialFourier": 1,
 "PatientPosition": "HFS",
 "PercentPhaseFOV": 100,
 "PhaseEncodingDirection": "j-",
 "PhaseEncodingSteps": 100,
 "PhaseResolution": 1,
 "PixelBandwidth": 2380,
 "ProcedureStepDescription": "BNU_P2018_64CH_Zhen.ZongLei",
 "ProtocolName": "bold_100x100_s3_2x2x2_static_256",
 "PulseSequenceDetails": "%SiemensSeq%_ep2d_bold",
 "ReceiveCoilActiveElements": "HC1-7;NC1",
 "ReceiveCoilName": "HeadNeck_64",
 "ReconMatrixPE": 100,
 "RepetitionTime": 2,
 "SAR": 0.0768872,
 "ScanOptions": "FS",
 "ScanningSequence": "EP",
 "SequenceName": "_epfid2d1_100",
 "SequenceVariant": "SK",
 "SeriesDescription": "bold_100x100_s3_2x2x2_static_256",
 "SeriesNumber": 16,
 "ShimSetting": [
  -5463,
  -11511,
  -1295,
  471,
  -65,
  -229,
  -93,
  55
 ],
 "SliceThickness": 2,
 "SliceTiming": [
  1.485,
  0,
  0.99,
  0.0825,
  1.0725,
  0.165,
  1.155,
  0.2475,
  1.2375,
  0.33,
  1.32,
  0.4125,
  1.4025,
  0.5775,
  1.5675,
  0.66,
  1.65,
  0.7425,
  1.7325,
  0.825,
  1.815,
  0.9075,
  1.8975,
  0.495,
  1.485,
  0,
  0.99,
  0.0825,
  1.0725,
  0.165,
  1.155,
  0.2475,
  1.2375,
  0.33,
  1.32,
  0.4125,
  1.4025,
  0.5775,
  1.5675,
  0.66,
  1.65,
  0.7425,
  1.7325,
  0.825,
  1.815,
  0.9075,
  1.8975,
  0.495,
  1.485,
  0,
  0.99,
  0.0825,
  1.0725,
  0.165,
  1.155,
  0.2475,
  1.2375,
  0.33,
  1.32,
  0.4125,
  1.4025,
  0.5775,
  1.5675,
  0.66,
  1.65,
  0.7425,
  1.7325,
  0.825,
  1.815,
  0.9075,
  1.8975,
  0.495
 ],
 "SoftwareVersions": "syngo_MR_E11",
 "SpacingBetweenSlices": 2,
 "StationName": "AWP166078",
 "TaskName": "imagenet",
 "TotalReadoutTime": 0.0534586,
 "TxRefAmp": 218.717,
 "dcmmeta_affine": [
  [
   -1.999923825263977,
   -5.475131903409647e-09,
   0.017453065142035484,
   101.54609680175781
  ],
  [
   -0.003866705810651183,
   1.9502986669540405,
   -0.4430801272392273,
   -77.69586944580078
  ],
  [
   0.017019344493746758,
   0.44309699535369873,
   1.95022451877594,
   -102.74598693847656
  ],
  [
   0.0,
   0.0,
   0.0,
   1.0
  ]
 ],
 "dcmmeta_reorient_transform": [
  [
   0.0,
   -1.0,
   0.0,
   99.0
  ],
  [
   1.0,
   0.0,
   0.0,
   0.0
  ],
  [
   0.0,
   0.0,
   1.0,
   0.0
  ],
  [
   0.0,
   0.0,
   0.0,
   1.0
  ]
 ],
 "dcmmeta_shape": [
  100,
  100,
  72,
  256
 ],
 "dcmmeta_slice_dim": 2,
 "dcmmeta_version": 0.6,
 "global": {
  "const": {
   "AcquisitionMatrix": [
    100,
    0,
    0,
    100
   ],
   "AngioFlag": "N",
   "BitsAllocated": 16,
   "BitsStored": 12,
   "BodyPartExamined": "BRAIN",
   "Columns": 900,
   "EchoNumbers": 1,
   "EchoTime": 34.0,
   "EchoTrainLength": 100,
   "FlipAngle": 90.0,
   "HighBit": 11,
   "ImageOrientationPatient": [
    0.99996192308933,
    0.00193335288668,
    0.00850967203305,
    -2.737566e-09,
    0.97514935360807,
    -0.2215485006895
   ],
   "ImagePositionPatient": [
    -901.5156357625,
    -897.04986423578,
    111.55168010475
   ],
   "ImageType": [
    "ORIGINAL",
    "PRIMARY",
    "M",
    "ND",
    "MOSAIC"
   ],
   "ImagedNucleus": "1H",
   "ImagingFrequency": 123.257757,
   "InPlanePhaseEncodingDirection": "COL",
   "MRAcquisitionType": "2D",
   "MagneticFieldStrength": 3.0,
   "Manufacturer": "SIEMENS",
   "ManufacturerModelName": "Prisma",
   "Modality": "MR",
   "NumberOfAverages": 1.0,
   "NumberOfPhaseEncodingSteps": 100,
   "PercentPhaseFieldOfView": 100.0,
   "PercentSampling": 100.0,
   "PerformedProcedureStepStartTime": "130903.284000",
   "PhotometricInterpretation": "MONOCHROME2",
   "PixelBandwidth": 2380.0,
   "PixelRepresentation": 0,
   "PixelSpacing": [
    2.0,
    2.0
   ],
   "ProtocolName": "bold_100x100_s3_2x2x2_static_256",
   "RepetitionTime": 2000.0,
   "Rows": 900,
   "SAR": 0.0768872168111,
   "SamplesPerPixel": 1,
   "ScanOptions": "FS",
   "ScanningSequence": "EP",
   "SequenceName": "*epfid2d1_100",
   "SequenceVariant": "SK",
   "SeriesDescription": "bold_100x100_s3_2x2x2_static_256",
   "SeriesNumber": 16,
   "SeriesTime": "145733.752000",
   "SliceLocation": -82.089972678415,
   "SliceThickness": 2.0,
   "SmallestImagePixelValue": 0,
   "SoftwareVersions": "syngo MR E11",
   "SpacingBetweenSlices": 2.0000000415733,
   "SpecificCharacterSet": "ISO_IR 100",
   "StudyID": "1",
   "StudyTime": "130903.184000",
   "TransmitCoilName": "Body",
   "VariableFlipAngleFlag": "N",
   "WindowCenterWidthExplanation": "Algo1",
   "dBdt": 0.0
  },
  "slices": {}
 },
 "time": {
  "samples": {
   "AcquisitionNumber": [
    1,
    2,
    3,
    4,
    5,
    6,
    7,
    8,
    9,
    10,
    11,
    12,
    13,
    14,
    15,
    16,
    17,
    18,
    19,
    20,
    21,
    22,
    23,
    24,
    25,
    26,
    27,
    28,
    29,
    30,
    31,
    32,
    33,
    34,
    35,
    36,
    37,
    38,
    39,
    40,
    41,
    42,
    43,
    44,
    45,
    46,
    47,
    48,
    49,
    50,
    51,
    52,
    53,
    54,
    55,
    56,
    57,
    58,
    59,
    60,
    61,
    62,
    63,
    64,
    65,
    66,
    67,
    68,
    69,
    70,
    71,
    72,
    73,
    74,
    75,
    76,
    77,
    78,
    79,
    80,
    81,
    82,
    83,
    84,
    85,
    86,
    87,
    88,
    89,
    90,
    91,
    92,
    93,
    94,
    95,
    96,
    97,
    98,
    99,
    100,
    101,
    102,
    103,
    104,
    105,
    106,
    107,
    108,
    109,
    110,
    111,
    112,
    113,
    114,
    115,
    116,
    117,
    118,
    119,
    120,
    121,
    122,
    123,
    124,
    125,
    126,
    127,
    128,
    129,
    130,
    131,
    132,
    133,
    134,
    135,
    136,
    137,
    138,
    139,
    140,
    141,
    142,
    143,
    144,
    145,
    146,
    147,
    148,
    149,
    150,
    151,
    152,
    153,
    154,
    155,
    156,
    157,
    158,
    159,
    160,
    161,
    162,
    163,
    164,
    165,
    166,
    167,
    168,
    169,
    170,
    171,
    172,
    173,
    174,
    175,
    176,
    177,
    178,
    179,
    180,
    181,
    182,
    183,
    184,
    185,
    186,
    187,
    188,
    189,
    190,
    191,
    192,
    193,
    194,
    195,
    196,
    197,
    198,
    199,
    200,
    201,
    202,
    203,
    204,
    205,
    206,
    207,
    208,
    209,
    210,
    211,
    212,
    213,
    214,
    215,
    216,
    217,
    218,
    219,
    220,
    221,
    222,
    223,
    224,
    225,
    226,
    227,
    228,
    229,
    230,
    231,
    232,
    233,
    234,
    235,
    236,
    237,
    238,
    239,
    240,
    241,
    242,
    243,
    244,
    245,
    246,
    247,
    248,
    249,
    250,
    251,
    252,
    253,
    254,
    255,
    256
   ],
   "AcquisitionTime": [
    "145731.172500",
    "145733.172500",
    "145735.172500",
    "145737.172500",
    "145739.172500",
    "145741.172500",
    "145743.172500",
    "145745.172500",
    "145747.172500",
    "145749.172500",
    "145751.172500",
    "145753.172500",
    "145755.172500",
    "145757.172500",
    "145759.172500",
    "145801.172500",
    "145803.172500",
    "145805.172500",
    "145807.172500",
    "145809.172500",
    "145811.172500",
    "145813.172500",
    "145815.172500",
    "145817.172500",
    "145819.172500",
    "145821.172500",
    "145823.172500",
    "145825.172500",
    "145827.172500",
    "145829.172500",
    "145831.172500",
    "145833.172500",
    "145835.172500",
    "145837.172500",
    "145839.172500",
    "145841.172500",
    "145843.172500",
    "145845.172500",
    "145847.172500",
    "145849.172500",
    "145851.172500",
    "145853.172500",
    "145855.172500",
    "145857.172500",
    "145859.172500",
    "145901.172500",
    "145903.172500",
    "145905.172500",
    "145907.172500",
    "145909.172500",
    "145911.172500",
    "145913.172500",
    "145915.172500",
    "145917.172500",
    "145919.172500",
    "145921.172500",
    "145923.172500",
    "145925.172500",
    "145927.172500",
    "145929.172500",
    "145931.172500",
    "145933.172500",
    "145935.172500",
    "145937.172500",
    "145939.172500",
    "145941.172500",
    "145943.172500",
    "145945.172500",
    "145947.172500",
    "145949.172500",
    "145951.172500",
    "145953.172500",
    "145955.172500",
    "145957.172500",
    "145959.172500",
    "150001.172500",
    "150003.172500",
    "150005.172500",
    "150007.172500",
    "150009.172500",
    "150011.172500",
    "150013.172500",
    "150015.172500",
    "150017.172500",
    "150019.172500",
    "150021.172500",
    "150023.172500",
    "150025.172500",
    "150027.172500",
    "150029.172500",
    "150031.172500",
    "150033.172500",
    "150035.172500",
    "150037.172500",
    "150039.172500",
    "150041.172500",
    "150043.172500",
    "150045.172500",
    "150047.172500",
    "150049.172500",
    "150051.172500",
    "150053.172500",
    "150055.172500",
    "150057.172500",
    "150059.172500",
    "150101.172500",
    "150103.172500",
    "150105.172500",
    "150107.172500",
    "150109.172500",
    "150111.172500",
    "150113.172500",
    "150115.172500",
    "150117.172500",
    "150119.172500",
    "150121.172500",
    "150123.172500",
    "150125.172500",
    "150127.172500",
    "150129.172500",
    "150131.172500",
    "150133.172500",
    "150135.172500",
    "150137.172500",
    "150139.172500",
    "150141.172500",
    "150143.172500",
    "150145.172500",
    "150147.172500",
    "150149.172500",
    "150151.172500",
    "150153.172500",
    "150155.172500",
    "150157.172500",
    "150159.172500",
    "150201.172500",
    "150203.172500",
    "150205.172500",
    "150207.172500",
    "150209.172500",
    "150211.172500",
    "150213.172500",
    "150215.172500",
    "150217.172500",
    "150219.172500",
    "150221.172500",
    "150223.172500",
    "150225.172500",
    "150227.172500",
    "150229.172500",
    "150231.172500",
    "150233.172500",
    "150235.172500",
    "150237.172500",
    "150239.172500",
    "150241.172500",
    "150243.172500",
    "150245.172500",
    "150247.172500",
    "150249.172500",
    "150251.172500",
    "150253.172500",
    "150255.172500",
    "150257.172500",
    "150259.172500",
    "150301.172500",
    "150303.172500",
    "150305.172500",
    "150307.172500",
    "150309.172500",
    "150311.172500",
    "150313.172500",
    "150315.172500",
    "150317.172500",
    "150319.172500",
    "150321.172500",
    "150323.172500",
    "150325.172500",
    "150327.172500",
    "150329.172500",
    "150331.172500",
    "150333.172500",
    "150335.172500",
    "150337.172500",
    "150339.172500",
    "150341.172500",
    "150343.172500",
    "150345.172500",
    "150347.172500",
    "150349.172500",
    "150351.172500",
    "150353.172500",
    "150355.172500",
    "150357.172500",
    "150359.172500",
    "150401.172500",
    "150403.172500",
    "150405.172500",
    "150407.172500",
    "150409.172500",
    "150411.172500",
    "150413.172500",
    "150415.172500",
    "150417.172500",
    "150419.172500",
    "150421.172500",
    "150423.172500",
    "150425.172500",
    "150427.172500",
    "150429.172500",
    "150431.172500",
    "150433.172500",
    "150435.172500",
    "150437.172500",
    "150439.172500",
    "150441.172500",
    "150443.172500",
    "150445.172500",
    "150447.172500",
    "150449.172500",
    "150451.172500",
    "150453.172500",
    "150455.172500",
    "150457.172500",
    "150459.172500",
    "150501.172500",
    "150503.172500",
    "150505.172500",
    "150507.172500",
    "150509.172500",
    "150511.172500",
    "150513.172500",
    "150515.172500",
    "150517.172500",
    "150519.172500",
    "150521.172500",
    "150523.172500",
    "150525.172500",
    "150527.172500",
    "150529.172500",
    "150531.172500",
    "150533.172500",
    "150535.172500",
    "150537.172500",
    "150539.172500",
    "150541.172500",
    "150543.172500",
    "150545.172500",
    "150547.172500",
    "150549.172500",
    "150551.172500",
    "150553.172500",
    "150555.172500",
    "150557.172500",
    "150559.172500",
    "150601.172500"
   ],
   "ContentTime": [
    "145733.756000",
    "145735.251000",
    "145737.252000",
    "145739.253000",
    "145741.252000",
    "145743.252000",
    "145745.252000",
    "145747.251000",
    "145749.251000",
    "145751.251000",
    "145753.251000",
    "145755.253000",
    "145757.252000",
    "145759.252000",
    "145801.252000",
    "145803.251000",
    "145805.251000",
    "145807.252000",
    "145809.251000",
    "145811.252000",
    "145813.253000",
    "145815.252000",
    "145817.253000",
    "145819.251000",
    "145821.252000",
    "145823.252000",
    "145825.251000",
    "145827.251000",
    "145829.251000",
    "145831.252000",
    "145833.252000",
    "145835.253000",
    "145837.252000",
    "145839.251000",
    "145841.251000",
    "145843.251000",
    "145845.251000",
    "145847.251000",
    "145849.253000",
    "145851.252000",
    "145853.252000",
    "145855.252000",
    "145857.252000",
    "145859.252000",
    "145901.252000",
    "145903.251000",
    "145905.252000",
    "145907.253000",
    "145909.252000",
    "145911.252000",
    "145913.251000",
    "145915.251000",
    "145917.251000",
    "145919.251000",
    "145921.251000",
    "145923.252000",
    "145925.252000",
    "145927.252000",
    "145929.251000",
    "145931.251000",
    "145933.251000",
    "145935.251000",
    "145937.252000",
    "145939.252000",
    "145941.253000",
    "145943.252000",
    "145945.252000",
    "145947.251000",
    "145949.251000",
    "145951.251000",
    "145953.251000",
    "145955.252000",
    "145957.251000",
    "145959.253000",
    "150001.252000",
    "150003.252000",
    "150005.251000",
    "150007.252000",
    "150009.251000",
    "150011.252000",
    "150013.251000",
    "150015.253000",
    "150017.253000",
    "150019.252000",
    "150021.252000",
    "150023.251000",
    "150025.252000",
    "150027.251000",
    "150029.252000",
    "150031.252000",
    "150033.252000",
    "150035.253000",
    "150037.253000",
    "150039.252000",
    "150041.251000",
    "150043.252000",
    "150045.251000",
    "150047.251000",
    "150049.252000",
    "150051.253000",
    "150053.253000",
    "150055.252000",
    "150057.251000",
    "150059.251000",
    "150101.251000",
    "150103.251000",
    "150105.251000",
    "150107.251000",
    "150109.252000",
    "150111.252000",
    "150113.252000",
    "150115.252000",
    "150117.251000",
    "150119.251000",
    "150121.251000",
    "150123.252000",
    "150125.253000",
    "150127.253000",
    "150129.253000",
    "150131.252000",
    "150133.251000",
    "150135.251000",
    "150137.251000",
    "150139.252000",
    "150141.252000",
    "150143.252000",
    "150145.252000",
    "150147.253000",
    "150149.251000",
    "150151.251000",
    "150153.251000",
    "150155.251000",
    "150157.252000",
    "150159.251000",
    "150201.252000",
    "150203.252000",
    "150205.253000",
    "150207.251000",
    "150209.251000",
    "150211.251000",
    "150213.252000",
    "150215.251000",
    "150217.252000",
    "150219.253000",
    "150221.252000",
    "150223.252000",
    "150225.252000",
    "150227.252000",
    "150229.251000",
    "150231.251000",
    "150233.251000",
    "150235.253000",
    "150237.252000",
    "150239.253000",
    "150241.252000",
    "150243.251000",
    "150245.252000",
    "150247.252000",
    "150249.252000",
    "150251.252000",
    "150253.253000",
    "150255.253000",
    "150257.253000",
    "150259.252000",
    "150301.251000",
    "150303.252000",
    "150305.252000",
    "150307.252000",
    "150309.252000",
    "150311.252000",
    "150313.252000",
    "150315.253000",
    "150317.251000",
    "150319.252000",
    "150321.251000",
    "150323.252000",
    "150325.252000",
    "150327.252000",
    "150329.252000",
    "150331.253000",
    "150333.253000",
    "150335.252000",
    "150337.252000",
    "150339.252000",
    "150341.252000",
    "150343.252000",
    "150345.252000",
    "150347.252000",
    "150349.252000",
    "150351.252000",
    "150353.251000",
    "150355.251000",
    "150357.251000",
    "150359.251000",
    "150401.251000",
    "150403.252000",
    "150405.253000",
    "150407.253000",
    "150409.251000",
    "150411.252000",
    "150413.252000",
    "150415.251000",
    "150417.251000",
    "150419.251000",
    "150421.252000",
    "150423.252000",
    "150425.253000",
    "150427.251000",
    "150429.251000",
    "150431.251000",
    "150433.271000",
    "150435.252000",
    "150437.252000",
    "150439.253000",
    "150441.253000",
    "150443.253000",
    "150445.252000",
    "150447.251000",
    "150449.252000",
    "150451.251000",
    "150453.251000",
    "150455.253000",
    "150457.252000",
    "150459.252000",
    "150501.253000",
    "150503.251000",
    "150505.252000",
    "150507.252000",
    "150509.252000",
    "150511.252000",
    "150513.253000",
    "150515.253000",
    "150517.253000",
    "150519.252000",
    "150521.251000",
    "150523.251000",
    "150525.252000",
    "150527.252000",
    "150529.252000",
    "150531.253000",
    "150533.252000",
    "150535.253000",
    "150537.252000",
    "150539.252000",
    "150541.252000",
    "150543.252000",
    "150545.252000",
    "150547.251000",
    "150549.253000",
    "150551.253000",
    "150553.253000",
    "150555.252000",
    "150557.252000",
    "150559.252000",
    "150601.252000",
    "150602.888000"
   ],
   "InstanceCreationTime": [
    "145733.756000",
    "145735.251000",
    "145737.252000",
    "145739.253000",
    "145741.252000",
    "145743.252000",
    "145745.252000",
    "145747.251000",
    "145749.251000",
    "145751.251000",
    "145753.251000",
    "145755.253000",
    "145757.252000",
    "145759.252000",
    "145801.252000",
    "145803.251000",
    "145805.251000",
    "145807.252000",
    "145809.251000",
    "145811.252000",
    "145813.253000",
    "145815.252000",
    "145817.253000",
    "145819.251000",
    "145821.252000",
    "145823.252000",
    "145825.251000",
    "145827.251000",
    "145829.251000",
    "145831.252000",
    "145833.252000",
    "145835.253000",
    "145837.252000",
    "145839.251000",
    "145841.251000",
    "145843.251000",
    "145845.251000",
    "145847.251000",
    "145849.253000",
    "145851.252000",
    "145853.252000",
    "145855.252000",
    "145857.252000",
    "145859.252000",
    "145901.252000",
    "145903.251000",
    "145905.252000",
    "145907.253000",
    "145909.252000",
    "145911.252000",
    "145913.251000",
    "145915.251000",
    "145917.251000",
    "145919.251000",
    "145921.251000",
    "145923.252000",
    "145925.252000",
    "145927.252000",
    "145929.251000",
    "145931.251000",
    "145933.251000",
    "145935.251000",
    "145937.252000",
    "145939.252000",
    "145941.253000",
    "145943.252000",
    "145945.252000",
    "145947.251000",
    "145949.251000",
    "145951.251000",
    "145953.251000",
    "145955.252000",
    "145957.251000",
    "145959.253000",
    "150001.252000",
    "150003.252000",
    "150005.251000",
    "150007.252000",
    "150009.251000",
    "150011.252000",
    "150013.251000",
    "150015.253000",
    "150017.253000",
    "150019.252000",
    "150021.252000",
    "150023.251000",
    "150025.252000",
    "150027.251000",
    "150029.252000",
    "150031.252000",
    "150033.252000",
    "150035.253000",
    "150037.253000",
    "150039.252000",
    "150041.251000",
    "150043.252000",
    "150045.251000",
    "150047.251000",
    "150049.252000",
    "150051.253000",
    "150053.253000",
    "150055.252000",
    "150057.251000",
    "150059.251000",
    "150101.251000",
    "150103.251000",
    "150105.251000",
    "150107.251000",
    "150109.252000",
    "150111.252000",
    "150113.252000",
    "150115.252000",
    "150117.251000",
    "150119.251000",
    "150121.251000",
    "150123.252000",
    "150125.253000",
    "150127.253000",
    "150129.253000",
    "150131.252000",
    "150133.251000",
    "150135.251000",
    "150137.251000",
    "150139.252000",
    "150141.252000",
    "150143.252000",
    "150145.252000",
    "150147.253000",
    "150149.251000",
    "150151.251000",
    "150153.251000",
    "150155.251000",
    "150157.252000",
    "150159.251000",
    "150201.252000",
    "150203.252000",
    "150205.253000",
    "150207.251000",
    "150209.251000",
    "150211.251000",
    "150213.252000",
    "150215.251000",
    "150217.252000",
    "150219.253000",
    "150221.252000",
    "150223.252000",
    "150225.252000",
    "150227.252000",
    "150229.251000",
    "150231.251000",
    "150233.251000",
    "150235.253000",
    "150237.252000",
    "150239.253000",
    "150241.252000",
    "150243.251000",
    "150245.252000",
    "150247.252000",
    "150249.252000",
    "150251.252000",
    "150253.253000",
    "150255.253000",
    "150257.253000",
    "150259.252000",
    "150301.251000",
    "150303.252000",
    "150305.252000",
    "150307.252000",
    "150309.252000",
    "150311.252000",
    "150313.252000",
    "150315.253000",
    "150317.251000",
    "150319.252000",
    "150321.251000",
    "150323.252000",
    "150325.252000",
    "150327.252000",
    "150329.252000",
    "150331.253000",
    "150333.253000",
    "150335.252000",
    "150337.252000",
    "150339.252000",
    "150341.252000",
    "150343.252000",
    "150345.252000",
    "150347.252000",
    "150349.252000",
    "150351.252000",
    "150353.251000",
    "150355.251000",
    "150357.251000",
    "150359.251000",
    "150401.251000",
    "150403.252000",
    "150405.253000",
    "150407.253000",
    "150409.251000",
    "150411.252000",
    "150413.252000",
    "150415.251000",
    "150417.251000",
    "150419.251000",
    "150421.252000",
    "150423.252000",
    "150425.253000",
    "150427.251000",
    "150429.251000",
    "150431.251000",
    "150433.271000",
    "150435.252000",
    "150437.252000",
    "150439.253000",
    "150441.253000",
    "150443.253000",
    "150445.252000",
    "150447.251000",
    "150449.252000",
    "150451.251000",
    "150453.251000",
    "150455.253000",
    "150457.252000",
    "150459.252000",
    "150501.253000",
    "150503.251000",
    "150505.252000",
    "150507.252000",
    "150509.252000",
    "150511.252000",
    "150513.253000",
    "150515.253000",
    "150517.253000",
    "150519.252000",
    "150521.251000",
    "150523.251000",
    "150525.252000",
    "150527.252000",
    "150529.252000",
    "150531.253000",
    "150533.252000",
    "150535.253000",
    "150537.252000",
    "150539.252000",
    "150541.252000",
    "150543.252000",
    "150545.252000",
    "150547.251000",
    "150549.253000",
    "150551.253000",
    "150553.253000",
    "150555.252000",
    "150557.252000",
    "150559.252000",
    "150601.252000",
    "150602.888000"
   ],
   "InstanceNumber": [
    1,
    2,
    3,
    4,
    5,
    6,
    7,
    8,
    9,
    10,
    11,
    12,
    13,
    14,
    15,
    16,
    17,
    18,
    19,
    20,
    21,
    22,
    23,
    24,
    25,
    26,
    27,
    28,
    29,
    30,
    31,
    32,
    33,
    34,
    35,
    36,
    37,
    38,
    39,
    40,
    41,
    42,
    43,
    44,
    45,
    46,
    47,
    48,
    49,
    50,
    51,
    52,
    53,
    54,
    55,
    56,
    57,
    58,
    59,
    60,
    61,
    62,
    63,
    64,
    65,
    66,
    67,
    68,
    69,
    70,
    71,
    72,
    73,
    74,
    75,
    76,
    77,
    78,
    79,
    80,
    81,
    82,
    83,
    84,
    85,
    86,
    87,
    88,
    89,
    90,
    91,
    92,
    93,
    94,
    95,
    96,
    97,
    98,
    99,
    100,
    101,
    102,
    103,
    104,
    105,
    106,
    107,
    108,
    109,
    110,
    111,
    112,
    113,
    114,
    115,
    116,
    117,
    118,
    119,
    120,
    121,
    122,
    123,
    124,
    125,
    126,
    127,
    128,
    129,
    130,
    131,
    132,
    133,
    134,
    135,
    136,
    137,
    138,
    139,
    140,
    141,
    142,
    143,
    144,
    145,
    146,
    147,
    148,
    149,
    150,
    151,
    152,
    153,
    154,
    155,
    156,
    157,
    158,
    159,
    160,
    161,
    162,
    163,
    164,
    165,
    166,
    167,
    168,
    169,
    170,
    171,
    172,
    173,
    174,
    175,
    176,
    177,
    178,
    179,
    180,
    181,
    182,
    183,
    184,
    185,
    186,
    187,
    188,
    189,
    190,
    191,
    192,
    193,
    194,
    195,
    196,
    197,
    198,
    199,
    200,
    201,
    202,
    203,
    204,
    205,
    206,
    207,
    208,
    209,
    210,
    211,
    212,
    213,
    214,
    215,
    216,
    217,
    218,
    219,
    220,
    221,
    222,
    223,
    224,
    225,
    226,
    227,
    228,
    229,
    230,
    231,
    232,
    233,
    234,
    235,
    236,
    237,
    238,
    239,
    240,
    241,
    242,
    243,
    244,
    245,
    246,
    247,
    248,
    249,
    250,
    251,
    252,
    253,
    254,
    255,
    256
   ],
   "LargestImagePixelValue": [
    2551,
    2470,
    2537,
    2500,
    2548,
    2529,
    2846,
    2585,
    2533,
    2511,
    2572,
    2457,
    2462,
    2500,
    2506,
    2516,
    2496,
    2525,
    2497,
    2488,
    2461,
    2479,
    2468,
    2501,
    2518,
    2451,
    2538,
    2477,
    2493,
    2448,
    2463,
    2467,
    2511,
    2470,
    2512,
    2476,
    2472,
    2490,
    2538,
    2511,
    2528,
    2513,
    2524,
    2469,
    2476,
    2501,
    2523,
    2526,
    2525,
    2495,
    2535,
    2511,
    2529,
    2523,
    2522,
    2628,
    2496,
    2490,
    2520,
    2537,
    2539,
    2556,
    2541,
    2503,
    2508,
    2527,
    2570,
    2547,
    2513,
    2462,
    2487,
    2509,
    2501,
    2527,
    2520,
    2539,
    2506,
    2511,
    2505,
    2548,
    2502,
    2495,
    2535,
    2508,
    2550,
    2512,
    2523,
    2477,
    2530,
    2502,
    2501,
    2498,
    2468,
    2584,
    2538,
    2509,
    2516,
    2515,
    2560,
    2519,
    2515,
    2487,
    2506,
    2505,
    2482,
    2473,
    2523,
    2537,
    2506,
    2466,
    2483,
    2508,
    2503,
    2549,
    2743,
    2581,
    2547,
    2488,
    2496,
    2452,
    2484,
    2490,
    2512,
    2486,
    2498,
    2536,
    2528,
    2509,
    2469,
    2490,
    2528,
    2513,
    2508,
    2486,
    2518,
    2516,
    2531,
    2517,
    2504,
    2462,
    2467,
    2493,
    2543,
    2544,
    2544,
    2498,
    2509,
    2511,
    2499,
    2531,
    2548,
    2524,
    2470,
    2502,
    2541,
    2561,
    2543,
    2526,
    2550,
    2520,
    2497,
    2504,
    2540,
    2559,
    2497,
    2517,
    2530,
    2498,
    2512,
    2492,
    2477,
    2556,
    2541,
    2537,
    2563,
    2544,
    2469,
    2480,
    2522,
    2516,
    2514,
    2492,
    2547,
    2547,
    2567,
    2507,
    2488,
    2952,
    2498,
    2544,
    2533,
    2545,
    2535,
    2513,
    2542,
    2532,
    2536,
    2600,
    2516,
    2553,
    2498,
    2543,
    2549,
    2545,
    2542,
    2532,
    2521,
    2496,
    2493,
    2494,
    2521,
    2555,
    2516,
    2469,
    2546,
    2511,
    2539,
    2546,
    2553,
    2545,
    2522,
    2703,
    2555,
    2485,
    2483,
    2637,
    2540,
    2491,
    2557,
    2562,
    2489,
    2583,
    2635,
    2538,
    2549,
    2550,
    2495,
    2499,
    2522,
    2730,
    2549,
    2663,
    2545,
    2553,
    2516,
    2510,
    2536,
    2503,
    2496,
    2483,
    2465,
    2525,
    2480,
    2505,
    2537,
    2842
   ],
   "WindowCenter": [
    728.0,
    728.0,
    729.0,
    727.0,
    728.0,
    728.0,
    732.0,
    730.0,
    729.0,
    729.0,
    730.0,
    727.0,
    727.0,
    727.0,
    726.0,
    727.0,
    726.0,
    727.0,
    727.0,
    728.0,
    728.0,
    728.0,
    727.0,
    727.0,
    728.0,
    722.0,
    729.0,
    726.0,
    726.0,
    726.0,
    726.0,
    725.0,
    726.0,
    726.0,
    728.0,
    727.0,
    726.0,
    726.0,
    728.0,
    729.0,
    729.0,
    728.0,
    727.0,
    726.0,
    725.0,
    727.0,
    729.0,
    729.0,
    729.0,
    728.0,
    729.0,
    728.0,
    727.0,
    729.0,
    729.0,
    727.0,
    725.0,
    727.0,
    729.0,
    729.0,
    729.0,
    729.0,
    729.0,
    728.0,
    727.0,
    729.0,
    730.0,
    729.0,
    728.0,
    727.0,
    726.0,
    725.0,
    726.0,
    727.0,
    727.0,
    726.0,
    723.0,
    724.0,
    726.0,
    727.0,
    727.0,
    728.0,
    729.0,
    727.0,
    728.0,
    728.0,
    728.0,
    727.0,
    727.0,
    727.0,
    728.0,
    728.0,
    727.0,
    729.0,
    727.0,
    726.0,
    727.0,
    727.0,
    728.0,
    726.0,
    726.0,
    727.0,
    727.0,
    727.0,
    726.0,
    727.0,
    728.0,
    729.0,
    726.0,
