{
 "AcquisitionMatrixPE": 100,
 "AcquisitionNumber": 1,
 "AcquisitionTime": "14:18:38.115000",
 "BandwidthPerPixelPhaseEncode": 18.519,
 "BaseResolution": 100,
 "BodyPartExamined": "BRAIN",
 "ConsistencyInfo": "N4_VE11C_LATEST_20160120",
 "ConversionSoftware": "dcm2niix",
 "ConversionSoftwareVersion": "v1.0.20180622 GCC4.9.2",
 "DerivedVendorReportedEchoSpacing": 0.000539986,
 "DeviceSerialNumber": "166078",
 "DwellTime": 2.1e-06,
 "EchoTime": 0.034,
 "EchoTrainLength": 100,
 "EffectiveEchoSpacing": 0.000539986,
 "FlipAngle": 90,
 "ImageOrientationPatientDICOM": [
  1,
  0,
  0,
  0,
  0.981627,
  -0.190809
 ],
 "ImageType": [
  "ORIGINAL",
  "PRIMARY",
  "M",
  "ND",
  "MOSAIC"
 ],
 "InPlanePhaseEncodingDirectionDICOM": "COL",
 "InstitutionAddress": "Street_StreetNo_Bei_Jing_District_CN_ZIP",
 "InstitutionName": "BeiJing_Normal_University",
 "InstitutionalDepartmentName": "Department",
 "MRAcquisitionType": "2D",
 "MagneticFieldStrength": 3,
 "Manufacturer": "Siemens",
 "ManufacturersModelName": "Prisma",
 "Modality": "MR",
 "MultibandAccelerationFactor": 3,
 "PartialFourier": 1,
 "PatientPosition": "HFS",
 "PercentPhaseFOV": 100,
 "PhaseEncodingDirection": "j-",
 "PhaseEncodingSteps": 100,
 "PhaseResolution": 1,
 "PixelBandwidth": 2380,
 "ProcedureStepDescription": "BNU_P2018_64CH_Zhen.ZongLei",
 "ProtocolName": "bold_100x100_s3_2x2x2_retino_150",
 "PulseSequenceDetails": "%SiemensSeq%_ep2d_bold",
 "ReceiveCoilActiveElements": "HC1-7;NC1",
 "ReceiveCoilName": "HeadNeck_64",
 "ReconMatrixPE": 100,
 "RepetitionTime": 2,
 "SAR": 0.0878754,
 "ScanOptions": "FS",
 "ScanningSequence": "EP",
 "SequenceName": "_epfid2d1_100",
 "SequenceVariant": "SK",
 "SeriesDescription": "bold_100x100_s3_2x2x2_retino_150",
 "SeriesNumber": 6,
 "ShimSetting": [
  -5458,
  -11480,
  -1240,
  394,
  -13,
  -172,
  -191,
  72
 ],
 "SliceThickness": 2,
 "SliceTiming": [
  1.485,
  0,
  0.99,
  0.0825,
  1.0725,
  0.165,
  1.155,
  0.2475,
  1.2375,
  0.33,
  1.32,
  0.4125,
  1.4025,
  0.5775,
  1.5675,
  0.66,
  1.65,
  0.7425,
  1.7325,
  0.825,
  1.815,
  0.9075,
  1.8975,
  0.495,
  1.485,
  0,
  0.99,
  0.0825,
  1.0725,
  0.165,
  1.155,
  0.2475,
  1.2375,
  0.33,
  1.32,
  0.4125,
  1.4025,
  0.5775,
  1.5675,
  0.66,
  1.65,
  0.7425,
  1.7325,
  0.825,
  1.815,
  0.9075,
  1.8975,
  0.495,
  1.485,
  0,
  0.99,
  0.0825,
  1.0725,
  0.165,
  1.155,
  0.2475,
  1.2375,
  0.33,
  1.32,
  0.4125,
  1.4025,
  0.5775,
  1.5675,
  0.66,
  1.65,
  0.7425,
  1.7325,
  0.825,
  1.815,
  0.9075,
  1.8975,
  0.495
 ],
 "SoftwareVersions": "syngo_MR_E11",
 "SpacingBetweenSlices": 2,
 "StationName": "AWP166078",
 "TaskName": "prf",
 "TotalReadoutTime": 0.0534586,
 "TxRefAmp": 231.76,
 "dcmmeta_affine": [
  [
   -2.0,
   0.0,
   0.0,
   101.34939575195312
  ],
  [
   0.0,
   1.9632543325424194,
   -0.3816179931163788,
   -83.92913055419922
  ],
  [
   0.0,
   0.3816179633140564,
   1.963254451751709,
   -76.1924057006836
  ],
  [
   0.0,
   0.0,
   0.0,
   1.0
  ]
 ],
 "dcmmeta_reorient_transform": [
  [
   0.0,
   -1.0,
   0.0,
   99.0
  ],
  [
   1.0,
   0.0,
   0.0,
   0.0
  ],
  [
   0.0,
   0.0,
   1.0,
   0.0
  ],
  [
   0.0,
   0.0,
   0.0,
   1.0
  ]
 ],
 "dcmmeta_shape": [
  100,
  100,
  72,
  150
 ],
 "dcmmeta_slice_dim": 2,
 "dcmmeta_version": 0.6,
 "global": {
  "const": {
   "AcquisitionMatrix": [
    100,
    0,
    0,
    100
   ],
   "AngioFlag": "N",
   "BitsAllocated": 16,
   "BitsStored": 12,
   "BodyPartExamined": "BRAIN",
   "Columns": 900,
   "EchoNumbers": 1,
   "EchoTime": 34.0,
   "EchoTrainLength": 100,
   "FlipAngle": 90.0,
   "HighBit": 11,
   "ImageOrientationPatient": [
    1.0,
    0.0,
    0.0,
    0.0,
    0.98162718523795,
    -0.1908089861663
   ],
   "ImagePositionPatient": [
    -901.34939754009,
    -895.73479714323,
    114.23496544886
   ],
   "ImageType": [
    "ORIGINAL",
    "PRIMARY",
    "M",
    "ND",
    "MOSAIC"
   ],
   "ImagedNucleus": "1H",
   "ImagingFrequency": 123.257757,
   "InPlanePhaseEncodingDirection": "COL",
   "MRAcquisitionType": "2D",
   "MagneticFieldStrength": 3.0,
   "Manufacturer": "SIEMENS",
   "ManufacturerModelName": "Prisma",
   "Modality": "MR",
   "NumberOfAverages": 1.0,
   "NumberOfPhaseEncodingSteps": 100,
   "PercentPhaseFieldOfView": 100.0,
   "PercentSampling": 100.0,
   "PerformedProcedureStepStartTime": "135813.353000",
   "PhotometricInterpretation": "MONOCHROME2",
   "PixelBandwidth": 2380.0,
   "PixelRepresentation": 0,
   "PixelSpacing": [
    2.0,
    2.0
   ],
   "ProtocolName": "bold_100x100_s3_2x2x2_retino_150",
   "RepetitionTime": 2000.0,
   "Rows": 900,
   "SAR": 0.08787537138614,
   "SamplesPerPixel": 1,
   "ScanOptions": "FS",
   "ScanningSequence": "EP",
   "SequenceName": "*epfid2d1_100",
   "SequenceVariant": "SK",
   "SeriesDescription": "bold_100x100_s3_2x2x2_retino_150",
   "SeriesNumber": 6,
   "SeriesTime": "141841.320000",
   "SliceLocation": -58.778100927478,
   "SliceThickness": 2.0,
   "SmallestImagePixelValue": 0,
   "SoftwareVersions": "syngo MR E11",
   "SpacingBetweenSlices": 2.0000000500643,
   "SpecificCharacterSet": "ISO_IR 100",
   "StudyID": "1",
   "StudyTime": "135813.261000",
   "TransmitCoilName": "Body",
   "VariableFlipAngleFlag": "N",
   "WindowCenterWidthExplanation": "Algo1",
   "dBdt": 0.0
  },
  "slices": {}
 },
 "time": {
  "samples": {
   "AcquisitionNumber": [
    1,
    2,
    3,
    4,
    5,
    6,
    7,
    8,
    9,
    10,
    11,
    12,
    13,
    14,
    15,
    16,
    17,
    18,
    19,
    20,
    21,
    22,
    23,
    24,
    25,
    26,
    27,
    28,
    29,
    30,
    31,
    32,
    33,
    34,
    35,
    36,
    37,
    38,
    39,
    40,
    41,
    42,
    43,
    44,
    45,
    46,
    47,
    48,
    49,
    50,
    51,
    52,
    53,
    54,
    55,
    56,
    57,
    58,
    59,
    60,
    61,
    62,
    63,
    64,
    65,
    66,
    67,
    68,
    69,
    70,
    71,
    72,
    73,
    74,
    75,
    76,
    77,
    78,
    79,
    80,
    81,
    82,
    83,
    84,
    85,
    86,
    87,
    88,
    89,
    90,
    91,
    92,
    93,
    94,
    95,
    96,
    97,
    98,
    99,
    100,
    101,
    102,
    103,
    104,
    105,
    106,
    107,
    108,
    109,
    110,
    111,
    112,
    113,
    114,
    115,
    116,
    117,
    118,
    119,
    120,
    121,
    122,
    123,
    124,
    125,
    126,
    127,
    128,
    129,
    130,
    131,
    132,
    133,
    134,
    135,
    136,
    137,
    138,
    139,
    140,
    141,
    142,
    143,
    144,
    145,
    146,
    147,
    148,
    149,
    150
   ],
   "AcquisitionTime": [
    "141838.115000",
    "141840.115000",
    "141842.115000",
    "141844.115000",
    "141846.115000",
    "141848.115000",
    "141850.115000",
    "141852.115000",
    "141854.115000",
    "141856.115000",
    "141858.115000",
    "141900.115000",
    "141902.115000",
    "141904.115000",
    "141906.115000",
    "141908.115000",
    "141910.115000",
    "141912.115000",
    "141914.115000",
    "141916.115000",
    "141918.115000",
    "141920.115000",
    "141922.115000",
    "141924.115000",
    "141926.115000",
    "141928.115000",
    "141930.115000",
    "141932.115000",
    "141934.115000",
    "141936.115000",
    "141938.115000",
    "141940.115000",
    "141942.115000",
    "141944.115000",
    "141946.115000",
    "141948.115000",
    "141950.115000",
    "141952.115000",
    "141954.115000",
    "141956.115000",
    "141958.115000",
    "142000.115000",
    "142002.115000",
    "142004.115000",
    "142006.115000",
    "142008.115000",
    "142010.115000",
    "142012.115000",
    "142014.115000",
    "142016.115000",
    "142018.115000",
    "142020.115000",
    "142022.115000",
    "142024.115000",
    "142026.115000",
    "142028.115000",
    "142030.115000",
    "142032.115000",
    "142034.115000",
    "142036.115000",
    "142038.115000",
    "142040.115000",
    "142042.115000",
    "142044.115000",
    "142046.115000",
    "142048.115000",
    "142050.115000",
    "142052.115000",
    "142054.115000",
    "142056.115000",
    "142058.115000",
    "142100.115000",
    "142102.115000",
    "142104.115000",
    "142106.115000",
    "142108.115000",
    "142110.115000",
    "142112.115000",
    "142114.115000",
    "142116.115000",
    "142118.115000",
    "142120.115000",
    "142122.115000",
    "142124.115000",
    "142126.115000",
    "142128.115000",
    "142130.115000",
    "142132.115000",
    "142134.115000",
    "142136.115000",
    "142138.115000",
    "142140.115000",
    "142142.115000",
    "142144.115000",
    "142146.115000",
    "142148.115000",
    "142150.115000",
    "142152.115000",
    "142154.115000",
    "142156.115000",
    "142158.115000",
    "142200.115000",
    "142202.115000",
    "142204.115000",
    "142206.115000",
    "142208.115000",
    "142210.115000",
    "142212.115000",
    "142214.115000",
    "142216.115000",
    "142218.115000",
    "142220.115000",
    "142222.115000",
    "142224.115000",
    "142226.115000",
    "142228.115000",
    "142230.115000",
    "142232.115000",
    "142234.115000",
    "142236.115000",
    "142238.115000",
    "142240.115000",
    "142242.115000",
    "142244.115000",
    "142246.115000",
    "142248.115000",
    "142250.115000",
    "142252.115000",
    "142254.115000",
    "142256.115000",
    "142258.115000",
    "142300.115000",
    "142302.115000",
    "142304.115000",
    "142306.115000",
    "142308.115000",
    "142310.115000",
    "142312.115000",
    "142314.115000",
    "142316.115000",
    "142318.115000",
    "142320.115000",
    "142322.115000",
    "142324.115000",
    "142326.115000",
    "142328.115000",
    "142330.115000",
    "142332.115000",
    "142334.115000",
    "142336.115000"
   ],
   "ContentTime": [
    "141841.324000",
    "141842.820000",
    "141844.819000",
    "141846.820000",
    "141848.818000",
    "141850.819000",
    "141852.819000",
    "141854.819000",
    "141856.820000",
    "141858.819000",
    "141900.820000",
    "141902.819000",
    "141904.819000",
    "141906.819000",
    "141908.820000",
    "141910.819000",
    "141912.820000",
    "141914.820000",
    "141916.819000",
    "141918.820000",
    "141920.819000",
    "141922.819000",
    "141924.819000",
    "141926.819000",
    "141928.819000",
    "141930.819000",
    "141932.820000",
    "141934.820000",
    "141936.820000",
    "141938.820000",
    "141940.819000",
    "141942.820000",
    "141944.820000",
    "141946.819000",
    "141948.820000",
    "141950.820000",
    "141952.819000",
    "141954.819000",
    "141956.820000",
    "141958.818000",
    "142000.820000",
    "142002.819000",
    "142004.819000",
    "142006.819000",
    "142008.819000",
    "142010.820000",
    "142012.820000",
    "142014.819000",
    "142016.818000",
    "142018.819000",
    "142020.819000",
    "142022.819000",
    "142024.819000",
    "142026.820000",
    "142028.820000",
    "142030.820000",
    "142032.819000",
    "142034.820000",
    "142036.820000",
    "142038.819000",
    "142040.820000",
    "142042.819000",
    "142044.820000",
    "142046.819000",
    "142048.819000",
    "142050.819000",
    "142052.820000",
    "142054.820000",
    "142056.820000",
    "142058.820000",
    "142100.819000",
    "142102.819000",
    "142104.819000",
    "142106.820000",
    "142108.818000",
    "142110.820000",
    "142112.820000",
    "142114.819000",
    "142116.819000",
    "142118.820000",
    "142120.820000",
    "142122.819000",
    "142124.819000",
    "142126.818000",
    "142128.820000",
    "142130.819000",
    "142132.820000",
    "142134.819000",
    "142136.820000",
    "142138.819000",
    "142140.820000",
    "142142.820000",
    "142144.820000",
    "142146.820000",
    "142148.820000",
    "142150.820000",
    "142152.819000",
    "142154.819000",
    "142156.820000",
    "142158.819000",
    "142200.819000",
    "142202.820000",
    "142204.820000",
    "142206.820000",
    "142208.820000",
    "142210.820000",
    "142212.819000",
    "142214.819000",
    "142216.820000",
    "142218.819000",
    "142220.820000",
    "142222.819000",
    "142224.819000",
    "142226.820000",
    "142228.819000",
    "142230.819000",
    "142232.820000",
    "142234.820000",
    "142236.818000",
    "142238.820000",
    "142240.819000",
    "142242.820000",
    "142244.819000",
    "142246.819000",
    "142248.819000",
    "142250.820000",
    "142252.819000",
    "142254.819000",
    "142256.820000",
    "142258.819000",
    "142300.820000",
    "142302.819000",
    "142304.820000",
    "142306.820000",
    "142308.820000",
    "142310.820000",
    "142312.820000",
    "142314.820000",
    "142316.820000",
    "142318.820000",
    "142320.819000",
    "142322.819000",
    "142324.820000",
    "142326.832000",
    "142328.818000",
    "142330.819000",
    "142332.819000",
    "142334.820000",
    "142336.820000",
    "142338.379000"
   ],
   "InstanceCreationTime": [
    "141841.324000",
    "141842.820000",
    "141844.819000",
    "141846.820000",
    "141848.818000",
    "141850.819000",
    "141852.819000",
    "141854.819000",
    "141856.820000",
    "141858.819000",
    "141900.820000",
    "141902.819000",
    "141904.819000",
    "141906.819000",
    "141908.820000",
    "141910.819000",
    "141912.820000",
    "141914.820000",
    "141916.819000",
    "141918.820000",
    "141920.819000",
    "141922.819000",
    "141924.819000",
    "141926.819000",
    "141928.819000",
    "141930.819000",
    "141932.820000",
    "141934.820000",
    "141936.820000",
    "141938.820000",
    "141940.819000",
    "141942.820000",
    "141944.820000",
    "141946.819000",
    "141948.820000",
    "141950.820000",
    "141952.819000",
    "141954.819000",
    "141956.820000",
    "141958.818000",
    "142000.820000",
    "142002.819000",
    "142004.819000",
    "142006.819000",
    "142008.819000",
    "142010.820000",
    "142012.820000",
    "142014.819000",
    "142016.818000",
    "142018.819000",
    "142020.819000",
    "142022.819000",
    "142024.819000",
    "142026.820000",
    "142028.820000",
    "142030.820000",
    "142032.819000",
    "142034.820000",
    "142036.820000",
    "142038.819000",
    "142040.820000",
    "142042.819000",
    "142044.820000",
    "142046.819000",
    "142048.819000",
    "142050.819000",
    "142052.820000",
    "142054.820000",
    "142056.820000",
    "142058.820000",
    "142100.819000",
    "142102.819000",
    "142104.819000",
    "142106.820000",
    "142108.818000",
    "142110.820000",
    "142112.820000",
    "142114.819000",
    "142116.819000",
    "142118.820000",
    "142120.820000",
    "142122.819000",
    "142124.819000",
    "142126.818000",
    "142128.820000",
    "142130.819000",
    "142132.820000",
    "142134.819000",
    "142136.820000",
    "142138.819000",
    "142140.820000",
    "142142.820000",
    "142144.820000",
    "142146.820000",
    "142148.820000",
    "142150.820000",
    "142152.819000",
    "142154.819000",
    "142156.820000",
    "142158.819000",
    "142200.819000",
    "142202.820000",
    "142204.820000",
    "142206.820000",
    "142208.820000",
    "142210.820000",
    "142212.819000",
    "142214.819000",
    "142216.820000",
    "142218.819000",
    "142220.820000",
    "142222.819000",
    "142224.819000",
    "142226.820000",
    "142228.819000",
    "142230.819000",
    "142232.820000",
    "142234.820000",
    "142236.818000",
    "142238.820000",
    "142240.819000",
    "142242.820000",
    "142244.819000",
    "142246.819000",
    "142248.819000",
    "142250.820000",
    "142252.819000",
    "142254.819000",
    "142256.820000",
    "142258.819000",
    "142300.820000",
    "142302.819000",
    "142304.820000",
    "142306.820000",
    "142308.820000",
    "142310.820000",
    "142312.820000",
    "142314.820000",
    "142316.820000",
    "142318.820000",
    "142320.819000",
    "142322.819000",
    "142324.820000",
    "142326.832000",
    "142328.818000",
    "142330.819000",
    "142332.819000",
    "142334.820000",
    "142336.820000",
    "142338.379000"
   ],
   "InstanceNumber": [
    1,
    2,
    3,
    4,
    5,
    6,
    7,
    8,
    9,
    10,
    11,
    12,
    13,
    14,
    15,
    16,
    17,
    18,
    19,
    20,
    21,
    22,
    23,
    24,
    25,
    26,
    27,
    28,
    29,
    30,
    31,
    32,
    33,
    34,
    35,
    36,
    37,
    38,
    39,
    40,
    41,
    42,
    43,
    44,
    45,
    46,
    47,
    48,
    49,
    50,
    51,
    52,
    53,
    54,
    55,
    56,
    57,
    58,
    59,
    60,
    61,
    62,
    63,
    64,
    65,
    66,
    67,
    68,
    69,
    70,
    71,
    72,
    73,
    74,
    75,
    76,
    77,
    78,
    79,
    80,
    81,
    82,
    83,
    84,
    85,
    86,
    87,
    88,
    89,
    90,
    91,
    92,
    93,
    94,
    95,
    96,
    97,
    98,
    99,
    100,
    101,
    102,
    103,
    104,
    105,
    106,
    107,
    108,
    109,
    110,
    111,
    112,
    113,
    114,
    115,
    116,
    117,
    118,
    119,
    120,
    121,
    122,
    123,
    124,
    125,
    126,
    127,
    128,
    129,
    130,
    131,
    132,
    133,
    134,
    135,
    136,
    137,
    138,
    139,
    140,
    141,
    142,
    143,
    144,
    145,
    146,
    147,
    148,
    149,
    150
   ],
   "LargestImagePixelValue": [
    4095,
    4056,
    4048,
    4062,
    4004,
    3930,
    3930,
    3901,
    3914,
    3923,
    3941,
    3957,
    3963,
    3943,
    3917,
    3928,
    3880,
    3892,
    3923,
    3950,
    3924,
    3947,
    3951,
    3943,
    3917,
    3917,
    3895,
    3928,
    3917,
    3935,
    3903,
    3927,
    3905,
    3915,
    3927,
    3890,
    3914,
    3911,
    3899,
    3915,
    3950,
    3966,
    4003,
    3978,
    3933,
    3955,
    3910,
    3955,
    3923,
    3925,
    3942,
    3872,
    3860,
    3844,
    3823,
    3814,
    3880,
    3913,
    3856,
    3857,
    3842,
    3875,
    3910,
    3965,
    3957,
    3980,
    3967,
    3954,
    3932,
    3932,
    3968,
    3917,
    3970,
    3944,
    3917,
    3892,
    3946,
    3948,
    4013,
    4011,
    3990,
    3986,
    4026,
    3952,
    3960,
    4017,
    4069,
    4049,
    3962,
    3994,
    3968,
    3893,
    3889,
    3915,
    3806,
    3824,
    3844,
    3907,
    3995,
    3969,
    3981,
    4001,
    3994,
    3972,
    3917,
    3986,
    4008,
    3998,
    4027,
    3977,
    4028,
    3964,
    3965,
    3986,
    3944,
    3935,
    3982,
    4013,
    4054,
    4020,
    4044,
    4053,
    3993,
    3946,
    3985,
    3980,
    3986,
    3962,
    3945,
    3959,
    4019,
    4009,
    4003,
    3948,
    3935,
    3891,
    3890,
    3900,
    3858,
    3818,
    3814,
    3916,
    3962,
    4008,
    3981,
    4028,
    3992,
    3973,
    3965,
    3899
   ],
   "WindowCenter": [
    871.0,
    869.0,
    869.0,
    869.0,
    867.0,
    867.0,
    866.0,
    865.0,
    865.0,
    865.0,
    865.0,
    864.0,
    864.0,
    865.0,
    866.0,
    866.0,
    865.0,
    865.0,
    867.0,
    867.0,
    867.0,
    867.0,
    866.0,
    865.0,
    865.0,
    865.0,
    864.0,
    865.0,
    866.0,
    866.0,
    866.0,
    866.0,
    866.0,
    867.0,
    866.0,
    866.0,
    866.0,
    865.0,
    865.0,
    866.0,
    867.0,
    867.0,
    867.0,
    866.0,
    866.0,
    867.0,
    867.0,
    867.0,
    867.0,
    867.0,
    867.0,
    865.0,
    864.0,
    863.0,
    864.0,
    867.0,
    868.0,
    866.0,
    865.0,
    865.0,
    865.0,
    866.0,
    866.0,
    867.0,
    868.0,
    867.0,
    867.0,
    867.0,
    867.0,
    867.0,
    867.0,
    868.0,
    868.0,
    867.0,
    865.0,
    865.0,
    866.0,
    867.0,
    868.0,
    868.0,
    868.0,
    868.0,
    867.0,
    866.0,
    866.0,
    867.0,
    869.0,
    868.0,
    867.0,
    866.0,
    866.0,
    866.0,
    866.0,
    865.0,
    865.0,
    866.0,
    867.0,
    867.0,
    868.0,
    868.0,
    868.0,
    867.0,
    866.0,
    866.0,
    867.0,
    868.0,
    867.0,
    867.0,
    867.0,
    867.0,
    868.0,
    867.0,
    867.0,
    866.0,
    866.0,
    867.0,
    867.0,
    867.0,
    867.0,
    868.0,
    868.0,
    867.0,
    866.0,
    866.0,
    867.0,
    868.0,
    868.0,
    867.0,
    867.0,
    867.0,
    867.0,
    868.0,
    869.0,
    867.0,
    866.0,
    866.0,
    866.0,
    867.0,
    865.0,
    864.0,
    865.0,
    868.0,
    869.0,
    868.0,
    867.0,
    868.0,
    869.0,
    870.0,
    868.0,
    867.0
   ],
   "WindowWidth": [
    1895.0,
    1889.0,
    1887.0,
    1888.0,
    1883.0,
    1881.0,
    1879.0,
    1875.0,
    1875.0,
    1876.0,
    1875.0,
    1873.0,
    1875.0,
    1878.0,
    1878.0,
    1878.0,
    1876.0,
    1877.0,
    1881.0,
    1883.0,
    1882.0,
    1882.0,
    1879.0,
    1878.0,
    1876.0,
    1875.0,
    1874.0,
    1875.0,
    1879.0,
    1880.0,
    1879.0,
    1879.0,
    1880.0,
    1881.0,
    1880.0,
    1880.0,
    1879.0,
    1877.0,
    1877.0,
    1880.0,
    1883.0,
    1881.0,
    1881.0,
    1880.0,
    1880.0,
    1881.0,
    1881.0,
    1881.0,
    1882.0,
    1882.0,
    1881.0,
    1876.0,
    1871.0,
    1871.0,
    1874.0,
    1879.0,
    1882.0,
    1879.0,
    1876.0,
    1874.0,
    1876.0,
    1879.0,
    1880.0,
    1883.0,
    1884.0,
    1883.0,
    1881.0,
    1881.0,
    1881.0,
    1880.0,
    1880.0,
    1883.0,
    1882.0,
    1880.0,
    1875.0,
    1876.0,
    1879.0,
    1881.0,
    1884.0,
    1884.0,
    1884.0,
    1883.0,
    1881.0,
    1879.0,
    1879.0,
    1883.0,
    1886.0,
    1884.0,
    1880.0,
    1879.0,
    1877.0,
    1877.0,
    1877.0,
    1876.0,
    1874.0,
    1877.0,
    1879.0,
    1881.0,
    1884.0,
    1884.0,
    1883.0,
    1881.0,
    1879.0,
    1879.0,
    1881.0,
    1884.0,
    1882.0,
    1881.0,
    1881.0,
    1882.0,
    1884.0,
    1881.0,
    1880.0,
    1879.0,
    1879.0,
    1881.0,
    1882.0,
    1882.0,
    1882.0,
    1883.0,
    1885.0,
    1882.0,
    1879.0,
    1878.0,
    1881.0,
    1884.0,
    1883.0,
    1881.0,
    1880.0,
    1880.0,
    1882.0,
    1884.0,
    1886.0,
    1881.0,
    1878.0,
    1877.0,
    1878.0,
    1878.0,
    1875.0,
    1872.0,
    1875.0,
    1882.0,
    1886.0,
    1883.0,
    1881.0,
    1884.0,
    1886.0,
    1888.0,
    1884.0,
    1880.0
   ]
  },
  "slices": {}
 }
}