{
 "AcquisitionMatrixPE": 100,
 "AcquisitionNumber": 1,
 "AcquisitionTime": "15:03:12.440000",
 "BandwidthPerPixelPhaseEncode": 18.519,
 "BaseResolution": 100,
 "BodyPartExamined": "BRAIN",
 "ConsistencyInfo": "N4_VE11C_LATEST_20160120",
 "ConversionSoftware": "dcm2niix",
 "ConversionSoftwareVersion": "v1.0.20180622 GCC4.9.2",
 "DerivedVendorReportedEchoSpacing": 0.000539986,
 "DeviceSerialNumber": "166078",
 "DwellTime": 2.1e-06,
 "EchoTime": 0.034,
 "EchoTrainLength": 100,
 "EffectiveEchoSpacing": 0.000539986,
 "FlipAngle": 90,
 "ImageOrientationPatientDICOM": [
  1,
  0,
  0,
  0,
  0.981627,
  -0.190809
 ],
 "ImageType": [
  "ORIGINAL",
  "PRIMARY",
  "M",
  "ND",
  "MOSAIC"
 ],
 "InPlanePhaseEncodingDirectionDICOM": "COL",
 "InstitutionAddress": "Street_StreetNo_Bei_Jing_District_CN_ZIP",
 "InstitutionName": "BeiJing_Normal_University",
 "InstitutionalDepartmentName": "Department",
 "MRAcquisitionType": "2D",
 "MagneticFieldStrength": 3,
 "Manufacturer": "Siemens",
 "ManufacturersModelName": "Prisma",
 "Modality": "MR",
 "MultibandAccelerationFactor": 3,
 "PartialFourier": 1,
 "PatientPosition": "HFS",
 "PercentPhaseFOV": 100,
 "PhaseEncodingDirection": "j-",
 "PhaseEncodingSteps": 100,
 "PhaseResolution": 1,
 "PixelBandwidth": 2380,
 "ProcedureStepDescription": "BNU_P2018_64CH_Zhen.ZongLei",
 "ProtocolName": "bold_100x100_s3_2x2x2_retino_150",
 "PulseSequenceDetails": "%SiemensSeq%_ep2d_bold",
 "ReceiveCoilActiveElements": "HC1-7;NC1",
 "ReceiveCoilName": "HeadNeck_64",
 "ReconMatrixPE": 100,
 "RepetitionTime": 2,
 "SAR": 0.0878754,
 "ScanOptions": "FS",
 "ScanningSequence": "EP",
 "SequenceName": "_epfid2d1_100",
 "SequenceVariant": "SK",
 "SeriesDescription": "bold_100x100_s3_2x2x2_retino_150",
 "SeriesNumber": 15,
 "ShimSetting": [
  -5458,
  -11480,
  -1240,
  394,
  -13,
  -172,
  -191,
  72
 ],
 "SliceThickness": 2,
 "SliceTiming": [
  1.485,
  0,
  0.99,
  0.0825,
  1.0725,
  0.165,
  1.155,
  0.2475,
  1.2375,
  0.33,
  1.32,
  0.4125,
  1.4025,
  0.5775,
  1.5675,
  0.66,
  1.65,
  0.7425,
  1.7325,
  0.825,
  1.815,
  0.9075,
  1.8975,
  0.495,
  1.485,
  0,
  0.99,
  0.0825,
  1.0725,
  0.165,
  1.155,
  0.2475,
  1.2375,
  0.33,
  1.32,
  0.4125,
  1.4025,
  0.5775,
  1.5675,
  0.66,
  1.65,
  0.7425,
  1.7325,
  0.825,
  1.815,
  0.9075,
  1.8975,
  0.495,
  1.485,
  0,
  0.99,
  0.0825,
  1.0725,
  0.165,
  1.155,
  0.2475,
  1.2375,
  0.33,
  1.32,
  0.4125,
  1.4025,
  0.5775,
  1.5675,
  0.66,
  1.65,
  0.7425,
  1.7325,
  0.825,
  1.815,
  0.9075,
  1.8975,
  0.495
 ],
 "SoftwareVersions": "syngo_MR_E11",
 "SpacingBetweenSlices": 2,
 "StationName": "AWP166078",
 "TaskName": "prf",
 "TotalReadoutTime": 0.0534586,
 "TxRefAmp": 231.76,
 "dcmmeta_affine": [
  [
   -2.0,
   0.0,
   0.0,
   101.34939575195312
  ],
  [
   0.0,
   1.9632543325424194,
   -0.3816179931163788,
   -83.92913055419922
  ],
  [
   0.0,
   0.3816179633140564,
   1.963254451751709,
   -76.1924057006836
  ],
  [
   0.0,
   0.0,
   0.0,
   1.0
  ]
 ],
 "dcmmeta_reorient_transform": [
  [
   0.0,
   -1.0,
   0.0,
   99.0
  ],
  [
   1.0,
   0.0,
   0.0,
   0.0
  ],
  [
   0.0,
   0.0,
   1.0,
   0.0
  ],
  [
   0.0,
   0.0,
   0.0,
   1.0
  ]
 ],
 "dcmmeta_shape": [
  100,
  100,
  72,
  150
 ],
 "dcmmeta_slice_dim": 2,
 "dcmmeta_version": 0.6,
 "global": {
  "const": {
   "AcquisitionMatrix": [
    100,
    0,
    0,
    100
   ],
   "AngioFlag": "N",
   "BitsAllocated": 16,
   "BitsStored": 12,
   "BodyPartExamined": "BRAIN",
   "Columns": 900,
   "EchoNumbers": 1,
   "EchoTime": 34.0,
   "EchoTrainLength": 100,
   "FlipAngle": 90.0,
   "HighBit": 11,
   "ImageOrientationPatient": [
    1.0,
    0.0,
    0.0,
    0.0,
    0.98162718523795,
    -0.1908089861663
   ],
   "ImagePositionPatient": [
    -901.34939754009,
    -895.73479714323,
    114.23496544886
   ],
   "ImageType": [
    "ORIGINAL",
    "PRIMARY",
    "M",
    "ND",
    "MOSAIC"
   ],
   "ImagedNucleus": "1H",
   "ImagingFrequency": 123.257759,
   "InPlanePhaseEncodingDirection": "COL",
   "MRAcquisitionType": "2D",
   "MagneticFieldStrength": 3.0,
   "Manufacturer": "SIEMENS",
   "ManufacturerModelName": "Prisma",
   "Modality": "MR",
   "NumberOfAverages": 1.0,
   "NumberOfPhaseEncodingSteps": 100,
   "PercentPhaseFieldOfView": 100.0,
   "PercentSampling": 100.0,
   "PerformedProcedureStepStartTime": "135813.353000",
   "PhotometricInterpretation": "MONOCHROME2",
   "PixelBandwidth": 2380.0,
   "PixelRepresentation": 0,
   "PixelSpacing": [
    2.0,
    2.0
   ],
   "ProtocolName": "bold_100x100_s3_2x2x2_retino_150",
   "RepetitionTime": 2000.0,
   "Rows": 900,
   "SAR": 0.08787537138614,
   "SamplesPerPixel": 1,
   "ScanOptions": "FS",
   "ScanningSequence": "EP",
   "SequenceName": "*epfid2d1_100",
   "SequenceVariant": "SK",
   "SeriesDescription": "bold_100x100_s3_2x2x2_retino_150",
   "SeriesNumber": 15,
   "SeriesTime": "150314.765000",
   "SliceLocation": -58.778100927478,
   "SliceThickness": 2.0,
   "SmallestImagePixelValue": 0,
   "SoftwareVersions": "syngo MR E11",
   "SpacingBetweenSlices": 2.0000000500643,
   "SpecificCharacterSet": "ISO_IR 100",
   "StudyID": "1",
   "StudyTime": "135813.261000",
   "TransmitCoilName": "Body",
   "VariableFlipAngleFlag": "N",
   "WindowCenterWidthExplanation": "Algo1",
   "dBdt": 0.0
  },
  "slices": {}
 },
 "time": {
  "samples": {
   "AcquisitionNumber": [
    1,
    2,
    3,
    4,
    5,
    6,
    7,
    8,
    9,
    10,
    11,
    12,
    13,
    14,
    15,
    16,
    17,
    18,
    19,
    20,
    21,
    22,
    23,
    24,
    25,
    26,
    27,
    28,
    29,
    30,
    31,
    32,
    33,
    34,
    35,
    36,
    37,
    38,
    39,
    40,
    41,
    42,
    43,
    44,
    45,
    46,
    47,
    48,
    49,
    50,
    51,
    52,
    53,
    54,
    55,
    56,
    57,
    58,
    59,
    60,
    61,
    62,
    63,
    64,
    65,
    66,
    67,
    68,
    69,
    70,
    71,
    72,
    73,
    74,
    75,
    76,
    77,
    78,
    79,
    80,
    81,
    82,
    83,
    84,
    85,
    86,
    87,
    88,
    89,
    90,
    91,
    92,
    93,
    94,
    95,
    96,
    97,
    98,
    99,
    100,
    101,
    102,
    103,
    104,
    105,
    106,
    107,
    108,
    109,
    110,
    111,
    112,
    113,
    114,
    115,
    116,
    117,
    118,
    119,
    120,
    121,
    122,
    123,
    124,
    125,
    126,
    127,
    128,
    129,
    130,
    131,
    132,
    133,
    134,
    135,
    136,
    137,
    138,
    139,
    140,
    141,
    142,
    143,
    144,
    145,
    146,
    147,
    148,
    149,
    150
   ],
   "AcquisitionTime": [
    "150312.440000",
    "150314.440000",
    "150316.440000",
    "150318.440000",
    "150320.440000",
    "150322.440000",
    "150324.440000",
    "150326.440000",
    "150328.440000",
    "150330.440000",
    "150332.440000",
    "150334.440000",
    "150336.440000",
    "150338.440000",
    "150340.440000",
    "150342.440000",
    "150344.440000",
    "150346.440000",
    "150348.440000",
    "150350.440000",
    "150352.440000",
    "150354.440000",
    "150356.440000",
    "150358.440000",
    "150400.440000",
    "150402.440000",
    "150404.440000",
    "150406.440000",
    "150408.440000",
    "150410.440000",
    "150412.440000",
    "150414.440000",
    "150416.440000",
    "150418.440000",
    "150420.440000",
    "150422.440000",
    "150424.440000",
    "150426.440000",
    "150428.440000",
    "150430.440000",
    "150432.440000",
    "150434.440000",
    "150436.440000",
    "150438.440000",
    "150440.440000",
    "150442.440000",
    "150444.440000",
    "150446.440000",
    "150448.440000",
    "150450.440000",
    "150452.440000",
    "150454.440000",
    "150456.440000",
    "150458.440000",
    "150500.440000",
    "150502.440000",
    "150504.440000",
    "150506.440000",
    "150508.440000",
    "150510.440000",
    "150512.440000",
    "150514.440000",
    "150516.440000",
    "150518.440000",
    "150520.440000",
    "150522.440000",
    "150524.440000",
    "150526.440000",
    "150528.440000",
    "150530.440000",
    "150532.440000",
    "150534.440000",
    "150536.440000",
    "150538.440000",
    "150540.440000",
    "150542.440000",
    "150544.440000",
    "150546.440000",
    "150548.440000",
    "150550.440000",
    "150552.440000",
    "150554.440000",
    "150556.440000",
    "150558.440000",
    "150600.440000",
    "150602.440000",
    "150604.440000",
    "150606.440000",
    "150608.440000",
    "150610.440000",
    "150612.440000",
    "150614.440000",
    "150616.440000",
    "150618.440000",
    "150620.440000",
    "150622.440000",
    "150624.440000",
    "150626.440000",
    "150628.440000",
    "150630.440000",
    "150632.440000",
    "150634.440000",
    "150636.440000",
    "150638.440000",
    "150640.440000",
    "150642.440000",
    "150644.440000",
    "150646.440000",
    "150648.440000",
    "150650.440000",
    "150652.440000",
    "150654.440000",
    "150656.440000",
    "150658.440000",
    "150700.440000",
    "150702.440000",
    "150704.440000",
    "150706.440000",
    "150708.440000",
    "150710.440000",
    "150712.440000",
    "150714.440000",
    "150716.440000",
    "150718.440000",
    "150720.440000",
    "150722.440000",
    "150724.440000",
    "150726.440000",
    "150728.440000",
    "150730.440000",
    "150732.440000",
    "150734.440000",
    "150736.440000",
    "150738.440000",
    "150740.440000",
    "150742.440000",
    "150744.440000",
    "150746.440000",
    "150748.440000",
    "150750.440000",
    "150752.440000",
    "150754.440000",
    "150756.440000",
    "150758.440000",
    "150800.440000",
    "150802.440000",
    "150804.440000",
    "150806.440000",
    "150808.440000",
    "150810.440000"
   ],
   "ContentTime": [
    "150314.769000",
    "150316.265000",
    "150318.264000",
    "150320.265000",
    "150322.263000",
    "150324.263000",
    "150326.265000",
    "150328.264000",
    "150330.264000",
    "150332.266000",
    "150334.264000",
    "150336.765000",
    "150338.264000",
    "150340.264000",
    "150342.264000",
    "150344.264000",
    "150346.264000",
    "150348.264000",
    "150350.264000",
    "150352.264000",
    "150354.265000",
    "150356.264000",
    "150358.263000",
    "150400.265000",
    "150402.265000",
    "150404.265000",
    "150406.764000",
    "150408.264000",
    "150410.264000",
    "150412.264000",
    "150414.264000",
    "150416.264000",
    "150418.265000",
    "150420.264000",
    "150422.264000",
    "150424.765000",
    "150426.264000",
    "150428.765000",
    "150430.264000",
    "150432.263000",
    "150434.264000",
    "150436.764000",
    "150438.264000",
    "150440.264000",
    "150442.264000",
    "150444.264000",
    "150446.265000",
    "150448.265000",
    "150450.263000",
    "150452.264000",
    "150454.265000",
    "150456.265000",
    "150458.264000",
    "150500.264000",
    "150502.264000",
    "150504.265000",
    "150506.264000",
    "150508.264000",
    "150510.264000",
    "150512.265000",
    "150514.264000",
    "150516.264000",
    "150518.265000",
    "150520.264000",
    "150522.264000",
    "150524.265000",
    "150526.264000",
    "150528.265000",
    "150530.264000",
    "150532.264000",
    "150534.264000",
    "150536.264000",
    "150538.264000",
    "150540.264000",
    "150542.264000",
    "150544.264000",
    "150546.265000",
    "150548.264000",
    "150550.264000",
    "150552.264000",
    "150554.264000",
    "150556.265000",
    "150558.265000",
    "150600.263000",
    "150602.265000",
    "150604.264000",
    "150606.265000",
    "150608.264000",
    "150610.264000",
    "150612.264000",
    "150614.264000",
    "150616.264000",
    "150618.264000",
    "150620.264000",
    "150622.264000",
    "150624.265000",
    "150626.265000",
    "150628.265000",
    "150630.264000",
    "150632.265000",
    "150634.264000",
    "150636.263000",
    "150638.265000",
    "150640.264000",
    "150642.265000",
    "150644.264000",
    "150646.265000",
    "150648.264000",
    "150650.264000",
    "150652.263000",
    "150654.264000",
    "150656.265000",
    "150658.264000",
    "150700.265000",
    "150702.765000",
    "150704.264000",
    "150706.265000",
    "150708.264000",
    "150710.263000",
    "150712.265000",
    "150714.264000",
    "150716.265000",
    "150718.265000",
    "150720.264000",
    "150722.264000",
    "150724.264000",
    "150726.265000",
    "150728.264000",
    "150730.264000",
    "150732.265000",
    "150734.264000",
    "150736.264000",
    "150738.265000",
    "150740.265000",
    "150742.264000",
    "150744.265000",
    "150746.263000",
    "150748.265000",
    "150750.264000",
    "150752.265000",
    "150754.265000",
    "150756.264000",
    "150758.264000",
    "150800.264000",
    "150802.263000",
    "150804.263000",
    "150806.264000",
    "150808.264000",
    "150810.264000",
    "150812.208000"
   ],
   "InstanceCreationTime": [
    "150314.769000",
    "150316.265000",
    "150318.264000",
    "150320.265000",
    "150322.263000",
    "150324.263000",
    "150326.265000",
    "150328.264000",
    "150330.264000",
    "150332.266000",
    "150334.264000",
    "150336.765000",
    "150338.264000",
    "150340.264000",
    "150342.264000",
    "150344.264000",
    "150346.264000",
    "150348.264000",
    "150350.264000",
    "150352.264000",
    "150354.265000",
    "150356.264000",
    "150358.263000",
    "150400.265000",
    "150402.265000",
    "150404.265000",
    "150406.764000",
    "150408.264000",
    "150410.264000",
    "150412.264000",
    "150414.264000",
    "150416.264000",
    "150418.265000",
    "150420.264000",
    "150422.264000",
    "150424.765000",
    "150426.264000",
    "150428.765000",
    "150430.264000",
    "150432.263000",
    "150434.264000",
    "150436.764000",
    "150438.264000",
    "150440.264000",
    "150442.264000",
    "150444.264000",
    "150446.265000",
    "150448.265000",
    "150450.263000",
    "150452.264000",
    "150454.265000",
    "150456.265000",
    "150458.264000",
    "150500.264000",
    "150502.264000",
    "150504.265000",
    "150506.264000",
    "150508.264000",
    "150510.264000",
    "150512.265000",
    "150514.264000",
    "150516.264000",
    "150518.265000",
    "150520.264000",
    "150522.264000",
    "150524.265000",
    "150526.264000",
    "150528.265000",
    "150530.264000",
    "150532.264000",
    "150534.264000",
    "150536.264000",
    "150538.264000",
    "150540.264000",
    "150542.264000",
    "150544.264000",
    "150546.265000",
    "150548.264000",
    "150550.264000",
    "150552.264000",
    "150554.264000",
    "150556.265000",
    "150558.265000",
    "150600.263000",
    "150602.265000",
    "150604.264000",
    "150606.265000",
    "150608.264000",
    "150610.264000",
    "150612.264000",
    "150614.264000",
    "150616.264000",
    "150618.264000",
    "150620.264000",
    "150622.264000",
    "150624.265000",
    "150626.265000",
    "150628.265000",
    "150630.264000",
    "150632.265000",
    "150634.264000",
    "150636.263000",
    "150638.265000",
    "150640.264000",
    "150642.265000",
    "150644.264000",
    "150646.265000",
    "150648.264000",
    "150650.264000",
    "150652.263000",
    "150654.264000",
    "150656.265000",
    "150658.264000",
    "150700.265000",
    "150702.765000",
    "150704.264000",
    "150706.265000",
    "150708.264000",
    "150710.263000",
    "150712.265000",
    "150714.264000",
    "150716.265000",
    "150718.265000",
    "150720.264000",
    "150722.264000",
    "150724.264000",
    "150726.265000",
    "150728.264000",
    "150730.264000",
    "150732.265000",
    "150734.264000",
    "150736.264000",
    "150738.265000",
    "150740.265000",
    "150742.264000",
    "150744.265000",
    "150746.263000",
    "150748.265000",
    "150750.264000",
    "150752.265000",
    "150754.265000",
    "150756.264000",
    "150758.264000",
    "150800.264000",
    "150802.263000",
    "150804.263000",
    "150806.264000",
    "150808.264000",
    "150810.264000",
    "150812.208000"
   ],
   "InstanceNumber": [
    1,
    2,
    3,
    4,
    5,
    6,
    7,
    8,
    9,
    10,
    11,
    12,
    13,
    14,
    15,
    16,
    17,
    18,
    19,
    20,
    21,
    22,
    23,
    24,
    25,
    26,
    27,
    28,
    29,
    30,
    31,
    32,
    33,
    34,
    35,
    36,
    37,
    38,
    39,
    40,
    41,
    42,
    43,
    44,
    45,
    46,
    47,
    48,
    49,
    50,
    51,
    52,
    53,
    54,
    55,
    56,
    57,
    58,
    59,
    60,
    61,
    62,
    63,
    64,
    65,
    66,
    67,
    68,
    69,
    70,
    71,
    72,
    73,
    74,
    75,
    76,
    77,
    78,
    79,
    80,
    81,
    82,
    83,
    84,
    85,
    86,
    87,
    88,
    89,
    90,
    91,
    92,
    93,
    94,
    95,
    96,
    97,
    98,
    99,
    100,
    101,
    102,
    103,
    104,
    105,
    106,
    107,
    108,
    109,
    110,
    111,
    112,
    113,
    114,
    115,
    116,
    117,
    118,
    119,
    120,
    121,
    122,
    123,
    124,
    125,
    126,
    127,
    128,
    129,
    130,
    131,
    132,
    133,
    134,
    135,
    136,
    137,
    138,
    139,
    140,
    141,
    142,
    143,
    144,
    145,
    146,
    147,
    148,
    149,
    150
   ],
   "LargestImagePixelValue": [
    3986,
    3937,
    3925,
    3892,
    3911,
    3923,
    3903,
    3911,
    3909,
    3928,
    3936,
    3944,
    3948,
    3918,
    3935,
    3933,
    3905,
    3939,
    3940,
    3938,
    3932,
    3925,
    3928,
    3940,
    3905,
    3910,
    3886,
    3937,
    3938,
    3943,
    3929,
    3919,
    3942,
    3916,
    3913,
    3928,
    3947,
    3921,
    3945,
    3934,
    3922,
    3943,
    3915,
    3952,
    3942,
    3948,
    3942,
    3943,
    3940,
    3921,
    3960,
    3947,
    3978,
    3940,
    3930,
    3947,
    3948,
    3949,
    3939,
    3934,
    3950,
    3940,
    3953,
    3947,
    3949,
    3955,
    3963,
    3954,
    3953,
    3953,
    3970,
    3976,
    3957,
    3976,
    3959,
    3948,
    3934,
    3968,
    3967,
    3945,
    3961,
    3971,
    3974,
    3945,
    3975,
    3915,
    3945,
    3965,
    3964,
    3968,
    3972,
    3973,
    3979,
    3996,
    3990,
    3980,
    3988,
    3976,
    3981,
    3987,
    3995,
    3971,
    3938,
    3931,
    3972,
    3966,
    3974,
    3969,
    3979,
    3999,
    3987,
    4002,
    3958,
    3979,
    3981,
    3958,
    3994,
    3989,
    4003,
    4001,
    4011,
    4009,
    4003,
    4002,
    4003,
    3984,
    3975,
    3999,
    3994,
    4013,
    4018,
    3974,
    4007,
    4005,
    3989,
    3974,
    3965,
    3954,
    3939,
    3982,
    3968,
    3976,
    3976,
    4003,
    3981,
    3998,
    3999,
    4009,
    3991,
    3952
   ],
   "WindowCenter": [
    868.0,
    866.0,
    867.0,
    867.0,
    868.0,
    868.0,
    867.0,
    867.0,
    867.0,
    868.0,
    869.0,
    868.0,
    869.0,
    869.0,
    870.0,
    869.0,
    870.0,
    872.0,
    871.0,
    869.0,
    868.0,
    868.0,
    869.0,
    868.0,
    869.0,
    869.0,
    870.0,
    869.0,
    869.0,
    870.0,
    870.0,
    870.0,
    870.0,
    870.0,
    870.0,
    869.0,
    870.0,
    871.0,
    870.0,
    869.0,
    868.0,
    868.0,
    868.0,
    870.0,
    870.0,
    870.0,
    868.0,
    868.0,
    869.0,
    870.0,
    870.0,
    869.0,
    869.0,
    869.0,
    869.0,
    870.0,
    870.0,
    870.0,
    869.0,
    869.0,
    869.0,
    869.0,
    870.0,
    870.0,
    869.0,
    870.0,
    871.0,
    871.0,
    869.0,
    869.0,
    869.0,
    870.0,
    869.0,
    869.0,
    869.0,
    870.0,
    870.0,
    871.0,
    871.0,
    870.0,
    870.0,
    871.0,
    871.0,
    870.0,
    870.0,
    870.0,
    871.0,
    871.0,
    871.0,
    869.0,
    868.0,
    869.0,
    869.0,
    870.0,
    870.0,
    870.0,
    870.0,
    869.0,
    870.0,
    871.0,
    870.0,
    870.0,
    869.0,
    870.0,
    870.0,
    869.0,
    868.0,
    869.0,
    869.0,
    868.0,
    867.0,
    867.0,
    868.0,
    868.0,
    869.0,
    870.0,
    870.0,
    869.0,
    869.0,
    870.0,
    870.0,
    869.0,
    869.0,
    869.0,
    869.0,
    869.0,
    869.0,
    869.0,
    869.0,
    869.0,
    871.0,
    871.0,
    870.0,
    869.0,
    868.0,
    869.0,
    869.0,
    868.0,
    868.0,
    870.0,
    871.0,
    871.0,
    870.0,
    871.0,
    871.0,
    872.0,
    871.0,
    870.0,
    870.0,
    871.0
   ],
   "WindowWidth": [
    1879.0,
    1874.0,
    1876.0,
    1877.0,
    1878.0,
    1878.0,
    1877.0,
    1875.0,
    1878.0,
    1880.0,
    1881.0,
    1879.0,
    1881.0,
    1882.0,
    1884.0,
    1883.0,
    1886.0,
    1890.0,
    1888.0,
    1883.0,
    1879.0,
    1880.0,
    1882.0,
    1880.0,
    1881.0,
    1883.0,
    1885.0,
    1883.0,
    1882.0,
    1885.0,
    1885.0,
    1886.0,
    1886.0,
    1885.0,
    1885.0,
    1882.0,
    1885.0,
    1888.0,
    1884.0,
    1882.0,
    1879.0,
    1880.0,
    1881.0,
    1884.0,
    1885.0,
    1884.0,
    1880.0,
    1880.0,
    1883.0,
    1883.0,
    1883.0,
    1882.0,
    1883.0,
    1882.0,
    1882.0,
    1884.0,
    1884.0,
    1884.0,
    1882.0,
    1882.0,
    1881.0,
    1882.0,
    1883.0,
    1883.0,
    1882.0,
    1886.0,
    1888.0,
    1886.0,
    1881.0,
    1881.0,
    1882.0,
    1884.0,
    1883.0,
    1882.0,
    1882.0,
    1883.0,
    1884.0,
    1886.0,
    1885.0,
    1885.0,
    1885.0,
    1886.0,
    1887.0,
    1885.0,
    1886.0,
    1885.0,
    1887.0,
    1887.0,
    1886.0,
    1882.0,
    1880.0,
    1881.0,
    1882.0,
    1884.0,
    1883.0,
    1885.0,
    1883.0,
    1882.0,
    1884.0,
    1886.0,
    1886.0,
    1884.0,
    1882.0,
    1883.0,
    1884.0,
    1881.0,
    1880.0,
    1881.0,
    1881.0,
    1880.0,
    1876.0,
    1875.0,
    1877.0,
    1879.0,
    1881.0,
    1884.0,
    1883.0,
    1881.0,
    1882.0,
    1884.0,
    1884.0,
    1883.0,
    1882.0,
    1882.0,
    1883.0,
    1881.0,
    1880.0,
    1881.0,
    1881.0,
    1881.0,
    1886.0,
    1887.0,
    1884.0,
    1881.0,
    1880.0,
    1880.0,
    1881.0,
    1880.0,
    1879.0,
    1884.0,
    1886.0,
    1886.0,
    1883.0,
    1885.0,
    1887.0,
    1889.0,
    1885.0,
    1882.0,
    1884.0,
    1885.0
   ]
  },
  "slices": {}
 }
}