{
  "AcquisitionMatrixPE": 100,
  "AcquisitionNumber": 1,
  "AcquisitionTime": "14:44:45.982500",
  "BandwidthPerPixelPhaseEncode": 18.519,
  "BaseResolution": 100,
  "BodyPartExamined": "BRAIN",
  "ConsistencyInfo": "N4_VE11C_LATEST_20160120",
  "ConversionSoftware": "dcm2niix",
  "ConversionSoftwareVersion": "v1.0.20180622 GCC4.9.2",
  "DerivedVendorReportedEchoSpacing": 0.000539986,
  "DeviceSerialNumber": "166078",
  "DwellTime": 2.1e-06,
  "EchoTime": 0.034,
  "EchoTrainLength": 100,
  "EffectiveEchoSpacing": 0.000539986,
  "FlipAngle": 90,
  "ImageOrientationPatientDICOM": [1, 0, 0, 0, 0.981627, -0.190809],
  "ImageType": [
    "ORIGINAL",
    "PRIMARY",
    "M",
    "ND",
    "MOSAIC"
],
  "InPlanePhaseEncodingDirectionDICOM": "COL",
  "InstitutionAddress": "Street_StreetNo_Bei_Jing_District_CN_ZIP",
  "InstitutionName": "BeiJing_Normal_University",
  "InstitutionalDepartmentName": "Department",
  "MRAcquisitionType": "2D",
  "MagneticFieldStrength": 3,
  "Manufacturer": "Siemens",
  "ManufacturersModelName": "Prisma",
  "Modality": "MR",
  "MultibandAccelerationFactor": 3,
  "PartialFourier": 1,
  "PatientPosition": "HFS",
  "PercentPhaseFOV": 100,
  "PhaseEncodingDirection": "j-",
  "PhaseEncodingSteps": 100,
  "PhaseResolution": 1,
  "PixelBandwidth": 2380,
  "ProcedureStepDescription": "BNU_P2018_64CH_Zhen.ZongLei",
  "ProtocolName": "bold_100x100_s3_2x2x2_retino_150",
  "PulseSequenceDetails": "%SiemensSeq%_ep2d_bold",
  "ReceiveCoilActiveElements": "HC1-7;NC1",
  "ReceiveCoilName": "HeadNeck_64",
  "ReconMatrixPE": 100,
  "RepetitionTime": 2,
  "SAR": 0.0878754,
  "ScanOptions": "FS",
  "ScanningSequence": "EP",
  "SequenceName": "_epfid2d1_100",
  "SequenceVariant": "SK",
  "SeriesDescription": "bold_100x100_s3_2x2x2_retino_150",
  "SeriesNumber": 12,
  "ShimSetting": [-5458, -11480, -1240, 394, -13, -172, -191, 72],
  "SliceThickness": 2,
  "SliceTiming": [1.485, 0, 0.99, 0.0825, 1.0725, 0.165, 1.155, 0.2475, 1.2375, 0.33, 1.32, 0.4125, 1.4025, 0.5775, 1.5675, 0.66, 1.65, 0.7425, 1.7325, 0.825, 1.815, 0.9075, 1.8975, 0.495, 1.485, 0, 0.99, 0.0825, 1.0725, 0.165, 1.155, 0.2475, 1.2375, 0.33, 1.32, 0.4125, 1.4025, 0.5775, 1.5675, 0.66, 1.65, 0.7425, 1.7325, 0.825, 1.815, 0.9075, 1.8975, 0.495, 1.485, 0, 0.99, 0.0825, 1.0725, 0.165, 1.155, 0.2475, 1.2375, 0.33, 1.32, 0.4125, 1.4025, 0.5775, 1.5675, 0.66, 1.65, 0.7425, 1.7325, 0.825, 1.815, 0.9075, 1.8975, 0.495],
  "SoftwareVersions": "syngo_MR_E11",
  "SpacingBetweenSlices": 2,
  "StationName": "AWP166078",
  "TaskName": "retinotopy",
  "TotalReadoutTime": 0.0534586,
  "TxRefAmp": 231.76,
  "dcmmeta_affine": [
    [-2.0, 0.0, 0.0, 101.34939575195312],
    [0.0, 1.9632543325424194, -0.3816179931163788, -83.92913055419922],
    [0.0, 0.3816179633140564, 1.963254451751709, -76.1924057006836],
    [0.0, 0.0, 0.0, 1.0]
],
  "dcmmeta_reorient_transform": [
    [0.0, -1.0, 0.0, 99.0],
    [1.0, 0.0, 0.0, 0.0],
    [0.0, 0.0, 1.0, 0.0],
    [0.0, 0.0, 0.0, 1.0]
],
  "dcmmeta_shape": [100, 100, 72, 150],
  "dcmmeta_slice_dim": 2,
  "dcmmeta_version": 0.6,
  "global": {
    "const": {
      "AcquisitionMatrix": [100, 0, 0, 100],
      "AngioFlag": "N",
      "BitsAllocated": 16,
      "BitsStored": 12,
      "BodyPartExamined": "BRAIN",
      "Columns": 900,
      "EchoNumbers": 1,
      "EchoTime": 34.0,
      "EchoTrainLength": 100,
      "FlipAngle": 90.0,
      "HighBit": 11,
      "ImageOrientationPatient": [1.0, 0.0, 0.0, 0.0, 0.98162718523795, -0.1908089861663],
      "ImagePositionPatient": [-901.34939754009, -895.73479714323, 114.23496544886],
      "ImageType": [
        "ORIGINAL",
        "PRIMARY",
        "M",
        "ND",
        "MOSAIC"
],
      "ImagedNucleus": "1H",
      "ImagingFrequency": 123.257758,
      "InPlanePhaseEncodingDirection": "COL",
      "MRAcquisitionType": "2D",
      "MagneticFieldStrength": 3.0,
      "Manufacturer": "SIEMENS",
      "ManufacturerModelName": "Prisma",
      "Modality": "MR",
      "NumberOfAverages": 1.0,
      "NumberOfPhaseEncodingSteps": 100,
      "PercentPhaseFieldOfView": 100.0,
      "PercentSampling": 100.0,
      "PerformedProcedureStepStartTime": "135813.353000",
      "PhotometricInterpretation": "MONOCHROME2",
      "PixelBandwidth": 2380.0,
      "PixelRepresentation": 0,
      "PixelSpacing": [2.0, 2.0],
      "ProtocolName": "bold_100x100_s3_2x2x2_retino_150",
      "RepetitionTime": 2000.0,
      "Rows": 900,
      "SAR": 0.08787537138614,
      "SamplesPerPixel": 1,
      "ScanOptions": "FS",
      "ScanningSequence": "EP",
      "SequenceName": "*epfid2d1_100",
      "SequenceVariant": "SK",
      "SeriesDescription": "bold_100x100_s3_2x2x2_retino_150",
      "SeriesNumber": 12,
      "SeriesTime": "144448.334000",
      "SliceLocation": -58.778100927478,
      "SliceThickness": 2.0,
      "SmallestImagePixelValue": 0,
      "SoftwareVersions": "syngo MR E11",
      "SpacingBetweenSlices": 2.0000000500643,
      "SpecificCharacterSet": "ISO_IR 100",
      "StudyID": "1",
      "StudyTime": "135813.261000",
      "TransmitCoilName": "Body",
      "VariableFlipAngleFlag": "N",
      "WindowCenterWidthExplanation": "Algo1",
      "dBdt": 0.0},
    "slices": {}
  },
  "time": {
    "samples": {
      "AcquisitionNumber": [1, 2, 3, 4, 5, 6, 7, 8, 9, 10, 11, 12, 13, 14, 15, 16, 17, 18, 19, 20, 21, 22, 23, 24, 25, 26, 27, 28, 29, 30, 31, 32, 33, 34, 35, 36, 37, 38, 39, 40, 41, 42, 43, 44, 45, 46, 47, 48, 49, 50, 51, 52, 53, 54, 55, 56, 57, 58, 59, 60, 61, 62, 63, 64, 65, 66, 67, 68, 69, 70, 71, 72, 73, 74, 75, 76, 77, 78, 79, 80, 81, 82, 83, 84, 85, 86, 87, 88, 89, 90, 91, 92, 93, 94, 95, 96, 97, 98, 99, 100, 101, 102, 103, 104, 105, 106, 107, 108, 109, 110, 111, 112, 113, 114, 115, 116, 117, 118, 119, 120, 121, 122, 123, 124, 125, 126, 127, 128, 129, 130, 131, 132, 133, 134, 135, 136, 137, 138, 139, 140, 141, 142, 143, 144, 145, 146, 147, 148, 149, 150],
      "AcquisitionTime": ["144445.982500", "144447.982500", "144449.982500", "144451.982500", "144453.982500", "144455.982500", "144457.982500", "144459.982500", "144501.982500", "144503.982500", "144505.982500", "144507.982500", "144509.982500", "144511.982500", "144513.982500", "144515.982500", "144517.982500", "144519.982500", "144521.982500", "144523.982500", "144525.982500", "144527.982500", "144529.982500", "144531.982500", "144533.982500", "144535.982500", "144537.982500", "144539.982500", "144541.982500", "144543.982500", "144545.982500", "144547.982500", "144549.982500", "144551.982500", "144553.982500", "144555.982500", "144557.982500", "144559.982500", "144601.982500", "144603.982500", "144605.982500", "144607.982500", "144609.982500", "144611.982500", "144613.982500", "144615.982500", "144617.982500", "144619.982500", "144621.982500", "144623.982500", "144625.982500", "144627.982500", "144629.982500", "144631.982500", "144633.982500", "144635.982500", "144637.982500", "144639.982500", "144641.982500", "144643.982500", "144645.982500", "144647.982500", "144649.982500", "144651.982500", "144653.982500", "144655.982500", "144657.982500", "144659.982500", "144701.982500", "144703.982500", "144705.982500", "144707.982500", "144709.982500", "144711.982500", "144713.982500", "144715.982500", "144717.982500", "144719.982500", "144721.982500", "144723.982500", "144725.982500", "144727.982500", "144729.982500", "144731.982500", "144733.982500", "144735.982500", "144737.982500", "144739.982500", "144741.982500", "144743.982500", "144745.982500", "144747.982500", "144749.982500", "144751.982500", "144753.982500", "144755.982500", "144757.982500", "144759.982500", "144801.982500", "144803.982500", "144805.982500", "144807.982500", "144809.982500", "144811.982500", "144813.982500", "144815.982500", "144817.982500", "144819.982500", "144821.982500", "144823.982500", "144825.982500", "144827.982500", "144829.982500", "144831.982500", "144833.982500", "144835.982500", "144837.982500", "144839.982500", "144841.982500", "144843.982500", "144845.982500", "144847.982500", "144849.982500", "144851.982500", "144853.982500", "144855.982500", "144857.982500", "144859.982500", "144901.982500", "144903.982500", "144905.982500", "144907.982500", "144909.982500", "144911.982500", "144913.982500", "144915.982500", "144917.982500", "144919.982500", "144921.982500", "144923.982500", "144925.982500", "144927.982500", "144929.982500", "144931.982500", "144933.982500", "144935.982500", "144937.982500", "144939.982500", "144941.982500", "144943.982500"],
      "ContentTime": ["144448.338000", "144449.833000", "144452.333000", "144453.833000", "144456.333000", "144457.832000", "144459.832000", "144501.832000", "144504.334000", "144505.834000", "144507.833000", "144509.833000", "144512.332000", "144514.332000", "144516.332000", "144517.833000", "144519.832000", "144522.333000", "144523.833000", "144526.334000", "144527.834000", "144529.833000", "144531.832000", "144533.832000", "144535.832000", "144537.832000", "144539.833000", "144541.834000", "144543.833000", "144546.334000", "144547.832000", "144549.833000", "144552.332000", "144553.832000", "144555.833000", "144557.833000", "144559.833000", "144601.833000", "144603.834000", "144605.832000", "144607.832000", "144609.832000", "144611.832000", "144613.833000", "144615.833000", "144618.333000", "144619.833000", "144621.832000", "144623.832000", "144625.832000", "144627.833000", "144629.832000", "144631.834000", "144633.833000", "144635.833000", "144637.834000", "144640.333000", "144641.833000", "144643.832000", "144645.832000", "144647.832000", "144649.834000", "144651.834000", "144653.834000", "144655.833000", "144657.833000", "144700.333000", "144701.833000", "144703.832000", "144705.833000", "144707.833000", "144710.333000", "144711.833000", "144713.833000", "144715.833000", "144717.832000", "144720.333000", "144722.332000", "144723.834000", "144725.833000", "144727.833000", "144729.833000", "144732.333000", "144733.832000", "144735.833000", "144738.333000", "144739.832000", "144741.834000", "144743.833000", "144745.833000", "144748.333000", "144749.833000", "144751.833000", "144753.833000", "144756.333000", "144758.334000", "144800.333000", "144801.834000", "144803.834000", "144805.834000", "144808.333000", "144810.332000", "144812.333000", "144814.333000", "144816.334000", "144818.333000", "144819.833000", "144821.833000", "144823.834000", "144825.833000", "144827.833000", "144829.832000", "144831.833000", "144833.834000", "144835.833000", "144837.833000", "144840.334000", "144841.832000", "144843.832000", "144846.333000", "144847.832000", "144849.832000", "144851.833000", "144854.333000", "144855.833000", "144858.334000", "144859.833000", "144902.332000", "144904.332000", "144905.832000", "144907.832000", "144909.833000", "144911.833000", "144913.833000", "144915.834000", "144917.832000", "144919.832000", "144922.333000", "144923.833000", "144925.834000", "144927.833000", "144929.833000", "144931.834000", "144933.833000", "144935.832000", "144937.832000", "144940.332000", "144941.833000", "144943.833000", "144945.801000"],
      "InstanceCreationTime": ["144448.338000", "144449.833000", "144452.333000", "144453.833000", "144456.333000", "144457.832000", "144459.832000", "144501.832000", "144504.334000", "144505.834000", "144507.833000", "144509.833000", "144512.332000", "144514.332000", "144516.332000", "144517.833000", "144519.832000", "144522.333000", "144523.833000", "144526.334000", "144527.834000", "144529.833000", "144531.832000", "144533.832000", "144535.832000", "144537.832000", "144539.833000", "144541.834000", "144543.833000", "144546.334000", "144547.832000", "144549.833000", "144552.332000", "144553.832000", "144555.833000", "144557.833000", "144559.833000", "144601.833000", "144603.834000", "144605.832000", "144607.832000", "144609.832000", "144611.832000", "144613.833000", "144615.833000", "144618.333000", "144619.833000", "144621.832000", "144623.832000", "144625.832000", "144627.833000", "144629.832000", "144631.834000", "144633.833000", "144635.833000", "144637.834000", "144640.333000", "144641.833000", "144643.832000", "144645.832000", "144647.832000", "144649.834000", "144651.834000", "144653.834000", "144655.833000", "144657.833000", "144700.333000", "144701.833000", "144703.832000", "144705.833000", "144707.833000", "144710.333000", "144711.833000", "144713.833000", "144715.833000", "144717.832000", "144720.333000", "144722.332000", "144723.834000", "144725.833000", "144727.833000", "144729.833000", "144732.333000", "144733.832000", "144735.833000", "144738.333000", "144739.832000", "144741.834000", "144743.833000", "144745.833000", "144748.333000", "144749.833000", "144751.833000", "144753.833000", "144756.333000", "144758.334000", "144800.333000", "144801.834000", "144803.834000", "144805.834000", "144808.333000", "144810.332000", "144812.333000", "144814.333000", "144816.334000", "144818.333000", "144819.833000", "144821.833000", "144823.834000", "144825.833000", "144827.833000", "144829.832000", "144831.833000", "144833.834000", "144835.833000", "144837.833000", "144840.334000", "144841.832000", "144843.832000", "144846.333000", "144847.832000", "144849.832000", "144851.833000", "144854.333000", "144855.833000", "144858.334000", "144859.833000", "144902.332000", "144904.332000", "144905.832000", "144907.832000", "144909.833000", "144911.833000", "144913.833000", "144915.834000", "144917.832000", "144919.832000", "144922.333000", "144923.833000", "144925.834000", "144927.833000", "144929.833000", "144931.834000", "144933.833000", "144935.832000", "144937.832000", "144940.332000", "144941.833000", "144943.833000", "144945.801000"],
      "InstanceNumber": [1, 2, 3, 4, 5, 6, 7, 8, 9, 10, 11, 12, 13, 14, 15, 16, 17, 18, 19, 20, 21, 22, 23, 24, 25, 26, 27, 28, 29, 30, 31, 32, 33, 34, 35, 36, 37, 38, 39, 40, 41, 42, 43, 44, 45, 46, 47, 48, 49, 50, 51, 52, 53, 54, 55, 56, 57, 58, 59, 60, 61, 62, 63, 64, 65, 66, 67, 68, 69, 70, 71, 72, 73, 74, 75, 76, 77, 78, 79, 80, 81, 82, 83, 84, 85, 86, 87, 88, 89, 90, 91, 92, 93, 94, 95, 96, 97, 98, 99, 100, 101, 102, 103, 104, 105, 106, 107, 108, 109, 110, 111, 112, 113, 114, 115, 116, 117, 118, 119, 120, 121, 122, 123, 124, 125, 126, 127, 128, 129, 130, 131, 132, 133, 134, 135, 136, 137, 138, 139, 140, 141, 142, 143, 144, 145, 146, 147, 148, 149, 150],
      "LargestImagePixelValue": [3923, 3863, 3845, 3847, 3872, 3897, 3847, 3844, 3874, 3830, 3855, 3861, 3845, 3897, 3846, 3826, 3846, 3867, 3851, 3858, 3880, 3853, 3877, 3851, 3851, 3869, 3851, 3843, 3864, 3862, 3858, 3828, 3877, 3861, 3871, 3883, 3924, 3885, 3876, 3854, 3874, 3858, 3865, 3860, 3852, 3859, 3860, 3867, 3864, 3869, 3900, 3905, 3895, 3882, 3853, 3903, 3869, 3904, 3910, 3893, 3895, 3883, 3920, 3919, 3869, 3889, 3929, 3896, 3879, 3906, 3855, 3885, 3855, 3855, 3918, 3857, 3859, 3904, 3870, 3861, 3853, 3838, 3831, 3884, 3863, 3936, 3929, 3892, 3872, 3846, 3893, 3911, 3860, 3858, 3859, 3847, 3856, 3853, 3875, 3873, 3830, 3882, 3848, 3864, 3913, 3885, 3879, 3872, 3925, 3865, 3860, 3860, 3901, 3854, 3826, 3847, 3881, 3894, 3867, 3866, 3919, 3853, 3859, 3854, 3860, 3841, 3858, 3864, 3889, 3837, 3888, 3870, 3918, 3877, 3860, 3887, 3897, 3893, 3929, 3896, 3901, 3912, 3872, 3910, 3943, 3840, 3859, 3843, 3838, 3865],
      "WindowCenter": [869.0, 867.0, 867.0, 867.0, 867.0, 866.0, 865.0, 864.0, 864.0, 865.0, 866.0, 866.0, 866.0, 865.0, 864.0, 865.0, 866.0, 867.0, 866.0, 866.0, 866.0, 866.0, 866.0, 865.0, 865.0, 867.0, 868.0, 867.0, 865.0, 864.0, 865.0, 865.0, 866.0, 865.0, 864.0, 865.0, 866.0, 866.0, 865.0, 864.0, 864.0, 864.0, 865.0, 865.0, 864.0, 864.0, 864.0, 865.0, 866.0, 866.0, 865.0, 864.0, 864.0, 865.0, 865.0, 865.0, 864.0, 864.0, 865.0, 866.0, 867.0, 866.0, 866.0, 866.0, 865.0, 866.0, 866.0, 865.0, 864.0, 864.0, 864.0, 865.0, 865.0, 865.0, 865.0, 864.0, 865.0, 864.0, 864.0, 864.0, 864.0, 864.0, 864.0, 865.0, 865.0, 866.0, 866.0, 866.0, 866.0, 865.0, 865.0, 865.0, 864.0, 864.0, 864.0, 863.0, 864.0, 864.0, 864.0, 864.0, 863.0, 864.0, 864.0, 865.0, 865.0, 864.0, 865.0, 865.0, 865.0, 865.0, 864.0, 865.0, 865.0, 865.0, 865.0, 865.0, 865.0, 865.0, 864.0, 865.0, 866.0, 864.0, 865.0, 865.0, 865.0, 864.0, 865.0, 866.0, 867.0, 866.0, 865.0, 865.0, 865.0, 865.0, 865.0, 866.0, 866.0, 866.0, 866.0, 865.0, 866.0, 866.0, 866.0, 866.0, 865.0, 863.0, 862.0, 861.0, 862.0, 864.0],
      "WindowWidth": [1884.0, 1877.0, 1877.0, 1877.0, 1878.0, 1875.0, 1872.0, 1869.0, 1870.0, 1871.0, 1874.0, 1876.0, 1874.0, 1872.0, 1869.0, 1872.0, 1876.0, 1877.0, 1876.0, 1875.0, 1876.0, 1875.0, 1875.0, 1873.0, 1873.0, 1878.0, 1880.0, 1877.0, 1872.0, 1870.0, 1873.0, 1873.0, 1874.0, 1872.0, 1871.0, 1873.0, 1875.0, 1874.0, 1871.0, 1867.0, 1868.0, 1869.0, 1873.0, 1872.0, 1869.0, 1869.0, 1869.0, 1873.0, 1875.0, 1875.0, 1871.0, 1868.0, 1871.0, 1872.0, 1871.0, 1871.0, 1868.0, 1869.0, 1873.0, 1876.0, 1877.0, 1874.0, 1876.0, 1876.0, 1874.0, 1875.0, 1875.0, 1872.0, 1870.0, 1869.0, 1869.0, 1871.0, 1872.0, 1872.0, 1871.0, 1868.0, 1870.0, 1869.0, 1869.0, 1868.0, 1869.0, 1868.0, 1869.0, 1871.0, 1873.0, 1875.0, 1875.0, 1876.0, 1875.0, 1871.0, 1872.0, 1871.0, 1870.0, 1870.0, 1868.0, 1867.0, 1869.0, 1869.0, 1869.0, 1868.0, 1867.0, 1869.0, 1870.0, 1871.0, 1871.0, 1870.0, 1870.0, 1872.0, 1873.0, 1870.0, 1869.0, 1870.0, 1872.0, 1870.0, 1871.0, 1872.0, 1872.0, 1871.0, 1871.0, 1872.0, 1874.0, 1869.0, 1870.0, 1870.0, 1870.0, 1870.0, 1871.0, 1873.0, 1875.0, 1873.0, 1871.0, 1870.0, 1871.0, 1870.0, 1870.0, 1873.0, 1873.0, 1874.0, 1873.0, 1873.0, 1874.0, 1874.0, 1875.0, 1875.0, 1870.0, 1864.0, 1862.0, 1860.0, 1863.0, 1868.0]
    },
    "slices": {}
  }
}