{
  "AcquisitionMatrixPE": 100,
  "AcquisitionNumber": 1,
  "AcquisitionTime": "14:24:26.530000",
  "BandwidthPerPixelPhaseEncode": 18.519,
  "BaseResolution": 100,
  "BodyPartExamined": "BRAIN",
  "ConsistencyInfo": "N4_VE11C_LATEST_20160120",
  "ConversionSoftware": "dcm2niix",
  "ConversionSoftwareVersion": "v1.0.20180622 GCC4.9.2",
  "DerivedVendorReportedEchoSpacing": 0.000539986,
  "DeviceSerialNumber": "166078",
  "DwellTime": 2.1e-06,
  "EchoTime": 0.034,
  "EchoTrainLength": 100,
  "EffectiveEchoSpacing": 0.000539986,
  "FlipAngle": 90,
  "ImageOrientationPatientDICOM": [1, 0, 0, 0, 0.981627, -0.190809],
  "ImageType": [
    "ORIGINAL",
    "PRIMARY",
    "M",
    "ND",
    "MOSAIC"
],
  "InPlanePhaseEncodingDirectionDICOM": "COL",
  "InstitutionAddress": "Street_StreetNo_Bei_Jing_District_CN_ZIP",
  "InstitutionName": "BeiJing_Normal_University",
  "InstitutionalDepartmentName": "Department",
  "MRAcquisitionType": "2D",
  "MagneticFieldStrength": 3,
  "Manufacturer": "Siemens",
  "ManufacturersModelName": "Prisma",
  "Modality": "MR",
  "MultibandAccelerationFactor": 3,
  "PartialFourier": 1,
  "PatientPosition": "HFS",
  "PercentPhaseFOV": 100,
  "PhaseEncodingDirection": "j-",
  "PhaseEncodingSteps": 100,
  "PhaseResolution": 1,
  "PixelBandwidth": 2380,
  "ProcedureStepDescription": "BNU_P2018_64CH_Zhen.ZongLei",
  "ProtocolName": "bold_100x100_s3_2x2x2_retino_150",
  "PulseSequenceDetails": "%SiemensSeq%_ep2d_bold",
  "ReceiveCoilActiveElements": "HC1-7;NC1",
  "ReceiveCoilName": "HeadNeck_64",
  "ReconMatrixPE": 100,
  "RepetitionTime": 2,
  "SAR": 0.0878754,
  "ScanOptions": "FS",
  "ScanningSequence": "EP",
  "SequenceName": "_epfid2d1_100",
  "SequenceVariant": "SK",
  "SeriesDescription": "bold_100x100_s3_2x2x2_retino_150",
  "SeriesNumber": 7,
  "ShimSetting": [-5458, -11480, -1240, 394, -13, -172, -191, 72],
  "SliceThickness": 2,
  "SliceTiming": [1.485, 0, 0.99, 0.0825, 1.0725, 0.165, 1.155, 0.2475, 1.2375, 0.33, 1.32, 0.4125, 1.4025, 0.5775, 1.5675, 0.66, 1.65, 0.7425, 1.7325, 0.825, 1.815, 0.9075, 1.8975, 0.495, 1.485, 0, 0.99, 0.0825, 1.0725, 0.165, 1.155, 0.2475, 1.2375, 0.33, 1.32, 0.4125, 1.4025, 0.5775, 1.5675, 0.66, 1.65, 0.7425, 1.7325, 0.825, 1.815, 0.9075, 1.8975, 0.495, 1.485, 0, 0.99, 0.0825, 1.0725, 0.165, 1.155, 0.2475, 1.2375, 0.33, 1.32, 0.4125, 1.4025, 0.5775, 1.5675, 0.66, 1.65, 0.7425, 1.7325, 0.825, 1.815, 0.9075, 1.8975, 0.495],
  "SoftwareVersions": "syngo_MR_E11",
  "SpacingBetweenSlices": 2,
  "StationName": "AWP166078",
  "TaskName": "retinotopy",
  "TotalReadoutTime": 0.0534586,
  "TxRefAmp": 231.76,
  "dcmmeta_affine": [
    [-2.0, 0.0, 0.0, 101.34939575195312],
    [0.0, 1.9632543325424194, -0.3816179931163788, -83.92913055419922],
    [0.0, 0.3816179633140564, 1.963254451751709, -76.1924057006836],
    [0.0, 0.0, 0.0, 1.0]
],
  "dcmmeta_reorient_transform": [
    [0.0, -1.0, 0.0, 99.0],
    [1.0, 0.0, 0.0, 0.0],
    [0.0, 0.0, 1.0, 0.0],
    [0.0, 0.0, 0.0, 1.0]
],
  "dcmmeta_shape": [100, 100, 72, 150],
  "dcmmeta_slice_dim": 2,
  "dcmmeta_version": 0.6,
  "global": {
    "const": {
      "AcquisitionMatrix": [100, 0, 0, 100],
      "AngioFlag": "N",
      "BitsAllocated": 16,
      "BitsStored": 12,
      "BodyPartExamined": "BRAIN",
      "Columns": 900,
      "EchoNumbers": 1,
      "EchoTime": 34.0,
      "EchoTrainLength": 100,
      "FlipAngle": 90.0,
      "HighBit": 11,
      "ImageOrientationPatient": [1.0, 0.0, 0.0, 0.0, 0.98162718523795, -0.1908089861663],
      "ImagePositionPatient": [-901.34939754009, -895.73479714323, 114.23496544886],
      "ImageType": [
        "ORIGINAL",
        "PRIMARY",
        "M",
        "ND",
        "MOSAIC"
],
      "ImagedNucleus": "1H",
      "ImagingFrequency": 123.257758,
      "InPlanePhaseEncodingDirection": "COL",
      "MRAcquisitionType": "2D",
      "MagneticFieldStrength": 3.0,
      "Manufacturer": "SIEMENS",
      "ManufacturerModelName": "Prisma",
      "Modality": "MR",
      "NumberOfAverages": 1.0,
      "NumberOfPhaseEncodingSteps": 100,
      "PercentPhaseFieldOfView": 100.0,
      "PercentSampling": 100.0,
      "PerformedProcedureStepStartTime": "135813.353000",
      "PhotometricInterpretation": "MONOCHROME2",
      "PixelBandwidth": 2380.0,
      "PixelRepresentation": 0,
      "PixelSpacing": [2.0, 2.0],
      "ProtocolName": "bold_100x100_s3_2x2x2_retino_150",
      "RepetitionTime": 2000.0,
      "Rows": 900,
      "SAR": 0.08787537138614,
      "SamplesPerPixel": 1,
      "ScanOptions": "FS",
      "ScanningSequence": "EP",
      "SequenceName": "*epfid2d1_100",
      "SequenceVariant": "SK",
      "SeriesDescription": "bold_100x100_s3_2x2x2_retino_150",
      "SeriesNumber": 7,
      "SeriesTime": "142429.122000",
      "SliceLocation": -58.778100927478,
      "SliceThickness": 2.0,
      "SmallestImagePixelValue": 0,
      "SoftwareVersions": "syngo MR E11",
      "SpacingBetweenSlices": 2.0000000500643,
      "SpecificCharacterSet": "ISO_IR 100",
      "StudyID": "1",
      "StudyTime": "135813.261000",
      "TransmitCoilName": "Body",
      "VariableFlipAngleFlag": "N",
      "WindowCenterWidthExplanation": "Algo1",
      "dBdt": 0.0},
    "slices": {}
  },
  "time": {
    "samples": {
      "AcquisitionNumber": [1, 2, 3, 4, 5, 6, 7, 8, 9, 10, 11, 12, 13, 14, 15, 16, 17, 18, 19, 20, 21, 22, 23, 24, 25, 26, 27, 28, 29, 30, 31, 32, 33, 34, 35, 36, 37, 38, 39, 40, 41, 42, 43, 44, 45, 46, 47, 48, 49, 50, 51, 52, 53, 54, 55, 56, 57, 58, 59, 60, 61, 62, 63, 64, 65, 66, 67, 68, 69, 70, 71, 72, 73, 74, 75, 76, 77, 78, 79, 80, 81, 82, 83, 84, 85, 86, 87, 88, 89, 90, 91, 92, 93, 94, 95, 96, 97, 98, 99, 100, 101, 102, 103, 104, 105, 106, 107, 108, 109, 110, 111, 112, 113, 114, 115, 116, 117, 118, 119, 120, 121, 122, 123, 124, 125, 126, 127, 128, 129, 130, 131, 132, 133, 134, 135, 136, 137, 138, 139, 140, 141, 142, 143, 144, 145, 146, 147, 148, 149, 150],
      "AcquisitionTime": ["142426.530000", "142428.530000", "142430.530000", "142432.530000", "142434.530000", "142436.530000", "142438.530000", "142440.530000", "142442.530000", "142444.530000", "142446.530000", "142448.530000", "142450.530000", "142452.530000", "142454.530000", "142456.530000", "142458.530000", "142500.530000", "142502.530000", "142504.530000", "142506.530000", "142508.530000", "142510.530000", "142512.530000", "142514.530000", "142516.530000", "142518.530000", "142520.530000", "142522.530000", "142524.530000", "142526.530000", "142528.530000", "142530.530000", "142532.530000", "142534.530000", "142536.530000", "142538.530000", "142540.530000", "142542.530000", "142544.530000", "142546.530000", "142548.530000", "142550.530000", "142552.530000", "142554.530000", "142556.530000", "142558.530000", "142600.530000", "142602.530000", "142604.530000", "142606.530000", "142608.530000", "142610.530000", "142612.530000", "142614.530000", "142616.530000", "142618.530000", "142620.530000", "142622.530000", "142624.530000", "142626.530000", "142628.530000", "142630.530000", "142632.530000", "142634.530000", "142636.530000", "142638.530000", "142640.530000", "142642.530000", "142644.530000", "142646.530000", "142648.530000", "142650.530000", "142652.530000", "142654.530000", "142656.530000", "142658.530000", "142700.530000", "142702.530000", "142704.530000", "142706.530000", "142708.530000", "142710.530000", "142712.530000", "142714.530000", "142716.530000", "142718.530000", "142720.530000", "142722.530000", "142724.530000", "142726.530000", "142728.530000", "142730.530000", "142732.530000", "142734.530000", "142736.530000", "142738.530000", "142740.530000", "142742.530000", "142744.530000", "142746.530000", "142748.530000", "142750.530000", "142752.530000", "142754.530000", "142756.530000", "142758.530000", "142800.530000", "142802.530000", "142804.530000", "142806.530000", "142808.530000", "142810.530000", "142812.530000", "142814.530000", "142816.530000", "142818.530000", "142820.530000", "142822.530000", "142824.530000", "142826.530000", "142828.530000", "142830.530000", "142832.530000", "142834.530000", "142836.530000", "142838.530000", "142840.530000", "142842.530000", "142844.530000", "142846.530000", "142848.530000", "142850.530000", "142852.530000", "142854.530000", "142856.530000", "142858.530000", "142900.530000", "142902.530000", "142904.530000", "142906.530000", "142908.530000", "142910.530000", "142912.530000", "142914.530000", "142916.530000", "142918.530000", "142920.530000", "142922.530000", "142924.530000"],
      "ContentTime": ["142429.126000", "142430.622000", "142432.621000", "142434.620000", "142436.120000", "142438.621000", "142440.621000", "142442.621000", "142444.621000", "142446.622000", "142448.621000", "142450.621000", "142452.620000", "142454.620000", "142456.620000", "142458.621000", "142500.621000", "142502.121000", "142504.621000", "142506.621000", "142508.620000", "142510.621000", "142512.621000", "142514.622000", "142516.621000", "142518.121000", "142520.621000", "142522.622000", "142524.621000", "142526.621000", "142528.620000", "142530.121000", "142532.622000", "142534.622000", "142536.622000", "142538.621000", "142540.622000", "142542.622000", "142544.621000", "142546.620000", "142548.620000", "142550.122000", "142552.621000", "142554.622000", "142556.622000", "142558.121000", "142600.620000", "142602.620000", "142604.621000", "142606.621000", "142608.621000", "142610.622000", "142612.621000", "142614.621000", "142616.121000", "142618.620000", "142620.621000", "142622.620000", "142624.622000", "142626.122000", "142628.621000", "142630.622000", "142632.622000", "142634.622000", "142636.621000", "142638.620000", "142640.621000", "142642.622000", "142644.622000", "142646.621000", "142648.621000", "142650.622000", "142652.622000", "142654.621000", "142656.621000", "142658.621000", "142700.621000", "142702.121000", "142704.121000", "142706.621000", "142708.122000", "142710.621000", "142712.620000", "142714.620000", "142716.621000", "142718.622000", "142720.121000", "142722.621000", "142724.121000", "142726.622000", "142728.621000", "142730.620000", "142732.120000", "142734.622000", "142736.622000", "142738.622000", "142740.621000", "142742.622000", "142744.621000", "142746.621000", "142748.620000", "142750.620000", "142752.622000", "142754.622000", "142756.122000", "142758.621000", "142800.622000", "142802.621000", "142804.120000", "142806.620000", "142808.621000", "142810.622000", "142812.122000", "142814.122000", "142816.122000", "142818.622000", "142820.621000", "142822.620000", "142824.620000", "142826.622000", "142828.621000", "142830.622000", "142832.622000", "142834.621000", "142836.621000", "142838.620000", "142840.620000", "142842.620000", "142844.621000", "142846.621000", "142848.622000", "142850.121000", "142852.622000", "142854.621000", "142856.621000", "142858.121000", "142900.620000", "142902.622000", "142904.622000", "142906.621000", "142908.622000", "142910.622000", "142912.621000", "142914.620000", "142916.620000", "142918.621000", "142920.622000", "142922.622000", "142924.622000", "142926.091000"],
      "InstanceCreationTime": ["142429.126000", "142430.622000", "142432.621000", "142434.620000", "142436.120000", "142438.621000", "142440.621000", "142442.621000", "142444.621000", "142446.622000", "142448.621000", "142450.621000", "142452.620000", "142454.620000", "142456.620000", "142458.621000", "142500.621000", "142502.121000", "142504.621000", "142506.621000", "142508.620000", "142510.621000", "142512.621000", "142514.622000", "142516.621000", "142518.121000", "142520.621000", "142522.622000", "142524.621000", "142526.621000", "142528.620000", "142530.121000", "142532.622000", "142534.622000", "142536.622000", "142538.621000", "142540.622000", "142542.622000", "142544.621000", "142546.620000", "142548.620000", "142550.122000", "142552.621000", "142554.622000", "142556.622000", "142558.121000", "142600.620000", "142602.620000", "142604.621000", "142606.621000", "142608.621000", "142610.622000", "142612.621000", "142614.621000", "142616.121000", "142618.620000", "142620.621000", "142622.620000", "142624.622000", "142626.122000", "142628.621000", "142630.622000", "142632.622000", "142634.622000", "142636.621000", "142638.620000", "142640.621000", "142642.622000", "142644.622000", "142646.621000", "142648.621000", "142650.622000", "142652.622000", "142654.621000", "142656.621000", "142658.621000", "142700.621000", "142702.121000", "142704.121000", "142706.621000", "142708.122000", "142710.621000", "142712.620000", "142714.620000", "142716.621000", "142718.622000", "142720.121000", "142722.621000", "142724.121000", "142726.622000", "142728.621000", "142730.620000", "142732.120000", "142734.622000", "142736.622000", "142738.622000", "142740.621000", "142742.622000", "142744.621000", "142746.621000", "142748.620000", "142750.620000", "142752.622000", "142754.622000", "142756.122000", "142758.621000", "142800.622000", "142802.621000", "142804.120000", "142806.620000", "142808.621000", "142810.622000", "142812.122000", "142814.122000", "142816.122000", "142818.622000", "142820.621000", "142822.620000", "142824.620000", "142826.622000", "142828.621000", "142830.622000", "142832.622000", "142834.621000", "142836.621000", "142838.620000", "142840.620000", "142842.620000", "142844.621000", "142846.621000", "142848.622000", "142850.121000", "142852.622000", "142854.621000", "142856.621000", "142858.121000", "142900.620000", "142902.622000", "142904.622000", "142906.621000", "142908.622000", "142910.622000", "142912.621000", "142914.620000", "142916.620000", "142918.621000", "142920.622000", "142922.622000", "142924.622000", "142926.091000"],
      "InstanceNumber": [1, 2, 3, 4, 5, 6, 7, 8, 9, 10, 11, 12, 13, 14, 15, 16, 17, 18, 19, 20, 21, 22, 23, 24, 25, 26, 27, 28, 29, 30, 31, 32, 33, 34, 35, 36, 37, 38, 39, 40, 41, 42, 43, 44, 45, 46, 47, 48, 49, 50, 51, 52, 53, 54, 55, 56, 57, 58, 59, 60, 61, 62, 63, 64, 65, 66, 67, 68, 69, 70, 71, 72, 73, 74, 75, 76, 77, 78, 79, 80, 81, 82, 83, 84, 85, 86, 87, 88, 89, 90, 91, 92, 93, 94, 95, 96, 97, 98, 99, 100, 101, 102, 103, 104, 105, 106, 107, 108, 109, 110, 111, 112, 113, 114, 115, 116, 117, 118, 119, 120, 121, 122, 123, 124, 125, 126, 127, 128, 129, 130, 131, 132, 133, 134, 135, 136, 137, 138, 139, 140, 141, 142, 143, 144, 145, 146, 147, 148, 149, 150],
      "LargestImagePixelValue": [3988, 3941, 3919, 3920, 3874, 3906, 3907, 3891, 3894, 3895, 3869, 3865, 3888, 3858, 3901, 3916, 3914, 3883, 3873, 3897, 3847, 3832, 3886, 3834, 3845, 3816, 3868, 3864, 3862, 3850, 3848, 3867, 3849, 3822, 3867, 3851, 3853, 3820, 3875, 3883, 3895, 3868, 3848, 3814, 3879, 3859, 3852, 3927, 3872, 3838, 3836, 3830, 3844, 3882, 3868, 3867, 3860, 3838, 3837, 3844, 3852, 3872, 3846, 3860, 3863, 3833, 3845, 3846, 3816, 3816, 3850, 3870, 3879, 3859, 3857, 3864, 3840, 3866, 3824, 3791, 3814, 3825, 3834, 3849, 3853, 3848, 3827, 3820, 3841, 3841, 3848, 3883, 3870, 3861, 3840, 3840, 3867, 3866, 3831, 3869, 3909, 3870, 3889, 3881, 3860, 3899, 3855, 3840, 3872, 3863, 3842, 3815, 3850, 3848, 3857, 3844, 3839, 3854, 3877, 3880, 3869, 3841, 3880, 3828, 3857, 3889, 3900, 3886, 3852, 3885, 3888, 3884, 3891, 3884, 3869, 3875, 3881, 3872, 3849, 3809, 3808, 3824, 3859, 3885, 3913, 3926, 3885, 3900, 3870, 3867],
      "WindowCenter": [871.0, 869.0, 868.0, 867.0, 866.0, 866.0, 864.0, 863.0, 862.0, 863.0, 864.0, 865.0, 864.0, 864.0, 866.0, 868.0, 868.0, 867.0, 866.0, 865.0, 865.0, 865.0, 864.0, 865.0, 864.0, 864.0, 865.0, 866.0, 866.0, 866.0, 866.0, 866.0, 866.0, 866.0, 866.0, 864.0, 864.0, 864.0, 866.0, 866.0, 866.0, 865.0, 865.0, 865.0, 866.0, 867.0, 867.0, 867.0, 868.0, 867.0, 866.0, 866.0, 865.0, 865.0, 865.0, 865.0, 865.0, 864.0, 865.0, 867.0, 866.0, 865.0, 865.0, 867.0, 867.0, 868.0, 867.0, 865.0, 863.0, 864.0, 866.0, 867.0, 867.0, 866.0, 867.0, 867.0, 867.0, 866.0, 864.0, 864.0, 865.0, 865.0, 865.0, 865.0, 865.0, 865.0, 865.0, 864.0, 864.0, 864.0, 865.0, 866.0, 865.0, 864.0, 864.0, 864.0, 864.0, 863.0, 864.0, 865.0, 865.0, 863.0, 863.0, 864.0, 864.0, 865.0, 864.0, 864.0, 864.0, 864.0, 863.0, 862.0, 863.0, 863.0, 864.0, 865.0, 864.0, 864.0, 864.0, 865.0, 865.0, 865.0, 865.0, 864.0, 864.0, 864.0, 864.0, 864.0, 864.0, 865.0, 866.0, 867.0, 867.0, 866.0, 866.0, 866.0, 867.0, 867.0, 866.0, 866.0, 866.0, 866.0, 867.0, 867.0, 868.0, 869.0, 868.0, 867.0, 868.0, 867.0],
      "WindowWidth": [1893.0, 1887.0, 1882.0, 1881.0, 1879.0, 1876.0, 1871.0, 1870.0, 1867.0, 1870.0, 1872.0, 1874.0, 1873.0, 1872.0, 1878.0, 1883.0, 1884.0, 1881.0, 1878.0, 1876.0, 1874.0, 1874.0, 1873.0, 1873.0, 1872.0, 1871.0, 1874.0, 1876.0, 1878.0, 1879.0, 1877.0, 1877.0, 1878.0, 1878.0, 1877.0, 1874.0, 1872.0, 1872.0, 1877.0, 1879.0, 1879.0, 1875.0, 1874.0, 1874.0, 1878.0, 1880.0, 1879.0, 1881.0, 1883.0, 1881.0, 1878.0, 1877.0, 1876.0, 1875.0, 1875.0, 1876.0, 1875.0, 1873.0, 1875.0, 1879.0, 1878.0, 1876.0, 1876.0, 1880.0, 1881.0, 1883.0, 1880.0, 1874.0, 1869.0, 1872.0, 1877.0, 1880.0, 1879.0, 1878.0, 1879.0, 1880.0, 1879.0, 1876.0, 1872.0, 1871.0, 1874.0, 1875.0, 1875.0, 1875.0, 1875.0, 1875.0, 1873.0, 1872.0, 1872.0, 1872.0, 1875.0, 1876.0, 1874.0, 1872.0, 1871.0, 1871.0, 1871.0, 1870.0, 1872.0, 1874.0, 1874.0, 1869.0, 1870.0, 1872.0, 1873.0, 1874.0, 1871.0, 1871.0, 1872.0, 1872.0, 1869.0, 1866.0, 1868.0, 1869.0, 1872.0, 1873.0, 1872.0, 1872.0, 1872.0, 1874.0, 1875.0, 1875.0, 1874.0, 1870.0, 1871.0, 1872.0, 1872.0, 1870.0, 1872.0, 1875.0, 1876.0, 1878.0, 1879.0, 1878.0, 1877.0, 1879.0, 1880.0, 1881.0, 1877.0, 1876.0, 1876.0, 1877.0, 1878.0, 1880.0, 1883.0, 1885.0, 1881.0, 1880.0, 1882.0, 1880.0]
    },
    "slices": {}
  }
}