{
 "AcquisitionMatrixPE": 100,
 "AcquisitionNumber": 1,
 "AcquisitionTime": "10:26:30.320000",
 "BandwidthPerPixelPhaseEncode": 18.519,
 "BaseResolution": 100,
 "BodyPartExamined": "BRAIN",
 "ConsistencyInfo": "N4_VE11C_LATEST_20160120",
 "ConversionSoftware": "dcm2niix",
 "ConversionSoftwareVersion": "v1.0.20180622 GCC4.9.2",
 "DerivedVendorReportedEchoSpacing": 0.000539986,
 "DeviceSerialNumber": "166078",
 "DwellTime": 2.1e-06,
 "EchoTime": 0.034,
 "EchoTrainLength": 100,
 "EffectiveEchoSpacing": 0.000539986,
 "FlipAngle": 90,
 "ImageOrientationPatientDICOM": [
  0.998971,
  -0.00927651,
  -0.0444044,
  -3.77677e-08,
  0.978867,
  -0.204496
 ],
 "ImageType": [
  "ORIGINAL",
  "PRIMARY",
  "M",
  "ND",
  "MOSAIC"
 ],
 "InPlanePhaseEncodingDirectionDICOM": "COL",
 "InstitutionAddress": "Street_StreetNo_Bei_Jing_District_CN_ZIP",
 "InstitutionName": "BeiJing_Normal_University",
 "InstitutionalDepartmentName": "Department",
 "MRAcquisitionType": "2D",
 "MagneticFieldStrength": 3,
 "Manufacturer": "Siemens",
 "ManufacturersModelName": "Prisma",
 "Modality": "MR",
 "MultibandAccelerationFactor": 3,
 "PartialFourier": 1,
 "PatientPosition": "HFS",
 "PercentPhaseFOV": 100,
 "PhaseEncodingDirection": "j-",
 "PhaseEncodingSteps": 100,
 "PhaseResolution": 1,
 "PixelBandwidth": 2380,
 "ProcedureStepDescription": "BNU_P2018_64CH_Zhen.ZongLei",
 "ProtocolName": "bold_100x100_s3_2x2x2_static_256",
 "PulseSequenceDetails": "%SiemensSeq%_ep2d_bold",
 "ReceiveCoilActiveElements": "HC1-7;NC1",
 "ReceiveCoilName": "HeadNeck_64",
 "ReconMatrixPE": 100,
 "RepetitionTime": 2,
 "SAR": 0.0700441,
 "ScanOptions": "FS",
 "ScanningSequence": "EP",
 "SequenceName": "_epfid2d1_100",
 "SequenceVariant": "SK",
 "SeriesDescription": "bold_100x100_s3_2x2x2_static_256",
 "SeriesNumber": 15,
 "ShimSetting": [
  -5462,
  -11509,
  -1272,
  375,
  -24,
  -291,
  -99,
  95
 ],
 "SliceThickness": 2,
 "SliceTiming": [
  1.485,
  0,
  0.99,
  0.0825,
  1.0725,
  0.165,
  1.155,
  0.2475,
  1.2375,
  0.33,
  1.32,
  0.4125,
  1.4025,
  0.5775,
  1.5675,
  0.66,
  1.65,
  0.7425,
  1.7325,
  0.825,
  1.815,
  0.9075,
  1.8975,
  0.495,
  1.485,
  0,
  0.99,
  0.0825,
  1.0725,
  0.165,
  1.155,
  0.2475,
  1.2375,
  0.33,
  1.32,
  0.4125,
  1.4025,
  0.5775,
  1.5675,
  0.66,
  1.65,
  0.7425,
  1.7325,
  0.825,
  1.815,
  0.9075,
  1.8975,
  0.495,
  1.485,
  0,
  0.99,
  0.0825,
  1.0725,
  0.165,
  1.155,
  0.2475,
  1.2375,
  0.33,
  1.32,
  0.4125,
  1.4025,
  0.5775,
  1.5675,
  0.66,
  1.65,
  0.7425,
  1.7325,
  0.825,
  1.815,
  0.9075,
  1.8975,
  0.495
 ],
 "SoftwareVersions": "syngo_MR_E11",
 "SpacingBetweenSlices": 2,
 "StationName": "AWP166078",
 "TaskName": "imagenet",
 "TotalReadoutTime": 0.0534586,
 "TxRefAmp": 232.351,
 "dcmmeta_affine": [
  [
   -1.9979411363601685,
   -7.553536818249995e-08,
   -0.09072596579790115,
   103.11783599853516
  ],
  [
   0.018553027883172035,
   1.9577348232269287,
   -0.4085710942745209,
   -76.18773651123047
  ],
  [
   -0.08880870044231415,
   0.40899211168289185,
   1.9557194709777832,
   -101.91925811767578
  ],
  [
   0.0,
   0.0,
   0.0,
   1.0
  ]
 ],
 "dcmmeta_reorient_transform": [
  [
   0.0,
   -1.0,
   0.0,
   99.0
  ],
  [
   1.0,
   0.0,
   0.0,
   0.0
  ],
  [
   0.0,
   0.0,
   1.0,
   0.0
  ],
  [
   0.0,
   0.0,
   0.0,
   1.0
  ]
 ],
 "dcmmeta_shape": [
  100,
  100,
  72,
  256
 ],
 "dcmmeta_slice_dim": 2,
 "dcmmeta_version": 0.6,
 "global": {
  "const": {
   "AcquisitionMatrix": [
    100,
    0,
    0,
    100
   ],
   "AngioFlag": "N",
   "BitsAllocated": 16,
   "BitsStored": 12,
   "BodyPartExamined": "BRAIN",
   "Columns": 900,
   "EchoNumbers": 1,
   "EchoTime": 34.0,
   "EchoTrainLength": 100,
   "FlipAngle": 90.0,
   "HighBit": 11,
   "ImageOrientationPatient": [
    0.99897057010123,
    -0.0092765134931,
    -0.0444043507895,
    -3.7767684e-08,
    0.97886738944877,
    -0.2044960485529
   ],
   "ImagePositionPatient": [
    -902.29425136658,
    -893.30071078439,
    137.69127524069
   ],
   "ImageType": [
    "ORIGINAL",
    "PRIMARY",
    "M",
    "ND",
    "MOSAIC"
   ],
   "ImagedNucleus": "1H",
   "ImagingFrequency": 123.257723,
   "InPlanePhaseEncodingDirection": "COL",
   "MRAcquisitionType": "2D",
   "MagneticFieldStrength": 3.0,
   "Manufacturer": "SIEMENS",
   "ManufacturerModelName": "Prisma",
   "Modality": "MR",
   "NumberOfAverages": 1.0,
   "NumberOfPhaseEncodingSteps": 100,
   "PercentPhaseFieldOfView": 100.0,
   "PercentSampling": 100.0,
   "PerformedProcedureStepStartTime": "085013.174000",
   "PhotometricInterpretation": "MONOCHROME2",
   "PixelBandwidth": 2380.0,
   "PixelRepresentation": 0,
   "PixelSpacing": [
    2.0,
    2.0
   ],
   "ProtocolName": "bold_100x100_s3_2x2x2_static_256",
   "RepetitionTime": 2000.0,
   "Rows": 900,
   "SAR": 0.07004414373992,
   "SamplesPerPixel": 1,
   "ScanOptions": "FS",
   "ScanningSequence": "EP",
   "SequenceName": "*epfid2d1_100",
   "SequenceVariant": "SK",
   "SeriesDescription": "bold_100x100_s3_2x2x2_static_256",
   "SeriesNumber": 15,
   "SeriesTime": "102633.111000",
   "SliceLocation": -88.776420660026,
   "SliceThickness": 2.0,
   "SmallestImagePixelValue": 0,
   "SoftwareVersions": "syngo MR E11",
   "SpacingBetweenSlices": 2.0000000519717,
   "SpecificCharacterSet": "ISO_IR 100",
   "StudyID": "1",
   "StudyTime": "085013.106000",
   "TransmitCoilName": "Body",
   "VariableFlipAngleFlag": "N",
   "WindowCenterWidthExplanation": "Algo1",
   "dBdt": 0.0
  },
  "slices": {}
 },
 "time": {
  "samples": {
   "AcquisitionNumber": [
    1,
    2,
    3,
    4,
    5,
    6,
    7,
    8,
    9,
    10,
    11,
    12,
    13,
    14,
    15,
    16,
    17,
    18,
    19,
    20,
    21,
    22,
    23,
    24,
    25,
    26,
    27,
    28,
    29,
    30,
    31,
    32,
    33,
    34,
    35,
    36,
    37,
    38,
    39,
    40,
    41,
    42,
    43,
    44,
    45,
    46,
    47,
    48,
    49,
    50,
    51,
    52,
    53,
    54,
    55,
    56,
    57,
    58,
    59,
    60,
    61,
    62,
    63,
    64,
    65,
    66,
    67,
    68,
    69,
    70,
    71,
    72,
    73,
    74,
    75,
    76,
    77,
    78,
    79,
    80,
    81,
    82,
    83,
    84,
    85,
    86,
    87,
    88,
    89,
    90,
    91,
    92,
    93,
    94,
    95,
    96,
    97,
    98,
    99,
    100,
    101,
    102,
    103,
    104,
    105,
    106,
    107,
    108,
    109,
    110,
    111,
    112,
    113,
    114,
    115,
    116,
    117,
    118,
    119,
    120,
    121,
    122,
    123,
    124,
    125,
    126,
    127,
    128,
    129,
    130,
    131,
    132,
    133,
    134,
    135,
    136,
    137,
    138,
    139,
    140,
    141,
    142,
    143,
    144,
    145,
    146,
    147,
    148,
    149,
    150,
    151,
    152,
    153,
    154,
    155,
    156,
    157,
    158,
    159,
    160,
    161,
    162,
    163,
    164,
    165,
    166,
    167,
    168,
    169,
    170,
    171,
    172,
    173,
    174,
    175,
    176,
    177,
    178,
    179,
    180,
    181,
    182,
    183,
    184,
    185,
    186,
    187,
    188,
    189,
    190,
    191,
    192,
    193,
    194,
    195,
    196,
    197,
    198,
    199,
    200,
    201,
    202,
    203,
    204,
    205,
    206,
    207,
    208,
    209,
    210,
    211,
    212,
    213,
    214,
    215,
    216,
    217,
    218,
    219,
    220,
    221,
    222,
    223,
    224,
    225,
    226,
    227,
    228,
    229,
    230,
    231,
    232,
    233,
    234,
    235,
    236,
    237,
    238,
    239,
    240,
    241,
    242,
    243,
    244,
    245,
    246,
    247,
    248,
    249,
    250,
    251,
    252,
    253,
    254,
    255,
    256
   ],
   "AcquisitionTime": [
    "102630.320000",
    "102632.320000",
    "102634.320000",
    "102636.320000",
    "102638.320000",
    "102640.320000",
    "102642.320000",
    "102644.320000",
    "102646.320000",
    "102648.320000",
    "102650.320000",
    "102652.320000",
    "102654.320000",
    "102656.320000",
    "102658.320000",
    "102700.320000",
    "102702.320000",
    "102704.320000",
    "102706.320000",
    "102708.320000",
    "102710.320000",
    "102712.320000",
    "102714.320000",
    "102716.320000",
    "102718.320000",
    "102720.320000",
    "102722.320000",
    "102724.320000",
    "102726.320000",
    "102728.320000",
    "102730.320000",
    "102732.320000",
    "102734.320000",
    "102736.320000",
    "102738.320000",
    "102740.320000",
    "102742.320000",
    "102744.320000",
    "102746.320000",
    "102748.320000",
    "102750.320000",
    "102752.320000",
    "102754.320000",
    "102756.320000",
    "102758.320000",
    "102800.320000",
    "102802.320000",
    "102804.320000",
    "102806.320000",
    "102808.320000",
    "102810.320000",
    "102812.320000",
    "102814.320000",
    "102816.320000",
    "102818.320000",
    "102820.320000",
    "102822.320000",
    "102824.320000",
    "102826.320000",
    "102828.320000",
    "102830.320000",
    "102832.320000",
    "102834.320000",
    "102836.320000",
    "102838.320000",
    "102840.320000",
    "102842.320000",
    "102844.320000",
    "102846.320000",
    "102848.320000",
    "102850.320000",
    "102852.320000",
    "102854.320000",
    "102856.320000",
    "102858.320000",
    "102900.320000",
    "102902.320000",
    "102904.320000",
    "102906.320000",
    "102908.320000",
    "102910.320000",
    "102912.320000",
    "102914.320000",
    "102916.320000",
    "102918.320000",
    "102920.320000",
    "102922.320000",
    "102924.320000",
    "102926.320000",
    "102928.320000",
    "102930.320000",
    "102932.320000",
    "102934.320000",
    "102936.320000",
    "102938.320000",
    "102940.320000",
    "102942.320000",
    "102944.320000",
    "102946.320000",
    "102948.320000",
    "102950.320000",
    "102952.320000",
    "102954.320000",
    "102956.320000",
    "102958.320000",
    "103000.320000",
    "103002.320000",
    "103004.320000",
    "103006.320000",
    "103008.320000",
    "103010.320000",
    "103012.320000",
    "103014.320000",
    "103016.320000",
    "103018.320000",
    "103020.320000",
    "103022.320000",
    "103024.320000",
    "103026.320000",
    "103028.320000",
    "103030.320000",
    "103032.320000",
    "103034.320000",
    "103036.320000",
    "103038.320000",
    "103040.320000",
    "103042.320000",
    "103044.320000",
    "103046.320000",
    "103048.320000",
    "103050.320000",
    "103052.320000",
    "103054.320000",
    "103056.320000",
    "103058.320000",
    "103100.320000",
    "103102.320000",
    "103104.320000",
    "103106.320000",
    "103108.320000",
    "103110.320000",
    "103112.320000",
    "103114.320000",
    "103116.320000",
    "103118.320000",
    "103120.320000",
    "103122.320000",
    "103124.320000",
    "103126.320000",
    "103128.320000",
    "103130.320000",
    "103132.320000",
    "103134.320000",
    "103136.320000",
    "103138.320000",
    "103140.320000",
    "103142.320000",
    "103144.320000",
    "103146.320000",
    "103148.320000",
    "103150.320000",
    "103152.320000",
    "103154.320000",
    "103156.320000",
    "103158.320000",
    "103200.320000",
    "103202.320000",
    "103204.320000",
    "103206.320000",
    "103208.320000",
    "103210.320000",
    "103212.320000",
    "103214.320000",
    "103216.320000",
    "103218.320000",
    "103220.320000",
    "103222.320000",
    "103224.320000",
    "103226.320000",
    "103228.320000",
    "103230.320000",
    "103232.320000",
    "103234.320000",
    "103236.320000",
    "103238.320000",
    "103240.320000",
    "103242.320000",
    "103244.320000",
    "103246.320000",
    "103248.320000",
    "103250.320000",
    "103252.320000",
    "103254.320000",
    "103256.320000",
    "103258.320000",
    "103300.320000",
    "103302.320000",
    "103304.320000",
    "103306.320000",
    "103308.320000",
    "103310.320000",
    "103312.320000",
    "103314.320000",
    "103316.320000",
    "103318.320000",
    "103320.320000",
    "103322.320000",
    "103324.320000",
    "103326.320000",
    "103328.320000",
    "103330.320000",
    "103332.320000",
    "103334.320000",
    "103336.320000",
    "103338.320000",
    "103340.320000",
    "103342.320000",
    "103344.320000",
    "103346.320000",
    "103348.320000",
    "103350.320000",
    "103352.320000",
    "103354.320000",
    "103356.320000",
    "103358.320000",
    "103400.320000",
    "103402.320000",
    "103404.320000",
    "103406.320000",
    "103408.320000",
    "103410.320000",
    "103412.320000",
    "103414.320000",
    "103416.320000",
    "103418.320000",
    "103420.320000",
    "103422.320000",
    "103424.320000",
    "103426.320000",
    "103428.320000",
    "103430.320000",
    "103432.320000",
    "103434.320000",
    "103436.320000",
    "103438.320000",
    "103440.320000",
    "103442.320000",
    "103444.320000",
    "103446.320000",
    "103448.320000",
    "103450.320000",
    "103452.320000",
    "103454.320000",
    "103456.320000",
    "103458.320000",
    "103500.320000"
   ],
   "ContentTime": [
    "102633.114000",
    "102634.599000",
    "102636.599000",
    "102638.600000",
    "102640.600000",
    "102642.600000",
    "102644.601000",
    "102646.600000",
    "102648.600000",
    "102650.599000",
    "102652.599000",
    "102654.600000",
    "102656.601000",
    "102658.601000",
    "102700.601000",
    "102702.600000",
    "102704.601000",
    "102706.600000",
    "102708.599000",
    "102710.600000",
    "102712.599000",
    "102714.600000",
    "102716.601000",
    "102718.600000",
    "102720.600000",
    "102722.600000",
    "102724.600000",
    "102726.600000",
    "102728.600000",
    "102730.600000",
    "102732.600000",
    "102734.601000",
    "102736.601000",
    "102738.600000",
    "102740.601000",
    "102742.600000",
    "102744.600000",
    "102746.600000",
    "102748.601000",
    "102750.600000",
    "102752.601000",
    "102754.601000",
    "102756.601000",
    "102758.600000",
    "102800.600000",
    "102802.600000",
    "102804.599000",
    "102806.601000",
    "102808.600000",
    "102810.600000",
    "102812.601000",
    "102814.600000",
    "102816.600000",
    "102818.599000",
    "102820.599000",
    "102822.599000",
    "102824.600000",
    "102826.601000",
    "102828.601000",
    "102830.601000",
    "102832.601000",
    "102834.600000",
    "102836.600000",
    "102838.600000",
    "102840.600000",
    "102842.600000",
    "102844.600000",
    "102846.601000",
    "102848.600000",
    "102850.601000",
    "102852.601000",
    "102854.599000",
    "102856.599000",
    "102858.600000",
    "102900.601000",
    "102902.601000",
    "102904.600000",
    "102906.601000",
    "102908.600000",
    "102910.599000",
    "102912.599000",
    "102914.599000",
    "102916.600000",
    "102918.600000",
    "102920.601000",
    "102922.600000",
    "102924.601000",
    "102926.600000",
    "102928.599000",
    "102930.599000",
    "102932.599000",
    "102934.601000",
    "102936.601000",
    "102938.600000",
    "102940.601000",
    "102942.600000",
    "102944.600000",
    "102946.600000",
    "102948.600000",
    "102950.601000",
    "102952.600000",
    "102954.600000",
    "102956.601000",
    "102958.600000",
    "103000.601000",
    "103002.601000",
    "103004.600000",
    "103006.600000",
    "103008.600000",
    "103010.601000",
    "103012.600000",
    "103014.601000",
    "103016.600000",
    "103018.600000",
    "103020.599000",
    "103022.600000",
    "103024.599000",
    "103026.601000",
    "103028.601000",
    "103030.601000",
    "103032.600000",
    "103034.600000",
    "103036.601000",
    "103038.600000",
    "103040.600000",
    "103042.599000",
    "103044.601000",
    "103046.601000",
    "103048.600000",
    "103050.600000",
    "103052.601000",
    "103054.600000",
    "103056.600000",
    "103058.599000",
    "103100.600000",
    "103102.601000",
    "103104.600000",
    "103106.600000",
    "103108.600000",
    "103110.600000",
    "103112.600000",
    "103114.600000",
    "103116.600000",
    "103118.600000",
    "103120.600000",
    "103122.600000",
    "103124.600000",
    "103126.601000",
    "103128.600000",
    "103130.599000",
    "103132.600000",
    "103134.599000",
    "103136.601000",
    "103138.600000",
    "103140.601000",
    "103142.600000",
    "103144.600000",
    "103146.600000",
    "103148.599000",
    "103150.599000",
    "103152.599000",
    "103154.600000",
    "103156.600000",
    "103158.601000",
    "103200.600000",
    "103202.601000",
    "103204.600000",
    "103206.600000",
    "103208.599000",
    "103210.601000",
    "103212.601000",
    "103214.601000",
    "103216.600000",
    "103218.600000",
    "103220.600000",
    "103222.600000",
    "103224.607000",
    "103226.599000",
    "103228.601000",
    "103230.601000",
    "103232.601000",
    "103234.600000",
    "103236.600000",
    "103238.601000",
    "103240.599000",
    "103242.599000",
    "103244.600000",
    "103246.600000",
    "103248.601000",
    "103250.601000",
    "103252.600000",
    "103254.600000",
    "103256.601000",
    "103258.600000",
    "103300.600000",
    "103302.600000",
    "103304.601000",
    "103306.601000",
    "103308.600000",
    "103310.601000",
    "103312.621000",
    "103314.600000",
    "103316.600000",
    "103318.599000",
    "103320.600000",
    "103322.600000",
    "103324.601000",
    "103326.601000",
    "103328.601000",
    "103330.601000",
    "103332.600000",
    "103334.600000",
    "103336.600000",
    "103338.601000",
    "103340.601000",
    "103342.601000",
    "103344.601000",
    "103346.601000",
    "103348.600000",
    "103350.600000",
    "103352.600000",
    "103354.599000",
    "103356.601000",
    "103358.601000",
    "103400.601000",
    "103402.600000",
    "103404.600000",
    "103406.601000",
    "103408.600000",
    "103410.599000",
    "103412.600000",
    "103414.601000",
    "103416.601000",
    "103418.601000",
    "103420.600000",
    "103422.600000",
    "103424.601000",
    "103426.599000",
    "103428.599000",
    "103430.601000",
    "103432.600000",
    "103434.601000",
    "103436.601000",
    "103438.601000",
    "103440.600000",
    "103442.600000",
    "103444.600000",
    "103446.600000",
    "103448.601000",
    "103450.600000",
    "103452.601000",
    "103454.601000",
    "103456.600000",
    "103458.601000",
    "103500.599000",
    "103502.390000"
   ],
   "InstanceCreationTime": [
    "102633.114000",
    "102634.599000",
    "102636.599000",
    "102638.600000",
    "102640.600000",
    "102642.600000",
    "102644.601000",
    "102646.600000",
    "102648.600000",
    "102650.599000",
    "102652.599000",
    "102654.600000",
    "102656.601000",
    "102658.601000",
    "102700.601000",
    "102702.600000",
    "102704.601000",
    "102706.600000",
    "102708.599000",
    "102710.600000",
    "102712.599000",
    "102714.600000",
    "102716.601000",
    "102718.600000",
    "102720.600000",
    "102722.600000",
    "102724.600000",
    "102726.600000",
    "102728.600000",
    "102730.600000",
    "102732.600000",
    "102734.601000",
    "102736.601000",
    "102738.600000",
    "102740.601000",
    "102742.600000",
    "102744.600000",
    "102746.600000",
    "102748.601000",
    "102750.600000",
    "102752.601000",
    "102754.601000",
    "102756.601000",
    "102758.600000",
    "102800.600000",
    "102802.600000",
    "102804.599000",
    "102806.601000",
    "102808.600000",
    "102810.600000",
    "102812.601000",
    "102814.600000",
    "102816.600000",
    "102818.599000",
    "102820.599000",
    "102822.599000",
    "102824.600000",
    "102826.601000",
    "102828.601000",
    "102830.601000",
    "102832.601000",
    "102834.600000",
    "102836.600000",
    "102838.600000",
    "102840.600000",
    "102842.600000",
    "102844.600000",
    "102846.601000",
    "102848.600000",
    "102850.601000",
    "102852.601000",
    "102854.599000",
    "102856.599000",
    "102858.600000",
    "102900.601000",
    "102902.601000",
    "102904.600000",
    "102906.601000",
    "102908.600000",
    "102910.599000",
    "102912.599000",
    "102914.599000",
    "102916.600000",
    "102918.600000",
    "102920.601000",
    "102922.600000",
    "102924.601000",
    "102926.600000",
    "102928.599000",
    "102930.599000",
    "102932.599000",
    "102934.601000",
    "102936.601000",
    "102938.600000",
    "102940.601000",
    "102942.600000",
    "102944.600000",
    "102946.600000",
    "102948.600000",
    "102950.601000",
    "102952.600000",
    "102954.600000",
    "102956.601000",
    "102958.600000",
    "103000.601000",
    "103002.601000",
    "103004.600000",
    "103006.600000",
    "103008.600000",
    "103010.601000",
    "103012.600000",
    "103014.601000",
    "103016.600000",
    "103018.600000",
    "103020.599000",
    "103022.600000",
    "103024.599000",
    "103026.601000",
    "103028.601000",
    "103030.601000",
    "103032.600000",
    "103034.600000",
    "103036.601000",
    "103038.600000",
    "103040.600000",
    "103042.599000",
    "103044.601000",
    "103046.601000",
    "103048.600000",
    "103050.600000",
    "103052.601000",
    "103054.600000",
    "103056.600000",
    "103058.599000",
    "103100.600000",
    "103102.601000",
    "103104.600000",
    "103106.600000",
    "103108.600000",
    "103110.600000",
    "103112.600000",
    "103114.600000",
    "103116.600000",
    "103118.600000",
    "103120.600000",
    "103122.600000",
    "103124.600000",
    "103126.601000",
    "103128.600000",
    "103130.599000",
    "103132.600000",
    "103134.599000",
    "103136.601000",
    "103138.600000",
    "103140.601000",
    "103142.600000",
    "103144.600000",
    "103146.600000",
    "103148.599000",
    "103150.599000",
    "103152.599000",
    "103154.600000",
    "103156.600000",
    "103158.601000",
    "103200.600000",
    "103202.601000",
    "103204.600000",
    "103206.600000",
    "103208.599000",
    "103210.601000",
    "103212.601000",
    "103214.601000",
    "103216.600000",
    "103218.600000",
    "103220.600000",
    "103222.600000",
    "103224.607000",
    "103226.599000",
    "103228.601000",
    "103230.601000",
    "103232.601000",
    "103234.600000",
    "103236.600000",
    "103238.601000",
    "103240.599000",
    "103242.599000",
    "103244.600000",
    "103246.600000",
    "103248.601000",
    "103250.601000",
    "103252.600000",
    "103254.600000",
    "103256.601000",
    "103258.600000",
    "103300.600000",
    "103302.600000",
    "103304.601000",
    "103306.601000",
    "103308.600000",
    "103310.601000",
    "103312.621000",
    "103314.600000",
    "103316.600000",
    "103318.599000",
    "103320.600000",
    "103322.600000",
    "103324.601000",
    "103326.601000",
    "103328.601000",
    "103330.601000",
    "103332.600000",
    "103334.600000",
    "103336.600000",
    "103338.601000",
    "103340.601000",
    "103342.601000",
    "103344.601000",
    "103346.601000",
    "103348.600000",
    "103350.600000",
    "103352.600000",
    "103354.599000",
    "103356.601000",
    "103358.601000",
    "103400.601000",
    "103402.600000",
    "103404.600000",
    "103406.601000",
    "103408.600000",
    "103410.599000",
    "103412.600000",
    "103414.601000",
    "103416.601000",
    "103418.601000",
    "103420.600000",
    "103422.600000",
    "103424.601000",
    "103426.599000",
    "103428.599000",
    "103430.601000",
    "103432.600000",
    "103434.601000",
    "103436.601000",
    "103438.601000",
    "103440.600000",
    "103442.600000",
    "103444.600000",
    "103446.600000",
    "103448.601000",
    "103450.600000",
    "103452.601000",
    "103454.601000",
    "103456.600000",
    "103458.601000",
    "103500.599000",
    "103502.390000"
   ],
   "InstanceNumber": [
    1,
    2,
    3,
    4,
    5,
    6,
    7,
    8,
    9,
    10,
    11,
    12,
    13,
    14,
    15,
    16,
    17,
    18,
    19,
    20,
    21,
    22,
    23,
    24,
    25,
    26,
    27,
    28,
    29,
    30,
    31,
    32,
    33,
    34,
    35,
    36,
    37,
    38,
    39,
    40,
    41,
    42,
    43,
    44,
    45,
    46,
    47,
    48,
    49,
    50,
    51,
    52,
    53,
    54,
    55,
    56,
    57,
    58,
    59,
    60,
    61,
    62,
    63,
    64,
    65,
    66,
    67,
    68,
    69,
    70,
    71,
    72,
    73,
    74,
    75,
    76,
    77,
    78,
    79,
    80,
    81,
    82,
    83,
    84,
    85,
    86,
    87,
    88,
    89,
    90,
    91,
    92,
    93,
    94,
    95,
    96,
    97,
    98,
    99,
    100,
    101,
    102,
    103,
    104,
    105,
    106,
    107,
    108,
    109,
    110,
    111,
    112,
    113,
    114,
    115,
    116,
    117,
    118,
    119,
    120,
    121,
    122,
    123,
    124,
    125,
    126,
    127,
    128,
    129,
    130,
    131,
    132,
    133,
    134,
    135,
    136,
    137,
    138,
    139,
    140,
    141,
    142,
    143,
    144,
    145,
    146,
    147,
    148,
    149,
    150,
    151,
    152,
    153,
    154,
    155,
    156,
    157,
    158,
    159,
    160,
    161,
    162,
    163,
    164,
    165,
    166,
    167,
    168,
    169,
    170,
    171,
    172,
    173,
    174,
    175,
    176,
    177,
    178,
    179,
    180,
    181,
    182,
    183,
    184,
    185,
    186,
    187,
    188,
    189,
    190,
    191,
    192,
    193,
    194,
    195,
    196,
    197,
    198,
    199,
    200,
    201,
    202,
    203,
    204,
    205,
    206,
    207,
    208,
    209,
    210,
    211,
    212,
    213,
    214,
    215,
    216,
    217,
    218,
    219,
    220,
    221,
    222,
    223,
    224,
    225,
    226,
    227,
    228,
    229,
    230,
    231,
    232,
    233,
    234,
    235,
    236,
    237,
    238,
    239,
    240,
    241,
    242,
    243,
    244,
    245,
    246,
    247,
    248,
    249,
    250,
    251,
    252,
    253,
    254,
    255,
    256
   ],
   "LargestImagePixelValue": [
    3003,
    3024,
    2923,
    2983,
    2946,
    2965,
    2935,
    2943,
    2969,
    2963,
    2923,
    2965,
    2944,
    2950,
    2964,
    2946,
    2959,
    2946,
    2909,
    2966,
    2939,
    2944,
    2976,
    2976,
    2971,
    2940,
    2960,
    2955,
    2931,
    2950,
    2944,
    2918,
    2949,
    2879,
    2891,
    2911,
    2918,
    2871,
    2936,
    2900,
    2948,
    2922,
    2899,
    2901,
    2922,
    2948,
    2938,
    2910,
    2893,
    2867,
    2883,
    2908,
    2896,
    2879,
    2899,
    2874,
    2899,
    2880,
    2918,
    2901,
    2856,
    2903,
    2905,
    2846,
    2821,
    2878,
    2841,
    2916,
    2839,
    2877,
    2877,
    2886,
    2911,
    2953,
    2906,
    3020,
    2841,
    2894,
    2850,
    2867,
    2877,
    2814,
    2839,
    2841,
    2778,
    2808,
    2782,
    2797,
    2794,
    2789,
    2814,
    2784,
    2806,
    2768,
    2789,
    2751,
    2788,
    2785,
    2789,
    2788,
    2818,
    2814,
    2731,
    2757,
    2755,
    2756,
    2760,
    2772,
    2763,
    3025,
    2780,
    2769,
    2757,
    2782,
    2757,
    2755,
    2748,
    2766,
    2781,
    2940,
    2781,
    3339,
    2781,
    3054,
    2785,
    2796,
    2796,
    2799,
    2796,
    2965,
    2780,
    2970,
    2795,
    2757,
    2817,
    2825,
    2825,
    2904,
    2806,
    2801,
    2793,
    2969,
    2836,
    2838,
    2806,
    3472,
    2787,
    3160,
    2797,
    2783,
    2797,
    2789,
    2779,
    2802,
    2813,
    2808,
    2797,
    2884,
    2815,
    2812,
    2792,
    2902,
    2821,
    2800,
    2796,
    2800,
    2788,
    2922,
    2828,
    2796,
    2797,
    2962,
    2819,
    3129,
    2815,
    2817,
    2822,
    2808,
    2823,
    2827,
    2805,
    2793,
    2798,
    2814,
    2829,
    2787,
    2791,
    2819,
    2837,
    2819,
    2798,
    2823,
    2823,
    2825,
    2831,
    2968,
    2801,
    2833,
    2911,
    2819,
    2836,
    2812,
    2833,
    2816,
    2845,
    2812,
    2826,
    2952,
    2811,
    2816,
    2815,
    2814,
    2813,
    2858,
    2801,
    2845,
    2813,
    2877,
    2826,
    2882,
    2861,
    2926,
    2908,
    2911,
    2883,
    2861,
    2901,
    2910,
    2950,
    2881,
    2917,
    2932,
    2905,
    2884,
    2889,
    2908,
    2900,
    3091,
    2944,
    2932,
    2855,
    3155,
    2824,
    2856,
    2845,
    2892,
    2866,
    2917,
    2859,
    2896,
    2880,
    2927,
    2884,
    2946,
    2901,
    2934
   ],
   "WindowCenter": [
    766.0,
    764.0,
    762.0,
    762.0,
    761.0,
    761.0,
    761.0,
    761.0,
    761.0,
    761.0,
    761.0,
    762.0,
    763.0,
    763.0,
    762.0,
    761.0,
    760.0,
    760.0,
    760.0,
    761.0,
    760.0,
    761.0,
    761.0,
    761.0,
    761.0,
    760.0,
    760.0,
    760.0,
    761.0,
    761.0,
    761.0,
    760.0,
    760.0,
    760.0,
    761.0,
    762.0,
    762.0,
    760.0,
    760.0,
    760.0,
    760.0,
    762.0,
    762.0,
    762.0,
    761.0,
    763.0,
    763.0,
    763.0,
    763.0,
    761.0,
    760.0,
    761.0,
    760.0,
    760.0,
    760.0,
    760.0,
    760.0,
    761.0,
    762.0,
    762.0,
    761.0,
    761.0,
    761.0,
    761.0,
    760.0,
    760.0,
    761.0,
    761.0,
    760.0,
    760.0,
    760.0,
    760.0,
    761.0,
    762.0,
    760.0,
    762.0,
    761.0,
    762.0,
    761.0,
    760.0,
    760.0,
    759.0,
    759.0,
    759.0,
    759.0,
    759.0,
    759.0,
    760.0,
    760.0,
    760.0,
    761.0,
    760.0,
    761.0,
    760.0,
    760.0,
    760.0,
    761.0,
    760.0,
    760.0,
    760.0,
    760.0,
    761.0,
    760.0,
    760.0,
    760.0,
    760.0,
    760.0,
    760.0,
    759.0,
