{
 "AcquisitionMatrixPE": 100,
 "AcquisitionNumber": 1,
 "AcquisitionTime": "09:40:10.122500",
 "BandwidthPerPixelPhaseEncode": 18.519,
 "BaseResolution": 100,
 "BodyPartExamined": "BRAIN",
 "ConsistencyInfo": "N4_VE11C_LATEST_20160120",
 "ConversionSoftware": "dcm2niix",
 "ConversionSoftwareVersion": "v1.0.20180622 GCC4.9.2",
 "DerivedVendorReportedEchoSpacing": 0.000539986,
 "DeviceSerialNumber": "166078",
 "DwellTime": 2.1e-06,
 "EchoTime": 0.034,
 "EchoTrainLength": 100,
 "EffectiveEchoSpacing": 0.000539986,
 "FlipAngle": 90,
 "ImageOrientationPatientDICOM": [
  1,
  0,
  0,
  0,
  0.977416,
  -0.211325
 ],
 "ImageType": [
  "ORIGINAL",
  "PRIMARY",
  "M",
  "ND",
  "MOSAIC"
 ],
 "InPlanePhaseEncodingDirectionDICOM": "COL",
 "InstitutionAddress": "Street_StreetNo_Bei_Jing_District_CN_ZIP",
 "InstitutionName": "BeiJing_Normal_University",
 "InstitutionalDepartmentName": "Department",
 "MRAcquisitionType": "2D",
 "MagneticFieldStrength": 3,
 "Manufacturer": "Siemens",
 "ManufacturersModelName": "Prisma",
 "Modality": "MR",
 "MultibandAccelerationFactor": 3,
 "PartialFourier": 1,
 "PatientPosition": "HFS",
 "PercentPhaseFOV": 100,
 "PhaseEncodingDirection": "j-",
 "PhaseEncodingSteps": 100,
 "PhaseResolution": 1,
 "PixelBandwidth": 2380,
 "ProcedureStepDescription": "BNU_P2018_64CH_Zhen.ZongLei",
 "ProtocolName": "bold_100x100_s3_2x2x2_static_256",
 "PulseSequenceDetails": "%SiemensSeq%_ep2d_bold",
 "ReceiveCoilActiveElements": "HC1-7;NC1",
 "ReceiveCoilName": "HeadNeck_64",
 "ReconMatrixPE": 100,
 "RepetitionTime": 2,
 "SAR": 0.0633688,
 "ScanOptions": "FS",
 "ScanningSequence": "EP",
 "SequenceName": "_epfid2d1_100",
 "SequenceVariant": "SK",
 "SeriesDescription": "bold_100x100_s3_2x2x2_static_256",
 "SeriesNumber": 7,
 "ShimSetting": [
  -5458,
  -11512,
  -1227,
  385,
  18,
  -280,
  -175,
  73
 ],
 "SliceThickness": 2,
 "SliceTiming": [
  1.485,
  0,
  0.99,
  0.0825,
  1.0725,
  0.165,
  1.155,
  0.2475,
  1.2375,
  0.33,
  1.32,
  0.4125,
  1.4025,
  0.5775,
  1.5675,
  0.66,
  1.65,
  0.7425,
  1.7325,
  0.825,
  1.815,
  0.9075,
  1.8975,
  0.495,
  1.485,
  0,
  0.99,
  0.0825,
  1.0725,
  0.165,
  1.155,
  0.2475,
  1.2375,
  0.33,
  1.32,
  0.4125,
  1.4025,
  0.5775,
  1.5675,
  0.66,
  1.65,
  0.7425,
  1.7325,
  0.825,
  1.815,
  0.9075,
  1.8975,
  0.495,
  1.485,
  0,
  0.99,
  0.0825,
  1.0725,
  0.165,
  1.155,
  0.2475,
  1.2375,
  0.33,
  1.32,
  0.4125,
  1.4025,
  0.5775,
  1.5675,
  0.66,
  1.65,
  0.7425,
  1.7325,
  0.825,
  1.815,
  0.9075,
  1.8975,
  0.495
 ],
 "SoftwareVersions": "syngo_MR_E11",
 "SpacingBetweenSlices": 2,
 "StationName": "AWP166078",
 "TaskName": "imagenet",
 "TotalReadoutTime": 0.0534586,
 "TxRefAmp": 222.274,
 "dcmmeta_affine": [
  [
   -2.0,
   0.0,
   0.0,
   100.0
  ],
  [
   0.0,
   1.954831838607788,
   -0.4226495623588562,
   -76.24516296386719
  ],
  [
   0.0,
   0.4226495623588562,
   1.954831838607788,
   -81.97076416015625
  ],
  [
   0.0,
   0.0,
   0.0,
   1.0
  ]
 ],
 "dcmmeta_reorient_transform": [
  [
   0.0,
   -1.0,
   0.0,
   99.0
  ],
  [
   1.0,
   0.0,
   0.0,
   0.0
  ],
  [
   0.0,
   0.0,
   1.0,
   0.0
  ],
  [
   0.0,
   0.0,
   0.0,
   1.0
  ]
 ],
 "dcmmeta_shape": [
  100,
  100,
  72,
  256
 ],
 "dcmmeta_slice_dim": 2,
 "dcmmeta_version": 0.6,
 "global": {
  "const": {
   "AcquisitionMatrix": [
    100,
    0,
    0,
    100
   ],
   "AngioFlag": "N",
   "BitsAllocated": 16,
   "BitsStored": 12,
   "BodyPartExamined": "BRAIN",
   "Columns": 900,
   "EchoNumbers": 1,
   "EchoTime": 34.0,
   "EchoTrainLength": 100,
   "FlipAngle": 90.0,
   "HighBit": 11,
   "ImageOrientationPatient": [
    1.0,
    0.0,
    0.0,
    0.0,
    0.97741589648343,
    -0.2113247862923
   ],
   "ImagePositionPatient": [
    -900.0,
    -899.21589847937,
    128.93137092601
   ],
   "ImageType": [
    "ORIGINAL",
    "PRIMARY",
    "M",
    "ND",
    "MOSAIC"
   ],
   "ImagedNucleus": "1H",
   "ImagingFrequency": 123.257713,
   "InPlanePhaseEncodingDirection": "COL",
   "MRAcquisitionType": "2D",
   "MagneticFieldStrength": 3.0,
   "Manufacturer": "SIEMENS",
   "ManufacturerModelName": "Prisma",
   "Modality": "MR",
   "NumberOfAverages": 1.0,
   "NumberOfPhaseEncodingSteps": 100,
   "PercentPhaseFieldOfView": 100.0,
   "PercentSampling": 100.0,
   "PerformedProcedureStepStartTime": "085013.174000",
   "PhotometricInterpretation": "MONOCHROME2",
   "PixelBandwidth": 2380.0,
   "PixelRepresentation": 0,
   "PixelSpacing": [
    2.0,
    2.0
   ],
   "ProtocolName": "bold_100x100_s3_2x2x2_static_256",
   "RepetitionTime": 2000.0,
   "Rows": 900,
   "SAR": 0.06336875095733,
   "SamplesPerPixel": 1,
   "ScanOptions": "FS",
   "ScanningSequence": "EP",
   "SequenceName": "*epfid2d1_100",
   "SequenceVariant": "SK",
   "SeriesDescription": "bold_100x100_s3_2x2x2_static_256",
   "SeriesNumber": 7,
   "SeriesTime": "094012.514000",
   "SliceLocation": -64.007036078309,
   "SliceThickness": 2.0,
   "SmallestImagePixelValue": 0,
   "SoftwareVersions": "syngo MR E11",
   "SpacingBetweenSlices": 1.9999999942808,
   "SpecificCharacterSet": "ISO_IR 100",
   "StudyID": "1",
   "StudyTime": "085013.106000",
   "TransmitCoilName": "Body",
   "VariableFlipAngleFlag": "N",
   "WindowCenterWidthExplanation": "Algo1",
   "dBdt": 0.0
  },
  "slices": {}
 },
 "time": {
  "samples": {
   "AcquisitionNumber": [
    1,
    2,
    3,
    4,
    5,
    6,
    7,
    8,
    9,
    10,
    11,
    12,
    13,
    14,
    15,
    16,
    17,
    18,
    19,
    20,
    21,
    22,
    23,
    24,
    25,
    26,
    27,
    28,
    29,
    30,
    31,
    32,
    33,
    34,
    35,
    36,
    37,
    38,
    39,
    40,
    41,
    42,
    43,
    44,
    45,
    46,
    47,
    48,
    49,
    50,
    51,
    52,
    53,
    54,
    55,
    56,
    57,
    58,
    59,
    60,
    61,
    62,
    63,
    64,
    65,
    66,
    67,
    68,
    69,
    70,
    71,
    72,
    73,
    74,
    75,
    76,
    77,
    78,
    79,
    80,
    81,
    82,
    83,
    84,
    85,
    86,
    87,
    88,
    89,
    90,
    91,
    92,
    93,
    94,
    95,
    96,
    97,
    98,
    99,
    100,
    101,
    102,
    103,
    104,
    105,
    106,
    107,
    108,
    109,
    110,
    111,
    112,
    113,
    114,
    115,
    116,
    117,
    118,
    119,
    120,
    121,
    122,
    123,
    124,
    125,
    126,
    127,
    128,
    129,
    130,
    131,
    132,
    133,
    134,
    135,
    136,
    137,
    138,
    139,
    140,
    141,
    142,
    143,
    144,
    145,
    146,
    147,
    148,
    149,
    150,
    151,
    152,
    153,
    154,
    155,
    156,
    157,
    158,
    159,
    160,
    161,
    162,
    163,
    164,
    165,
    166,
    167,
    168,
    169,
    170,
    171,
    172,
    173,
    174,
    175,
    176,
    177,
    178,
    179,
    180,
    181,
    182,
    183,
    184,
    185,
    186,
    187,
    188,
    189,
    190,
    191,
    192,
    193,
    194,
    195,
    196,
    197,
    198,
    199,
    200,
    201,
    202,
    203,
    204,
    205,
    206,
    207,
    208,
    209,
    210,
    211,
    212,
    213,
    214,
    215,
    216,
    217,
    218,
    219,
    220,
    221,
    222,
    223,
    224,
    225,
    226,
    227,
    228,
    229,
    230,
    231,
    232,
    233,
    234,
    235,
    236,
    237,
    238,
    239,
    240,
    241,
    242,
    243,
    244,
    245,
    246,
    247,
    248,
    249,
    250,
    251,
    252,
    253,
    254,
    255,
    256
   ],
   "AcquisitionTime": [
    "094010.122500",
    "094012.122500",
    "094014.122500",
    "094016.122500",
    "094018.122500",
    "094020.122500",
    "094022.122500",
    "094024.122500",
    "094026.122500",
    "094028.122500",
    "094030.122500",
    "094032.122500",
    "094034.122500",
    "094036.122500",
    "094038.122500",
    "094040.122500",
    "094042.122500",
    "094044.122500",
    "094046.122500",
    "094048.122500",
    "094050.122500",
    "094052.122500",
    "094054.122500",
    "094056.122500",
    "094058.122500",
    "094100.122500",
    "094102.122500",
    "094104.122500",
    "094106.122500",
    "094108.122500",
    "094110.122500",
    "094112.122500",
    "094114.122500",
    "094116.122500",
    "094118.122500",
    "094120.122500",
    "094122.122500",
    "094124.122500",
    "094126.122500",
    "094128.122500",
    "094130.122500",
    "094132.122500",
    "094134.122500",
    "094136.122500",
    "094138.122500",
    "094140.122500",
    "094142.122500",
    "094144.122500",
    "094146.122500",
    "094148.122500",
    "094150.122500",
    "094152.122500",
    "094154.122500",
    "094156.122500",
    "094158.122500",
    "094200.122500",
    "094202.122500",
    "094204.122500",
    "094206.122500",
    "094208.122500",
    "094210.122500",
    "094212.122500",
    "094214.122500",
    "094216.122500",
    "094218.122500",
    "094220.122500",
    "094222.122500",
    "094224.122500",
    "094226.122500",
    "094228.122500",
    "094230.122500",
    "094232.122500",
    "094234.122500",
    "094236.122500",
    "094238.122500",
    "094240.122500",
    "094242.122500",
    "094244.122500",
    "094246.122500",
    "094248.122500",
    "094250.122500",
    "094252.122500",
    "094254.122500",
    "094256.122500",
    "094258.122500",
    "094300.122500",
    "094302.122500",
    "094304.122500",
    "094306.122500",
    "094308.122500",
    "094310.122500",
    "094312.122500",
    "094314.122500",
    "094316.122500",
    "094318.122500",
    "094320.122500",
    "094322.122500",
    "094324.122500",
    "094326.122500",
    "094328.122500",
    "094330.122500",
    "094332.122500",
    "094334.122500",
    "094336.122500",
    "094338.122500",
    "094340.122500",
    "094342.122500",
    "094344.122500",
    "094346.122500",
    "094348.122500",
    "094350.122500",
    "094352.122500",
    "094354.122500",
    "094356.122500",
    "094358.122500",
    "094400.122500",
    "094402.122500",
    "094404.122500",
    "094406.122500",
    "094408.122500",
    "094410.122500",
    "094412.122500",
    "094414.122500",
    "094416.122500",
    "094418.122500",
    "094420.122500",
    "094422.122500",
    "094424.122500",
    "094426.122500",
    "094428.122500",
    "094430.122500",
    "094432.122500",
    "094434.122500",
    "094436.122500",
    "094438.122500",
    "094440.122500",
    "094442.122500",
    "094444.122500",
    "094446.122500",
    "094448.122500",
    "094450.122500",
    "094452.122500",
    "094454.122500",
    "094456.122500",
    "094458.122500",
    "094500.122500",
    "094502.122500",
    "094504.122500",
    "094506.122500",
    "094508.122500",
    "094510.122500",
    "094512.122500",
    "094514.122500",
    "094516.122500",
    "094518.122500",
    "094520.122500",
    "094522.122500",
    "094524.122500",
    "094526.122500",
    "094528.122500",
    "094530.122500",
    "094532.122500",
    "094534.122500",
    "094536.122500",
    "094538.122500",
    "094540.122500",
    "094542.122500",
    "094544.122500",
    "094546.122500",
    "094548.122500",
    "094550.122500",
    "094552.122500",
    "094554.122500",
    "094556.122500",
    "094558.122500",
    "094600.122500",
    "094602.122500",
    "094604.122500",
    "094606.122500",
    "094608.122500",
    "094610.122500",
    "094612.122500",
    "094614.122500",
    "094616.122500",
    "094618.122500",
    "094620.122500",
    "094622.122500",
    "094624.122500",
    "094626.122500",
    "094628.122500",
    "094630.122500",
    "094632.122500",
    "094634.122500",
    "094636.122500",
    "094638.122500",
    "094640.122500",
    "094642.122500",
    "094644.122500",
    "094646.122500",
    "094648.122500",
    "094650.122500",
    "094652.122500",
    "094654.122500",
    "094656.122500",
    "094658.122500",
    "094700.122500",
    "094702.122500",
    "094704.122500",
    "094706.122500",
    "094708.122500",
    "094710.122500",
    "094712.122500",
    "094714.122500",
    "094716.122500",
    "094718.122500",
    "094720.122500",
    "094722.122500",
    "094724.122500",
    "094726.122500",
    "094728.122500",
    "094730.122500",
    "094732.122500",
    "094734.122500",
    "094736.122500",
    "094738.122500",
    "094740.122500",
    "094742.122500",
    "094744.122500",
    "094746.122500",
    "094748.122500",
    "094750.122500",
    "094752.122500",
    "094754.122500",
    "094756.122500",
    "094758.122500",
    "094800.122500",
    "094802.122500",
    "094804.122500",
    "094806.122500",
    "094808.122500",
    "094810.122500",
    "094812.122500",
    "094814.122500",
    "094816.122500",
    "094818.122500",
    "094820.122500",
    "094822.122500",
    "094824.122500",
    "094826.122500",
    "094828.122500",
    "094830.122500",
    "094832.122500",
    "094834.122500",
    "094836.122500",
    "094838.122500",
    "094840.122500"
   ],
   "ContentTime": [
    "094012.517000",
    "094014.012000",
    "094016.013000",
    "094018.012000",
    "094020.014000",
    "094022.013000",
    "094024.013000",
    "094026.014000",
    "094028.014000",
    "094030.013000",
    "094032.013000",
    "094034.013000",
    "094036.013000",
    "094038.013000",
    "094040.013000",
    "094042.013000",
    "094044.013000",
    "094046.014000",
    "094048.012000",
    "094050.013000",
    "094052.013000",
    "094054.013000",
    "094056.014000",
    "094058.014000",
    "094100.013000",
    "094102.013000",
    "094104.013000",
    "094106.013000",
    "094108.012000",
    "094110.013000",
    "094112.013000",
    "094114.014000",
    "094116.014000",
    "094118.013000",
    "094120.014000",
    "094122.012000",
    "094124.012000",
    "094126.013000",
    "094128.013000",
    "094130.014000",
    "094132.014000",
    "094134.013000",
    "094136.014000",
    "094138.014000",
    "094140.012000",
    "094142.012000",
    "094144.012000",
    "094146.013000",
    "094148.013000",
    "094150.014000",
    "094152.014000",
    "094154.014000",
    "094156.014000",
    "094158.013000",
    "094200.012000",
    "094202.013000",
    "094204.014000",
    "094206.014000",
    "094208.014000",
    "094210.014000",
    "094212.013000",
    "094214.012000",
    "094216.012000",
    "094218.013000",
    "094220.012000",
    "094222.014000",
    "094224.013000",
    "094226.013000",
    "094228.013000",
    "094230.013000",
    "094232.013000",
    "094234.012000",
    "094236.012000",
    "094238.013000",
    "094240.014000",
    "094242.014000",
    "094244.013000",
    "094246.014000",
    "094248.014000",
    "094250.012000",
    "094252.012000",
    "094254.013000",
    "094256.014000",
    "094258.014000",
    "094300.014000",
    "094302.013000",
    "094304.014000",
    "094306.013000",
    "094308.013000",
    "094310.013000",
    "094312.013000",
    "094314.013000",
    "094316.014000",
    "094318.014000",
    "094320.013000",
    "094322.014000",
    "094324.013000",
    "094326.012000",
    "094328.012000",
    "094330.013000",
    "094332.014000",
    "094334.014000",
    "094336.014000",
    "094338.014000",
    "094340.014000",
    "094342.013000",
    "094344.012000",
    "094346.013000",
    "094348.012000",
    "094350.013000",
    "094352.013000",
    "094354.014000",
    "094356.014000",
    "094358.014000",
    "094400.013000",
    "094402.012000",
    "094404.014000",
    "094406.013000",
    "094408.014000",
    "094410.014000",
    "094412.014000",
    "094414.013000",
    "094416.014000",
    "094418.012000",
    "094420.013000",
    "094422.012000",
    "094424.013000",
    "094426.013000",
    "094428.014000",
    "094430.014000",
    "094432.014000",
    "094434.013000",
    "094436.012000",
    "094438.013000",
    "094440.013000",
    "094442.014000",
    "094444.014000",
    "094446.014000",
    "094448.013000",
    "094450.013000",
    "094452.012000",
    "094454.012000",
    "094456.012000",
    "094458.013000",
    "094500.013000",
    "094502.014000",
    "094504.013000",
    "094506.013000",
    "094508.013000",
    "094510.012000",
    "094512.013000",
    "094514.012000",
    "094516.014000",
    "094518.014000",
    "094520.014000",
    "094522.014000",
    "094524.014000",
    "094526.014000",
    "094528.012000",
    "094530.012000",
    "094532.012000",
    "094534.014000",
    "094536.013000",
    "094538.014000",
    "094540.013000",
    "094542.014000",
    "094544.012000",
    "094546.012000",
    "094548.012000",
    "094550.013000",
    "094552.013000",
    "094554.013000",
    "094556.013000",
    "094558.013000",
    "094600.013000",
    "094602.012000",
    "094604.013000",
    "094606.013000",
    "094608.014000",
    "094610.014000",
    "094612.014000",
    "094614.014000",
    "094616.013000",
    "094618.013000",
    "094620.013000",
    "094622.013000",
    "094624.012000",
    "094626.026000",
    "094628.013000",
    "094630.014000",
    "094632.014000",
    "094634.014000",
    "094636.013000",
    "094638.013000",
    "094640.013000",
    "094642.012000",
    "094644.014000",
    "094646.013000",
    "094648.013000",
    "094650.014000",
    "094652.013000",
    "094654.013000",
    "094656.013000",
    "094658.013000",
    "094700.013000",
    "094702.014000",
    "094704.013000",
    "094706.014000",
    "094708.013000",
    "094710.014000",
    "094712.012000",
    "094714.012000",
    "094716.012000",
    "094718.014000",
    "094720.014000",
    "094722.014000",
    "094724.014000",
    "094726.014000",
    "094728.014000",
    "094730.013000",
    "094732.012000",
    "094734.013000",
    "094736.014000",
    "094738.014000",
    "094740.014000",
    "094742.013000",
    "094744.013000",
    "094746.014000",
    "094748.013000",
    "094750.012000",
    "094752.012000",
    "094754.014000",
    "094756.013000",
    "094758.014000",
    "094800.013000",
    "094802.014000",
    "094804.012000",
    "094806.013000",
    "094808.012000",
    "094810.033000",
    "094812.014000",
    "094814.014000",
    "094816.014000",
    "094818.014000",
    "094820.014000",
    "094822.012000",
    "094824.012000",
    "094826.013000",
    "094828.013000",
    "094830.013000",
    "094832.014000",
    "094834.014000",
    "094836.013000",
    "094838.014000",
    "094840.012000",
    "094841.597000"
   ],
   "InstanceCreationTime": [
    "094012.517000",
    "094014.012000",
    "094016.013000",
    "094018.012000",
    "094020.014000",
    "094022.013000",
    "094024.013000",
    "094026.014000",
    "094028.014000",
    "094030.013000",
    "094032.013000",
    "094034.013000",
    "094036.013000",
    "094038.013000",
    "094040.013000",
    "094042.013000",
    "094044.013000",
    "094046.014000",
    "094048.012000",
    "094050.013000",
    "094052.013000",
    "094054.013000",
    "094056.014000",
    "094058.014000",
    "094100.013000",
    "094102.013000",
    "094104.013000",
    "094106.013000",
    "094108.012000",
    "094110.013000",
    "094112.013000",
    "094114.014000",
    "094116.014000",
    "094118.013000",
    "094120.014000",
    "094122.012000",
    "094124.012000",
    "094126.013000",
    "094128.013000",
    "094130.014000",
    "094132.014000",
    "094134.013000",
    "094136.014000",
    "094138.014000",
    "094140.012000",
    "094142.012000",
    "094144.012000",
    "094146.013000",
    "094148.013000",
    "094150.014000",
    "094152.014000",
    "094154.014000",
    "094156.014000",
    "094158.013000",
    "094200.012000",
    "094202.013000",
    "094204.014000",
    "094206.014000",
    "094208.014000",
    "094210.014000",
    "094212.013000",
    "094214.012000",
    "094216.012000",
    "094218.013000",
    "094220.012000",
    "094222.014000",
    "094224.013000",
    "094226.013000",
    "094228.013000",
    "094230.013000",
    "094232.013000",
    "094234.012000",
    "094236.012000",
    "094238.013000",
    "094240.014000",
    "094242.014000",
    "094244.013000",
    "094246.014000",
    "094248.014000",
    "094250.012000",
    "094252.012000",
    "094254.013000",
    "094256.014000",
    "094258.014000",
    "094300.014000",
    "094302.013000",
    "094304.014000",
    "094306.013000",
    "094308.013000",
    "094310.013000",
    "094312.013000",
    "094314.013000",
    "094316.014000",
    "094318.014000",
    "094320.013000",
    "094322.014000",
    "094324.013000",
    "094326.012000",
    "094328.012000",
    "094330.013000",
    "094332.014000",
    "094334.014000",
    "094336.014000",
    "094338.014000",
    "094340.014000",
    "094342.013000",
    "094344.012000",
    "094346.013000",
    "094348.012000",
    "094350.013000",
    "094352.013000",
    "094354.014000",
    "094356.014000",
    "094358.014000",
    "094400.013000",
    "094402.012000",
    "094404.014000",
    "094406.013000",
    "094408.014000",
    "094410.014000",
    "094412.014000",
    "094414.013000",
    "094416.014000",
    "094418.012000",
    "094420.013000",
    "094422.012000",
    "094424.013000",
    "094426.013000",
    "094428.014000",
    "094430.014000",
    "094432.014000",
    "094434.013000",
    "094436.012000",
    "094438.013000",
    "094440.013000",
    "094442.014000",
    "094444.014000",
    "094446.014000",
    "094448.013000",
    "094450.013000",
    "094452.012000",
    "094454.012000",
    "094456.012000",
    "094458.013000",
    "094500.013000",
    "094502.014000",
    "094504.013000",
    "094506.013000",
    "094508.013000",
    "094510.012000",
    "094512.013000",
    "094514.012000",
    "094516.014000",
    "094518.014000",
    "094520.014000",
    "094522.014000",
    "094524.014000",
    "094526.014000",
    "094528.012000",
    "094530.012000",
    "094532.012000",
    "094534.014000",
    "094536.013000",
    "094538.014000",
    "094540.013000",
    "094542.014000",
    "094544.012000",
    "094546.012000",
    "094548.012000",
    "094550.013000",
    "094552.013000",
    "094554.013000",
    "094556.013000",
    "094558.013000",
    "094600.013000",
    "094602.012000",
    "094604.013000",
    "094606.013000",
    "094608.014000",
    "094610.014000",
    "094612.014000",
    "094614.014000",
    "094616.013000",
    "094618.013000",
    "094620.013000",
    "094622.013000",
    "094624.012000",
    "094626.026000",
    "094628.013000",
    "094630.014000",
    "094632.014000",
    "094634.014000",
    "094636.013000",
    "094638.013000",
    "094640.013000",
    "094642.012000",
    "094644.014000",
    "094646.013000",
    "094648.013000",
    "094650.014000",
    "094652.013000",
    "094654.013000",
    "094656.013000",
    "094658.013000",
    "094700.013000",
    "094702.014000",
    "094704.013000",
    "094706.014000",
    "094708.013000",
    "094710.014000",
    "094712.012000",
    "094714.012000",
    "094716.012000",
    "094718.014000",
    "094720.014000",
    "094722.014000",
    "094724.014000",
    "094726.014000",
    "094728.014000",
    "094730.013000",
    "094732.012000",
    "094734.013000",
    "094736.014000",
    "094738.014000",
    "094740.014000",
    "094742.013000",
    "094744.013000",
    "094746.014000",
    "094748.013000",
    "094750.012000",
    "094752.012000",
    "094754.014000",
    "094756.013000",
    "094758.014000",
    "094800.013000",
    "094802.014000",
    "094804.012000",
    "094806.013000",
    "094808.012000",
    "094810.033000",
    "094812.014000",
    "094814.014000",
    "094816.014000",
    "094818.014000",
    "094820.014000",
    "094822.012000",
    "094824.012000",
    "094826.013000",
    "094828.013000",
    "094830.013000",
    "094832.014000",
    "094834.014000",
    "094836.013000",
    "094838.014000",
    "094840.012000",
    "094841.597000"
   ],
   "InstanceNumber": [
    1,
    2,
    3,
    4,
    5,
    6,
    7,
    8,
    9,
    10,
    11,
    12,
    13,
    14,
    15,
    16,
    17,
    18,
    19,
    20,
    21,
    22,
    23,
    24,
    25,
    26,
    27,
    28,
    29,
    30,
    31,
    32,
    33,
    34,
    35,
    36,
    37,
    38,
    39,
    40,
    41,
    42,
    43,
    44,
    45,
    46,
    47,
    48,
    49,
    50,
    51,
    52,
    53,
    54,
    55,
    56,
    57,
    58,
    59,
    60,
    61,
    62,
    63,
    64,
    65,
    66,
    67,
    68,
    69,
    70,
    71,
    72,
    73,
    74,
    75,
    76,
    77,
    78,
    79,
    80,
    81,
    82,
    83,
    84,
    85,
    86,
    87,
    88,
    89,
    90,
    91,
    92,
    93,
    94,
    95,
    96,
    97,
    98,
    99,
    100,
    101,
    102,
    103,
    104,
    105,
    106,
    107,
    108,
    109,
    110,
    111,
    112,
    113,
    114,
    115,
    116,
    117,
    118,
    119,
    120,
    121,
    122,
    123,
    124,
    125,
    126,
    127,
    128,
    129,
    130,
    131,
    132,
    133,
    134,
    135,
    136,
    137,
    138,
    139,
    140,
    141,
    142,
    143,
    144,
    145,
    146,
    147,
    148,
    149,
    150,
    151,
    152,
    153,
    154,
    155,
    156,
    157,
    158,
    159,
    160,
    161,
    162,
    163,
    164,
    165,
    166,
    167,
    168,
    169,
    170,
    171,
    172,
    173,
    174,
    175,
    176,
    177,
    178,
    179,
    180,
    181,
    182,
    183,
    184,
    185,
    186,
    187,
    188,
    189,
    190,
    191,
    192,
    193,
    194,
    195,
    196,
    197,
    198,
    199,
    200,
    201,
    202,
    203,
    204,
    205,
    206,
    207,
    208,
    209,
    210,
    211,
    212,
    213,
    214,
    215,
    216,
    217,
    218,
    219,
    220,
    221,
    222,
    223,
    224,
    225,
    226,
    227,
    228,
    229,
    230,
    231,
    232,
    233,
    234,
    235,
    236,
    237,
    238,
    239,
    240,
    241,
    242,
    243,
    244,
    245,
    246,
    247,
    248,
    249,
    250,
    251,
    252,
    253,
    254,
    255,
    256
   ],
   "LargestImagePixelValue": [
    3535,
    3496,
    3473,
    3446,
    3488,
    3475,
    3460,
    3454,
    3516,
    3504,
    3513,
    3496,
    3506,
    3524,
    3489,
    3498,
    3482,
    3509,
    3500,
    3496,
    3478,
    3512,
    3511,
    3496,
    3462,
    3494,
    3499,
    3484,
    3472,
    3510,
    3473,
    3470,
    3466,
    3466,
    3441,
    3429,
    3451,
    3364,
    3429,
    3406,
    3426,
    3423,
    3379,
    3398,
    3368,
    3381,
    3377,
    3399,
    3407,
    3381,
    3374,
    3358,
    3382,
    3375,
    3369,
    3380,
    3376,
    3366,
    3392,
    3406,
    3390,
    3402,
    3389,
    3385,
    3359,
    3373,
    3398,
    3414,
    3384,
    3455,
    3506,
    3504,
    3515,
    3497,
    3491,
    3476,
    3507,
    3480,
    3460,
    3458,
    3495,
    3475,
    3494,
    3485,
    3472,
    3543,
    3502,
    3511,
    3465,
    3458,
    3456,
    3446,
    3434,
    3448,
    3457,
    3461,
    3434,
    3495,
    3469,
    3457,
    3470,
    3476,
    3465,
    3457,
    3429,
    3454,
    3439,
    3471,
    3434,
    3451,
    3441,
    3470,
    3430,
    3430,
    3443,
    3436,
    3402,
    3426,
    3451,
    3438,
    3441,
    3485,
    3491,
    3494,
    3470,
    3483,
    3498,
    3529,
    3462,
    3512,
    3492,
    3498,
    3467,
    3495,
    3491,
    3474,
    3518,
    3489,
    3481,
    3503,
    3465,
    3476,
    3486,
    3500,
    3496,
    3525,
    3458,
    3492,
    3483,
    3493,
    3483,
    3524,
    3522,
    3524,
    3537,
    3489,
    3538,
    3492,
    3527,
    3514,
    3526,
    3521,
    3524,
    3515,
    3522,
    3498,
    3523,
    3491,
    3514,
    3489,
    3532,
    3467,
    3483,
    3465,
    3510,
    3474,
    3508,
    3484,
    3502,
    3448,
    3492,
    3452,
    3494,
    3447,
    3513,
    3463,
    3405,
    3409,
    3395,
    3339,
    3353,
    3341,
    3341,
    3307,
    3285,
    3263,
    3294,
    3275,
    3277,
    3327,
    3342,
    3326,
    3342,
    3344,
    3325,
    3386,
    3369,
    3405,
    3392,
    3364,
    3388,
    3338,
    3383,
    3383,
    3383,
    3357,
    3409,
    3360,
    3340,
    3334,
    3307,
    3334,
    3371,
    3278,
    3325,
    3249,
    3284,
    3288,
    3261,
    3268,
    3209,
    3248,
    3265,
    3255,
    3288,
    3283,
    3286,
    3237,
    3292,
    3271,
    3276,
    3250,
    3301,
    3316,
    3274,
    3284,
    3249,
    3285,
    3252,
    3259,
    3258,
    3249,
    3228,
    3223,
    3243,
    3243
   ],
   "WindowCenter": [
    793.0,
    791.0,
    790.0,
    790.0,
    790.0,
    790.0,
    789.0,
    789.0,
    789.0,
    788.0,
    789.0,
    789.0,
    789.0,
    789.0,
    789.0,
    789.0,
    788.0,
    789.0,
    788.0,
    788.0,
    789.0,
    791.0,
    792.0,
    791.0,
    788.0,
    787.0,
    785.0,
    787.0,
    787.0,
    788.0,
    789.0,
    789.0,
    789.0,
    789.0,
    788.0,
    788.0,
    789.0,
    789.0,
    790.0,
    790.0,
    790.0,
    790.0,
    790.0,
    789.0,
    788.0,
    788.0,
    789.0,
    790.0,
    791.0,
    790.0,
    789.0,
    788.0,
    787.0,
    786.0,
    787.0,
    787.0,
    788.0,
    787.0,
    788.0,
    789.0,
    790.0,
    791.0,
    791.0,
    791.0,
    790.0,
    790.0,
    790.0,
    789.0,
    788.0,
    788.0,
    789.0,
    789.0,
    790.0,
    790.0,
    790.0,
    789.0,
    789.0,
    789.0,
    789.0,
    789.0,
    789.0,
    789.0,
    789.0,
    790.0,
    789.0,
    789.0,
    789.0,
    789.0,
    788.0,
    790.0,
    790.0,
    790.0,
    790.0,
    790.0,
    790.0,
    790.0,
    790.0,
    791.0,
    791.0,
    791.0,
    791.0,
    791.0,
    791.0,
    791.0,
    790.0,
    790.0,
    790.0,
    790.0,
    790.0,
    790.0,
    789.0,
    790.0,
    789.0,
    790.0,
    790.0,
    789.0,
    789.0,
    789.0,
    789.0,
    789.0,
    789.0,
    789.0,
    789.0,
    789.0,
    789.0,
    789.0,
    789.0,
