{
 "AcquisitionMatrixPE": 100,
 "AcquisitionNumber": 1,
 "AcquisitionTime": "09:54:2.870000",
 "BandwidthPerPixelPhaseEncode": 18.519,
 "BaseResolution": 100,
 "BodyPartExamined": "BRAIN",
 "ConsistencyInfo": "N4_VE11C_LATEST_20160120",
 "ConversionSoftware": "dcm2niix",
 "ConversionSoftwareVersion": "v1.0.20180622 GCC4.9.2",
 "DerivedVendorReportedEchoSpacing": 0.000539986,
 "DeviceSerialNumber": "166078",
 "DwellTime": 2.1e-06,
 "EchoTime": 0.034,
 "EchoTrainLength": 100,
 "EffectiveEchoSpacing": 0.000539986,
 "FlipAngle": 90,
 "ImageOrientationPatientDICOM": [
  1,
  0,
  0,
  0,
  0.977416,
  -0.211325
 ],
 "ImageType": [
  "ORIGINAL",
  "PRIMARY",
  "M",
  "ND",
  "MOSAIC"
 ],
 "InPlanePhaseEncodingDirectionDICOM": "COL",
 "InstitutionAddress": "Street_StreetNo_Bei_Jing_District_CN_ZIP",
 "InstitutionName": "BeiJing_Normal_University",
 "InstitutionalDepartmentName": "Department",
 "MRAcquisitionType": "2D",
 "MagneticFieldStrength": 3,
 "Manufacturer": "Siemens",
 "ManufacturersModelName": "Prisma",
 "Modality": "MR",
 "MultibandAccelerationFactor": 3,
 "PartialFourier": 1,
 "PatientPosition": "HFS",
 "PercentPhaseFOV": 100,
 "PhaseEncodingDirection": "j-",
 "PhaseEncodingSteps": 100,
 "PhaseResolution": 1,
 "PixelBandwidth": 2380,
 "ProcedureStepDescription": "BNU_P2018_64CH_Zhen.ZongLei",
 "ProtocolName": "bold_100x100_s3_2x2x2_static_256",
 "PulseSequenceDetails": "%SiemensSeq%_ep2d_bold",
 "ReceiveCoilActiveElements": "HC1-7;NC1",
 "ReceiveCoilName": "HeadNeck_64",
 "ReconMatrixPE": 100,
 "RepetitionTime": 2,
 "SAR": 0.0633688,
 "ScanOptions": "FS",
 "ScanningSequence": "EP",
 "SequenceName": "_epfid2d1_100",
 "SequenceVariant": "SK",
 "SeriesDescription": "bold_100x100_s3_2x2x2_static_256",
 "SeriesNumber": 10,
 "ShimSetting": [
  -5458,
  -11512,
  -1227,
  385,
  18,
  -280,
  -175,
  73
 ],
 "SliceThickness": 2,
 "SliceTiming": [
  1.4825,
  0,
  0.9875,
  0.0825,
  1.07,
  0.165,
  1.1525,
  0.2475,
  1.235,
  0.33,
  1.3175,
  0.4125,
  1.4,
  0.5775,
  1.565,
  0.66,
  1.6475,
  0.7425,
  1.73,
  0.8225,
  1.8125,
  0.905,
  1.895,
  0.495,
  1.4825,
  0,
  0.9875,
  0.0825,
  1.07,
  0.165,
  1.1525,
  0.2475,
  1.235,
  0.33,
  1.3175,
  0.4125,
  1.4,
  0.5775,
  1.565,
  0.66,
  1.6475,
  0.7425,
  1.73,
  0.8225,
  1.8125,
  0.905,
  1.895,
  0.495,
  1.4825,
  0,
  0.9875,
  0.0825,
  1.07,
  0.165,
  1.1525,
  0.2475,
  1.235,
  0.33,
  1.3175,
  0.4125,
  1.4,
  0.5775,
  1.565,
  0.66,
  1.6475,
  0.7425,
  1.73,
  0.8225,
  1.8125,
  0.905,
  1.895,
  0.495
 ],
 "SoftwareVersions": "syngo_MR_E11",
 "SpacingBetweenSlices": 2,
 "StationName": "AWP166078",
 "TaskName": "imagenet",
 "TotalReadoutTime": 0.0534586,
 "TxRefAmp": 222.274,
 "dcmmeta_affine": [
  [
   -2.0,
   0.0,
   0.0,
   100.0
  ],
  [
   0.0,
   1.954831838607788,
   -0.4226495623588562,
   -76.24516296386719
  ],
  [
   0.0,
   0.4226495623588562,
   1.954831838607788,
   -81.97076416015625
  ],
  [
   0.0,
   0.0,
   0.0,
   1.0
  ]
 ],
 "dcmmeta_reorient_transform": [
  [
   0.0,
   -1.0,
   0.0,
   99.0
  ],
  [
   1.0,
   0.0,
   0.0,
   0.0
  ],
  [
   0.0,
   0.0,
   1.0,
   0.0
  ],
  [
   0.0,
   0.0,
   0.0,
   1.0
  ]
 ],
 "dcmmeta_shape": [
  100,
  100,
  72,
  256
 ],
 "dcmmeta_slice_dim": 2,
 "dcmmeta_version": 0.6,
 "global": {
  "const": {
   "AcquisitionMatrix": [
    100,
    0,
    0,
    100
   ],
   "AngioFlag": "N",
   "BitsAllocated": 16,
   "BitsStored": 12,
   "BodyPartExamined": "BRAIN",
   "Columns": 900,
   "EchoNumbers": 1,
   "EchoTime": 34.0,
   "EchoTrainLength": 100,
   "FlipAngle": 90.0,
   "HighBit": 11,
   "ImageOrientationPatient": [
    1.0,
    0.0,
    0.0,
    0.0,
    0.97741589648343,
    -0.2113247862923
   ],
   "ImagePositionPatient": [
    -900.0,
    -899.21589847937,
    128.93137092601
   ],
   "ImageType": [
    "ORIGINAL",
    "PRIMARY",
    "M",
    "ND",
    "MOSAIC"
   ],
   "ImagedNucleus": "1H",
   "ImagingFrequency": 123.257708,
   "InPlanePhaseEncodingDirection": "COL",
   "MRAcquisitionType": "2D",
   "MagneticFieldStrength": 3.0,
   "Manufacturer": "SIEMENS",
   "ManufacturerModelName": "Prisma",
   "Modality": "MR",
   "NumberOfAverages": 1.0,
   "NumberOfPhaseEncodingSteps": 100,
   "PercentPhaseFieldOfView": 100.0,
   "PercentSampling": 100.0,
   "PerformedProcedureStepStartTime": "085013.174000",
   "PhotometricInterpretation": "MONOCHROME2",
   "PixelBandwidth": 2380.0,
   "PixelRepresentation": 0,
   "PixelSpacing": [
    2.0,
    2.0
   ],
   "ProtocolName": "bold_100x100_s3_2x2x2_static_256",
   "RepetitionTime": 2000.0,
   "Rows": 900,
   "SAR": 0.06336875095733,
   "SamplesPerPixel": 1,
   "ScanOptions": "FS",
   "ScanningSequence": "EP",
   "SequenceName": "*epfid2d1_100",
   "SequenceVariant": "SK",
   "SeriesDescription": "bold_100x100_s3_2x2x2_static_256",
   "SeriesNumber": 10,
   "SeriesTime": "095405.714000",
   "SliceLocation": -64.007036078309,
   "SliceThickness": 2.0,
   "SmallestImagePixelValue": 0,
   "SoftwareVersions": "syngo MR E11",
   "SpacingBetweenSlices": 1.9999999942808,
   "SpecificCharacterSet": "ISO_IR 100",
   "StudyID": "1",
   "StudyTime": "085013.106000",
   "TransmitCoilName": "Body",
   "VariableFlipAngleFlag": "N",
   "WindowCenterWidthExplanation": "Algo1",
   "dBdt": 0.0
  },
  "slices": {}
 },
 "time": {
  "samples": {
   "AcquisitionNumber": [
    1,
    2,
    3,
    4,
    5,
    6,
    7,
    8,
    9,
    10,
    11,
    12,
    13,
    14,
    15,
    16,
    17,
    18,
    19,
    20,
    21,
    22,
    23,
    24,
    25,
    26,
    27,
    28,
    29,
    30,
    31,
    32,
    33,
    34,
    35,
    36,
    37,
    38,
    39,
    40,
    41,
    42,
    43,
    44,
    45,
    46,
    47,
    48,
    49,
    50,
    51,
    52,
    53,
    54,
    55,
    56,
    57,
    58,
    59,
    60,
    61,
    62,
    63,
    64,
    65,
    66,
    67,
    68,
    69,
    70,
    71,
    72,
    73,
    74,
    75,
    76,
    77,
    78,
    79,
    80,
    81,
    82,
    83,
    84,
    85,
    86,
    87,
    88,
    89,
    90,
    91,
    92,
    93,
    94,
    95,
    96,
    97,
    98,
    99,
    100,
    101,
    102,
    103,
    104,
    105,
    106,
    107,
    108,
    109,
    110,
    111,
    112,
    113,
    114,
    115,
    116,
    117,
    118,
    119,
    120,
    121,
    122,
    123,
    124,
    125,
    126,
    127,
    128,
    129,
    130,
    131,
    132,
    133,
    134,
    135,
    136,
    137,
    138,
    139,
    140,
    141,
    142,
    143,
    144,
    145,
    146,
    147,
    148,
    149,
    150,
    151,
    152,
    153,
    154,
    155,
    156,
    157,
    158,
    159,
    160,
    161,
    162,
    163,
    164,
    165,
    166,
    167,
    168,
    169,
    170,
    171,
    172,
    173,
    174,
    175,
    176,
    177,
    178,
    179,
    180,
    181,
    182,
    183,
    184,
    185,
    186,
    187,
    188,
    189,
    190,
    191,
    192,
    193,
    194,
    195,
    196,
    197,
    198,
    199,
    200,
    201,
    202,
    203,
    204,
    205,
    206,
    207,
    208,
    209,
    210,
    211,
    212,
    213,
    214,
    215,
    216,
    217,
    218,
    219,
    220,
    221,
    222,
    223,
    224,
    225,
    226,
    227,
    228,
    229,
    230,
    231,
    232,
    233,
    234,
    235,
    236,
    237,
    238,
    239,
    240,
    241,
    242,
    243,
    244,
    245,
    246,
    247,
    248,
    249,
    250,
    251,
    252,
    253,
    254,
    255,
    256
   ],
   "AcquisitionTime": [
    "095402.870000",
    "095404.870000",
    "095406.870000",
    "095408.870000",
    "095410.870000",
    "095412.870000",
    "095414.870000",
    "095416.870000",
    "095418.870000",
    "095420.870000",
    "095422.870000",
    "095424.870000",
    "095426.870000",
    "095428.870000",
    "095430.870000",
    "095432.870000",
    "095434.870000",
    "095436.870000",
    "095438.870000",
    "095440.870000",
    "095442.870000",
    "095444.870000",
    "095446.870000",
    "095448.870000",
    "095450.870000",
    "095452.870000",
    "095454.870000",
    "095456.870000",
    "095458.870000",
    "095500.870000",
    "095502.870000",
    "095504.870000",
    "095506.870000",
    "095508.870000",
    "095510.870000",
    "095512.870000",
    "095514.870000",
    "095516.870000",
    "095518.870000",
    "095520.870000",
    "095522.870000",
    "095524.870000",
    "095526.870000",
    "095528.870000",
    "095530.870000",
    "095532.870000",
    "095534.870000",
    "095536.870000",
    "095538.870000",
    "095540.870000",
    "095542.870000",
    "095544.870000",
    "095546.870000",
    "095548.870000",
    "095550.870000",
    "095552.870000",
    "095554.870000",
    "095556.870000",
    "095558.870000",
    "095600.870000",
    "095602.870000",
    "095604.870000",
    "095606.870000",
    "095608.870000",
    "095610.870000",
    "095612.870000",
    "095614.870000",
    "095616.870000",
    "095618.870000",
    "095620.870000",
    "095622.870000",
    "095624.870000",
    "095626.870000",
    "095628.870000",
    "095630.870000",
    "095632.870000",
    "095634.870000",
    "095636.870000",
    "095638.870000",
    "095640.870000",
    "095642.870000",
    "095644.870000",
    "095646.870000",
    "095648.870000",
    "095650.870000",
    "095652.870000",
    "095654.870000",
    "095656.870000",
    "095658.870000",
    "095700.870000",
    "095702.870000",
    "095704.870000",
    "095706.870000",
    "095708.870000",
    "095710.870000",
    "095712.870000",
    "095714.870000",
    "095716.870000",
    "095718.870000",
    "095720.870000",
    "095722.870000",
    "095724.870000",
    "095726.870000",
    "095728.870000",
    "095730.870000",
    "095732.870000",
    "095734.870000",
    "095736.870000",
    "095738.870000",
    "095740.870000",
    "095742.870000",
    "095744.870000",
    "095746.870000",
    "095748.870000",
    "095750.870000",
    "095752.870000",
    "095754.870000",
    "095756.870000",
    "095758.870000",
    "095800.870000",
    "095802.870000",
    "095804.870000",
    "095806.870000",
    "095808.870000",
    "095810.870000",
    "095812.870000",
    "095814.870000",
    "095816.870000",
    "095818.870000",
    "095820.870000",
    "095822.870000",
    "095824.870000",
    "095826.870000",
    "095828.870000",
    "095830.870000",
    "095832.870000",
    "095834.870000",
    "095836.870000",
    "095838.870000",
    "095840.870000",
    "095842.870000",
    "095844.870000",
    "095846.870000",
    "095848.870000",
    "095850.870000",
    "095852.870000",
    "095854.870000",
    "095856.870000",
    "095858.870000",
    "095900.870000",
    "095902.870000",
    "095904.870000",
    "095906.870000",
    "095908.870000",
    "095910.870000",
    "095912.870000",
    "095914.870000",
    "095916.870000",
    "095918.870000",
    "095920.870000",
    "095922.870000",
    "095924.870000",
    "095926.870000",
    "095928.870000",
    "095930.870000",
    "095932.870000",
    "095934.870000",
    "095936.870000",
    "095938.870000",
    "095940.870000",
    "095942.870000",
    "095944.870000",
    "095946.870000",
    "095948.870000",
    "095950.870000",
    "095952.870000",
    "095954.870000",
    "095956.870000",
    "095958.870000",
    "100000.870000",
    "100002.870000",
    "100004.870000",
    "100006.870000",
    "100008.870000",
    "100010.870000",
    "100012.870000",
    "100014.870000",
    "100016.870000",
    "100018.870000",
    "100020.870000",
    "100022.870000",
    "100024.870000",
    "100026.870000",
    "100028.870000",
    "100030.870000",
    "100032.870000",
    "100034.870000",
    "100036.870000",
    "100038.870000",
    "100040.870000",
    "100042.870000",
    "100044.870000",
    "100046.870000",
    "100048.870000",
    "100050.870000",
    "100052.870000",
    "100054.870000",
    "100056.870000",
    "100058.870000",
    "100100.870000",
    "100102.870000",
    "100104.870000",
    "100106.870000",
    "100108.870000",
    "100110.870000",
    "100112.870000",
    "100114.870000",
    "100116.870000",
    "100118.870000",
    "100120.870000",
    "100122.870000",
    "100124.870000",
    "100126.870000",
    "100128.870000",
    "100130.870000",
    "100132.870000",
    "100134.870000",
    "100136.870000",
    "100138.870000",
    "100140.870000",
    "100142.870000",
    "100144.870000",
    "100146.870000",
    "100148.870000",
    "100150.870000",
    "100152.870000",
    "100154.870000",
    "100156.870000",
    "100158.870000",
    "100200.870000",
    "100202.870000",
    "100204.870000",
    "100206.870000",
    "100208.870000",
    "100210.870000",
    "100212.870000",
    "100214.870000",
    "100216.870000",
    "100218.870000",
    "100220.870000",
    "100222.870000",
    "100224.870000",
    "100226.870000",
    "100228.870000",
    "100230.870000",
    "100232.870000"
   ],
   "ContentTime": [
    "095405.718000",
    "095407.214000",
    "095409.213000",
    "095411.213000",
    "095413.214000",
    "095415.212000",
    "095417.212000",
    "095419.213000",
    "095421.213000",
    "095423.213000",
    "095425.214000",
    "095427.213000",
    "095429.214000",
    "095431.213000",
    "095433.212000",
    "095435.214000",
    "095437.214000",
    "095439.213000",
    "095441.213000",
    "095443.214000",
    "095445.213000",
    "095447.214000",
    "095449.213000",
    "095451.212000",
    "095453.213000",
    "095455.213000",
    "095457.213000",
    "095459.214000",
    "095501.213000",
    "095503.213000",
    "095505.214000",
    "095507.212000",
    "095509.213000",
    "095511.213000",
    "095513.213000",
    "095515.213000",
    "095517.214000",
    "095519.213000",
    "095521.214000",
    "095523.213000",
    "095525.212000",
    "095527.212000",
    "095529.214000",
    "095531.213000",
    "095533.213000",
    "095535.214000",
    "095537.213000",
    "095539.213000",
    "095541.212000",
    "095543.212000",
    "095545.213000",
    "095547.214000",
    "095549.213000",
    "095551.213000",
    "095553.214000",
    "095555.213000",
    "095557.213000",
    "095559.212000",
    "095601.212000",
    "095603.213000",
    "095605.214000",
    "095607.214000",
    "095609.213000",
    "095611.214000",
    "095613.213000",
    "095615.213000",
    "095617.213000",
    "095619.212000",
    "095621.213000",
    "095623.213000",
    "095625.213000",
    "095627.213000",
    "095629.213000",
    "095631.213000",
    "095633.213000",
    "095635.212000",
    "095637.213000",
    "095639.213000",
    "095641.213000",
    "095643.213000",
    "095645.213000",
    "095647.213000",
    "095649.214000",
    "095651.212000",
    "095653.212000",
    "095655.214000",
    "095657.214000",
    "095659.213000",
    "095701.213000",
    "095703.213000",
    "095705.214000",
    "095707.214000",
    "095709.212000",
    "095711.213000",
    "095713.213000",
    "095715.214000",
    "095717.214000",
    "095719.213000",
    "095721.213000",
    "095723.214000",
    "095725.213000",
    "095727.213000",
    "095729.213000",
    "095731.213000",
    "095733.213000",
    "095735.213000",
    "095737.214000",
    "095739.213000",
    "095741.213000",
    "095743.213000",
    "095745.213000",
    "095747.213000",
    "095749.214000",
    "095751.214000",
    "095753.214000",
    "095755.213000",
    "095757.214000",
    "095759.214000",
    "095801.213000",
    "095803.212000",
    "095805.214000",
    "095807.213000",
    "095809.213000",
    "095811.213000",
    "095813.213000",
    "095815.213000",
    "095817.214000",
    "095819.213000",
    "095821.213000",
    "095823.214000",
    "095825.214000",
    "095827.214000",
    "095829.214000",
    "095831.214000",
    "095833.214000",
    "095835.214000",
    "095837.212000",
    "095839.212000",
    "095841.214000",
    "095843.213000",
    "095845.214000",
    "095847.213000",
    "095849.213000",
    "095851.213000",
    "095853.213000",
    "095855.212000",
    "095857.213000",
    "095859.213000",
    "095901.214000",
    "095903.213000",
    "095905.213000",
    "095907.214000",
    "095909.213000",
    "095911.213000",
    "095913.212000",
    "095915.214000",
    "095917.213000",
    "095919.213000",
    "095921.214000",
    "095923.213000",
    "095925.214000",
    "095927.214000",
    "095929.213000",
    "095931.213000",
    "095933.213000",
    "095935.213000",
    "095937.214000",
    "095939.213000",
    "095941.213000",
    "095943.214000",
    "095945.214000",
    "095947.213000",
    "095949.212000",
    "095951.213000",
    "095953.213000",
    "095955.213000",
    "095957.214000",
    "095959.214000",
    "100001.213000",
    "100003.213000",
    "100005.212000",
    "100007.213000",
    "100009.214000",
    "100011.213000",
    "100013.213000",
    "100015.213000",
    "100017.214000",
    "100019.214000",
    "100021.213000",
    "100023.213000",
    "100025.213000",
    "100027.214000",
    "100029.214000",
    "100031.214000",
    "100033.213000",
    "100035.214000",
    "100037.214000",
    "100039.212000",
    "100041.213000",
    "100043.214000",
    "100045.214000",
    "100047.213000",
    "100049.214000",
    "100051.214000",
    "100053.213000",
    "100055.214000",
    "100057.212000",
    "100059.212000",
    "100101.213000",
    "100103.213000",
    "100105.213000",
    "100107.214000",
    "100109.214000",
    "100111.214000",
    "100113.214000",
    "100115.213000",
    "100117.214000",
    "100119.214000",
    "100121.214000",
    "100123.213000",
    "100125.213000",
    "100127.214000",
    "100129.214000",
    "100131.213000",
    "100133.212000",
    "100135.214000",
    "100137.214000",
    "100139.213000",
    "100141.214000",
    "100143.213000",
    "100145.214000",
    "100147.214000",
    "100149.213000",
    "100151.212000",
    "100153.214000",
    "100155.214000",
    "100157.214000",
    "100159.214000",
    "100201.213000",
    "100203.214000",
    "100205.213000",
    "100207.212000",
    "100209.213000",
    "100211.214000",
    "100213.214000",
    "100215.213000",
    "100217.214000",
    "100219.213000",
    "100221.213000",
    "100223.213000",
    "100225.212000",
    "100227.213000",
    "100229.214000",
    "100231.232000",
    "100233.213000",
    "100235.205000"
   ],
   "InstanceCreationTime": [
    "095405.718000",
    "095407.214000",
    "095409.213000",
    "095411.213000",
    "095413.214000",
    "095415.212000",
    "095417.212000",
    "095419.213000",
    "095421.213000",
    "095423.213000",
    "095425.214000",
    "095427.213000",
    "095429.214000",
    "095431.213000",
    "095433.212000",
    "095435.214000",
    "095437.214000",
    "095439.213000",
    "095441.213000",
    "095443.214000",
    "095445.213000",
    "095447.214000",
    "095449.213000",
    "095451.212000",
    "095453.213000",
    "095455.213000",
    "095457.213000",
    "095459.214000",
    "095501.213000",
    "095503.213000",
    "095505.214000",
    "095507.212000",
    "095509.213000",
    "095511.213000",
    "095513.213000",
    "095515.213000",
    "095517.214000",
    "095519.213000",
    "095521.214000",
    "095523.213000",
    "095525.212000",
    "095527.212000",
    "095529.214000",
    "095531.213000",
    "095533.213000",
    "095535.214000",
    "095537.213000",
    "095539.213000",
    "095541.212000",
    "095543.212000",
    "095545.213000",
    "095547.214000",
    "095549.213000",
    "095551.213000",
    "095553.214000",
    "095555.213000",
    "095557.213000",
    "095559.212000",
    "095601.212000",
    "095603.213000",
    "095605.214000",
    "095607.214000",
    "095609.213000",
    "095611.214000",
    "095613.213000",
    "095615.213000",
    "095617.213000",
    "095619.212000",
    "095621.213000",
    "095623.213000",
    "095625.213000",
    "095627.213000",
    "095629.213000",
    "095631.213000",
    "095633.213000",
    "095635.212000",
    "095637.213000",
    "095639.213000",
    "095641.213000",
    "095643.213000",
    "095645.213000",
    "095647.213000",
    "095649.214000",
    "095651.212000",
    "095653.212000",
    "095655.214000",
    "095657.214000",
    "095659.213000",
    "095701.213000",
    "095703.213000",
    "095705.214000",
    "095707.214000",
    "095709.212000",
    "095711.213000",
    "095713.213000",
    "095715.214000",
    "095717.214000",
    "095719.213000",
    "095721.213000",
    "095723.214000",
    "095725.213000",
    "095727.213000",
    "095729.213000",
    "095731.213000",
    "095733.213000",
    "095735.213000",
    "095737.214000",
    "095739.213000",
    "095741.213000",
    "095743.213000",
    "095745.213000",
    "095747.213000",
    "095749.214000",
    "095751.214000",
    "095753.214000",
    "095755.213000",
    "095757.214000",
    "095759.214000",
    "095801.213000",
    "095803.212000",
    "095805.214000",
    "095807.213000",
    "095809.213000",
    "095811.213000",
    "095813.213000",
    "095815.213000",
    "095817.214000",
    "095819.213000",
    "095821.213000",
    "095823.214000",
    "095825.214000",
    "095827.214000",
    "095829.214000",
    "095831.214000",
    "095833.214000",
    "095835.214000",
    "095837.212000",
    "095839.212000",
    "095841.214000",
    "095843.213000",
    "095845.214000",
    "095847.213000",
    "095849.213000",
    "095851.213000",
    "095853.213000",
    "095855.212000",
    "095857.213000",
    "095859.213000",
    "095901.214000",
    "095903.213000",
    "095905.213000",
    "095907.214000",
    "095909.213000",
    "095911.213000",
    "095913.212000",
    "095915.214000",
    "095917.213000",
    "095919.213000",
    "095921.214000",
    "095923.213000",
    "095925.214000",
    "095927.214000",
    "095929.213000",
    "095931.213000",
    "095933.213000",
    "095935.213000",
    "095937.214000",
    "095939.213000",
    "095941.213000",
    "095943.214000",
    "095945.214000",
    "095947.213000",
    "095949.212000",
    "095951.213000",
    "095953.213000",
    "095955.213000",
    "095957.214000",
    "095959.214000",
    "100001.213000",
    "100003.213000",
    "100005.212000",
    "100007.213000",
    "100009.214000",
    "100011.213000",
    "100013.213000",
    "100015.213000",
    "100017.214000",
    "100019.214000",
    "100021.213000",
    "100023.213000",
    "100025.213000",
    "100027.214000",
    "100029.214000",
    "100031.214000",
    "100033.213000",
    "100035.214000",
    "100037.214000",
    "100039.212000",
    "100041.213000",
    "100043.214000",
    "100045.214000",
    "100047.213000",
    "100049.214000",
    "100051.214000",
    "100053.213000",
    "100055.214000",
    "100057.212000",
    "100059.212000",
    "100101.213000",
    "100103.213000",
    "100105.213000",
    "100107.214000",
    "100109.214000",
    "100111.214000",
    "100113.214000",
    "100115.213000",
    "100117.214000",
    "100119.214000",
    "100121.214000",
    "100123.213000",
    "100125.213000",
    "100127.214000",
    "100129.214000",
    "100131.213000",
    "100133.212000",
    "100135.214000",
    "100137.214000",
    "100139.213000",
    "100141.214000",
    "100143.213000",
    "100145.214000",
    "100147.214000",
    "100149.213000",
    "100151.212000",
    "100153.214000",
    "100155.214000",
    "100157.214000",
    "100159.214000",
    "100201.213000",
    "100203.214000",
    "100205.213000",
    "100207.212000",
    "100209.213000",
    "100211.214000",
    "100213.214000",
    "100215.213000",
    "100217.214000",
    "100219.213000",
    "100221.213000",
    "100223.213000",
    "100225.212000",
    "100227.213000",
    "100229.214000",
    "100231.232000",
    "100233.213000",
    "100235.205000"
   ],
   "InstanceNumber": [
    1,
    2,
    3,
    4,
    5,
    6,
    7,
    8,
    9,
    10,
    11,
    12,
    13,
    14,
    15,
    16,
    17,
    18,
    19,
    20,
    21,
    22,
    23,
    24,
    25,
    26,
    27,
    28,
    29,
    30,
    31,
    32,
    33,
    34,
    35,
    36,
    37,
    38,
    39,
    40,
    41,
    42,
    43,
    44,
    45,
    46,
    47,
    48,
    49,
    50,
    51,
    52,
    53,
    54,
    55,
    56,
    57,
    58,
    59,
    60,
    61,
    62,
    63,
    64,
    65,
    66,
    67,
    68,
    69,
    70,
    71,
    72,
    73,
    74,
    75,
    76,
    77,
    78,
    79,
    80,
    81,
    82,
    83,
    84,
    85,
    86,
    87,
    88,
    89,
    90,
    91,
    92,
    93,
    94,
    95,
    96,
    97,
    98,
    99,
    100,
    101,
    102,
    103,
    104,
    105,
    106,
    107,
    108,
    109,
    110,
    111,
    112,
    113,
    114,
    115,
    116,
    117,
    118,
    119,
    120,
    121,
    122,
    123,
    124,
    125,
    126,
    127,
    128,
    129,
    130,
    131,
    132,
    133,
    134,
    135,
    136,
    137,
    138,
    139,
    140,
    141,
    142,
    143,
    144,
    145,
    146,
    147,
    148,
    149,
    150,
    151,
    152,
    153,
    154,
    155,
    156,
    157,
    158,
    159,
    160,
    161,
    162,
    163,
    164,
    165,
    166,
    167,
    168,
    169,
    170,
    171,
    172,
    173,
    174,
    175,
    176,
    177,
    178,
    179,
    180,
    181,
    182,
    183,
    184,
    185,
    186,
    187,
    188,
    189,
    190,
    191,
    192,
    193,
    194,
    195,
    196,
    197,
    198,
    199,
    200,
    201,
    202,
    203,
    204,
    205,
    206,
    207,
    208,
    209,
    210,
    211,
    212,
    213,
    214,
    215,
    216,
    217,
    218,
    219,
    220,
    221,
    222,
    223,
    224,
    225,
    226,
    227,
    228,
    229,
    230,
    231,
    232,
    233,
    234,
    235,
    236,
    237,
    238,
    239,
    240,
    241,
    242,
    243,
    244,
    245,
    246,
    247,
    248,
    249,
    250,
    251,
    252,
    253,
    254,
    255,
    256
   ],
   "LargestImagePixelValue": [
    3470,
    3379,
    3376,
    3361,
    3384,
    3368,
    3391,
    3394,
    3383,
    3436,
    3390,
    3413,
    3402,
    3317,
    3404,
    3400,
    3350,
    3394,
    3397,
    3384,
    3371,
    3368,
    3363,
    3344,
    3330,
    3377,
    3352,
    3346,
    3363,
    3332,
    3348,
    3358,
    3329,
    3357,
    3378,
    3343,
    3372,
    3382,
    3368,
    3336,
    3354,
    3395,
    3401,
    3357,
    3423,
    3374,
    3393,
    3421,
    3398,
    3410,
    3412,
    3378,
    3397,
    3377,
    3368,
    3392,
    3392,
    3440,
    3382,
    3377,
    3385,
    3356,
    3397,
    3407,
    3380,
    3376,
    3400,
    3400,
    3379,
    3385,
    3418,
    3462,
    3387,
    3428,
    3441,
    3390,
    3406,
    3395,
    3421,
    3430,
    3395,
    3444,
    3412,
    3417,
    3398,
    3395,
    3440,
    3392,
    3443,
    3389,
    3425,
    3405,
    3405,
    3390,
    3422,
    3418,
    3428,
    3421,
    3441,
    3494,
    3433,
    3490,
    3463,
    3427,
    3450,
    3465,
    3466,
    3473,
    3432,
    3430,
    3469,
    3450,
    3475,
    3439,
    3372,
    3440,
    3467,
    3425,
    3493,
    3446,
    3486,
    3562,
    3518,
    3495,
    3510,
    3515,
    3544,
    3502,
    3513,
    3527,
    3496,
    3464,
    3491,
    3497,
    3399,
    3474,
    3513,
    3491,
    3364,
    3349,
    3337,
    3402,
    3404,
    3417,
    3422,
    3408,
    3396,
    3449,
    3417,
    3461,
    3545,
    3474,
    3462,
    3467,
    3442,
    3594,
    3500,
    3509,
    3469,
    3433,
    3410,
    3416,
    3482,
    3440,
    3463,
    3430,
    3440,
    3483,
    3492,
    3483,
    3544,
    3520,
    3565,
    3540,
    3478,
    3579,
    3522,
    3561,
    3542,
    3570,
    3543,
    3538,
    3577,
    3554,
    3566,
    3620,
    3622,
    3580,
    3613,
    3595,
    3614,
    3579,
    3548,
    3602,
    3571,
    3578,
    3578,
    3551,
    3582,
    3555,
    3593,
    3597,
    3604,
    3615,
    3591,
    3571,
    3648,
    3587,
    3580,
    3607,
    3579,
    3630,
    3634,
    3606,
    3637,
    3610,
    3618,
    3562,
    3639,
    3600,
    3628,
    3576,
    3633,
    3519,
    3565,
    3477,
    3521,
    3525,
    3504,
    3577,
    3511,
    3469,
    3545,
    3474,
    3546,
    3420,
    3447,
    3464,
    3466,
    3505,
    3490,
    3503,
    3463,
    3468,
    3458,
    3468,
    3448,
    3464,
    3456,
    3452,
    3487,
    3481,
    3463,
    3459,
    3523,
    3743
   ],
   "WindowCenter": [
    794.0,
    791.0,
    791.0,
    790.0,
    791.0,
    791.0,
    790.0,
    790.0,
    790.0,
    791.0,
    791.0,
    791.0,
    791.0,
    790.0,
    791.0,
    791.0,
    791.0,
    792.0,
    793.0,
    793.0,
    793.0,
    793.0,
    793.0,
    794.0,
    794.0,
    796.0,
    795.0,
    795.0,
    795.0,
    795.0,
    794.0,
    794.0,
    792.0,
    791.0,
    791.0,
    791.0,
    791.0,
    790.0,
    791.0,
    791.0,
    790.0,
    789.0,
    789.0,
    789.0,
    788.0,
    787.0,
    787.0,
    787.0,
    787.0,
    788.0,
    789.0,
    791.0,
    792.0,
    793.0,
    793.0,
    794.0,
    792.0,
    793.0,
    793.0,
    793.0,
    793.0,
    792.0,
    792.0,
    792.0,
    790.0,
    791.0,
    791.0,
    791.0,
    790.0,
    790.0,
    790.0,
    792.0,
    793.0,
    794.0,
    794.0,
    794.0,
    792.0,
    791.0,
    791.0,
    790.0,
    791.0,
    792.0,
    794.0,
    795.0,
    794.0,
    795.0,
    793.0,
    794.0,
    793.0,
    792.0,
    792.0,
    792.0,
    791.0,
    792.0,
    791.0,
    791.0,
    791.0,
    792.0,
    794.0,
    796.0,
    795.0,
    794.0,
    791.0,
    789.0,
    788.0,
    786.0,
    784.0,
    785.0,
    786.0,
    786.0,
    785.0,
    786.0,
    784.0,
    784.0,
    783.0,
    782.0,
    782.0,
    781.0,
    782.0,
    783.0,
    787.0,
    788.0,
    789.0,
    787.0,
    784.0,
    785.0,
    786.0,
