{
 "AcquisitionMatrixPE": 100,
 "AcquisitionNumber": 1,
 "AcquisitionTime": "16:47:56.615000",
 "BandwidthPerPixelPhaseEncode": 18.519,
 "BaseResolution": 100,
 "BodyPartExamined": "BRAIN",
 "ConsistencyInfo": "N4_VE11C_LATEST_20160120",
 "ConversionSoftware": "dcm2niix",
 "ConversionSoftwareVersion": "v1.0.20180622 GCC4.9.2",
 "DerivedVendorReportedEchoSpacing": 0.000539986,
 "DeviceSerialNumber": "166078",
 "DwellTime": 2.1e-06,
 "EchoTime": 0.034,
 "EchoTrainLength": 100,
 "EffectiveEchoSpacing": 0.000539986,
 "FlipAngle": 90,
 "ImageOrientationPatientDICOM": [
  1,
  0,
  0,
  0,
  0.999781,
  -0.0209424
 ],
 "ImageType": [
  "ORIGINAL",
  "PRIMARY",
  "M",
  "ND",
  "MOSAIC"
 ],
 "InPlanePhaseEncodingDirectionDICOM": "COL",
 "InstitutionAddress": "Street_StreetNo_Bei_Jing_District_CN_ZIP",
 "InstitutionName": "BeiJing_Normal_University",
 "InstitutionalDepartmentName": "Department",
 "MRAcquisitionType": "2D",
 "MagneticFieldStrength": 3,
 "Manufacturer": "Siemens",
 "ManufacturersModelName": "Prisma",
 "Modality": "MR",
 "MultibandAccelerationFactor": 3,
 "PartialFourier": 1,
 "PatientPosition": "HFS",
 "PercentPhaseFOV": 100,
 "PhaseEncodingDirection": "j-",
 "PhaseEncodingSteps": 100,
 "PhaseResolution": 1,
 "PixelBandwidth": 2380,
 "ProcedureStepDescription": "BNU_P2018_64CH_Zhen.ZongLei",
 "ProtocolName": "bold_100x100_s3_2x2x2_cat_150",
 "PulseSequenceDetails": "%SiemensSeq%_ep2d_bold",
 "ReceiveCoilActiveElements": "HC1-7;NC1",
 "ReceiveCoilName": "HeadNeck_64",
 "ReconMatrixPE": 100,
 "RepetitionTime": 2,
 "SAR": 0.0766486,
 "ScanOptions": "FS",
 "ScanningSequence": "EP",
 "SequenceName": "_epfid2d1_100",
 "SequenceVariant": "SK",
 "SeriesDescription": "bold_100x100_s3_2x2x2_cat_150",
 "SeriesNumber": 18,
 "ShimSetting": [
  -5450,
  -11528,
  -1197,
  543,
  14,
  -244,
  22,
  63
 ],
 "SliceThickness": 2,
 "SliceTiming": [
  1.485,
  0,
  0.99,
  0.0825,
  1.0725,
  0.165,
  1.155,
  0.2475,
  1.2375,
  0.33,
  1.32,
  0.4125,
  1.4025,
  0.5775,
  1.5675,
  0.66,
  1.65,
  0.7425,
  1.7325,
  0.825,
  1.815,
  0.9075,
  1.8975,
  0.495,
  1.485,
  0,
  0.99,
  0.0825,
  1.0725,
  0.165,
  1.155,
  0.2475,
  1.2375,
  0.33,
  1.32,
  0.4125,
  1.4025,
  0.5775,
  1.5675,
  0.66,
  1.65,
  0.7425,
  1.7325,
  0.825,
  1.815,
  0.9075,
  1.8975,
  0.495,
  1.485,
  0,
  0.99,
  0.0825,
  1.0725,
  0.165,
  1.155,
  0.2475,
  1.2375,
  0.33,
  1.32,
  0.4125,
  1.4025,
  0.5775,
  1.5675,
  0.66,
  1.65,
  0.7425,
  1.7325,
  0.825,
  1.815,
  0.9075,
  1.8975,
  0.495
 ],
 "SoftwareVersions": "syngo_MR_E11",
 "SpacingBetweenSlices": 2,
 "StationName": "AWP166078",
 "TaskName": "floc",
 "TotalReadoutTime": 0.0534586,
 "TxRefAmp": 209.645,
 "dcmmeta_affine": [
  [
   -2.0,
   0.0,
   0.0,
   100.67469787597656
  ],
  [
   0.0,
   1.9995613098144531,
   -0.04188483953475952,
   -82.38557434082031
  ],
  [
   0.0,
   0.04188483953475952,
   1.9995613098144531,
   -38.7428092956543
  ],
  [
   0.0,
   0.0,
   0.0,
   1.0
  ]
 ],
 "dcmmeta_reorient_transform": [
  [
   0.0,
   -1.0,
   0.0,
   99.0
  ],
  [
   1.0,
   0.0,
   0.0,
   0.0
  ],
  [
   0.0,
   0.0,
   1.0,
   0.0
  ],
  [
   0.0,
   0.0,
   0.0,
   1.0
  ]
 ],
 "dcmmeta_shape": [
  100,
  100,
  72,
  150
 ],
 "dcmmeta_slice_dim": 2,
 "dcmmeta_version": 0.6,
 "global": {
  "const": {
   "AcquisitionMatrix": [
    100,
    0,
    0,
    100
   ],
   "AngioFlag": "N",
   "BitsAllocated": 16,
   "BitsStored": 12,
   "BodyPartExamined": "BRAIN",
   "Columns": 900,
   "EchoNumbers": 1,
   "EchoTime": 34.0,
   "EchoTrainLength": 100,
   "FlipAngle": 90.0,
   "HighBit": 11,
   "ImageOrientationPatient": [
    1.0,
    0.0,
    0.0,
    0.0,
    0.9997806834792,
    -0.0209424196753
   ],
   "ImagePositionPatient": [
    -900.67469877005,
    -915.39555069341,
    -17.842274867905
   ],
   "ImageType": [
    "ORIGINAL",
    "PRIMARY",
    "M",
    "ND",
    "MOSAIC"
   ],
   "ImagedNucleus": "1H",
   "ImagingFrequency": 123.257722,
   "InPlanePhaseEncodingDirection": "COL",
   "MRAcquisitionType": "2D",
   "MagneticFieldStrength": 3.0,
   "Manufacturer": "SIEMENS",
   "ManufacturerModelName": "Prisma",
   "Modality": "MR",
   "NumberOfAverages": 1.0,
   "NumberOfPhaseEncodingSteps": 100,
   "PercentPhaseFieldOfView": 100.0,
   "PercentSampling": 100.0,
   "PerformedProcedureStepStartTime": "144707.790000",
   "PhotometricInterpretation": "MONOCHROME2",
   "PixelBandwidth": 2380.0,
   "PixelRepresentation": 0,
   "PixelSpacing": [
    2.0,
    2.0
   ],
   "ProtocolName": "bold_100x100_s3_2x2x2_cat_150",
   "RepetitionTime": 2000.0,
   "Rows": 900,
   "SAR": 0.07664859823314,
   "SamplesPerPixel": 1,
   "ScanOptions": "FS",
   "ScanningSequence": "EP",
   "SequenceName": "*epfid2d1_100",
   "SequenceVariant": "SK",
   "SeriesDescription": "bold_100x100_s3_2x2x2_cat_150",
   "SeriesNumber": 18,
   "SeriesTime": "164759.567000",
   "SliceLocation": -37.00895955379,
   "SliceThickness": 2.0,
   "SmallestImagePixelValue": 0,
   "SoftwareVersions": "syngo MR E11",
   "SpacingBetweenSlices": 1.9999999965712,
   "SpecificCharacterSet": "ISO_IR 100",
   "StudyID": "1",
   "StudyTime": "144707.690000",
   "TransmitCoilName": "Body",
   "VariableFlipAngleFlag": "N",
   "WindowCenterWidthExplanation": "Algo1",
   "dBdt": 0.0
  },
  "slices": {}
 },
 "time": {
  "samples": {
   "AcquisitionNumber": [
    1,
    2,
    3,
    4,
    5,
    6,
    7,
    8,
    9,
    10,
    11,
    12,
    13,
    14,
    15,
    16,
    17,
    18,
    19,
    20,
    21,
    22,
    23,
    24,
    25,
    26,
    27,
    28,
    29,
    30,
    31,
    32,
    33,
    34,
    35,
    36,
    37,
    38,
    39,
    40,
    41,
    42,
    43,
    44,
    45,
    46,
    47,
    48,
    49,
    50,
    51,
    52,
    53,
    54,
    55,
    56,
    57,
    58,
    59,
    60,
    61,
    62,
    63,
    64,
    65,
    66,
    67,
    68,
    69,
    70,
    71,
    72,
    73,
    74,
    75,
    76,
    77,
    78,
    79,
    80,
    81,
    82,
    83,
    84,
    85,
    86,
    87,
    88,
    89,
    90,
    91,
    92,
    93,
    94,
    95,
    96,
    97,
    98,
    99,
    100,
    101,
    102,
    103,
    104,
    105,
    106,
    107,
    108,
    109,
    110,
    111,
    112,
    113,
    114,
    115,
    116,
    117,
    118,
    119,
    120,
    121,
    122,
    123,
    124,
    125,
    126,
    127,
    128,
    129,
    130,
    131,
    132,
    133,
    134,
    135,
    136,
    137,
    138,
    139,
    140,
    141,
    142,
    143,
    144,
    145,
    146,
    147,
    148,
    149,
    150
   ],
   "AcquisitionTime": [
    "164756.615000",
    "164758.615000",
    "164800.615000",
    "164802.615000",
    "164804.615000",
    "164806.615000",
    "164808.615000",
    "164810.615000",
    "164812.615000",
    "164814.615000",
    "164816.615000",
    "164818.615000",
    "164820.615000",
    "164822.615000",
    "164824.615000",
    "164826.615000",
    "164828.615000",
    "164830.615000",
    "164832.615000",
    "164834.615000",
    "164836.615000",
    "164838.615000",
    "164840.615000",
    "164842.615000",
    "164844.615000",
    "164846.615000",
    "164848.615000",
    "164850.615000",
    "164852.615000",
    "164854.615000",
    "164856.615000",
    "164858.615000",
    "164900.615000",
    "164902.615000",
    "164904.615000",
    "164906.615000",
    "164908.615000",
    "164910.615000",
    "164912.615000",
    "164914.615000",
    "164916.615000",
    "164918.615000",
    "164920.615000",
    "164922.615000",
    "164924.615000",
    "164926.615000",
    "164928.615000",
    "164930.615000",
    "164932.615000",
    "164934.615000",
    "164936.615000",
    "164938.615000",
    "164940.615000",
    "164942.615000",
    "164944.615000",
    "164946.615000",
    "164948.615000",
    "164950.615000",
    "164952.615000",
    "164954.615000",
    "164956.615000",
    "164958.615000",
    "165000.615000",
    "165002.615000",
    "165004.615000",
    "165006.615000",
    "165008.615000",
    "165010.615000",
    "165012.615000",
    "165014.615000",
    "165016.615000",
    "165018.615000",
    "165020.615000",
    "165022.615000",
    "165024.615000",
    "165026.615000",
    "165028.615000",
    "165030.615000",
    "165032.615000",
    "165034.615000",
    "165036.615000",
    "165038.615000",
    "165040.615000",
    "165042.615000",
    "165044.615000",
    "165046.615000",
    "165048.615000",
    "165050.615000",
    "165052.615000",
    "165054.615000",
    "165056.615000",
    "165058.615000",
    "165100.615000",
    "165102.615000",
    "165104.615000",
    "165106.615000",
    "165108.615000",
    "165110.615000",
    "165112.615000",
    "165114.615000",
    "165116.615000",
    "165118.615000",
    "165120.615000",
    "165122.615000",
    "165124.615000",
    "165126.615000",
    "165128.615000",
    "165130.615000",
    "165132.615000",
    "165134.615000",
    "165136.615000",
    "165138.615000",
    "165140.615000",
    "165142.615000",
    "165144.615000",
    "165146.615000",
    "165148.615000",
    "165150.615000",
    "165152.615000",
    "165154.615000",
    "165156.615000",
    "165158.615000",
    "165200.615000",
    "165202.615000",
    "165204.615000",
    "165206.615000",
    "165208.615000",
    "165210.615000",
    "165212.615000",
    "165214.615000",
    "165216.615000",
    "165218.615000",
    "165220.615000",
    "165222.615000",
    "165224.615000",
    "165226.615000",
    "165228.615000",
    "165230.615000",
    "165232.615000",
    "165234.615000",
    "165236.615000",
    "165238.615000",
    "165240.615000",
    "165242.615000",
    "165244.615000",
    "165246.615000",
    "165248.615000",
    "165250.615000",
    "165252.615000",
    "165254.615000"
   ],
   "ContentTime": [
    "164759.571000",
    "164801.068000",
    "164803.067000",
    "164805.067000",
    "164807.067000",
    "164809.066000",
    "164811.066000",
    "164813.066000",
    "164815.067000",
    "164817.066000",
    "164819.068000",
    "164821.068000",
    "164823.067000",
    "164825.067000",
    "164827.066000",
    "164829.066000",
    "164831.067000",
    "164833.066000",
    "164835.067000",
    "164837.067000",
    "164839.068000",
    "164841.067000",
    "164843.066000",
    "164845.066000",
    "164847.066000",
    "164849.067000",
    "164851.066000",
    "164853.067000",
    "164855.068000",
    "164857.066000",
    "164859.066000",
    "164901.067000",
    "164903.067000",
    "164905.067000",
    "164907.066000",
    "164909.066000",
    "164911.068000",
    "164913.068000",
    "164915.067000",
    "164917.066000",
    "164919.067000",
    "164921.066000",
    "164923.066000",
    "164925.067000",
    "164927.066000",
    "164929.068000",
    "164931.067000",
    "164933.067000",
    "164935.067000",
    "164937.066000",
    "164939.066000",
    "164941.066000",
    "164943.066000",
    "164945.067000",
    "164947.068000",
    "164949.067000",
    "164951.067000",
    "164953.066000",
    "164955.067000",
    "164957.066000",
    "164959.067000",
    "165001.067000",
    "165003.066000",
    "165005.068000",
    "165007.067000",
    "165009.066000",
    "165011.067000",
    "165013.066000",
    "165015.067000",
    "165017.067000",
    "165019.067000",
    "165021.068000",
    "165023.067000",
    "165025.066000",
    "165027.066000",
    "165029.067000",
    "165031.067000",
    "165033.066000",
    "165035.067000",
    "165037.066000",
    "165039.068000",
    "165041.068000",
    "165043.066000",
    "165045.066000",
    "165047.066000",
    "165049.066000",
    "165051.066000",
    "165053.067000",
    "165055.067000",
    "165057.067000",
    "165059.068000",
    "165101.066000",
    "165103.066000",
    "165105.066000",
    "165107.066000",
    "165109.067000",
    "165111.067000",
    "165113.067000",
    "165115.068000",
    "165117.067000",
    "165119.066000",
    "165121.066000",
    "165123.066000",
    "165125.066000",
    "165127.066000",
    "165129.067000",
    "165131.068000",
    "165133.068000",
    "165135.067000",
    "165137.066000",
    "165139.067000",
    "165141.066000",
    "165143.066000",
    "165145.066000",
    "165147.067000",
    "165149.068000",
    "165151.067000",
    "165153.067000",
    "165155.067000",
    "165157.067000",
    "165159.067000",
    "165201.066000",
    "165203.067000",
    "165205.067000",
    "165207.068000",
    "165209.067000",
    "165211.067000",
    "165213.066000",
    "165215.067000",
    "165217.067000",
    "165219.066000",
    "165221.067000",
    "165223.068000",
    "165225.068000",
    "165227.067000",
    "165229.067000",
    "165231.067000",
    "165233.066000",
    "165235.066000",
    "165237.067000",
    "165239.067000",
    "165241.068000",
    "165243.068000",
    "165245.067000",
    "165247.066000",
    "165249.067000",
    "165251.067000",
    "165253.066000",
    "165255.067000",
    "165256.611000"
   ],
   "InstanceCreationTime": [
    "164759.571000",
    "164801.068000",
    "164803.067000",
    "164805.067000",
    "164807.067000",
    "164809.066000",
    "164811.066000",
    "164813.066000",
    "164815.067000",
    "164817.066000",
    "164819.068000",
    "164821.068000",
    "164823.067000",
    "164825.067000",
    "164827.066000",
    "164829.066000",
    "164831.067000",
    "164833.066000",
    "164835.067000",
    "164837.067000",
    "164839.068000",
    "164841.067000",
    "164843.066000",
    "164845.066000",
    "164847.066000",
    "164849.067000",
    "164851.066000",
    "164853.067000",
    "164855.068000",
    "164857.066000",
    "164859.066000",
    "164901.067000",
    "164903.067000",
    "164905.067000",
    "164907.066000",
    "164909.066000",
    "164911.068000",
    "164913.068000",
    "164915.067000",
    "164917.066000",
    "164919.067000",
    "164921.066000",
    "164923.066000",
    "164925.067000",
    "164927.066000",
    "164929.068000",
    "164931.067000",
    "164933.067000",
    "164935.067000",
    "164937.066000",
    "164939.066000",
    "164941.066000",
    "164943.066000",
    "164945.067000",
    "164947.068000",
    "164949.067000",
    "164951.067000",
    "164953.066000",
    "164955.067000",
    "164957.066000",
    "164959.067000",
    "165001.067000",
    "165003.066000",
    "165005.068000",
    "165007.067000",
    "165009.066000",
    "165011.067000",
    "165013.066000",
    "165015.067000",
    "165017.067000",
    "165019.067000",
    "165021.068000",
    "165023.067000",
    "165025.066000",
    "165027.066000",
    "165029.067000",
    "165031.067000",
    "165033.066000",
    "165035.067000",
    "165037.066000",
    "165039.068000",
    "165041.068000",
    "165043.066000",
    "165045.066000",
    "165047.066000",
    "165049.066000",
    "165051.066000",
    "165053.067000",
    "165055.067000",
    "165057.067000",
    "165059.068000",
    "165101.066000",
    "165103.066000",
    "165105.066000",
    "165107.066000",
    "165109.067000",
    "165111.067000",
    "165113.067000",
    "165115.068000",
    "165117.067000",
    "165119.066000",
    "165121.066000",
    "165123.066000",
    "165125.066000",
    "165127.066000",
    "165129.067000",
    "165131.068000",
    "165133.068000",
    "165135.067000",
    "165137.066000",
    "165139.067000",
    "165141.066000",
    "165143.066000",
    "165145.066000",
    "165147.067000",
    "165149.068000",
    "165151.067000",
    "165153.067000",
    "165155.067000",
    "165157.067000",
    "165159.067000",
    "165201.066000",
    "165203.067000",
    "165205.067000",
    "165207.068000",
    "165209.067000",
    "165211.067000",
    "165213.066000",
    "165215.067000",
    "165217.067000",
    "165219.066000",
    "165221.067000",
    "165223.068000",
    "165225.068000",
    "165227.067000",
    "165229.067000",
    "165231.067000",
    "165233.066000",
    "165235.066000",
    "165237.067000",
    "165239.067000",
    "165241.068000",
    "165243.068000",
    "165245.067000",
    "165247.066000",
    "165249.067000",
    "165251.067000",
    "165253.066000",
    "165255.067000",
    "165256.611000"
   ],
   "InstanceNumber": [
    1,
    2,
    3,
    4,
    5,
    6,
    7,
    8,
    9,
    10,
    11,
    12,
    13,
    14,
    15,
    16,
    17,
    18,
    19,
    20,
    21,
    22,
    23,
    24,
    25,
    26,
    27,
    28,
    29,
    30,
    31,
    32,
    33,
    34,
    35,
    36,
    37,
    38,
    39,
    40,
    41,
    42,
    43,
    44,
    45,
    46,
    47,
    48,
    49,
    50,
    51,
    52,
    53,
    54,
    55,
    56,
    57,
    58,
    59,
    60,
    61,
    62,
    63,
    64,
    65,
    66,
    67,
    68,
    69,
    70,
    71,
    72,
    73,
    74,
    75,
    76,
    77,
    78,
    79,
    80,
    81,
    82,
    83,
    84,
    85,
    86,
    87,
    88,
    89,
    90,
    91,
    92,
    93,
    94,
    95,
    96,
    97,
    98,
    99,
    100,
    101,
    102,
    103,
    104,
    105,
    106,
    107,
    108,
    109,
    110,
    111,
    112,
    113,
    114,
    115,
    116,
    117,
    118,
    119,
    120,
    121,
    122,
    123,
    124,
    125,
    126,
    127,
    128,
    129,
    130,
    131,
    132,
    133,
    134,
    135,
    136,
    137,
    138,
    139,
    140,
    141,
    142,
    143,
    144,
    145,
    146,
    147,
    148,
    149,
    150
   ],
   "LargestImagePixelValue": [
    2735,
    2628,
    2641,
    2688,
    2664,
    2696,
    2717,
    2748,
    2754,
    2709,
    2720,
    2753,
    2710,
    2727,
    2742,
    2727,
    2731,
    2681,
    2718,
    2739,
    2682,
    2701,
    2759,
    2683,
    2776,
    2638,
    2645,
    2644,
    2653,
    2674,
    2676,
    2715,
    2675,
    2724,
    2730,
    2691,
    2713,
    2715,
    2701,
    2692,
    2700,
    2702,
    2704,
    2693,
    2734,
    2679,
    2706,
    2663,
    2690,
    2742,
    2693,
    2705,
    2728,
    2724,
    2711,
    2695,
    2665,
    2675,
    2640,
    2698,
    2739,
    2722,
    2725,
    2707,
    2700,
    2760,
    2726,
    2698,
    2752,
    2723,
    2724,
    2711,
    2694,
    2679,
    2740,
    2749,
    2775,
    2775,
    2699,
    2732,
    2747,
    2757,
    2755,
    2734,
    2766,
    2792,
    2753,
    2777,
    2797,
    2754,
    2722,
    2801,
    2742,
    2771,
    2968,
    2718,
    2708,
    2692,
    2734,
    2799,
    2808,
    2767,
    2728,
    2704,
    2733,
    2681,
    2752,
    2768,
    2768,
    2759,
    2733,
    2739,
    2790,
    2717,
    2739,
    2730,
    2706,
    2745,
    2740,
    2711,
    2743,
    2693,
    2711,
    2726,
    2700,
    2676,
    2746,
    2704,
    2720,
    2733,
    2727,
    2702,
    2707,
    2788,
    2734,
    2720,
    2749,
    2726,
    2729,
    2944,
    2713,
    2718,
    2713,
    2822,
    2723,
    2744,
    2730,
    2745,
    2726,
    2761
   ],
   "WindowCenter": [
    758.0,
    756.0,
    755.0,
    755.0,
    755.0,
    755.0,
    756.0,
    756.0,
    756.0,
    756.0,
    756.0,
    757.0,
    757.0,
    757.0,
    757.0,
    757.0,
    757.0,
    757.0,
    757.0,
    757.0,
    757.0,
    757.0,
    758.0,
    757.0,
    758.0,
    757.0,
    757.0,
    757.0,
    756.0,
    756.0,
    756.0,
    756.0,
    756.0,
    756.0,
    756.0,
    757.0,
    757.0,
    757.0,
    757.0,
    757.0,
    758.0,
    758.0,
    757.0,
    757.0,
    757.0,
    757.0,
    757.0,
    756.0,
    756.0,
    757.0,
    757.0,
    757.0,
    757.0,
    757.0,
    757.0,
    757.0,
    756.0,
    757.0,
    756.0,
    756.0,
    756.0,
    756.0,
    757.0,
    757.0,
    756.0,
    756.0,
    756.0,
    756.0,
    756.0,
    755.0,
    755.0,
    756.0,
    755.0,
    754.0,
    755.0,
    755.0,
    756.0,
    757.0,
    756.0,
    756.0,
    756.0,
    756.0,
    756.0,
    756.0,
    756.0,
    756.0,
    755.0,
    755.0,
    756.0,
    756.0,
    757.0,
    757.0,
    757.0,
    757.0,
    759.0,
    757.0,
    756.0,
    755.0,
    755.0,
    755.0,
    755.0,
    755.0,
    754.0,
    755.0,
    755.0,
    754.0,
    755.0,
    754.0,
    755.0,
    755.0,
    755.0,
    755.0,
    755.0,
    755.0,
    755.0,
    756.0,
    756.0,
    756.0,
    755.0,
    755.0,
    756.0,
    755.0,
    755.0,
    756.0,
    756.0,
    756.0,
    756.0,
    756.0,
    755.0,
    756.0,
    756.0,
    755.0,
    755.0,
    756.0,
    756.0,
    756.0,
    755.0,
    755.0,
    756.0,
    758.0,
    756.0,
    756.0,
    755.0,
    756.0,
    755.0,
    756.0,
    756.0,
    755.0,
    755.0,
    755.0
   ],
   "WindowWidth": [
    1635.0,
    1628.0,
    1625.0,
    1625.0,
    1624.0,
    1626.0,
    1627.0,
    1627.0,
    1629.0,
    1629.0,
    1629.0,
    1629.0,
    1629.0,
    1629.0,
    1630.0,
    1630.0,
    1631.0,
    1631.0,
    1631.0,
    1630.0,
    1629.0,
    1632.0,
    1634.0,
    1630.0,
    1633.0,
    1631.0,
    1632.0,
    1631.0,
    1629.0,
    1629.0,
    1628.0,
    1629.0,
    1628.0,
    1628.0,
    1629.0,
    1629.0,
    1631.0,
    1631.0,
    1630.0,
    1631.0,
    1632.0,
    1632.0,
    1630.0,
    1630.0,
    1631.0,
    1631.0,
    1631.0,
    1628.0,
    1628.0,
    1631.0,
    1631.0,
    1630.0,
    1631.0,
    1631.0,
    1630.0,
    1629.0,
    1628.0,
    1629.0,
    1629.0,
    1628.0,
    1628.0,
    1627.0,
    1630.0,
    1629.0,
    1627.0,
    1628.0,
    1627.0,
    1626.0,
    1627.0,
    1625.0,
    1625.0,
    1626.0,
    1624.0,
    1623.0,
    1624.0,
    1626.0,
    1628.0,
    1629.0,
    1628.0,
    1628.0,
    1627.0,
    1626.0,
    1626.0,
    1628.0,
    1628.0,
    1627.0,
    1625.0,
    1625.0,
    1627.0,
    1628.0,
    1629.0,
    1631.0,
    1629.0,
    1630.0,
    1635.0,
    1628.0,
    1626.0,
    1625.0,
    1624.0,
    1624.0,
    1625.0,
    1623.0,
    1623.0,
    1623.0,
    1625.0,
    1623.0,
    1624.0,
    1623.0,
    1624.0,
    1625.0,
    1625.0,
    1625.0,
    1625.0,
    1625.0,
    1626.0,
    1628.0,
    1626.0,
    1626.0,
    1625.0,
    1625.0,
    1627.0,
    1626.0,
    1625.0,
    1627.0,
    1627.0,
    1627.0,
    1628.0,
    1626.0,
    1626.0,
    1627.0,
    1627.0,
    1625.0,
    1624.0,
    1627.0,
    1627.0,
    1626.0,
    1625.0,
    1624.0,
    1626.0,
    1634.0,
    1628.0,
    1626.0,
    1625.0,
    1627.0,
    1626.0,
    1626.0,
    1627.0,
    1625.0,
    1623.0,
    1623.0
   ]
  },
  "slices": {}
 }
}