{
 "AcquisitionMatrixPE": 100,
 "AcquisitionNumber": 1,
 "AcquisitionTime": "16:08:45.197500",
 "BandwidthPerPixelPhaseEncode": 18.519,
 "BaseResolution": 100,
 "BodyPartExamined": "BRAIN",
 "ConsistencyInfo": "N4_VE11C_LATEST_20160120",
 "ConversionSoftware": "dcm2niix",
 "ConversionSoftwareVersion": "v1.0.20180622 GCC4.9.2",
 "DerivedVendorReportedEchoSpacing": 0.000539986,
 "DeviceSerialNumber": "166078",
 "DwellTime": 2.1e-06,
 "EchoTime": 0.034,
 "EchoTrainLength": 100,
 "EffectiveEchoSpacing": 0.000539986,
 "FlipAngle": 90,
 "ImageOrientationPatientDICOM": [
  0.999864,
  -0.0133867,
  0.00958516,
  0.0139616,
  0.997937,
  -0.0626628
 ],
 "ImageType": [
  "ORIGINAL",
  "PRIMARY",
  "M",
  "ND",
  "MOSAIC"
 ],
 "InPlanePhaseEncodingDirectionDICOM": "COL",
 "InstitutionAddress": "Street_StreetNo_Bei_Jing_District_CN_ZIP",
 "InstitutionName": "BeiJing_Normal_University",
 "InstitutionalDepartmentName": "Department",
 "MRAcquisitionType": "2D",
 "MagneticFieldStrength": 3,
 "Manufacturer": "Siemens",
 "ManufacturersModelName": "Prisma",
 "Modality": "MR",
 "MultibandAccelerationFactor": 3,
 "PartialFourier": 1,
 "PatientPosition": "HFS",
 "PercentPhaseFOV": 100,
 "PhaseEncodingDirection": "j-",
 "PhaseEncodingSteps": 100,
 "PhaseResolution": 1,
 "PixelBandwidth": 2380,
 "ProcedureStepDescription": "BNU_P2018_64CH_Zhen.ZongLei",
 "ProtocolName": "bold_100x100_s3_2x2x2_cat_150",
 "PulseSequenceDetails": "%SiemensSeq%_ep2d_bold",
 "ReceiveCoilActiveElements": "HC1-7;NC1",
 "ReceiveCoilName": "HeadNeck_64",
 "ReconMatrixPE": 100,
 "RepetitionTime": 2,
 "SAR": 0.0722816,
 "ScanOptions": "FS",
 "ScanningSequence": "EP",
 "SequenceName": "_epfid2d1_100",
 "SequenceVariant": "SK",
 "SeriesDescription": "bold_100x100_s3_2x2x2_cat_150",
 "SeriesNumber": 16,
 "ShimSetting": [
  -5459,
  -11506,
  -1280,
  608,
  -4,
  -239,
  -16,
  57
 ],
 "SliceThickness": 2,
 "SliceTiming": [
  1.485,
  0,
  0.99,
  0.0825,
  1.0725,
  0.165,
  1.155,
  0.2475,
  1.2375,
  0.33,
  1.32,
  0.4125,
  1.4025,
  0.5775,
  1.5675,
  0.66,
  1.65,
  0.7425,
  1.7325,
  0.825,
  1.815,
  0.9075,
  1.8975,
  0.495,
  1.485,
  0,
  0.99,
  0.0825,
  1.0725,
  0.165,
  1.155,
  0.2475,
  1.2375,
  0.33,
  1.32,
  0.4125,
  1.4025,
  0.5775,
  1.5675,
  0.66,
  1.65,
  0.7425,
  1.7325,
  0.825,
  1.815,
  0.9075,
  1.8975,
  0.495,
  1.485,
  0,
  0.99,
  0.0825,
  1.0725,
  0.165,
  1.155,
  0.2475,
  1.2375,
  0.33,
  1.32,
  0.4125,
  1.4025,
  0.5775,
  1.5675,
  0.66,
  1.65,
  0.7425,
  1.7325,
  0.825,
  1.815,
  0.9075,
  1.8975,
  0.495
 ],
 "SoftwareVersions": "syngo_MR_E11",
 "SpacingBetweenSlices": 2,
 "StationName": "AWP166078",
 "TaskName": "floc",
 "TotalReadoutTime": 0.0534586,
 "TxRefAmp": 210.95,
 "dcmmeta_affine": [
  [
   -1.9997289180755615,
   0.027923252433538437,
   0.01745307445526123,
   97.99861907958984
  ],
  [
   0.02677343226969242,
   1.9958741664886475,
   -0.12557625770568848,
   -79.12895965576172
  ],
  [
   0.01917031966149807,
   0.12532559037208557,
   1.995977520942688,
   -77.33649444580078
  ],
  [
   0.0,
   0.0,
   0.0,
   1.0
  ]
 ],
 "dcmmeta_reorient_transform": [
  [
   0.0,
   -1.0,
   0.0,
   99.0
  ],
  [
   1.0,
   0.0,
   0.0,
   0.0
  ],
  [
   0.0,
   0.0,
   1.0,
   0.0
  ],
  [
   0.0,
   0.0,
   0.0,
   1.0
  ]
 ],
 "dcmmeta_shape": [
  100,
  100,
  72,
  150
 ],
 "dcmmeta_slice_dim": 2,
 "dcmmeta_version": 0.6,
 "global": {
  "const": {
   "AcquisitionMatrix": [
    100,
    0,
    0,
    100
   ],
   "AngioFlag": "N",
   "BitsAllocated": 16,
   "BitsStored": 12,
   "BodyPartExamined": "BRAIN",
   "Columns": 900,
   "EchoNumbers": 1,
   "EchoTime": 34.0,
   "EchoTrainLength": 100,
   "FlipAngle": 90.0,
   "HighBit": 11,
   "ImageOrientationPatient": [
    0.99986445108199,
    -0.0133867164992,
    0.00958515956505,
    0.01396162637604,
    0.99793709563415,
    -0.0626627971465
   ],
   "ImagePositionPatient": [
    -911.82388568827,
    -906.10289050738,
    -22.467148576603
   ],
   "ImageType": [
    "ORIGINAL",
    "PRIMARY",
    "M",
    "ND",
    "MOSAIC"
   ],
   "ImagedNucleus": "1H",
   "ImagingFrequency": 123.257769,
   "InPlanePhaseEncodingDirection": "COL",
   "MRAcquisitionType": "2D",
   "MagneticFieldStrength": 3.0,
   "Manufacturer": "SIEMENS",
   "ManufacturerModelName": "Prisma",
   "Modality": "MR",
   "NumberOfAverages": 1.0,
   "NumberOfPhaseEncodingSteps": 100,
   "PercentPhaseFieldOfView": 100.0,
   "PercentSampling": 100.0,
   "PerformedProcedureStepStartTime": "145752.075000",
   "PhotometricInterpretation": "MONOCHROME2",
   "PixelBandwidth": 2380.0,
   "PixelRepresentation": 0,
   "PixelSpacing": [
    2.0,
    2.0
   ],
   "ProtocolName": "bold_100x100_s3_2x2x2_cat_150",
   "RepetitionTime": 2000.0,
   "Rows": 900,
   "SAR": 0.07228158101174,
   "SamplesPerPixel": 1,
   "ScanOptions": "FS",
   "ScanningSequence": "EP",
   "SequenceName": "*epfid2d1_100",
   "SequenceVariant": "SK",
   "SeriesDescription": "bold_100x100_s3_2x2x2_cat_150",
   "SeriesNumber": 16,
   "SeriesTime": "160847.369000",
   "SliceLocation": -71.357399932637,
   "SliceThickness": 2.0,
   "SmallestImagePixelValue": 0,
   "SoftwareVersions": "syngo MR E11",
   "SpacingBetweenSlices": 2.0000000292461,
   "SpecificCharacterSet": "ISO_IR 100",
   "StudyID": "1",
   "StudyTime": "145751.984000",
   "TransmitCoilName": "Body",
   "VariableFlipAngleFlag": "N",
   "WindowCenterWidthExplanation": "Algo1",
   "dBdt": 0.0
  },
  "slices": {}
 },
 "time": {
  "samples": {
   "AcquisitionNumber": [
    1,
    2,
    3,
    4,
    5,
    6,
    7,
    8,
    9,
    10,
    11,
    12,
    13,
    14,
    15,
    16,
    17,
    18,
    19,
    20,
    21,
    22,
    23,
    24,
    25,
    26,
    27,
    28,
    29,
    30,
    31,
    32,
    33,
    34,
    35,
    36,
    37,
    38,
    39,
    40,
    41,
    42,
    43,
    44,
    45,
    46,
    47,
    48,
    49,
    50,
    51,
    52,
    53,
    54,
    55,
    56,
    57,
    58,
    59,
    60,
    61,
    62,
    63,
    64,
    65,
    66,
    67,
    68,
    69,
    70,
    71,
    72,
    73,
    74,
    75,
    76,
    77,
    78,
    79,
    80,
    81,
    82,
    83,
    84,
    85,
    86,
    87,
    88,
    89,
    90,
    91,
    92,
    93,
    94,
    95,
    96,
    97,
    98,
    99,
    100,
    101,
    102,
    103,
    104,
    105,
    106,
    107,
    108,
    109,
    110,
    111,
    112,
    113,
    114,
    115,
    116,
    117,
    118,
    119,
    120,
    121,
    122,
    123,
    124,
    125,
    126,
    127,
    128,
    129,
    130,
    131,
    132,
    133,
    134,
    135,
    136,
    137,
    138,
    139,
    140,
    141,
    142,
    143,
    144,
    145,
    146,
    147,
    148,
    149,
    150
   ],
   "AcquisitionTime": [
    "160845.197500",
    "160847.197500",
    "160849.197500",
    "160851.197500",
    "160853.197500",
    "160855.197500",
    "160857.197500",
    "160859.197500",
    "160901.197500",
    "160903.197500",
    "160905.197500",
    "160907.197500",
    "160909.197500",
    "160911.197500",
    "160913.197500",
    "160915.197500",
    "160917.197500",
    "160919.197500",
    "160921.197500",
    "160923.197500",
    "160925.197500",
    "160927.197500",
    "160929.197500",
    "160931.197500",
    "160933.197500",
    "160935.197500",
    "160937.197500",
    "160939.197500",
    "160941.197500",
    "160943.197500",
    "160945.197500",
    "160947.197500",
    "160949.197500",
    "160951.197500",
    "160953.197500",
    "160955.197500",
    "160957.197500",
    "160959.197500",
    "161001.197500",
    "161003.197500",
    "161005.197500",
    "161007.197500",
    "161009.197500",
    "161011.197500",
    "161013.197500",
    "161015.197500",
    "161017.197500",
    "161019.197500",
    "161021.197500",
    "161023.197500",
    "161025.197500",
    "161027.197500",
    "161029.197500",
    "161031.197500",
    "161033.197500",
    "161035.197500",
    "161037.197500",
    "161039.197500",
    "161041.197500",
    "161043.197500",
    "161045.197500",
    "161047.197500",
    "161049.197500",
    "161051.197500",
    "161053.197500",
    "161055.197500",
    "161057.197500",
    "161059.197500",
    "161101.197500",
    "161103.197500",
    "161105.197500",
    "161107.197500",
    "161109.197500",
    "161111.197500",
    "161113.197500",
    "161115.197500",
    "161117.197500",
    "161119.197500",
    "161121.197500",
    "161123.197500",
    "161125.197500",
    "161127.197500",
    "161129.197500",
    "161131.197500",
    "161133.197500",
    "161135.197500",
    "161137.197500",
    "161139.197500",
    "161141.197500",
    "161143.197500",
    "161145.197500",
    "161147.197500",
    "161149.197500",
    "161151.197500",
    "161153.197500",
    "161155.197500",
    "161157.197500",
    "161159.197500",
    "161201.197500",
    "161203.197500",
    "161205.197500",
    "161207.197500",
    "161209.197500",
    "161211.197500",
    "161213.197500",
    "161215.197500",
    "161217.197500",
    "161219.197500",
    "161221.197500",
    "161223.197500",
    "161225.197500",
    "161227.197500",
    "161229.197500",
    "161231.197500",
    "161233.197500",
    "161235.197500",
    "161237.197500",
    "161239.197500",
    "161241.197500",
    "161243.197500",
    "161245.197500",
    "161247.197500",
    "161249.197500",
    "161251.197500",
    "161253.197500",
    "161255.197500",
    "161257.197500",
    "161259.197500",
    "161301.197500",
    "161303.197500",
    "161305.197500",
    "161307.197500",
    "161309.197500",
    "161311.197500",
    "161313.197500",
    "161315.197500",
    "161317.197500",
    "161319.197500",
    "161321.197500",
    "161323.197500",
    "161325.197500",
    "161327.197500",
    "161329.197500",
    "161331.197500",
    "161333.197500",
    "161335.197500",
    "161337.197500",
    "161339.197500",
    "161341.197500",
    "161343.197500"
   ],
   "ContentTime": [
    "160847.372000",
    "160848.867000",
    "160850.867000",
    "160852.868000",
    "160854.867000",
    "160856.866000",
    "160858.868000",
    "160900.868000",
    "160902.867000",
    "160904.867000",
    "160906.868000",
    "160908.868000",
    "160910.866000",
    "160912.867000",
    "160914.867000",
    "160916.868000",
    "160918.868000",
    "160920.868000",
    "160922.867000",
    "160924.868000",
    "160926.868000",
    "160928.867000",
    "160930.866000",
    "160932.868000",
    "160934.867000",
    "160936.867000",
    "160938.867000",
    "160940.868000",
    "160942.868000",
    "160944.868000",
    "160946.866000",
    "160948.867000",
    "160950.868000",
    "160952.868000",
    "160954.868000",
    "160956.867000",
    "160958.867000",
    "161000.868000",
    "161002.868000",
    "161004.867000",
    "161006.867000",
    "161008.867000",
    "161010.868000",
    "161012.867000",
    "161014.867000",
    "161016.867000",
    "161018.867000",
    "161020.867000",
    "161022.866000",
    "161024.867000",
    "161026.867000",
    "161028.868000",
    "161030.868000",
    "161032.868000",
    "161034.868000",
    "161036.867000",
    "161038.866000",
    "161040.866000",
    "161042.867000",
    "161044.867000",
    "161046.867000",
    "161048.868000",
    "161050.868000",
    "161052.867000",
    "161054.867000",
    "161056.867000",
    "161058.867000",
    "161100.867000",
    "161102.867000",
    "161104.867000",
    "161106.868000",
    "161108.868000",
    "161110.867000",
    "161112.868000",
    "161114.867000",
    "161116.868000",
    "161118.867000",
    "161120.868000",
    "161122.868000",
    "161124.868000",
    "161126.868000",
    "161128.868000",
    "161130.866000",
    "161132.867000",
    "161134.868000",
    "161136.868000",
    "161138.868000",
    "161140.868000",
    "161142.867000",
    "161144.868000",
    "161146.868000",
    "161148.867000",
    "161150.866000",
    "161152.867000",
    "161154.868000",
    "161156.868000",
    "161158.868000",
    "161200.867000",
    "161202.868000",
    "161204.868000",
    "161206.867000",
    "161208.867000",
    "161210.868000",
    "161212.867000",
    "161214.868000",
    "161216.868000",
    "161218.868000",
    "161220.867000",
    "161222.867000",
    "161224.866000",
    "161226.868000",
    "161228.867000",
    "161230.867000",
    "161232.868000",
    "161234.868000",
    "161236.868000",
    "161238.868000",
    "161240.866000",
    "161242.867000",
    "161244.867000",
    "161246.867000",
    "161248.867000",
    "161250.868000",
    "161252.868000",
    "161254.868000",
    "161256.868000",
    "161258.867000",
    "161300.867000",
    "161302.868000",
    "161304.867000",
    "161306.867000",
    "161308.867000",
    "161310.868000",
    "161312.868000",
    "161314.868000",
    "161316.867000",
    "161318.867000",
    "161320.868000",
    "161322.868000",
    "161324.867000",
    "161326.867000",
    "161328.868000",
    "161330.867000",
    "161332.868000",
    "161334.866000",
    "161336.867000",
    "161338.868000",
    "161340.867000",
    "161342.868000",
    "161344.621000"
   ],
   "InstanceCreationTime": [
    "160847.372000",
    "160848.867000",
    "160850.867000",
    "160852.868000",
    "160854.867000",
    "160856.866000",
    "160858.868000",
    "160900.868000",
    "160902.867000",
    "160904.867000",
    "160906.868000",
    "160908.868000",
    "160910.866000",
    "160912.867000",
    "160914.867000",
    "160916.868000",
    "160918.868000",
    "160920.868000",
    "160922.867000",
    "160924.868000",
    "160926.868000",
    "160928.867000",
    "160930.866000",
    "160932.868000",
    "160934.867000",
    "160936.867000",
    "160938.867000",
    "160940.868000",
    "160942.868000",
    "160944.868000",
    "160946.866000",
    "160948.867000",
    "160950.868000",
    "160952.868000",
    "160954.868000",
    "160956.867000",
    "160958.867000",
    "161000.868000",
    "161002.868000",
    "161004.867000",
    "161006.867000",
    "161008.867000",
    "161010.868000",
    "161012.867000",
    "161014.867000",
    "161016.867000",
    "161018.867000",
    "161020.867000",
    "161022.866000",
    "161024.867000",
    "161026.867000",
    "161028.868000",
    "161030.868000",
    "161032.868000",
    "161034.868000",
    "161036.867000",
    "161038.866000",
    "161040.866000",
    "161042.867000",
    "161044.867000",
    "161046.867000",
    "161048.868000",
    "161050.868000",
    "161052.867000",
    "161054.867000",
    "161056.867000",
    "161058.867000",
    "161100.867000",
    "161102.867000",
    "161104.867000",
    "161106.868000",
    "161108.868000",
    "161110.867000",
    "161112.868000",
    "161114.867000",
    "161116.868000",
    "161118.867000",
    "161120.868000",
    "161122.868000",
    "161124.868000",
    "161126.868000",
    "161128.868000",
    "161130.866000",
    "161132.867000",
    "161134.868000",
    "161136.868000",
    "161138.868000",
    "161140.868000",
    "161142.867000",
    "161144.868000",
    "161146.868000",
    "161148.867000",
    "161150.866000",
    "161152.867000",
    "161154.868000",
    "161156.868000",
    "161158.868000",
    "161200.867000",
    "161202.868000",
    "161204.868000",
    "161206.867000",
    "161208.867000",
    "161210.868000",
    "161212.867000",
    "161214.868000",
    "161216.868000",
    "161218.868000",
    "161220.867000",
    "161222.867000",
    "161224.866000",
    "161226.868000",
    "161228.867000",
    "161230.867000",
    "161232.868000",
    "161234.868000",
    "161236.868000",
    "161238.868000",
    "161240.866000",
    "161242.867000",
    "161244.867000",
    "161246.867000",
    "161248.867000",
    "161250.868000",
    "161252.868000",
    "161254.868000",
    "161256.868000",
    "161258.867000",
    "161300.867000",
    "161302.868000",
    "161304.867000",
    "161306.867000",
    "161308.867000",
    "161310.868000",
    "161312.868000",
    "161314.868000",
    "161316.867000",
    "161318.867000",
    "161320.868000",
    "161322.868000",
    "161324.867000",
    "161326.867000",
    "161328.868000",
    "161330.867000",
    "161332.868000",
    "161334.866000",
    "161336.867000",
    "161338.868000",
    "161340.867000",
    "161342.868000",
    "161344.621000"
   ],
   "InstanceNumber": [
    1,
    2,
    3,
    4,
    5,
    6,
    7,
    8,
    9,
    10,
    11,
    12,
    13,
    14,
    15,
    16,
    17,
    18,
    19,
    20,
    21,
    22,
    23,
    24,
    25,
    26,
    27,
    28,
    29,
    30,
    31,
    32,
    33,
    34,
    35,
    36,
    37,
    38,
    39,
    40,
    41,
    42,
    43,
    44,
    45,
    46,
    47,
    48,
    49,
    50,
    51,
    52,
    53,
    54,
    55,
    56,
    57,
    58,
    59,
    60,
    61,
    62,
    63,
    64,
    65,
    66,
    67,
    68,
    69,
    70,
    71,
    72,
    73,
    74,
    75,
    76,
    77,
    78,
    79,
    80,
    81,
    82,
    83,
    84,
    85,
    86,
    87,
    88,
    89,
    90,
    91,
    92,
    93,
    94,
    95,
    96,
    97,
    98,
    99,
    100,
    101,
    102,
    103,
    104,
    105,
    106,
    107,
    108,
    109,
    110,
    111,
    112,
    113,
    114,
    115,
    116,
    117,
    118,
    119,
    120,
    121,
    122,
    123,
    124,
    125,
    126,
    127,
    128,
    129,
    130,
    131,
    132,
    133,
    134,
    135,
    136,
    137,
    138,
    139,
    140,
    141,
    142,
    143,
    144,
    145,
    146,
    147,
    148,
    149,
    150
   ],
   "LargestImagePixelValue": [
    2353,
    2325,
    2305,
    2303,
    2274,
    2313,
    2306,
    2370,
    2410,
    2314,
    2291,
    2347,
    2325,
    2375,
    2371,
    2376,
    2310,
    2315,
    2314,
    2276,
    2285,
    2279,
    2299,
    2322,
    2306,
    2279,
    2300,
    2272,
    2278,
    2290,
    2314,
    2305,
    2280,
    2283,
    2291,
    2306,
    2304,
    2328,
    2294,
    2324,
    2340,
    2309,
    2314,
    2304,
    2304,
    2313,
    2313,
    2310,
    2313,
    2322,
    2298,
    2312,
    2316,
    2332,
    2330,
    2303,
    2319,
    2284,
    2313,
    2303,
    2313,
    2325,
    2307,
    2291,
    2319,
    2286,
    2325,
    2297,
    2286,
    2299,
    2311,
    2331,
    2497,
    2312,
    2323,
    2307,
    2331,
    2315,
    2326,
    2320,
    2317,
    2307,
    2308,
    2298,
    2308,
    2298,
    2292,
    2317,
    2302,
    2311,
    2324,
    2308,
    2324,
    2323,
    2305,
    2339,
    2279,
    2323,
    2310,
    2300,
    2307,
    2304,
    2305,
    2315,
    2340,
    2319,
    2328,
    2321,
    2283,
    2306,
    2291,
    2300,
    2315,
    2308,
    2325,
    2324,
    2298,
    2333,
    2317,
    2299,
    2255,
    2457,
    2321,
    2307,
    2294,
    2285,
    2286,
    2338,
    2319,
    2298,
    2280,
    2285,
    2279,
    2288,
    2285,
    2320,
    2300,
    2296,
    2322,
    2323,
    2321,
    2314,
    2299,
    2291,
    2295,
    2337,
    2303,
    2274,
    2283,
    2312
   ],
   "WindowCenter": [
    726.0,
    725.0,
    725.0,
    725.0,
    724.0,
    724.0,
    725.0,
    726.0,
    727.0,
    726.0,
    726.0,
    726.0,
    725.0,
    725.0,
    725.0,
    726.0,
    725.0,
    724.0,
    724.0,
    723.0,
    723.0,
    724.0,
    725.0,
    725.0,
    725.0,
    724.0,
    725.0,
    725.0,
    726.0,
    726.0,
    726.0,
    725.0,
    724.0,
    724.0,
    724.0,
    725.0,
    725.0,
    725.0,
    724.0,
    724.0,
    725.0,
    725.0,
    725.0,
    725.0,
    726.0,
    727.0,
    725.0,
    724.0,
    724.0,
    725.0,
    725.0,
    725.0,
    725.0,
    726.0,
    726.0,
    725.0,
    725.0,
    725.0,
    725.0,
    726.0,
    727.0,
    726.0,
    725.0,
    725.0,
    725.0,
    725.0,
    726.0,
    726.0,
    726.0,
    727.0,
    727.0,
    727.0,
    729.0,
    726.0,
    727.0,
    726.0,
    726.0,
    726.0,
    727.0,
    728.0,
    727.0,
    726.0,
    726.0,
    727.0,
    726.0,
    726.0,
    726.0,
    726.0,
    726.0,
    726.0,
    726.0,
    726.0,
    727.0,
    726.0,
    725.0,
    725.0,
    725.0,
    725.0,
    726.0,
    726.0,
    726.0,
    726.0,
    726.0,
    726.0,
    726.0,
    725.0,
    725.0,
    726.0,
    725.0,
    725.0,
    725.0,
    725.0,
    727.0,
    726.0,
    726.0,
    726.0,
    726.0,
    727.0,
    726.0,
    724.0,
    724.0,
    727.0,
    726.0,
    725.0,
    725.0,
    725.0,
    726.0,
    727.0,
    726.0,
    725.0,
    724.0,
    725.0,
    725.0,
    724.0,
    725.0,
    727.0,
    726.0,
    726.0,
    727.0,
    727.0,
    727.0,
    727.0,
    726.0,
    727.0,
    726.0,
    726.0,
    725.0,
    726.0,
    726.0,
    726.0
   ],
   "WindowWidth": [
    1544.0,
    1543.0,
    1542.0,
    1541.0,
    1539.0,
    1539.0,
    1541.0,
    1544.0,
    1547.0,
    1545.0,
    1544.0,
    1544.0,
    1543.0,
    1542.0,
    1541.0,
    1544.0,
    1542.0,
    1540.0,
    1539.0,
    1537.0,
    1538.0,
    1541.0,
    1543.0,
    1543.0,
    1542.0,
    1541.0,
    1542.0,
    1542.0,
    1544.0,
    1544.0,
    1544.0,
    1542.0,
    1540.0,
    1539.0,
    1540.0,
    1541.0,
    1542.0,
    1543.0,
    1541.0,
    1540.0,
    1542.0,
    1542.0,
    1544.0,
    1543.0,
    1546.0,
    1546.0,
    1543.0,
    1540.0,
    1540.0,
    1543.0,
    1543.0,
    1542.0,
    1542.0,
    1544.0,
    1544.0,
    1542.0,
    1542.0,
    1541.0,
    1543.0,
    1546.0,
    1546.0,
    1544.0,
    1542.0,
    1542.0,
    1542.0,
    1543.0,
    1545.0,
    1545.0,
    1546.0,
    1547.0,
    1548.0,
    1548.0,
    1551.0,
    1546.0,
    1547.0,
    1546.0,
    1546.0,
    1546.0,
    1548.0,
    1549.0,
    1548.0,
    1546.0,
    1546.0,
    1548.0,
    1546.0,
    1545.0,
    1544.0,
    1545.0,
    1544.0,
    1545.0,
    1546.0,
    1545.0,
    1547.0,
    1546.0,
    1543.0,
    1543.0,
    1541.0,
    1544.0,
    1545.0,
    1545.0,
    1545.0,
    1544.0,
    1544.0,
    1545.0,
    1545.0,
    1543.0,
    1544.0,
    1544.0,
    1542.0,
    1543.0,
    1542.0,
    1543.0,
    1546.0,
    1545.0,
    1546.0,
    1546.0,
    1544.0,
    1547.0,
    1545.0,
    1541.0,
    1539.0,
    1547.0,
    1546.0,
    1543.0,
    1542.0,
    1543.0,
    1545.0,
    1548.0,
    1545.0,
    1543.0,
    1540.0,
    1541.0,
    1541.0,
    1540.0,
    1543.0,
    1547.0,
    1545.0,
    1545.0,
    1548.0,
    1548.0,
    1547.0,
    1546.0,
    1545.0,
    1547.0,
    1546.0,
    1545.0,
    1543.0,
    1544.0,
    1544.0,
    1545.0
   ]
  },
  "slices": {}
 }
}