{
  "AcquisitionMatrixPE": 100,
  "AcquisitionNumber": 1,
  "AcquisitionTime": "15:13:17.912500",
  "BandwidthPerPixelPhaseEncode": 18.519,
  "BaseResolution": 100,
  "BodyPartExamined": "BRAIN",
  "ConsistencyInfo": "N4_VE11C_LATEST_20160120",
  "ConversionSoftware": "dcm2niix",
  "ConversionSoftwareVersion": "v1.0.20180622 GCC4.9.2",
  "DerivedVendorReportedEchoSpacing": 0.000539986,
  "DeviceSerialNumber": "166078",
  "DwellTime": 2.1e-06,
  "EchoTime": 0.034,
  "EchoTrainLength": 100,
  "EffectiveEchoSpacing": 0.000539986,
  "FlipAngle": 90,
  "ImageOrientationPatientDICOM": [0.999864, -0.0133867, 0.00958516, 0.0139616, 0.997937, -0.0626628],
  "ImageType": [
    "ORIGINAL",
    "PRIMARY",
    "M",
    "ND",
    "MOSAIC"
],
  "InPlanePhaseEncodingDirectionDICOM": "COL",
  "InstitutionAddress": "Street_StreetNo_Bei_Jing_District_CN_ZIP",
  "InstitutionName": "BeiJing_Normal_University",
  "InstitutionalDepartmentName": "Department",
  "MRAcquisitionType": "2D",
  "MagneticFieldStrength": 3,
  "Manufacturer": "Siemens",
  "ManufacturersModelName": "Prisma",
  "Modality": "MR",
  "MultibandAccelerationFactor": 3,
  "PartialFourier": 1,
  "PatientPosition": "HFS",
  "PercentPhaseFOV": 100,
  "PhaseEncodingDirection": "j-",
  "PhaseEncodingSteps": 100,
  "PhaseResolution": 1,
  "PixelBandwidth": 2380,
  "ProcedureStepDescription": "BNU_P2018_64CH_Zhen.ZongLei",
  "ProtocolName": "bold_100x100_s3_2x2x2_cat_150",
  "PulseSequenceDetails": "%SiemensSeq%_ep2d_bold",
  "ReceiveCoilActiveElements": "HC1-7;NC1",
  "ReceiveCoilName": "HeadNeck_64",
  "ReconMatrixPE": 100,
  "RepetitionTime": 2,
  "SAR": 0.0722816,
  "ScanOptions": "FS",
  "ScanningSequence": "EP",
  "SequenceName": "_epfid2d1_100",
  "SequenceVariant": "SK",
  "SeriesDescription": "bold_100x100_s3_2x2x2_cat_150",
  "SeriesNumber": 5,
  "ShimSetting": [-5459, -11506, -1280, 608, -4, -239, -16, 57],
  "SliceThickness": 2,
  "SliceTiming": [1.485, 0, 0.99, 0.0825, 1.0725, 0.165, 1.155, 0.2475, 1.2375, 0.33, 1.32, 0.4125, 1.4025, 0.5775, 1.5675, 0.66, 1.65, 0.7425, 1.7325, 0.825, 1.815, 0.9075, 1.8975, 0.495, 1.485, 0, 0.99, 0.0825, 1.0725, 0.165, 1.155, 0.2475, 1.2375, 0.33, 1.32, 0.4125, 1.4025, 0.5775, 1.5675, 0.66, 1.65, 0.7425, 1.7325, 0.825, 1.815, 0.9075, 1.8975, 0.495, 1.485, 0, 0.99, 0.0825, 1.0725, 0.165, 1.155, 0.2475, 1.2375, 0.33, 1.32, 0.4125, 1.4025, 0.5775, 1.5675, 0.66, 1.65, 0.7425, 1.7325, 0.825, 1.815, 0.9075, 1.8975, 0.495],
  "SoftwareVersions": "syngo_MR_E11",
  "SpacingBetweenSlices": 2,
  "StationName": "AWP166078",
  "TaskName": "category",
  "TotalReadoutTime": 0.0534586,
  "TxRefAmp": 210.95,
  "dcmmeta_affine": [
    [-1.9997289180755615, 0.027923252433538437, 0.01745307445526123, 97.99861907958984],
    [0.02677343226969242, 1.9958741664886475, -0.12557625770568848, -79.12895965576172],
    [0.01917031966149807, 0.12532559037208557, 1.995977520942688, -77.33649444580078],
    [0.0, 0.0, 0.0, 1.0]
],
  "dcmmeta_reorient_transform": [
    [0.0, -1.0, 0.0, 99.0],
    [1.0, 0.0, 0.0, 0.0],
    [0.0, 0.0, 1.0, 0.0],
    [0.0, 0.0, 0.0, 1.0]
],
  "dcmmeta_shape": [100, 100, 72, 150],
  "dcmmeta_slice_dim": 2,
  "dcmmeta_version": 0.6,
  "global": {
    "const": {
      "AcquisitionMatrix": [100, 0, 0, 100],
      "AngioFlag": "N",
      "BitsAllocated": 16,
      "BitsStored": 12,
      "BodyPartExamined": "BRAIN",
      "Columns": 900,
      "EchoNumbers": 1,
      "EchoTime": 34.0,
      "EchoTrainLength": 100,
      "FlipAngle": 90.0,
      "HighBit": 11,
      "ImageOrientationPatient": [0.99986445108199, -0.0133867164992, 0.00958515956505, 0.01396162637604, 0.99793709563415, -0.0626627971465],
      "ImagePositionPatient": [-911.82388568827, -906.10289050738, -22.467148576603],
      "ImageType": [
        "ORIGINAL",
        "PRIMARY",
        "M",
        "ND",
        "MOSAIC"
],
      "ImagedNucleus": "1H",
      "ImagingFrequency": 123.257767,
      "InPlanePhaseEncodingDirection": "COL",
      "MRAcquisitionType": "2D",
      "MagneticFieldStrength": 3.0,
      "Manufacturer": "SIEMENS",
      "ManufacturerModelName": "Prisma",
      "Modality": "MR",
      "NumberOfAverages": 1.0,
      "NumberOfPhaseEncodingSteps": 100,
      "PercentPhaseFieldOfView": 100.0,
      "PercentSampling": 100.0,
      "PerformedProcedureStepStartTime": "145752.075000",
      "PhotometricInterpretation": "MONOCHROME2",
      "PixelBandwidth": 2380.0,
      "PixelRepresentation": 0,
      "PixelSpacing": [2.0, 2.0],
      "ProtocolName": "bold_100x100_s3_2x2x2_cat_150",
      "RepetitionTime": 2000.0,
      "Rows": 900,
      "SAR": 0.07228158101174,
      "SamplesPerPixel": 1,
      "ScanOptions": "FS",
      "ScanningSequence": "EP",
      "SequenceName": "*epfid2d1_100",
      "SequenceVariant": "SK",
      "SeriesDescription": "bold_100x100_s3_2x2x2_cat_150",
      "SeriesNumber": 5,
      "SeriesTime": "151320.734000",
      "SliceLocation": -71.357399932637,
      "SliceThickness": 2.0,
      "SmallestImagePixelValue": 0,
      "SoftwareVersions": "syngo MR E11",
      "SpacingBetweenSlices": 2.0000000292461,
      "SpecificCharacterSet": "ISO_IR 100",
      "StudyID": "1",
      "StudyTime": "145751.984000",
      "TransmitCoilName": "Body",
      "VariableFlipAngleFlag": "N",
      "WindowCenterWidthExplanation": "Algo1",
      "dBdt": 0.0},
    "slices": {}
  },
  "time": {
    "samples": {
      "AcquisitionNumber": [1, 2, 3, 4, 5, 6, 7, 8, 9, 10, 11, 12, 13, 14, 15, 16, 17, 18, 19, 20, 21, 22, 23, 24, 25, 26, 27, 28, 29, 30, 31, 32, 33, 34, 35, 36, 37, 38, 39, 40, 41, 42, 43, 44, 45, 46, 47, 48, 49, 50, 51, 52, 53, 54, 55, 56, 57, 58, 59, 60, 61, 62, 63, 64, 65, 66, 67, 68, 69, 70, 71, 72, 73, 74, 75, 76, 77, 78, 79, 80, 81, 82, 83, 84, 85, 86, 87, 88, 89, 90, 91, 92, 93, 94, 95, 96, 97, 98, 99, 100, 101, 102, 103, 104, 105, 106, 107, 108, 109, 110, 111, 112, 113, 114, 115, 116, 117, 118, 119, 120, 121, 122, 123, 124, 125, 126, 127, 128, 129, 130, 131, 132, 133, 134, 135, 136, 137, 138, 139, 140, 141, 142, 143, 144, 145, 146, 147, 148, 149, 150],
      "AcquisitionTime": ["151317.912500", "151319.912500", "151321.912500", "151323.912500", "151325.912500", "151327.912500", "151329.912500", "151331.912500", "151333.912500", "151335.912500", "151337.912500", "151339.912500", "151341.912500", "151343.912500", "151345.912500", "151347.912500", "151349.912500", "151351.912500", "151353.912500", "151355.912500", "151357.912500", "151359.912500", "151401.912500", "151403.912500", "151405.912500", "151407.912500", "151409.912500", "151411.912500", "151413.912500", "151415.912500", "151417.912500", "151419.912500", "151421.912500", "151423.912500", "151425.912500", "151427.912500", "151429.912500", "151431.912500", "151433.912500", "151435.912500", "151437.912500", "151439.912500", "151441.912500", "151443.912500", "151445.912500", "151447.912500", "151449.912500", "151451.912500", "151453.912500", "151455.912500", "151457.912500", "151459.912500", "151501.912500", "151503.912500", "151505.912500", "151507.912500", "151509.912500", "151511.912500", "151513.912500", "151515.912500", "151517.912500", "151519.912500", "151521.912500", "151523.912500", "151525.912500", "151527.912500", "151529.912500", "151531.912500", "151533.912500", "151535.912500", "151537.912500", "151539.912500", "151541.912500", "151543.912500", "151545.912500", "151547.912500", "151549.912500", "151551.912500", "151553.912500", "151555.912500", "151557.912500", "151559.912500", "151601.912500", "151603.912500", "151605.912500", "151607.912500", "151609.912500", "151611.912500", "151613.912500", "151615.912500", "151617.912500", "151619.912500", "151621.912500", "151623.912500", "151625.912500", "151627.912500", "151629.912500", "151631.912500", "151633.912500", "151635.912500", "151637.912500", "151639.912500", "151641.912500", "151643.912500", "151645.912500", "151647.912500", "151649.912500", "151651.912500", "151653.912500", "151655.912500", "151657.912500", "151659.912500", "151701.912500", "151703.912500", "151705.912500", "151707.912500", "151709.912500", "151711.912500", "151713.912500", "151715.912500", "151717.912500", "151719.912500", "151721.912500", "151723.912500", "151725.912500", "151727.912500", "151729.912500", "151731.912500", "151733.912500", "151735.912500", "151737.912500", "151739.912500", "151741.912500", "151743.912500", "151745.912500", "151747.912500", "151749.912500", "151751.912500", "151753.912500", "151755.912500", "151757.912500", "151759.912500", "151801.912500", "151803.912500", "151805.912500", "151807.912500", "151809.912500", "151811.912500", "151813.912500", "151815.912500"],
      "ContentTime": ["151320.738000", "151322.233000", "151324.233000", "151326.234000", "151328.233000", "151330.234000", "151332.234000", "151334.232000", "151336.234000", "151338.234000", "151340.234000", "151342.233000", "151344.233000", "151346.234000", "151348.234000", "151350.233000", "151352.232000", "151354.233000", "151356.233000", "151358.233000", "151400.233000", "151402.233000", "151404.233000", "151406.234000", "151408.233000", "151410.234000", "151412.234000", "151414.233000", "151416.233000", "151418.233000", "151420.233000", "151422.234000", "151424.234000", "151426.233000", "151428.233000", "151430.233000", "151432.234000", "151434.233000", "151436.234000", "151438.233000", "151440.233000", "151442.233000", "151444.233000", "151446.234000", "151448.233000", "151450.233000", "151452.233000", "151454.233000", "151456.233000", "151458.233000", "151500.234000", "151502.233000", "151504.233000", "151506.233000", "151508.233000", "151510.234000", "151512.233000", "151514.233000", "151516.234000", "151518.232000", "151520.233000", "151522.233000", "151524.234000", "151526.233000", "151528.234000", "151530.233000", "151532.233000", "151534.233000", "151536.233000", "151538.233000", "151540.233000", "151542.233000", "151544.233000", "151546.233000", "151548.234000", "151550.233000", "151552.233000", "151554.233000", "151556.234000", "151558.234000", "151600.234000", "151602.234000", "151604.233000", "151606.234000", "151608.233000", "151610.233000", "151612.233000", "151614.233000", "151616.233000", "151618.234000", "151620.233000", "151622.233000", "151624.233000", "151626.233000", "151628.232000", "151630.234000", "151632.233000", "151634.234000", "151636.233000", "151638.233000", "151640.233000", "151642.233000", "151644.233000", "151646.233000", "151648.233000", "151650.234000", "151652.233000", "151654.234000", "151656.233000", "151658.234000", "151700.233000", "151702.233000", "151704.232000", "151706.234000", "151708.233000", "151710.234000", "151712.234000", "151714.234000", "151716.234000", "151718.233000", "151720.234000", "151722.232000", "151724.233000", "151726.234000", "151728.234000", "151730.233000", "151732.233000", "151734.233000", "151736.234000", "151738.233000", "151740.234000", "151742.233000", "151744.234000", "151746.233000", "151748.234000", "151750.234000", "151752.233000", "151754.234000", "151756.732000", "151758.233000", "151800.234000", "151802.234000", "151804.233000", "151806.263000", "151808.234000", "151810.234000", "151812.234000", "151814.232000", "151816.234000", "151818.191000"],
      "InstanceCreationTime": ["151320.738000", "151322.233000", "151324.233000", "151326.234000", "151328.233000", "151330.234000", "151332.234000", "151334.232000", "151336.234000", "151338.234000", "151340.234000", "151342.233000", "151344.233000", "151346.234000", "151348.234000", "151350.233000", "151352.232000", "151354.233000", "151356.233000", "151358.233000", "151400.233000", "151402.233000", "151404.233000", "151406.234000", "151408.233000", "151410.234000", "151412.234000", "151414.233000", "151416.233000", "151418.233000", "151420.233000", "151422.234000", "151424.234000", "151426.233000", "151428.233000", "151430.233000", "151432.234000", "151434.233000", "151436.234000", "151438.233000", "151440.233000", "151442.233000", "151444.233000", "151446.234000", "151448.233000", "151450.233000", "151452.233000", "151454.233000", "151456.233000", "151458.233000", "151500.234000", "151502.233000", "151504.233000", "151506.233000", "151508.233000", "151510.234000", "151512.233000", "151514.233000", "151516.234000", "151518.232000", "151520.233000", "151522.233000", "151524.234000", "151526.233000", "151528.234000", "151530.233000", "151532.233000", "151534.233000", "151536.233000", "151538.233000", "151540.233000", "151542.233000", "151544.233000", "151546.233000", "151548.234000", "151550.233000", "151552.233000", "151554.233000", "151556.234000", "151558.234000", "151600.234000", "151602.234000", "151604.233000", "151606.234000", "151608.233000", "151610.233000", "151612.233000", "151614.233000", "151616.233000", "151618.234000", "151620.233000", "151622.233000", "151624.233000", "151626.233000", "151628.232000", "151630.234000", "151632.233000", "151634.234000", "151636.233000", "151638.233000", "151640.233000", "151642.233000", "151644.233000", "151646.233000", "151648.233000", "151650.234000", "151652.233000", "151654.234000", "151656.233000", "151658.234000", "151700.233000", "151702.233000", "151704.232000", "151706.234000", "151708.233000", "151710.234000", "151712.234000", "151714.234000", "151716.234000", "151718.233000", "151720.234000", "151722.232000", "151724.233000", "151726.234000", "151728.234000", "151730.233000", "151732.233000", "151734.233000", "151736.234000", "151738.233000", "151740.234000", "151742.233000", "151744.234000", "151746.233000", "151748.234000", "151750.234000", "151752.233000", "151754.234000", "151756.732000", "151758.233000", "151800.234000", "151802.234000", "151804.233000", "151806.263000", "151808.234000", "151810.234000", "151812.234000", "151814.232000", "151816.234000", "151818.191000"],
      "InstanceNumber": [1, 2, 3, 4, 5, 6, 7, 8, 9, 10, 11, 12, 13, 14, 15, 16, 17, 18, 19, 20, 21, 22, 23, 24, 25, 26, 27, 28, 29, 30, 31, 32, 33, 34, 35, 36, 37, 38, 39, 40, 41, 42, 43, 44, 45, 46, 47, 48, 49, 50, 51, 52, 53, 54, 55, 56, 57, 58, 59, 60, 61, 62, 63, 64, 65, 66, 67, 68, 69, 70, 71, 72, 73, 74, 75, 76, 77, 78, 79, 80, 81, 82, 83, 84, 85, 86, 87, 88, 89, 90, 91, 92, 93, 94, 95, 96, 97, 98, 99, 100, 101, 102, 103, 104, 105, 106, 107, 108, 109, 110, 111, 112, 113, 114, 115, 116, 117, 118, 119, 120, 121, 122, 123, 124, 125, 126, 127, 128, 129, 130, 131, 132, 133, 134, 135, 136, 137, 138, 139, 140, 141, 142, 143, 144, 145, 146, 147, 148, 149, 150],
      "LargestImagePixelValue": [2389, 2347, 2345, 2285, 2266, 2273, 2259, 2292, 2276, 2274, 2320, 2309, 2295, 2291, 2292, 2311, 2343, 2290, 2308, 2294, 2320, 2300, 2283, 2342, 2296, 2268, 2292, 2323, 2310, 2275, 2280, 2290, 2333, 2281, 2300, 2297, 2301, 2320, 2303, 2264, 2287, 2301, 2292, 2295, 2303, 2322, 2303, 2312, 2272, 2284, 2285, 2319, 2303, 2283, 2292, 2323, 2315, 2300, 2298, 2315, 2282, 2727, 2403, 2336, 2275, 2297, 2306, 2277, 2316, 2346, 2254, 2293, 2279, 2250, 2276, 2296, 2321, 2330, 2326, 2320, 2249, 2239, 2350, 2348, 2363, 2341, 2354, 2365, 2353, 2254, 2352, 2324, 2334, 2326, 2355, 2359, 2293, 2254, 2238, 2279, 2293, 2300, 2336, 2325, 2302, 2283, 2247, 2354, 2278, 2274, 2261, 2278, 2291, 2281, 2282, 2324, 2315, 2329, 2280, 2267, 2315, 2296, 2291, 2265, 2299, 2264, 2259, 2267, 2520, 2257, 2550, 2323, 2440, 2298, 2257, 2273, 2288, 2359, 2289, 2257, 2286, 2274, 2256, 2279, 2290, 2251, 2288, 2276, 2241, 2395],
      "WindowCenter": [723.0, 722.0, 721.0, 721.0, 721.0, 721.0, 721.0, 722.0, 722.0, 721.0, 722.0, 722.0, 722.0, 722.0, 723.0, 723.0, 723.0, 722.0, 723.0, 723.0, 723.0, 722.0, 722.0, 724.0, 723.0, 722.0, 722.0, 723.0, 723.0, 722.0, 721.0, 722.0, 724.0, 722.0, 722.0, 721.0, 722.0, 723.0, 723.0, 721.0, 721.0, 721.0, 722.0, 723.0, 723.0, 723.0, 722.0, 722.0, 722.0, 722.0, 722.0, 723.0, 723.0, 723.0, 723.0, 723.0, 723.0, 722.0, 722.0, 723.0, 723.0, 728.0, 725.0, 723.0, 722.0, 722.0, 722.0, 722.0, 723.0, 723.0, 722.0, 723.0, 723.0, 721.0, 720.0, 721.0, 722.0, 723.0, 722.0, 721.0, 720.0, 721.0, 723.0, 722.0, 722.0, 722.0, 723.0, 722.0, 723.0, 722.0, 724.0, 723.0, 722.0, 722.0, 723.0, 723.0, 722.0, 721.0, 722.0, 722.0, 722.0, 722.0, 723.0, 723.0, 722.0, 722.0, 721.0, 723.0, 722.0, 722.0, 721.0, 722.0, 723.0, 722.0, 722.0, 722.0, 723.0, 723.0, 722.0, 721.0, 722.0, 722.0, 723.0, 722.0, 722.0, 722.0, 722.0, 721.0, 724.0, 722.0, 725.0, 723.0, 724.0, 721.0, 721.0, 722.0, 722.0, 722.0, 721.0, 721.0, 722.0, 722.0, 721.0, 722.0, 722.0, 722.0, 723.0, 722.0, 720.0, 723.0],
      "WindowWidth": [1539.0, 1535.0, 1534.0, 1533.0, 1533.0, 1534.0, 1534.0, 1537.0, 1536.0, 1534.0, 1535.0, 1536.0, 1537.0, 1537.0, 1538.0, 1538.0, 1538.0, 1536.0, 1538.0, 1539.0, 1538.0, 1535.0, 1536.0, 1540.0, 1540.0, 1537.0, 1537.0, 1538.0, 1539.0, 1535.0, 1533.0, 1536.0, 1540.0, 1537.0, 1535.0, 1533.0, 1536.0, 1539.0, 1537.0, 1534.0, 1534.0, 1534.0, 1535.0, 1538.0, 1539.0, 1538.0, 1537.0, 1537.0, 1535.0, 1536.0, 1537.0, 1539.0, 1538.0, 1538.0, 1538.0, 1537.0, 1537.0, 1537.0, 1537.0, 1538.0, 1538.0, 1550.0, 1542.0, 1538.0, 1536.0, 1535.0, 1536.0, 1537.0, 1537.0, 1537.0, 1536.0, 1539.0, 1537.0, 1534.0, 1531.0, 1533.0, 1537.0, 1539.0, 1536.0, 1534.0, 1531.0, 1533.0, 1538.0, 1536.0, 1536.0, 1536.0, 1537.0, 1536.0, 1537.0, 1536.0, 1541.0, 1539.0, 1536.0, 1535.0, 1537.0, 1537.0, 1535.0, 1535.0, 1535.0, 1536.0, 1536.0, 1535.0, 1537.0, 1538.0, 1537.0, 1535.0, 1533.0, 1539.0, 1536.0, 1535.0, 1534.0, 1536.0, 1537.0, 1535.0, 1535.0, 1537.0, 1538.0, 1538.0, 1537.0, 1534.0, 1535.0, 1536.0, 1537.0, 1535.0, 1536.0, 1536.0, 1535.0, 1534.0, 1541.0, 1536.0, 1543.0, 1537.0, 1539.0, 1534.0, 1533.0, 1534.0, 1534.0, 1536.0, 1534.0, 1533.0, 1535.0, 1535.0, 1534.0, 1535.0, 1536.0, 1536.0, 1537.0, 1535.0, 1532.0, 1536.0]
    },
    "slices": {}
  }
}