{
 "AcquisitionMatrixPE": 100,
 "AcquisitionNumber": 1,
 "AcquisitionTime": "10:26:13.097500",
 "BandwidthPerPixelPhaseEncode": 18.519,
 "BaseResolution": 100,
 "BodyPartExamined": "BRAIN",
 "ConsistencyInfo": "N4_VE11C_LATEST_20160120",
 "ConversionSoftware": "dcm2niix",
 "ConversionSoftwareVersion": "v1.0.20180622 GCC4.9.2",
 "DerivedVendorReportedEchoSpacing": 0.000539986,
 "DeviceSerialNumber": "166078",
 "DwellTime": 2.1e-06,
 "EchoTime": 0.034,
 "EchoTrainLength": 100,
 "EffectiveEchoSpacing": 0.000539986,
 "FlipAngle": 90,
 "ImageOrientationPatientDICOM": [
  1,
  0,
  0,
  0,
  0.986856,
  -0.161604
 ],
 "ImageType": [
  "ORIGINAL",
  "PRIMARY",
  "M",
  "ND",
  "MOSAIC"
 ],
 "InPlanePhaseEncodingDirectionDICOM": "COL",
 "InstitutionAddress": "Street_StreetNo_Bei_Jing_District_CN_ZIP",
 "InstitutionName": "BeiJing_Normal_University",
 "InstitutionalDepartmentName": "Department",
 "MRAcquisitionType": "2D",
 "MagneticFieldStrength": 3,
 "Manufacturer": "Siemens",
 "ManufacturersModelName": "Prisma",
 "Modality": "MR",
 "MultibandAccelerationFactor": 3,
 "PartialFourier": 1,
 "PatientPosition": "HFS",
 "PercentPhaseFOV": 100,
 "PhaseEncodingDirection": "j-",
 "PhaseEncodingSteps": 100,
 "PhaseResolution": 1,
 "PixelBandwidth": 2380,
 "ProcedureStepDescription": "BNU_P2018_64CH_Zhen.ZongLei",
 "ProtocolName": "bold_100x100_s3_2x2x2_static_256",
 "PulseSequenceDetails": "%SiemensSeq%_ep2d_bold",
 "ReceiveCoilActiveElements": "HC1-7;NC1",
 "ReceiveCoilName": "HeadNeck_64",
 "ReconMatrixPE": 100,
 "RepetitionTime": 2,
 "SAR": 0.0621423,
 "ScanOptions": "FS",
 "ScanningSequence": "EP",
 "SequenceName": "_epfid2d1_100",
 "SequenceVariant": "SK",
 "SeriesDescription": "bold_100x100_s3_2x2x2_static_256",
 "SeriesNumber": 13,
 "ShimSetting": [
  -5455,
  -11461,
  -1290,
  385,
  -16,
  -338,
  -269,
  36
 ],
 "SliceThickness": 2,
 "SliceTiming": [
  1.485,
  0,
  0.99,
  0.0825,
  1.0725,
  0.165,
  1.155,
  0.2475,
  1.2375,
  0.33,
  1.32,
  0.4125,
  1.4025,
  0.5775,
  1.5675,
  0.66,
  1.65,
  0.7425,
  1.7325,
  0.825,
  1.815,
  0.9075,
  1.8975,
  0.495,
  1.485,
  0,
  0.99,
  0.0825,
  1.0725,
  0.165,
  1.155,
  0.2475,
  1.2375,
  0.33,
  1.32,
  0.4125,
  1.4025,
  0.5775,
  1.5675,
  0.66,
  1.65,
  0.7425,
  1.7325,
  0.825,
  1.815,
  0.9075,
  1.8975,
  0.495,
  1.485,
  0,
  0.99,
  0.0825,
  1.0725,
  0.165,
  1.155,
  0.2475,
  1.2375,
  0.33,
  1.32,
  0.4125,
  1.4025,
  0.5775,
  1.5675,
  0.66,
  1.65,
  0.7425,
  1.7325,
  0.825,
  1.815,
  0.9075,
  1.8975,
  0.495
 ],
 "SoftwareVersions": "syngo_MR_E11",
 "SpacingBetweenSlices": 2,
 "StationName": "AWP166078",
 "TaskName": "imagenet",
 "TotalReadoutTime": 0.0534586,
 "TxRefAmp": 208.559,
 "dcmmeta_affine": [
  [
   -2.0,
   0.0,
   0.0,
   100.0
  ],
  [
   0.0,
   1.9737114906311035,
   -0.32320764660835266,
   -85.03076171875
  ],
  [
   0.0,
   0.32320764660835266,
   1.973711371421814,
   -97.83645629882812
  ],
  [
   0.0,
   0.0,
   0.0,
   1.0
  ]
 ],
 "dcmmeta_reorient_transform": [
  [
   0.0,
   -1.0,
   0.0,
   99.0
  ],
  [
   1.0,
   0.0,
   0.0,
   0.0
  ],
  [
   0.0,
   0.0,
   1.0,
   0.0
  ],
  [
   0.0,
   0.0,
   0.0,
   1.0
  ]
 ],
 "dcmmeta_shape": [
  100,
  100,
  72,
  256
 ],
 "dcmmeta_slice_dim": 2,
 "dcmmeta_version": 0.6,
 "global": {
  "const": {
   "AcquisitionMatrix": [
    100,
    0,
    0,
    100
   ],
   "AngioFlag": "N",
   "BitsAllocated": 16,
   "BitsStored": 12,
   "BodyPartExamined": "BRAIN",
   "Columns": 900,
   "EchoNumbers": 1,
   "EchoTime": 34.0,
   "EchoTrainLength": 100,
   "FlipAngle": 90.0,
   "HighBit": 11,
   "ImageOrientationPatient": [
    1.0,
    0.0,
    0.0,
    0.0,
    0.98685571586892,
    -0.1616038243881
   ],
   "ImagePositionPatient": [
    -900.0,
    -899.85124417369,
    63.444159112358
   ],
   "ImageType": [
    "ORIGINAL",
    "PRIMARY",
    "M",
    "ND",
    "MOSAIC"
   ],
   "ImagedNucleus": "1H",
   "ImagingFrequency": 123.257795,
   "InPlanePhaseEncodingDirection": "COL",
   "MRAcquisitionType": "2D",
   "MagneticFieldStrength": 3.0,
   "Manufacturer": "SIEMENS",
   "ManufacturerModelName": "Prisma",
   "Modality": "MR",
   "NumberOfAverages": 1.0,
   "NumberOfPhaseEncodingSteps": 100,
   "PercentPhaseFieldOfView": 100.0,
   "PercentSampling": 100.0,
   "PerformedProcedureStepStartTime": "090613.470000",
   "PhotometricInterpretation": "MONOCHROME2",
   "PixelBandwidth": 2380.0,
   "PixelRepresentation": 0,
   "PixelSpacing": [
    2.0,
    2.0
   ],
   "ProtocolName": "bold_100x100_s3_2x2x2_static_256",
   "RepetitionTime": 2000.0,
   "Rows": 900,
   "SAR": 0.06214227852428,
   "SamplesPerPixel": 1,
   "ScanOptions": "FS",
   "ScanningSequence": "EP",
   "SequenceName": "*epfid2d1_100",
   "SequenceVariant": "SK",
   "SeriesDescription": "bold_100x100_s3_2x2x2_static_256",
   "SeriesNumber": 13,
   "SeriesTime": "102616.044000",
   "SliceLocation": -82.809171380312,
   "SliceThickness": 2.0,
   "SmallestImagePixelValue": 0,
   "SoftwareVersions": "syngo MR E11",
   "SpacingBetweenSlices": 1.9999999308243,
   "SpecificCharacterSet": "ISO_IR 100",
   "StudyID": "1",
   "StudyTime": "090613.379000",
   "TransmitCoilName": "Body",
   "VariableFlipAngleFlag": "N",
   "WindowCenterWidthExplanation": "Algo1",
   "dBdt": 0.0
  },
  "slices": {}
 },
 "time": {
  "samples": {
   "AcquisitionNumber": [
    1,
    2,
    3,
    4,
    5,
    6,
    7,
    8,
    9,
    10,
    11,
    12,
    13,
    14,
    15,
    16,
    17,
    18,
    19,
    20,
    21,
    22,
    23,
    24,
    25,
    26,
    27,
    28,
    29,
    30,
    31,
    32,
    33,
    34,
    35,
    36,
    37,
    38,
    39,
    40,
    41,
    42,
    43,
    44,
    45,
    46,
    47,
    48,
    49,
    50,
    51,
    52,
    53,
    54,
    55,
    56,
    57,
    58,
    59,
    60,
    61,
    62,
    63,
    64,
    65,
    66,
    67,
    68,
    69,
    70,
    71,
    72,
    73,
    74,
    75,
    76,
    77,
    78,
    79,
    80,
    81,
    82,
    83,
    84,
    85,
    86,
    87,
    88,
    89,
    90,
    91,
    92,
    93,
    94,
    95,
    96,
    97,
    98,
    99,
    100,
    101,
    102,
    103,
    104,
    105,
    106,
    107,
    108,
    109,
    110,
    111,
    112,
    113,
    114,
    115,
    116,
    117,
    118,
    119,
    120,
    121,
    122,
    123,
    124,
    125,
    126,
    127,
    128,
    129,
    130,
    131,
    132,
    133,
    134,
    135,
    136,
    137,
    138,
    139,
    140,
    141,
    142,
    143,
    144,
    145,
    146,
    147,
    148,
    149,
    150,
    151,
    152,
    153,
    154,
    155,
    156,
    157,
    158,
    159,
    160,
    161,
    162,
    163,
    164,
    165,
    166,
    167,
    168,
    169,
    170,
    171,
    172,
    173,
    174,
    175,
    176,
    177,
    178,
    179,
    180,
    181,
    182,
    183,
    184,
    185,
    186,
    187,
    188,
    189,
    190,
    191,
    192,
    193,
    194,
    195,
    196,
    197,
    198,
    199,
    200,
    201,
    202,
    203,
    204,
    205,
    206,
    207,
    208,
    209,
    210,
    211,
    212,
    213,
    214,
    215,
    216,
    217,
    218,
    219,
    220,
    221,
    222,
    223,
    224,
    225,
    226,
    227,
    228,
    229,
    230,
    231,
    232,
    233,
    234,
    235,
    236,
    237,
    238,
    239,
    240,
    241,
    242,
    243,
    244,
    245,
    246,
    247,
    248,
    249,
    250,
    251,
    252,
    253,
    254,
    255,
    256
   ],
   "AcquisitionTime": [
    "102613.097500",
    "102615.097500",
    "102617.097500",
    "102619.097500",
    "102621.097500",
    "102623.097500",
    "102625.097500",
    "102627.097500",
    "102629.097500",
    "102631.097500",
    "102633.097500",
    "102635.097500",
    "102637.097500",
    "102639.097500",
    "102641.097500",
    "102643.097500",
    "102645.097500",
    "102647.097500",
    "102649.097500",
    "102651.097500",
    "102653.097500",
    "102655.097500",
    "102657.097500",
    "102659.097500",
    "102701.097500",
    "102703.097500",
    "102705.097500",
    "102707.097500",
    "102709.097500",
    "102711.097500",
    "102713.097500",
    "102715.097500",
    "102717.097500",
    "102719.097500",
    "102721.097500",
    "102723.097500",
    "102725.097500",
    "102727.097500",
    "102729.097500",
    "102731.097500",
    "102733.097500",
    "102735.097500",
    "102737.097500",
    "102739.097500",
    "102741.097500",
    "102743.097500",
    "102745.097500",
    "102747.097500",
    "102749.097500",
    "102751.097500",
    "102753.097500",
    "102755.097500",
    "102757.097500",
    "102759.097500",
    "102801.097500",
    "102803.097500",
    "102805.097500",
    "102807.097500",
    "102809.097500",
    "102811.097500",
    "102813.097500",
    "102815.097500",
    "102817.097500",
    "102819.097500",
    "102821.097500",
    "102823.097500",
    "102825.097500",
    "102827.097500",
    "102829.097500",
    "102831.097500",
    "102833.097500",
    "102835.097500",
    "102837.097500",
    "102839.097500",
    "102841.097500",
    "102843.097500",
    "102845.097500",
    "102847.097500",
    "102849.097500",
    "102851.097500",
    "102853.097500",
    "102855.097500",
    "102857.097500",
    "102859.097500",
    "102901.097500",
    "102903.097500",
    "102905.097500",
    "102907.097500",
    "102909.097500",
    "102911.097500",
    "102913.097500",
    "102915.097500",
    "102917.097500",
    "102919.097500",
    "102921.097500",
    "102923.097500",
    "102925.097500",
    "102927.097500",
    "102929.097500",
    "102931.097500",
    "102933.097500",
    "102935.097500",
    "102937.097500",
    "102939.097500",
    "102941.097500",
    "102943.097500",
    "102945.097500",
    "102947.097500",
    "102949.097500",
    "102951.097500",
    "102953.097500",
    "102955.097500",
    "102957.097500",
    "102959.097500",
    "103001.097500",
    "103003.097500",
    "103005.097500",
    "103007.097500",
    "103009.097500",
    "103011.097500",
    "103013.097500",
    "103015.097500",
    "103017.097500",
    "103019.097500",
    "103021.097500",
    "103023.097500",
    "103025.097500",
    "103027.097500",
    "103029.097500",
    "103031.097500",
    "103033.097500",
    "103035.097500",
    "103037.097500",
    "103039.097500",
    "103041.097500",
    "103043.097500",
    "103045.097500",
    "103047.097500",
    "103049.097500",
    "103051.097500",
    "103053.097500",
    "103055.097500",
    "103057.097500",
    "103059.097500",
    "103101.097500",
    "103103.097500",
    "103105.097500",
    "103107.097500",
    "103109.097500",
    "103111.097500",
    "103113.097500",
    "103115.097500",
    "103117.097500",
    "103119.097500",
    "103121.097500",
    "103123.097500",
    "103125.097500",
    "103127.097500",
    "103129.097500",
    "103131.097500",
    "103133.097500",
    "103135.097500",
    "103137.097500",
    "103139.097500",
    "103141.097500",
    "103143.097500",
    "103145.097500",
    "103147.097500",
    "103149.097500",
    "103151.097500",
    "103153.097500",
    "103155.097500",
    "103157.097500",
    "103159.097500",
    "103201.097500",
    "103203.097500",
    "103205.097500",
    "103207.097500",
    "103209.097500",
    "103211.097500",
    "103213.097500",
    "103215.097500",
    "103217.097500",
    "103219.097500",
    "103221.097500",
    "103223.097500",
    "103225.097500",
    "103227.097500",
    "103229.097500",
    "103231.097500",
    "103233.097500",
    "103235.097500",
    "103237.097500",
    "103239.097500",
    "103241.097500",
    "103243.097500",
    "103245.097500",
    "103247.097500",
    "103249.097500",
    "103251.097500",
    "103253.097500",
    "103255.097500",
    "103257.097500",
    "103259.097500",
    "103301.097500",
    "103303.097500",
    "103305.097500",
    "103307.097500",
    "103309.097500",
    "103311.097500",
    "103313.097500",
    "103315.097500",
    "103317.097500",
    "103319.097500",
    "103321.097500",
    "103323.097500",
    "103325.097500",
    "103327.097500",
    "103329.097500",
    "103331.097500",
    "103333.097500",
    "103335.097500",
    "103337.097500",
    "103339.097500",
    "103341.097500",
    "103343.097500",
    "103345.097500",
    "103347.097500",
    "103349.097500",
    "103351.097500",
    "103353.097500",
    "103355.097500",
    "103357.097500",
    "103359.097500",
    "103401.097500",
    "103403.097500",
    "103405.097500",
    "103407.097500",
    "103409.097500",
    "103411.097500",
    "103413.097500",
    "103415.097500",
    "103417.097500",
    "103419.097500",
    "103421.097500",
    "103423.097500",
    "103425.097500",
    "103427.097500",
    "103429.097500",
    "103431.097500",
    "103433.097500",
    "103435.097500",
    "103437.097500",
    "103439.097500",
    "103441.097500",
    "103443.097500"
   ],
   "ContentTime": [
    "102616.048000",
    "102617.543000",
    "102619.542000",
    "102621.542000",
    "102623.542000",
    "102625.543000",
    "102627.543000",
    "102629.544000",
    "102631.543000",
    "102633.544000",
    "102635.542000",
    "102637.542000",
    "102639.543000",
    "102641.542000",
    "102643.542000",
    "102645.543000",
    "102647.544000",
    "102649.544000",
    "102651.543000",
    "102653.543000",
    "102655.542000",
    "102657.543000",
    "102659.543000",
    "102701.543000",
    "102703.544000",
    "102705.544000",
    "102707.543000",
    "102709.544000",
    "102711.542000",
    "102713.543000",
    "102715.542000",
    "102717.542000",
    "102719.543000",
    "102721.543000",
    "102723.543000",
    "102725.544000",
    "102727.542000",
    "102729.543000",
    "102731.542000",
    "102733.543000",
    "102735.543000",
    "102737.544000",
    "102739.544000",
    "102741.543000",
    "102743.543000",
    "102745.543000",
    "102747.543000",
    "102749.543000",
    "102751.542000",
    "102753.542000",
    "102755.543000",
    "102757.544000",
    "102759.543000",
    "102801.544000",
    "102803.542000",
    "102805.543000",
    "102807.543000",
    "102809.543000",
    "102811.544000",
    "102813.544000",
    "102815.543000",
    "102817.544000",
    "102819.544000",
    "102821.542000",
    "102823.543000",
    "102825.543000",
    "102827.543000",
    "102829.544000",
    "102831.543000",
    "102833.544000",
    "102835.544000",
    "102837.542000",
    "102839.542000",
    "102841.543000",
    "102843.543000",
    "102845.543000",
    "102847.543000",
    "102849.543000",
    "102851.544000",
    "102853.544000",
    "102855.542000",
    "102857.543000",
    "102859.543000",
    "102901.543000",
    "102903.543000",
    "102905.543000",
    "102907.543000",
    "102909.544000",
    "102911.543000",
    "102913.543000",
    "102915.542000",
    "102917.542000",
    "102919.542000",
    "102921.543000",
    "102923.543000",
    "102925.544000",
    "102927.543000",
    "102929.543000",
    "102931.543000",
    "102933.542000",
    "102935.543000",
    "102937.543000",
    "102939.544000",
    "102941.544000",
    "102943.543000",
    "102945.544000",
    "102947.542000",
    "102949.542000",
    "102951.542000",
    "102953.543000",
    "102955.543000",
    "102957.543000",
    "102959.543000",
    "103001.544000",
    "103003.544000",
    "103005.542000",
    "103007.543000",
    "103009.542000",
    "103011.543000",
    "103013.543000",
    "103015.543000",
    "103017.544000",
    "103019.544000",
    "103021.544000",
    "103023.543000",
    "103025.543000",
    "103027.542000",
    "103029.543000",
    "103031.544000",
    "103033.544000",
    "103035.544000",
    "103037.544000",
    "103039.556000",
    "103041.543000",
    "103043.543000",
    "103045.543000",
    "103047.543000",
    "103049.543000",
    "103051.544000",
    "103053.543000",
    "103055.544000",
    "103057.542000",
    "103059.543000",
    "103101.543000",
    "103103.543000",
    "103105.543000",
    "103107.544000",
    "103109.544000",
    "103111.543000",
    "103113.544000",
    "103115.543000",
    "103117.543000",
    "103119.543000",
    "103121.543000",
    "103123.544000",
    "103125.544000",
    "103127.544000",
    "103129.543000",
    "103131.544000",
    "103133.542000",
    "103135.543000",
    "103137.543000",
    "103139.543000",
    "103141.544000",
    "103143.543000",
    "103145.543000",
    "103147.543000",
    "103149.544000",
    "103151.543000",
    "103153.542000",
    "103155.543000",
    "103157.543000",
    "103159.544000",
    "103201.544000",
    "103203.543000",
    "103205.543000",
    "103207.543000",
    "103209.542000",
    "103211.543000",
    "103213.543000",
    "103215.543000",
    "103217.544000",
    "103219.544000",
    "103221.544000",
    "103223.544000",
    "103225.542000",
    "103227.543000",
    "103229.543000",
    "103231.543000",
    "103233.544000",
    "103235.544000",
    "103237.543000",
    "103239.544000",
    "103241.544000",
    "103243.543000",
    "103245.543000",
    "103247.543000",
    "103249.543000",
    "103251.543000",
    "103253.544000",
    "103255.544000",
    "103257.543000",
    "103259.544000",
    "103301.543000",
    "103303.542000",
    "103305.543000",
    "103307.543000",
    "103309.544000",
    "103311.544000",
    "103313.544000",
    "103315.544000",
    "103317.543000",
    "103319.543000",
    "103321.543000",
    "103323.543000",
    "103325.543000",
    "103327.544000",
    "103329.544000",
    "103331.544000",
    "103333.544000",
    "103335.543000",
    "103337.543000",
    "103339.543000",
    "103341.543000",
    "103343.544000",
    "103345.544000",
    "103347.543000",
    "103349.543000",
    "103351.543000",
    "103353.543000",
    "103355.543000",
    "103357.543000",
    "103359.543000",
    "103401.544000",
    "103403.543000",
    "103405.544000",
    "103407.544000",
    "103409.544000",
    "103411.542000",
    "103413.543000",
    "103415.543000",
    "103417.543000",
    "103419.544000",
    "103421.544000",
    "103423.544000",
    "103425.544000",
    "103427.543000",
    "103429.543000",
    "103431.542000",
    "103433.543000",
    "103435.542000",
    "103437.544000",
    "103439.544000",
    "103441.544000",
    "103443.544000",
    "103445.103000"
   ],
   "InstanceCreationTime": [
    "102616.048000",
    "102617.543000",
    "102619.542000",
    "102621.542000",
    "102623.542000",
    "102625.543000",
    "102627.543000",
    "102629.544000",
    "102631.543000",
    "102633.544000",
    "102635.542000",
    "102637.542000",
    "102639.543000",
    "102641.542000",
    "102643.542000",
    "102645.543000",
    "102647.544000",
    "102649.544000",
    "102651.543000",
    "102653.543000",
    "102655.542000",
    "102657.543000",
    "102659.543000",
    "102701.543000",
    "102703.544000",
    "102705.544000",
    "102707.543000",
    "102709.544000",
    "102711.542000",
    "102713.543000",
    "102715.542000",
    "102717.542000",
    "102719.543000",
    "102721.543000",
    "102723.543000",
    "102725.544000",
    "102727.542000",
    "102729.543000",
    "102731.542000",
    "102733.543000",
    "102735.543000",
    "102737.544000",
    "102739.544000",
    "102741.543000",
    "102743.543000",
    "102745.543000",
    "102747.543000",
    "102749.543000",
    "102751.542000",
    "102753.542000",
    "102755.543000",
    "102757.544000",
    "102759.543000",
    "102801.544000",
    "102803.542000",
    "102805.543000",
    "102807.543000",
    "102809.543000",
    "102811.544000",
    "102813.544000",
    "102815.543000",
    "102817.544000",
    "102819.544000",
    "102821.542000",
    "102823.543000",
    "102825.543000",
    "102827.543000",
    "102829.544000",
    "102831.543000",
    "102833.544000",
    "102835.544000",
    "102837.542000",
    "102839.542000",
    "102841.543000",
    "102843.543000",
    "102845.543000",
    "102847.543000",
    "102849.543000",
    "102851.544000",
    "102853.544000",
    "102855.542000",
    "102857.543000",
    "102859.543000",
    "102901.543000",
    "102903.543000",
    "102905.543000",
    "102907.543000",
    "102909.544000",
    "102911.543000",
    "102913.543000",
    "102915.542000",
    "102917.542000",
    "102919.542000",
    "102921.543000",
    "102923.543000",
    "102925.544000",
    "102927.543000",
    "102929.543000",
    "102931.543000",
    "102933.542000",
    "102935.543000",
    "102937.543000",
    "102939.544000",
    "102941.544000",
    "102943.543000",
    "102945.544000",
    "102947.542000",
    "102949.542000",
    "102951.542000",
    "102953.543000",
    "102955.543000",
    "102957.543000",
    "102959.543000",
    "103001.544000",
    "103003.544000",
    "103005.542000",
    "103007.543000",
    "103009.542000",
    "103011.543000",
    "103013.543000",
    "103015.543000",
    "103017.544000",
    "103019.544000",
    "103021.544000",
    "103023.543000",
    "103025.543000",
    "103027.542000",
    "103029.543000",
    "103031.544000",
    "103033.544000",
    "103035.544000",
    "103037.544000",
    "103039.556000",
    "103041.543000",
    "103043.543000",
    "103045.543000",
    "103047.543000",
    "103049.543000",
    "103051.544000",
    "103053.543000",
    "103055.544000",
    "103057.542000",
    "103059.543000",
    "103101.543000",
    "103103.543000",
    "103105.543000",
    "103107.544000",
    "103109.544000",
    "103111.543000",
    "103113.544000",
    "103115.543000",
    "103117.543000",
    "103119.543000",
    "103121.543000",
    "103123.544000",
    "103125.544000",
    "103127.544000",
    "103129.543000",
    "103131.544000",
    "103133.542000",
    "103135.543000",
    "103137.543000",
    "103139.543000",
    "103141.544000",
    "103143.543000",
    "103145.543000",
    "103147.543000",
    "103149.544000",
    "103151.543000",
    "103153.542000",
    "103155.543000",
    "103157.543000",
    "103159.544000",
    "103201.544000",
    "103203.543000",
    "103205.543000",
    "103207.543000",
    "103209.542000",
    "103211.543000",
    "103213.543000",
    "103215.543000",
    "103217.544000",
    "103219.544000",
    "103221.544000",
    "103223.544000",
    "103225.542000",
    "103227.543000",
    "103229.543000",
    "103231.543000",
    "103233.544000",
    "103235.544000",
    "103237.543000",
    "103239.544000",
    "103241.544000",
    "103243.543000",
    "103245.543000",
    "103247.543000",
    "103249.543000",
    "103251.543000",
    "103253.544000",
    "103255.544000",
    "103257.543000",
    "103259.544000",
    "103301.543000",
    "103303.542000",
    "103305.543000",
    "103307.543000",
    "103309.544000",
    "103311.544000",
    "103313.544000",
    "103315.544000",
    "103317.543000",
    "103319.543000",
    "103321.543000",
    "103323.543000",
    "103325.543000",
    "103327.544000",
    "103329.544000",
    "103331.544000",
    "103333.544000",
    "103335.543000",
    "103337.543000",
    "103339.543000",
    "103341.543000",
    "103343.544000",
    "103345.544000",
    "103347.543000",
    "103349.543000",
    "103351.543000",
    "103353.543000",
    "103355.543000",
    "103357.543000",
    "103359.543000",
    "103401.544000",
    "103403.543000",
    "103405.544000",
    "103407.544000",
    "103409.544000",
    "103411.542000",
    "103413.543000",
    "103415.543000",
    "103417.543000",
    "103419.544000",
    "103421.544000",
    "103423.544000",
    "103425.544000",
    "103427.543000",
    "103429.543000",
    "103431.542000",
    "103433.543000",
    "103435.542000",
    "103437.544000",
    "103439.544000",
    "103441.544000",
    "103443.544000",
    "103445.103000"
   ],
   "InstanceNumber": [
    1,
    2,
    3,
    4,
    5,
    6,
    7,
    8,
    9,
    10,
    11,
    12,
    13,
    14,
    15,
    16,
    17,
    18,
    19,
    20,
    21,
    22,
    23,
    24,
    25,
    26,
    27,
    28,
    29,
    30,
    31,
    32,
    33,
    34,
    35,
    36,
    37,
    38,
    39,
    40,
    41,
    42,
    43,
    44,
    45,
    46,
    47,
    48,
    49,
    50,
    51,
    52,
    53,
    54,
    55,
    56,
    57,
    58,
    59,
    60,
    61,
    62,
    63,
    64,
    65,
    66,
    67,
    68,
    69,
    70,
    71,
    72,
    73,
    74,
    75,
    76,
    77,
    78,
    79,
    80,
    81,
    82,
    83,
    84,
    85,
    86,
    87,
    88,
    89,
    90,
    91,
    92,
    93,
    94,
    95,
    96,
    97,
    98,
    99,
    100,
    101,
    102,
    103,
    104,
    105,
    106,
    107,
    108,
    109,
    110,
    111,
    112,
    113,
    114,
    115,
    116,
    117,
    118,
    119,
    120,
    121,
    122,
    123,
    124,
    125,
    126,
    127,
    128,
    129,
    130,
    131,
    132,
    133,
    134,
    135,
    136,
    137,
    138,
    139,
    140,
    141,
    142,
    143,
    144,
    145,
    146,
    147,
    148,
    149,
    150,
    151,
    152,
    153,
    154,
    155,
    156,
    157,
    158,
    159,
    160,
    161,
    162,
    163,
    164,
    165,
    166,
    167,
    168,
    169,
    170,
    171,
    172,
    173,
    174,
    175,
    176,
    177,
    178,
    179,
    180,
    181,
    182,
    183,
    184,
    185,
    186,
    187,
    188,
    189,
    190,
    191,
    192,
    193,
    194,
    195,
    196,
    197,
    198,
    199,
    200,
    201,
    202,
    203,
    204,
    205,
    206,
    207,
    208,
    209,
    210,
    211,
    212,
    213,
    214,
    215,
    216,
    217,
    218,
    219,
    220,
    221,
    222,
    223,
    224,
    225,
    226,
    227,
    228,
    229,
    230,
    231,
    232,
    233,
    234,
    235,
    236,
    237,
    238,
    239,
    240,
    241,
    242,
    243,
    244,
    245,
    246,
    247,
    248,
    249,
    250,
    251,
    252,
    253,
    254,
    255,
    256
   ],
   "LargestImagePixelValue": [
    3560,
    3507,
    3430,
    3394,
    3386,
    3405,
    3413,
    3379,
    3366,
    3383,
    3402,
    3444,
    3431,
    3426,
    3390,
    3464,
    3422,
    3425,
    3461,
    3430,
    3381,
    3354,
    3393,
    3411,
    3372,
    3337,
    3356,
    3407,
    3394,
    3412,
    3410,
    3347,
    3388,
    3394,
    3394,
    3421,
    3397,
    3444,
    3402,
    3418,
    3448,
    3427,
    3429,
    3381,
    3381,
    3347,
    3341,
    3369,
    3366,
    3340,
    3343,
    3415,
    3449,
    3424,
    3411,
    3431,
    3381,
    3356,
    3365,
    3396,
    3410,
    3433,
    3405,
    3405,
    3320,
    3356,
    3392,
    3427,
    3387,
    3387,
    3383,
    3383,
    3438,
    3421,
    3438,
    3427,
    3393,
    3430,
    3439,
    3429,
    3444,
    3423,
    3421,
    3434,
    3395,
    3331,
    3325,
    3426,
    3422,
    3444,
    3358,
    3425,
    3414,
    3460,
    3396,
    3423,
    3447,
    3440,
    3420,
    3437,
    3404,
    3449,
    3440,
    3476,
    3439,
    3399,
    3474,
    3461,
    3472,
    3405,
    3345,
    3360,
    3390,
    3395,
    3382,
    3382,
    3362,
    3353,
    3395,
    3450,
    3418,
    3464,
    3414,
    3396,
    3385,
    3401,
    3413,
    3417,
    3371,
    3373,
    3399,
    3381,
    3404,
    3456,
    3515,
    3509,
    3495,
    3417,
    3393,
    3402,
    3446,
    3390,
    3384,
    3363,
    3380,
    3338,
    3376,
    3394,
    3390,
    3401,
    3402,
    3447,
    3455,
    3421,
    3304,
    3361,
    3395,
    3350,
    3437,
    3405,
    3401,
    3417,
    3449,
    3408,
    3412,
    3398,
    3370,
    3427,
    3427,
    3463,
    3436,
    3459,
    3432,
    3471,
    3455,
    3479,
    3422,
    3353,
    3362,
    3373,
    3357,
    3373,
    3393,
    3334,
    3305,
    3331,
    3348,
    3406,
    3443,
    3433,
    3381,
    3339,
    3334,
    3336,
    3370,
    3351,
    3401,
    3424,
    3411,
    3370,
    3381,
    3346,
    3344,
    3409,
    3409,
    3416,
    3373,
    3422,
    3447,
    3419,
    3409,
    3376,
    3395,
    3360,
    3347,
    3366,
    3383,
    3376,
    3418,
    3389,
    3412,
    3441,
    3415,
    3450,
    3489,
    3452,
    3416,
    3456,
    3491,
    3465,
    3475,
    3466,
    3565,
    3503,
    3525,
    3539,
    3574,
    3498,
    3440,
    3389,
    3345,
    3378,
    3320,
    3354,
    3368,
    3450,
    3433,
    3398,
    3302,
    3340,
    3340,
    3357,
    3427,
    3440,
    3394,
    3365
   ],
   "WindowCenter": [
    777.0,
    776.0,
    774.0,
    772.0,
    770.0,
    772.0,
    773.0,
    772.0,
    770.0,
    769.0,
    771.0,
    773.0,
    773.0,
    773.0,
    773.0,
    772.0,
    771.0,
    772.0,
    773.0,
    772.0,
    771.0,
    772.0,
    774.0,
    774.0,
    773.0,
    772.0,
    772.0,
    772.0,
    773.0,
    773.0,
    772.0,
    771.0,
    772.0,
    773.0,
    773.0,
    773.0,
    775.0,
    774.0,
    773.0,
    774.0,
    775.0,
    774.0,
    773.0,
    770.0,
    768.0,
    767.0,
    768.0,
    768.0,
    768.0,
    768.0,
    770.0,
    772.0,
    772.0,
    773.0,
    774.0,
    775.0,
    774.0,
    772.0,
    772.0,
    772.0,
    773.0,
    774.0,
    774.0,
    773.0,
    772.0,
    773.0,
    774.0,
    774.0,
    775.0,
    775.0,
    775.0,
    773.0,
    773.0,
    774.0,
    774.0,
    774.0,
    773.0,
    772.0,
    772.0,
    773.0,
    774.0,
    773.0,
    772.0,
    770.0,
    767.0,
    766.0,
    768.0,
    771.0,
    772.0,
    772.0,
    772.0,
    773.0,
    773.0,
    773.0,
    773.0,
    774.0,
    775.0,
    774.0,
    772.0,
    771.0,
    771.0,
    773.0,
    774.0,
    775.0,
    773.0,
    773.0,
    773.0,
    773.0,
    774.0,
    774.0,
    773.0,
    773.0,
    773.0,
    773.0,
    772.0,
    772.0,
    772.0,
    772.0,
    773.0,
    774.0,
    773.0,
    773.0,
    773.0,
    774.0,
    773.0,
    772.0,
    771.0,
