{
 "AcquisitionMatrixPE": 100,
 "AcquisitionNumber": 1,
 "AcquisitionTime": "09:09:3.375000",
 "BandwidthPerPixelPhaseEncode": 18.519,
 "BaseResolution": 100,
 "BodyPartExamined": "BRAIN",
 "ConsistencyInfo": "N4_VE11C_LATEST_20160120",
 "ConversionSoftware": "dcm2niix",
 "ConversionSoftwareVersion": "v1.0.20180622 GCC4.9.2",
 "DerivedVendorReportedEchoSpacing": 0.000539986,
 "DeviceSerialNumber": "166078",
 "DwellTime": 2.1e-06,
 "EchoTime": 0.034,
 "EchoTrainLength": 100,
 "EffectiveEchoSpacing": 0.000539986,
 "FlipAngle": 90,
 "ImageOrientationPatientDICOM": [
  1,
  0,
  0,
  0,
  0.986856,
  -0.161604
 ],
 "ImageType": [
  "ORIGINAL",
  "PRIMARY",
  "M",
  "ND",
  "MOSAIC"
 ],
 "InPlanePhaseEncodingDirectionDICOM": "COL",
 "InstitutionAddress": "Street_StreetNo_Bei_Jing_District_CN_ZIP",
 "InstitutionName": "BeiJing_Normal_University",
 "InstitutionalDepartmentName": "Department",
 "MRAcquisitionType": "2D",
 "MagneticFieldStrength": 3,
 "Manufacturer": "Siemens",
 "ManufacturersModelName": "Prisma",
 "Modality": "MR",
 "MultibandAccelerationFactor": 3,
 "PartialFourier": 1,
 "PatientPosition": "HFS",
 "PercentPhaseFOV": 100,
 "PhaseEncodingDirection": "j-",
 "PhaseEncodingSteps": 100,
 "PhaseResolution": 1,
 "PixelBandwidth": 2380,
 "ProcedureStepDescription": "BNU_P2018_64CH_Zhen.ZongLei",
 "ProtocolName": "bold_100x100_s3_2x2x2_static_256",
 "PulseSequenceDetails": "%SiemensSeq%_ep2d_bold",
 "ReceiveCoilActiveElements": "HC1-7;NC1",
 "ReceiveCoilName": "HeadNeck_64",
 "ReconMatrixPE": 100,
 "RepetitionTime": 2,
 "SAR": 0.0621423,
 "ScanOptions": "FS",
 "ScanningSequence": "EP",
 "SequenceName": "_epfid2d1_100",
 "SequenceVariant": "SK",
 "SeriesDescription": "bold_100x100_s3_2x2x2_static_256",
 "SeriesNumber": 3,
 "ShimSetting": [
  -5455,
  -11461,
  -1290,
  385,
  -16,
  -338,
  -269,
  36
 ],
 "SliceThickness": 2,
 "SliceTiming": [
  1.485,
  0,
  0.99,
  0.0825,
  1.0725,
  0.165,
  1.155,
  0.2475,
  1.2375,
  0.33,
  1.32,
  0.4125,
  1.4025,
  0.5775,
  1.5675,
  0.66,
  1.65,
  0.7425,
  1.7325,
  0.825,
  1.815,
  0.9075,
  1.8975,
  0.495,
  1.485,
  0,
  0.99,
  0.0825,
  1.0725,
  0.165,
  1.155,
  0.2475,
  1.2375,
  0.33,
  1.32,
  0.4125,
  1.4025,
  0.5775,
  1.5675,
  0.66,
  1.65,
  0.7425,
  1.7325,
  0.825,
  1.815,
  0.9075,
  1.8975,
  0.495,
  1.485,
  0,
  0.99,
  0.0825,
  1.0725,
  0.165,
  1.155,
  0.2475,
  1.2375,
  0.33,
  1.32,
  0.4125,
  1.4025,
  0.5775,
  1.5675,
  0.66,
  1.65,
  0.7425,
  1.7325,
  0.825,
  1.815,
  0.9075,
  1.8975,
  0.495
 ],
 "SoftwareVersions": "syngo_MR_E11",
 "SpacingBetweenSlices": 2,
 "StationName": "AWP166078",
 "TaskName": "imagenet",
 "TotalReadoutTime": 0.0534586,
 "TxRefAmp": 208.559,
 "dcmmeta_affine": [
  [
   -2.0,
   0.0,
   0.0,
   100.0
  ],
  [
   0.0,
   1.9737114906311035,
   -0.32320764660835266,
   -85.03076171875
  ],
  [
   0.0,
   0.32320764660835266,
   1.973711371421814,
   -97.83645629882812
  ],
  [
   0.0,
   0.0,
   0.0,
   1.0
  ]
 ],
 "dcmmeta_reorient_transform": [
  [
   0.0,
   -1.0,
   0.0,
   99.0
  ],
  [
   1.0,
   0.0,
   0.0,
   0.0
  ],
  [
   0.0,
   0.0,
   1.0,
   0.0
  ],
  [
   0.0,
   0.0,
   0.0,
   1.0
  ]
 ],
 "dcmmeta_shape": [
  100,
  100,
  72,
  256
 ],
 "dcmmeta_slice_dim": 2,
 "dcmmeta_version": 0.6,
 "global": {
  "const": {
   "AcquisitionMatrix": [
    100,
    0,
    0,
    100
   ],
   "AngioFlag": "N",
   "BitsAllocated": 16,
   "BitsStored": 12,
   "BodyPartExamined": "BRAIN",
   "Columns": 900,
   "EchoNumbers": 1,
   "EchoTime": 34.0,
   "EchoTrainLength": 100,
   "FlipAngle": 90.0,
   "HighBit": 11,
   "ImageOrientationPatient": [
    1.0,
    0.0,
    0.0,
    0.0,
    0.98685571586892,
    -0.1616038243881
   ],
   "ImagePositionPatient": [
    -900.0,
    -899.85124417369,
    63.444159112358
   ],
   "ImageType": [
    "ORIGINAL",
    "PRIMARY",
    "M",
    "ND",
    "MOSAIC"
   ],
   "ImagedNucleus": "1H",
   "ImagingFrequency": 123.257762,
   "InPlanePhaseEncodingDirection": "COL",
   "MRAcquisitionType": "2D",
   "MagneticFieldStrength": 3.0,
   "Manufacturer": "SIEMENS",
   "ManufacturerModelName": "Prisma",
   "Modality": "MR",
   "NumberOfAverages": 1.0,
   "NumberOfPhaseEncodingSteps": 100,
   "PercentPhaseFieldOfView": 100.0,
   "PercentSampling": 100.0,
   "PerformedProcedureStepStartTime": "090613.470000",
   "PhotometricInterpretation": "MONOCHROME2",
   "PixelBandwidth": 2380.0,
   "PixelRepresentation": 0,
   "PixelSpacing": [
    2.0,
    2.0
   ],
   "ProtocolName": "bold_100x100_s3_2x2x2_static_256",
   "RepetitionTime": 2000.0,
   "Rows": 900,
   "SAR": 0.06214227852428,
   "SamplesPerPixel": 1,
   "ScanOptions": "FS",
   "ScanningSequence": "EP",
   "SequenceName": "*epfid2d1_100",
   "SequenceVariant": "SK",
   "SeriesDescription": "bold_100x100_s3_2x2x2_static_256",
   "SeriesNumber": 3,
   "SeriesTime": "090905.937000",
   "SliceLocation": -82.809171380312,
   "SliceThickness": 2.0,
   "SmallestImagePixelValue": 0,
   "SoftwareVersions": "syngo MR E11",
   "SpacingBetweenSlices": 1.9999999308243,
   "SpecificCharacterSet": "ISO_IR 100",
   "StudyID": "1",
   "StudyTime": "090613.379000",
   "TransmitCoilName": "Body",
   "VariableFlipAngleFlag": "N",
   "WindowCenterWidthExplanation": "Algo1",
   "dBdt": 0.0
  },
  "slices": {}
 },
 "time": {
  "samples": {
   "AcquisitionNumber": [
    1,
    2,
    3,
    4,
    5,
    6,
    7,
    8,
    9,
    10,
    11,
    12,
    13,
    14,
    15,
    16,
    17,
    18,
    19,
    20,
    21,
    22,
    23,
    24,
    25,
    26,
    27,
    28,
    29,
    30,
    31,
    32,
    33,
    34,
    35,
    36,
    37,
    38,
    39,
    40,
    41,
    42,
    43,
    44,
    45,
    46,
    47,
    48,
    49,
    50,
    51,
    52,
    53,
    54,
    55,
    56,
    57,
    58,
    59,
    60,
    61,
    62,
    63,
    64,
    65,
    66,
    67,
    68,
    69,
    70,
    71,
    72,
    73,
    74,
    75,
    76,
    77,
    78,
    79,
    80,
    81,
    82,
    83,
    84,
    85,
    86,
    87,
    88,
    89,
    90,
    91,
    92,
    93,
    94,
    95,
    96,
    97,
    98,
    99,
    100,
    101,
    102,
    103,
    104,
    105,
    106,
    107,
    108,
    109,
    110,
    111,
    112,
    113,
    114,
    115,
    116,
    117,
    118,
    119,
    120,
    121,
    122,
    123,
    124,
    125,
    126,
    127,
    128,
    129,
    130,
    131,
    132,
    133,
    134,
    135,
    136,
    137,
    138,
    139,
    140,
    141,
    142,
    143,
    144,
    145,
    146,
    147,
    148,
    149,
    150,
    151,
    152,
    153,
    154,
    155,
    156,
    157,
    158,
    159,
    160,
    161,
    162,
    163,
    164,
    165,
    166,
    167,
    168,
    169,
    170,
    171,
    172,
    173,
    174,
    175,
    176,
    177,
    178,
    179,
    180,
    181,
    182,
    183,
    184,
    185,
    186,
    187,
    188,
    189,
    190,
    191,
    192,
    193,
    194,
    195,
    196,
    197,
    198,
    199,
    200,
    201,
    202,
    203,
    204,
    205,
    206,
    207,
    208,
    209,
    210,
    211,
    212,
    213,
    214,
    215,
    216,
    217,
    218,
    219,
    220,
    221,
    222,
    223,
    224,
    225,
    226,
    227,
    228,
    229,
    230,
    231,
    232,
    233,
    234,
    235,
    236,
    237,
    238,
    239,
    240,
    241,
    242,
    243,
    244,
    245,
    246,
    247,
    248,
    249,
    250,
    251,
    252,
    253,
    254,
    255,
    256
   ],
   "AcquisitionTime": [
    "090903.375000",
    "090905.375000",
    "090907.375000",
    "090909.375000",
    "090911.375000",
    "090913.375000",
    "090915.375000",
    "090917.375000",
    "090919.375000",
    "090921.375000",
    "090923.375000",
    "090925.375000",
    "090927.375000",
    "090929.375000",
    "090931.375000",
    "090933.375000",
    "090935.375000",
    "090937.375000",
    "090939.375000",
    "090941.375000",
    "090943.375000",
    "090945.375000",
    "090947.375000",
    "090949.375000",
    "090951.375000",
    "090953.375000",
    "090955.375000",
    "090957.375000",
    "090959.375000",
    "091001.375000",
    "091003.375000",
    "091005.375000",
    "091007.375000",
    "091009.375000",
    "091011.375000",
    "091013.375000",
    "091015.375000",
    "091017.375000",
    "091019.375000",
    "091021.375000",
    "091023.375000",
    "091025.375000",
    "091027.375000",
    "091029.375000",
    "091031.375000",
    "091033.375000",
    "091035.375000",
    "091037.375000",
    "091039.375000",
    "091041.375000",
    "091043.375000",
    "091045.375000",
    "091047.375000",
    "091049.375000",
    "091051.375000",
    "091053.375000",
    "091055.375000",
    "091057.375000",
    "091059.375000",
    "091101.375000",
    "091103.375000",
    "091105.375000",
    "091107.375000",
    "091109.375000",
    "091111.375000",
    "091113.375000",
    "091115.375000",
    "091117.375000",
    "091119.375000",
    "091121.375000",
    "091123.375000",
    "091125.375000",
    "091127.375000",
    "091129.375000",
    "091131.375000",
    "091133.375000",
    "091135.375000",
    "091137.375000",
    "091139.375000",
    "091141.375000",
    "091143.375000",
    "091145.375000",
    "091147.375000",
    "091149.375000",
    "091151.375000",
    "091153.375000",
    "091155.375000",
    "091157.375000",
    "091159.375000",
    "091201.375000",
    "091203.375000",
    "091205.375000",
    "091207.375000",
    "091209.375000",
    "091211.375000",
    "091213.375000",
    "091215.375000",
    "091217.375000",
    "091219.375000",
    "091221.375000",
    "091223.375000",
    "091225.375000",
    "091227.375000",
    "091229.375000",
    "091231.375000",
    "091233.375000",
    "091235.375000",
    "091237.375000",
    "091239.375000",
    "091241.375000",
    "091243.375000",
    "091245.375000",
    "091247.375000",
    "091249.375000",
    "091251.375000",
    "091253.375000",
    "091255.375000",
    "091257.375000",
    "091259.375000",
    "091301.375000",
    "091303.375000",
    "091305.375000",
    "091307.375000",
    "091309.375000",
    "091311.375000",
    "091313.375000",
    "091315.375000",
    "091317.375000",
    "091319.375000",
    "091321.375000",
    "091323.375000",
    "091325.375000",
    "091327.375000",
    "091329.375000",
    "091331.375000",
    "091333.375000",
    "091335.375000",
    "091337.375000",
    "091339.375000",
    "091341.375000",
    "091343.375000",
    "091345.375000",
    "091347.375000",
    "091349.375000",
    "091351.375000",
    "091353.375000",
    "091355.375000",
    "091357.375000",
    "091359.375000",
    "091401.375000",
    "091403.375000",
    "091405.375000",
    "091407.375000",
    "091409.375000",
    "091411.375000",
    "091413.375000",
    "091415.375000",
    "091417.375000",
    "091419.375000",
    "091421.375000",
    "091423.375000",
    "091425.375000",
    "091427.375000",
    "091429.375000",
    "091431.375000",
    "091433.375000",
    "091435.375000",
    "091437.375000",
    "091439.375000",
    "091441.375000",
    "091443.375000",
    "091445.375000",
    "091447.375000",
    "091449.375000",
    "091451.375000",
    "091453.375000",
    "091455.375000",
    "091457.375000",
    "091459.375000",
    "091501.375000",
    "091503.375000",
    "091505.375000",
    "091507.375000",
    "091509.375000",
    "091511.375000",
    "091513.375000",
    "091515.375000",
    "091517.375000",
    "091519.375000",
    "091521.375000",
    "091523.375000",
    "091525.375000",
    "091527.375000",
    "091529.375000",
    "091531.375000",
    "091533.375000",
    "091535.375000",
    "091537.375000",
    "091539.375000",
    "091541.375000",
    "091543.375000",
    "091545.375000",
    "091547.375000",
    "091549.375000",
    "091551.375000",
    "091553.375000",
    "091555.375000",
    "091557.375000",
    "091559.375000",
    "091601.375000",
    "091603.375000",
    "091605.375000",
    "091607.375000",
    "091609.375000",
    "091611.375000",
    "091613.375000",
    "091615.375000",
    "091617.375000",
    "091619.375000",
    "091621.375000",
    "091623.375000",
    "091625.375000",
    "091627.375000",
    "091629.375000",
    "091631.375000",
    "091633.375000",
    "091635.375000",
    "091637.375000",
    "091639.375000",
    "091641.375000",
    "091643.375000",
    "091645.375000",
    "091647.375000",
    "091649.375000",
    "091651.375000",
    "091653.375000",
    "091655.375000",
    "091657.375000",
    "091659.375000",
    "091701.375000",
    "091703.375000",
    "091705.375000",
    "091707.375000",
    "091709.375000",
    "091711.375000",
    "091713.375000",
    "091715.375000",
    "091717.375000",
    "091719.375000",
    "091721.375000",
    "091723.375000",
    "091725.375000",
    "091727.375000",
    "091729.375000",
    "091731.375000",
    "091733.375000"
   ],
   "ContentTime": [
    "090905.942000",
    "090907.436000",
    "090909.436000",
    "090911.435000",
    "090913.436000",
    "090915.436000",
    "090917.437000",
    "090919.436000",
    "090921.436000",
    "090923.436000",
    "090925.436000",
    "090927.436000",
    "090929.436000",
    "090931.436000",
    "090933.937000",
    "090935.436000",
    "090937.435000",
    "090939.435000",
    "090941.435000",
    "090943.436000",
    "090945.436000",
    "090947.436000",
    "090949.437000",
    "090951.436000",
    "090953.436000",
    "090955.435000",
    "090957.436000",
    "090959.436000",
    "091001.435000",
    "091003.435000",
    "091005.436000",
    "091007.437000",
    "091009.436000",
    "091011.437000",
    "091013.435000",
    "091015.436000",
    "091017.436000",
    "091019.435000",
    "091021.435000",
    "091023.436000",
    "091025.437000",
    "091027.436000",
    "091029.435000",
    "091031.435000",
    "091033.435000",
    "091035.436000",
    "091037.436000",
    "091039.436000",
    "091041.437000",
    "091043.436000",
    "091045.436000",
    "091047.436000",
    "091049.436000",
    "091051.436000",
    "091053.436000",
    "091055.436000",
    "091057.436000",
    "091059.436000",
    "091101.436000",
    "091103.436000",
    "091105.436000",
    "091107.435000",
    "091109.436000",
    "091111.435000",
    "091113.436000",
    "091115.436000",
    "091117.436000",
    "091119.436000",
    "091121.437000",
    "091123.435000",
    "091125.435000",
    "091127.435000",
    "091129.436000",
    "091131.435000",
    "091133.436000",
    "091135.436000",
    "091137.437000",
    "091139.436000",
    "091141.435000",
    "091143.436000",
    "091145.436000",
    "091147.436000",
    "091149.436000",
    "091151.437000",
    "091153.437000",
    "091155.436000",
    "091157.435000",
    "091159.435000",
    "091201.435000",
    "091203.436000",
    "091205.436000",
    "091207.436000",
    "091209.436000",
    "091211.436000",
    "091213.436000",
    "091215.435000",
    "091217.435000",
    "091219.436000",
    "091221.435000",
    "091223.436000",
    "091225.435000",
    "091227.436000",
    "091229.437000",
    "091231.436000",
    "091233.435000",
    "091235.435000",
    "091237.435000",
    "091239.435000",
    "091241.436000",
    "091243.436000",
    "091245.436000",
    "091247.436000",
    "091249.435000",
    "091251.436000",
    "091253.436000",
    "091255.436000",
    "091257.435000",
    "091259.435000",
    "091301.437000",
    "091303.436000",
    "091305.437000",
    "091307.435000",
    "091309.436000",
    "091311.436000",
    "091313.436000",
    "091315.435000",
    "091317.436000",
    "091319.437000",
    "091321.437000",
    "091323.436000",
    "091325.435000",
    "091327.435000",
    "091329.449000",
    "091331.436000",
    "091333.435000",
    "091335.436000",
    "091337.437000",
    "091339.936000",
    "091341.437000",
    "091343.436000",
    "091345.435000",
    "091347.435000",
    "091349.435000",
    "091351.436000",
    "091353.437000",
    "091355.436000",
    "091357.437000",
    "091359.436000",
    "091401.435000",
    "091403.436000",
    "091405.435000",
    "091407.436000",
    "091409.436000",
    "091411.436000",
    "091413.437000",
    "091415.437000",
    "091417.435000",
    "091419.436000",
    "091421.436000",
    "091423.435000",
    "091425.436000",
    "091427.436000",
    "091429.437000",
    "091431.437000",
    "091433.437000",
    "091435.436000",
    "091437.436000",
    "091439.436000",
    "091441.435000",
    "091443.436000",
    "091445.436000",
    "091447.436000",
    "091449.436000",
    "091451.436000",
    "091453.435000",
    "091455.436000",
    "091457.436000",
    "091459.435000",
    "091501.435000",
    "091503.437000",
    "091505.437000",
    "091507.437000",
    "091509.436000",
    "091511.435000",
    "091513.443000",
    "091515.436000",
    "091517.435000",
    "091519.436000",
    "091521.436000",
    "091523.437000",
    "091525.436000",
    "091527.436000",
    "091529.436000",
    "091531.436000",
    "091533.436000",
    "091535.435000",
    "091537.435000",
    "091539.436000",
    "091541.437000",
    "091543.436000",
    "091545.436000",
    "091547.456000",
    "091549.435000",
    "091551.435000",
    "091553.436000",
    "091555.437000",
    "091557.437000",
    "091559.437000",
    "091601.437000",
    "091603.436000",
    "091605.436000",
    "091607.435000",
    "091609.436000",
    "091611.436000",
    "091613.436000",
    "091615.437000",
    "091617.437000",
    "091619.435000",
    "091621.436000",
    "091623.435000",
    "091625.436000",
    "091627.436000",
    "091629.435000",
    "091631.436000",
    "091633.436000",
    "091635.437000",
    "091637.435000",
    "091639.436000",
    "091641.436000",
    "091643.435000",
    "091645.436000",
    "091647.436000",
    "091649.436000",
    "091651.437000",
    "091653.436000",
    "091655.436000",
    "091657.436000",
    "091659.435000",
    "091701.436000",
    "091703.435000",
    "091705.436000",
    "091707.437000",
    "091709.437000",
    "091711.436000",
    "091713.435000",
    "091715.435000",
    "091717.436000",
    "091719.436000",
    "091721.436000",
    "091723.437000",
    "091725.436000",
    "091727.436000",
    "091729.436000",
    "091731.436000",
    "091733.436000",
    "091735.340000"
   ],
   "InstanceCreationTime": [
    "090905.942000",
    "090907.436000",
    "090909.436000",
    "090911.435000",
    "090913.436000",
    "090915.436000",
    "090917.437000",
    "090919.436000",
    "090921.436000",
    "090923.436000",
    "090925.436000",
    "090927.436000",
    "090929.436000",
    "090931.436000",
    "090933.937000",
    "090935.436000",
    "090937.435000",
    "090939.435000",
    "090941.435000",
    "090943.436000",
    "090945.436000",
    "090947.436000",
    "090949.437000",
    "090951.436000",
    "090953.436000",
    "090955.435000",
    "090957.436000",
    "090959.436000",
    "091001.435000",
    "091003.435000",
    "091005.436000",
    "091007.437000",
    "091009.436000",
    "091011.437000",
    "091013.435000",
    "091015.436000",
    "091017.436000",
    "091019.435000",
    "091021.435000",
    "091023.436000",
    "091025.437000",
    "091027.436000",
    "091029.435000",
    "091031.435000",
    "091033.435000",
    "091035.436000",
    "091037.436000",
    "091039.436000",
    "091041.437000",
    "091043.436000",
    "091045.436000",
    "091047.436000",
    "091049.436000",
    "091051.436000",
    "091053.436000",
    "091055.436000",
    "091057.436000",
    "091059.436000",
    "091101.436000",
    "091103.436000",
    "091105.436000",
    "091107.435000",
    "091109.436000",
    "091111.435000",
    "091113.436000",
    "091115.436000",
    "091117.436000",
    "091119.436000",
    "091121.437000",
    "091123.435000",
    "091125.435000",
    "091127.435000",
    "091129.436000",
    "091131.435000",
    "091133.436000",
    "091135.436000",
    "091137.437000",
    "091139.436000",
    "091141.435000",
    "091143.436000",
    "091145.436000",
    "091147.436000",
    "091149.436000",
    "091151.437000",
    "091153.437000",
    "091155.436000",
    "091157.435000",
    "091159.435000",
    "091201.435000",
    "091203.436000",
    "091205.436000",
    "091207.436000",
    "091209.436000",
    "091211.436000",
    "091213.436000",
    "091215.435000",
    "091217.435000",
    "091219.436000",
    "091221.435000",
    "091223.436000",
    "091225.435000",
    "091227.436000",
    "091229.437000",
    "091231.436000",
    "091233.435000",
    "091235.435000",
    "091237.435000",
    "091239.435000",
    "091241.436000",
    "091243.436000",
    "091245.436000",
    "091247.436000",
    "091249.435000",
    "091251.436000",
    "091253.436000",
    "091255.436000",
    "091257.435000",
    "091259.435000",
    "091301.437000",
    "091303.436000",
    "091305.437000",
    "091307.435000",
    "091309.436000",
    "091311.436000",
    "091313.436000",
    "091315.435000",
    "091317.436000",
    "091319.437000",
    "091321.437000",
    "091323.436000",
    "091325.435000",
    "091327.435000",
    "091329.449000",
    "091331.436000",
    "091333.435000",
    "091335.436000",
    "091337.437000",
    "091339.936000",
    "091341.437000",
    "091343.436000",
    "091345.435000",
    "091347.435000",
    "091349.435000",
    "091351.436000",
    "091353.437000",
    "091355.436000",
    "091357.437000",
    "091359.436000",
    "091401.435000",
    "091403.436000",
    "091405.435000",
    "091407.436000",
    "091409.436000",
    "091411.436000",
    "091413.437000",
    "091415.437000",
    "091417.435000",
    "091419.436000",
    "091421.436000",
    "091423.435000",
    "091425.436000",
    "091427.436000",
    "091429.437000",
    "091431.437000",
    "091433.437000",
    "091435.436000",
    "091437.436000",
    "091439.436000",
    "091441.435000",
    "091443.436000",
    "091445.436000",
    "091447.436000",
    "091449.436000",
    "091451.436000",
    "091453.435000",
    "091455.436000",
    "091457.436000",
    "091459.435000",
    "091501.435000",
    "091503.437000",
    "091505.437000",
    "091507.437000",
    "091509.436000",
    "091511.435000",
    "091513.443000",
    "091515.436000",
    "091517.435000",
    "091519.436000",
    "091521.436000",
    "091523.437000",
    "091525.436000",
    "091527.436000",
    "091529.436000",
    "091531.436000",
    "091533.436000",
    "091535.435000",
    "091537.435000",
    "091539.436000",
    "091541.437000",
    "091543.436000",
    "091545.436000",
    "091547.456000",
    "091549.435000",
    "091551.435000",
    "091553.436000",
    "091555.437000",
    "091557.437000",
    "091559.437000",
    "091601.437000",
    "091603.436000",
    "091605.436000",
    "091607.435000",
    "091609.436000",
    "091611.436000",
    "091613.436000",
    "091615.437000",
    "091617.437000",
    "091619.435000",
    "091621.436000",
    "091623.435000",
    "091625.436000",
    "091627.436000",
    "091629.435000",
    "091631.436000",
    "091633.436000",
    "091635.437000",
    "091637.435000",
    "091639.436000",
    "091641.436000",
    "091643.435000",
    "091645.436000",
    "091647.436000",
    "091649.436000",
    "091651.437000",
    "091653.436000",
    "091655.436000",
    "091657.436000",
    "091659.435000",
    "091701.436000",
    "091703.435000",
    "091705.436000",
    "091707.437000",
    "091709.437000",
    "091711.436000",
    "091713.435000",
    "091715.435000",
    "091717.436000",
    "091719.436000",
    "091721.436000",
    "091723.437000",
    "091725.436000",
    "091727.436000",
    "091729.436000",
    "091731.436000",
    "091733.436000",
    "091735.340000"
   ],
   "InstanceNumber": [
    1,
    2,
    3,
    4,
    5,
    6,
    7,
    8,
    9,
    10,
    11,
    12,
    13,
    14,
    15,
    16,
    17,
    18,
    19,
    20,
    21,
    22,
    23,
    24,
    25,
    26,
    27,
    28,
    29,
    30,
    31,
    32,
    33,
    34,
    35,
    36,
    37,
    38,
    39,
    40,
    41,
    42,
    43,
    44,
    45,
    46,
    47,
    48,
    49,
    50,
    51,
    52,
    53,
    54,
    55,
    56,
    57,
    58,
    59,
    60,
    61,
    62,
    63,
    64,
    65,
    66,
    67,
    68,
    69,
    70,
    71,
    72,
    73,
    74,
    75,
    76,
    77,
    78,
    79,
    80,
    81,
    82,
    83,
    84,
    85,
    86,
    87,
    88,
    89,
    90,
    91,
    92,
    93,
    94,
    95,
    96,
    97,
    98,
    99,
    100,
    101,
    102,
    103,
    104,
    105,
    106,
    107,
    108,
    109,
    110,
    111,
    112,
    113,
    114,
    115,
    116,
    117,
    118,
    119,
    120,
    121,
    122,
    123,
    124,
    125,
    126,
    127,
    128,
    129,
    130,
    131,
    132,
    133,
    134,
    135,
    136,
    137,
    138,
    139,
    140,
    141,
    142,
    143,
    144,
    145,
    146,
    147,
    148,
    149,
    150,
    151,
    152,
    153,
    154,
    155,
    156,
    157,
    158,
    159,
    160,
    161,
    162,
    163,
    164,
    165,
    166,
    167,
    168,
    169,
    170,
    171,
    172,
    173,
    174,
    175,
    176,
    177,
    178,
    179,
    180,
    181,
    182,
    183,
    184,
    185,
    186,
    187,
    188,
    189,
    190,
    191,
    192,
    193,
    194,
    195,
    196,
    197,
    198,
    199,
    200,
    201,
    202,
    203,
    204,
    205,
    206,
    207,
    208,
    209,
    210,
    211,
    212,
    213,
    214,
    215,
    216,
    217,
    218,
    219,
    220,
    221,
    222,
    223,
    224,
    225,
    226,
    227,
    228,
    229,
    230,
    231,
    232,
    233,
    234,
    235,
    236,
    237,
    238,
    239,
    240,
    241,
    242,
    243,
    244,
    245,
    246,
    247,
    248,
    249,
    250,
    251,
    252,
    253,
    254,
    255,
    256
   ],
   "LargestImagePixelValue": [
    3158,
    3132,
    3186,
    3244,
    3174,
    3079,
    3111,
    3089,
    3142,
    3158,
    3133,
    3162,
    3142,
    3073,
    3159,
    3123,
    3090,
    3095,
    3075,
    3072,
    3023,
    3034,
    3112,
    3108,
    3093,
    3137,
    3144,
    3117,
    3120,
    3050,
    3071,
    3130,
    3071,
    3066,
    3101,
    3146,
    3112,
    3103,
    3100,
    3058,
    3136,
    3086,
    3085,
    3122,
    3108,
    3072,
    3137,
    3099,
    3134,
    3145,
    3156,
    3161,
    3082,
    3107,
    3124,
    3157,
    3131,
    3088,
    3102,
    3149,
    3142,
    3129,
    3109,
    3126,
    3167,
    3104,
    3142,
    3168,
    3131,
    3113,
    3194,
    3188,
    3129,
    3142,
    3161,
    3207,
    3208,
    3114,
    3151,
    3165,
    3167,
    3177,
    3169,
    3199,
    3137,
    3179,
    3204,
    3111,
    3122,
    3123,
    3185,
    3188,
    3166,
    3097,
    3137,
    3220,
    3146,
    3130,
    3171,
    3180,
    3217,
    3160,
    3140,
    3107,
    3155,
    3161,
    3165,
    3234,
    3233,
    3187,
    3156,
    3156,
    3194,
    3136,
    3107,
    3223,
    3103,
    3273,
    3171,
    3243,
    3149,
    3182,
    3137,
    3179,
    3224,
    3189,
    3249,
    3167,
    3331,
    3173,
    3259,
    3193,
    3259,
    3152,
    3251,
    3167,
    3331,
    3208,
    3279,
    3200,
    3245,
    3239,
    3285,
    3206,
    3292,
    3180,
    3315,
    3202,
    3213,
    3253,
    3284,
    3193,
    3258,
    3233,
    3233,
    3163,
    3181,
    3212,
    3263,
    3229,
    3324,
    3277,
    3364,
    3329,
    3330,
    3227,
    3175,
    3182,
    3257,
    3193,
    3241,
    3205,
    3301,
    3232,
    3324,
    3272,
    3145,
    3196,
    3198,
    3280,
    3246,
    3294,
    3276,
    3250,
    3241,
    3248,
    3224,
    3339,
    3321,
    3307,
    3253,
    3274,
    3271,
    3230,
    3250,
    3166,
    3164,
    3164,
    3147,
    3170,
    3160,
    3162,
    3202,
    3202,
    3186,
    3197,
    3201,
    3162,
    3203,
    3177,
    3190,
    3212,
    3221,
    3219,
    3213,
    3206,
    3195,
    3252,
    3242,
    3251,
    3249,
    3243,
    3278,
    3247,
    3237,
    3164,
    3230,
    3202,
    3248,
    3191,
    3242,
    3255,
    3240,
    3210,
    3196,
    3225,
    3189,
    3255,
    3208,
    3231,
    3232,
    3210,
    3263,
    3252,
    3267,
    3270,
    3277,
    3246,
    3245,
    3268,
    3255,
    3260,
    3262,
    3282,
    3282,
    3305
   ],
   "WindowCenter": [
    769.0,
    768.0,
    769.0,
    771.0,
    770.0,
    767.0,
    767.0,
    766.0,
    768.0,
    770.0,
    770.0,
    770.0,
    771.0,
    771.0,
    771.0,
    769.0,
    768.0,
    768.0,
    768.0,
    767.0,
    766.0,
    766.0,
    768.0,
    768.0,
    768.0,
    768.0,
    768.0,
    768.0,
    769.0,
    768.0,
    767.0,
    767.0,
    766.0,
    765.0,
    767.0,
    770.0,
    770.0,
    767.0,
    765.0,
    765.0,
    767.0,
    768.0,
    768.0,
    769.0,
    768.0,
    767.0,
    768.0,
    767.0,
    768.0,
    768.0,
    770.0,
    770.0,
    771.0,
    770.0,
    769.0,
    769.0,
    769.0,
    769.0,
    769.0,
    769.0,
    769.0,
    770.0,
    770.0,
    769.0,
    768.0,
    768.0,
    768.0,
    770.0,
    771.0,
    770.0,
    769.0,
    768.0,
    768.0,
    769.0,
    771.0,
    771.0,
    771.0,
    768.0,
    768.0,
    767.0,
    767.0,
    768.0,
    769.0,
    769.0,
    768.0,
    769.0,
    770.0,
    769.0,
    768.0,
    766.0,
    766.0,
    768.0,
    770.0,
    769.0,
    768.0,
    768.0,
    767.0,
    769.0,
    771.0,
    771.0,
    770.0,
    769.0,
    769.0,
    768.0,
    768.0,
    770.0,
    773.0,
    775.0,
    773.0,
    770.0,
    770.0,
    770.0,
    770.0,
    769.0,
    768.0,
    769.0,
    768.0,
    770.0,
    769.0,
    770.0,
    770.0,
    770.0,
    768.0,
    769.0,
    769.0,
    769.0,
    771.0,
