{
 "AcquisitionMatrixPE": 100,
 "AcquisitionNumber": 1,
 "AcquisitionTime": "09:58:35.982500",
 "BandwidthPerPixelPhaseEncode": 18.519,
 "BaseResolution": 100,
 "BodyPartExamined": "BRAIN",
 "ConsistencyInfo": "N4_VE11C_LATEST_20160120",
 "ConversionSoftware": "dcm2niix",
 "ConversionSoftwareVersion": "v1.0.20180622 GCC4.9.2",
 "DerivedVendorReportedEchoSpacing": 0.000539986,
 "DeviceSerialNumber": "166078",
 "DwellTime": 2.1e-06,
 "EchoTime": 0.034,
 "EchoTrainLength": 100,
 "EffectiveEchoSpacing": 0.000539986,
 "FlipAngle": 90,
 "ImageOrientationPatientDICOM": [
  1,
  0,
  0,
  0,
  0.986856,
  -0.161604
 ],
 "ImageType": [
  "ORIGINAL",
  "PRIMARY",
  "M",
  "ND",
  "MOSAIC"
 ],
 "InPlanePhaseEncodingDirectionDICOM": "COL",
 "InstitutionAddress": "Street_StreetNo_Bei_Jing_District_CN_ZIP",
 "InstitutionName": "BeiJing_Normal_University",
 "InstitutionalDepartmentName": "Department",
 "MRAcquisitionType": "2D",
 "MagneticFieldStrength": 3,
 "Manufacturer": "Siemens",
 "ManufacturersModelName": "Prisma",
 "Modality": "MR",
 "MultibandAccelerationFactor": 3,
 "PartialFourier": 1,
 "PatientPosition": "HFS",
 "PercentPhaseFOV": 100,
 "PhaseEncodingDirection": "j-",
 "PhaseEncodingSteps": 100,
 "PhaseResolution": 1,
 "PixelBandwidth": 2380,
 "ProcedureStepDescription": "BNU_P2018_64CH_Zhen.ZongLei",
 "ProtocolName": "bold_100x100_s3_2x2x2_static_256",
 "PulseSequenceDetails": "%SiemensSeq%_ep2d_bold",
 "ReceiveCoilActiveElements": "HC1-7;NC1",
 "ReceiveCoilName": "HeadNeck_64",
 "ReconMatrixPE": 100,
 "RepetitionTime": 2,
 "SAR": 0.0621423,
 "ScanOptions": "FS",
 "ScanningSequence": "EP",
 "SequenceName": "_epfid2d1_100",
 "SequenceVariant": "SK",
 "SeriesDescription": "bold_100x100_s3_2x2x2_static_256",
 "SeriesNumber": 10,
 "ShimSetting": [
  -5455,
  -11461,
  -1290,
  385,
  -16,
  -338,
  -269,
  36
 ],
 "SliceThickness": 2,
 "SliceTiming": [
  1.485,
  0,
  0.99,
  0.0825,
  1.0725,
  0.165,
  1.155,
  0.2475,
  1.2375,
  0.33,
  1.32,
  0.4125,
  1.4025,
  0.5775,
  1.5675,
  0.66,
  1.65,
  0.7425,
  1.7325,
  0.825,
  1.815,
  0.9075,
  1.8975,
  0.495,
  1.485,
  0,
  0.99,
  0.0825,
  1.0725,
  0.165,
  1.155,
  0.2475,
  1.2375,
  0.33,
  1.32,
  0.4125,
  1.4025,
  0.5775,
  1.5675,
  0.66,
  1.65,
  0.7425,
  1.7325,
  0.825,
  1.815,
  0.9075,
  1.8975,
  0.495,
  1.485,
  0,
  0.99,
  0.0825,
  1.0725,
  0.165,
  1.155,
  0.2475,
  1.2375,
  0.33,
  1.32,
  0.4125,
  1.4025,
  0.5775,
  1.5675,
  0.66,
  1.65,
  0.7425,
  1.7325,
  0.825,
  1.815,
  0.9075,
  1.8975,
  0.495
 ],
 "SoftwareVersions": "syngo_MR_E11",
 "SpacingBetweenSlices": 2,
 "StationName": "AWP166078",
 "TaskName": "imagenet",
 "TotalReadoutTime": 0.0534586,
 "TxRefAmp": 208.559,
 "dcmmeta_affine": [
  [
   -2.0,
   0.0,
   0.0,
   100.0
  ],
  [
   0.0,
   1.9737114906311035,
   -0.32320764660835266,
   -85.03076171875
  ],
  [
   0.0,
   0.32320764660835266,
   1.973711371421814,
   -97.83645629882812
  ],
  [
   0.0,
   0.0,
   0.0,
   1.0
  ]
 ],
 "dcmmeta_reorient_transform": [
  [
   0.0,
   -1.0,
   0.0,
   99.0
  ],
  [
   1.0,
   0.0,
   0.0,
   0.0
  ],
  [
   0.0,
   0.0,
   1.0,
   0.0
  ],
  [
   0.0,
   0.0,
   0.0,
   1.0
  ]
 ],
 "dcmmeta_shape": [
  100,
  100,
  72,
  256
 ],
 "dcmmeta_slice_dim": 2,
 "dcmmeta_version": 0.6,
 "global": {
  "const": {
   "AcquisitionMatrix": [
    100,
    0,
    0,
    100
   ],
   "AngioFlag": "N",
   "BitsAllocated": 16,
   "BitsStored": 12,
   "BodyPartExamined": "BRAIN",
   "Columns": 900,
   "EchoNumbers": 1,
   "EchoTime": 34.0,
   "EchoTrainLength": 100,
   "FlipAngle": 90.0,
   "HighBit": 11,
   "ImageOrientationPatient": [
    1.0,
    0.0,
    0.0,
    0.0,
    0.98685571586892,
    -0.1616038243881
   ],
   "ImagePositionPatient": [
    -900.0,
    -899.85124417369,
    63.444159112358
   ],
   "ImageType": [
    "ORIGINAL",
    "PRIMARY",
    "M",
    "ND",
    "MOSAIC"
   ],
   "ImagedNucleus": "1H",
   "ImagingFrequency": 123.257785,
   "InPlanePhaseEncodingDirection": "COL",
   "MRAcquisitionType": "2D",
   "MagneticFieldStrength": 3.0,
   "Manufacturer": "SIEMENS",
   "ManufacturerModelName": "Prisma",
   "Modality": "MR",
   "NumberOfAverages": 1.0,
   "NumberOfPhaseEncodingSteps": 100,
   "PercentPhaseFieldOfView": 100.0,
   "PercentSampling": 100.0,
   "PerformedProcedureStepStartTime": "090613.470000",
   "PhotometricInterpretation": "MONOCHROME2",
   "PixelBandwidth": 2380.0,
   "PixelRepresentation": 0,
   "PixelSpacing": [
    2.0,
    2.0
   ],
   "ProtocolName": "bold_100x100_s3_2x2x2_static_256",
   "RepetitionTime": 2000.0,
   "Rows": 900,
   "SAR": 0.06214227852428,
   "SamplesPerPixel": 1,
   "ScanOptions": "FS",
   "ScanningSequence": "EP",
   "SequenceName": "*epfid2d1_100",
   "SequenceVariant": "SK",
   "SeriesDescription": "bold_100x100_s3_2x2x2_static_256",
   "SeriesNumber": 10,
   "SeriesTime": "095838.029000",
   "SliceLocation": -82.809171380312,
   "SliceThickness": 2.0,
   "SmallestImagePixelValue": 0,
   "SoftwareVersions": "syngo MR E11",
   "SpacingBetweenSlices": 1.9999999308243,
   "SpecificCharacterSet": "ISO_IR 100",
   "StudyID": "1",
   "StudyTime": "090613.379000",
   "TransmitCoilName": "Body",
   "VariableFlipAngleFlag": "N",
   "WindowCenterWidthExplanation": "Algo1",
   "dBdt": 0.0
  },
  "slices": {}
 },
 "time": {
  "samples": {
   "AcquisitionNumber": [
    1,
    2,
    3,
    4,
    5,
    6,
    7,
    8,
    9,
    10,
    11,
    12,
    13,
    14,
    15,
    16,
    17,
    18,
    19,
    20,
    21,
    22,
    23,
    24,
    25,
    26,
    27,
    28,
    29,
    30,
    31,
    32,
    33,
    34,
    35,
    36,
    37,
    38,
    39,
    40,
    41,
    42,
    43,
    44,
    45,
    46,
    47,
    48,
    49,
    50,
    51,
    52,
    53,
    54,
    55,
    56,
    57,
    58,
    59,
    60,
    61,
    62,
    63,
    64,
    65,
    66,
    67,
    68,
    69,
    70,
    71,
    72,
    73,
    74,
    75,
    76,
    77,
    78,
    79,
    80,
    81,
    82,
    83,
    84,
    85,
    86,
    87,
    88,
    89,
    90,
    91,
    92,
    93,
    94,
    95,
    96,
    97,
    98,
    99,
    100,
    101,
    102,
    103,
    104,
    105,
    106,
    107,
    108,
    109,
    110,
    111,
    112,
    113,
    114,
    115,
    116,
    117,
    118,
    119,
    120,
    121,
    122,
    123,
    124,
    125,
    126,
    127,
    128,
    129,
    130,
    131,
    132,
    133,
    134,
    135,
    136,
    137,
    138,
    139,
    140,
    141,
    142,
    143,
    144,
    145,
    146,
    147,
    148,
    149,
    150,
    151,
    152,
    153,
    154,
    155,
    156,
    157,
    158,
    159,
    160,
    161,
    162,
    163,
    164,
    165,
    166,
    167,
    168,
    169,
    170,
    171,
    172,
    173,
    174,
    175,
    176,
    177,
    178,
    179,
    180,
    181,
    182,
    183,
    184,
    185,
    186,
    187,
    188,
    189,
    190,
    191,
    192,
    193,
    194,
    195,
    196,
    197,
    198,
    199,
    200,
    201,
    202,
    203,
    204,
    205,
    206,
    207,
    208,
    209,
    210,
    211,
    212,
    213,
    214,
    215,
    216,
    217,
    218,
    219,
    220,
    221,
    222,
    223,
    224,
    225,
    226,
    227,
    228,
    229,
    230,
    231,
    232,
    233,
    234,
    235,
    236,
    237,
    238,
    239,
    240,
    241,
    242,
    243,
    244,
    245,
    246,
    247,
    248,
    249,
    250,
    251,
    252,
    253,
    254,
    255,
    256
   ],
   "AcquisitionTime": [
    "095835.982500",
    "095837.982500",
    "095839.982500",
    "095841.982500",
    "095843.982500",
    "095845.982500",
    "095847.982500",
    "095849.982500",
    "095851.982500",
    "095853.982500",
    "095855.982500",
    "095857.982500",
    "095859.982500",
    "095901.982500",
    "095903.982500",
    "095905.982500",
    "095907.982500",
    "095909.982500",
    "095911.982500",
    "095913.982500",
    "095915.982500",
    "095917.982500",
    "095919.982500",
    "095921.982500",
    "095923.982500",
    "095925.982500",
    "095927.982500",
    "095929.982500",
    "095931.982500",
    "095933.982500",
    "095935.982500",
    "095937.982500",
    "095939.982500",
    "095941.982500",
    "095943.982500",
    "095945.982500",
    "095947.982500",
    "095949.982500",
    "095951.982500",
    "095953.982500",
    "095955.982500",
    "095957.982500",
    "095959.982500",
    "100001.982500",
    "100003.982500",
    "100005.982500",
    "100007.982500",
    "100009.982500",
    "100011.982500",
    "100013.982500",
    "100015.982500",
    "100017.982500",
    "100019.982500",
    "100021.982500",
    "100023.982500",
    "100025.982500",
    "100027.982500",
    "100029.982500",
    "100031.982500",
    "100033.982500",
    "100035.982500",
    "100037.982500",
    "100039.982500",
    "100041.982500",
    "100043.982500",
    "100045.982500",
    "100047.982500",
    "100049.982500",
    "100051.982500",
    "100053.982500",
    "100055.982500",
    "100057.982500",
    "100059.982500",
    "100101.982500",
    "100103.982500",
    "100105.982500",
    "100107.982500",
    "100109.982500",
    "100111.982500",
    "100113.982500",
    "100115.982500",
    "100117.982500",
    "100119.982500",
    "100121.982500",
    "100123.982500",
    "100125.982500",
    "100127.982500",
    "100129.982500",
    "100131.982500",
    "100133.982500",
    "100135.982500",
    "100137.982500",
    "100139.982500",
    "100141.982500",
    "100143.982500",
    "100145.982500",
    "100147.982500",
    "100149.982500",
    "100151.982500",
    "100153.982500",
    "100155.982500",
    "100157.982500",
    "100159.982500",
    "100201.982500",
    "100203.982500",
    "100205.982500",
    "100207.982500",
    "100209.982500",
    "100211.982500",
    "100213.982500",
    "100215.982500",
    "100217.982500",
    "100219.982500",
    "100221.982500",
    "100223.982500",
    "100225.982500",
    "100227.982500",
    "100229.982500",
    "100231.982500",
    "100233.982500",
    "100235.982500",
    "100237.982500",
    "100239.982500",
    "100241.982500",
    "100243.982500",
    "100245.982500",
    "100247.982500",
    "100249.982500",
    "100251.982500",
    "100253.982500",
    "100255.982500",
    "100257.982500",
    "100259.982500",
    "100301.982500",
    "100303.982500",
    "100305.982500",
    "100307.982500",
    "100309.982500",
    "100311.982500",
    "100313.982500",
    "100315.982500",
    "100317.982500",
    "100319.982500",
    "100321.982500",
    "100323.982500",
    "100325.982500",
    "100327.982500",
    "100329.982500",
    "100331.982500",
    "100333.982500",
    "100335.982500",
    "100337.982500",
    "100339.982500",
    "100341.982500",
    "100343.982500",
    "100345.982500",
    "100347.982500",
    "100349.982500",
    "100351.982500",
    "100353.982500",
    "100355.982500",
    "100357.982500",
    "100359.982500",
    "100401.982500",
    "100403.982500",
    "100405.982500",
    "100407.982500",
    "100409.982500",
    "100411.982500",
    "100413.982500",
    "100415.982500",
    "100417.982500",
    "100419.982500",
    "100421.982500",
    "100423.982500",
    "100425.982500",
    "100427.982500",
    "100429.982500",
    "100431.982500",
    "100433.982500",
    "100435.982500",
    "100437.982500",
    "100439.982500",
    "100441.982500",
    "100443.982500",
    "100445.982500",
    "100447.982500",
    "100449.982500",
    "100451.982500",
    "100453.982500",
    "100455.982500",
    "100457.982500",
    "100459.982500",
    "100501.982500",
    "100503.982500",
    "100505.982500",
    "100507.982500",
    "100509.982500",
    "100511.982500",
    "100513.982500",
    "100515.982500",
    "100517.982500",
    "100519.982500",
    "100521.982500",
    "100523.982500",
    "100525.982500",
    "100527.982500",
    "100529.982500",
    "100531.982500",
    "100533.982500",
    "100535.982500",
    "100537.982500",
    "100539.982500",
    "100541.982500",
    "100543.982500",
    "100545.982500",
    "100547.982500",
    "100549.982500",
    "100551.982500",
    "100553.982500",
    "100555.982500",
    "100557.982500",
    "100559.982500",
    "100601.982500",
    "100603.982500",
    "100605.982500",
    "100607.982500",
    "100609.982500",
    "100611.982500",
    "100613.982500",
    "100615.982500",
    "100617.982500",
    "100619.982500",
    "100621.982500",
    "100623.982500",
    "100625.982500",
    "100627.982500",
    "100629.982500",
    "100631.982500",
    "100633.982500",
    "100635.982500",
    "100637.982500",
    "100639.982500",
    "100641.982500",
    "100643.982500",
    "100645.982500",
    "100647.982500",
    "100649.982500",
    "100651.982500",
    "100653.982500",
    "100655.982500",
    "100657.982500",
    "100659.982500",
    "100701.982500",
    "100703.982500",
    "100705.982500"
   ],
   "ContentTime": [
    "095838.033000",
    "095839.529000",
    "095841.528000",
    "095843.528000",
    "095845.529000",
    "095847.530000",
    "095849.529000",
    "095851.530000",
    "095853.528000",
    "095855.528000",
    "095857.529000",
    "095859.528000",
    "095901.529000",
    "095903.529000",
    "095905.529000",
    "095907.529000",
    "095909.529000",
    "095911.528000",
    "095913.529000",
    "095915.528000",
    "095917.528000",
    "095919.528000",
    "095921.529000",
    "095923.530000",
    "095925.529000",
    "095928.029000",
    "095929.528000",
    "095931.529000",
    "095933.529000",
    "095935.528000",
    "095937.528000",
    "095939.530000",
    "095941.530000",
    "095943.529000",
    "095945.528000",
    "095947.529000",
    "095949.528000",
    "095951.529000",
    "095953.529000",
    "095955.529000",
    "095957.530000",
    "095959.530000",
    "100001.530000",
    "100003.528000",
    "100005.529000",
    "100007.528000",
    "100009.528000",
    "100011.528000",
    "100013.530000",
    "100015.530000",
    "100017.530000",
    "100019.530000",
    "100021.528000",
    "100023.528000",
    "100025.528000",
    "100027.528000",
    "100029.529000",
    "100031.530000",
    "100033.529000",
    "100035.529000",
    "100038.029000",
    "100039.528000",
    "100041.529000",
    "100043.528000",
    "100045.528000",
    "100047.528000",
    "100049.529000",
    "100051.530000",
    "100053.529000",
    "100056.028000",
    "100058.028000",
    "100059.528000",
    "100101.528000",
    "100103.529000",
    "100106.030000",
    "100107.530000",
    "100109.530000",
    "100111.530000",
    "100113.528000",
    "100115.529000",
    "100117.529000",
    "100120.029000",
    "100121.549000",
    "100123.530000",
    "100125.530000",
    "100127.530000",
    "100129.530000",
    "100131.529000",
    "100133.529000",
    "100136.029000",
    "100138.029000",
    "100139.529000",
    "100141.530000",
    "100143.529000",
    "100145.529000",
    "100147.529000",
    "100149.528000",
    "100151.529000",
    "100153.528000",
    "100155.529000",
    "100157.528000",
    "100159.529000",
    "100201.529000",
    "100203.529000",
    "100205.529000",
    "100207.529000",
    "100210.028000",
    "100211.528000",
    "100213.528000",
    "100215.529000",
    "100217.529000",
    "100219.530000",
    "100221.530000",
    "100223.528000",
    "100225.529000",
    "100227.528000",
    "100229.529000",
    "100231.528000",
    "100233.529000",
    "100235.530000",
    "100238.029000",
    "100239.544000",
    "100241.529000",
    "100243.529000",
    "100245.529000",
    "100247.529000",
    "100249.529000",
    "100251.529000",
    "100253.530000",
    "100255.530000",
    "100257.529000",
    "100259.529000",
    "100301.529000",
    "100303.528000",
    "100305.529000",
    "100307.529000",
    "100309.529000",
    "100311.529000",
    "100313.530000",
    "100315.528000",
    "100317.528000",
    "100319.529000",
    "100321.528000",
    "100323.529000",
    "100325.530000",
    "100327.529000",
    "100329.530000",
    "100331.529000",
    "100333.529000",
    "100335.529000",
    "100337.529000",
    "100339.528000",
    "100341.528000",
    "100343.529000",
    "100346.030000",
    "100347.530000",
    "100349.530000",
    "100351.529000",
    "100353.529000",
    "100355.529000",
    "100357.528000",
    "100359.528000",
    "100401.529000",
    "100403.530000",
    "100405.530000",
    "100407.530000",
    "100409.528000",
    "100411.528000",
    "100413.528000",
    "100415.528000",
    "100418.030000",
    "100419.530000",
    "100421.530000",
    "100423.531000",
    "100425.529000",
    "100427.530000",
    "100429.528000",
    "100431.528000",
    "100433.529000",
    "100435.529000",
    "100438.030000",
    "100439.530000",
    "100441.530000",
    "100443.529000",
    "100445.528000",
    "100447.529000",
    "100449.529000",
    "100451.528000",
    "100453.529000",
    "100455.530000",
    "100457.530000",
    "100459.530000",
    "100501.529000",
    "100503.528000",
    "100505.529000",
    "100507.529000",
    "100509.528000",
    "100511.530000",
    "100513.530000",
    "100515.530000",
    "100517.529000",
    "100519.528000",
    "100521.528000",
    "100523.529000",
    "100525.529000",
    "100527.529000",
    "100529.529000",
    "100531.529000",
    "100533.529000",
    "100535.529000",
    "100537.529000",
    "100539.529000",
    "100541.528000",
    "100543.528000",
    "100545.529000",
    "100547.529000",
    "100549.530000",
    "100551.529000",
    "100553.529000",
    "100555.529000",
    "100557.529000",
    "100559.529000",
    "100602.029000",
    "100603.529000",
    "100605.530000",
    "100607.530000",
    "100609.529000",
    "100611.529000",
    "100613.528000",
    "100615.529000",
    "100617.528000",
    "100619.529000",
    "100621.530000",
    "100623.529000",
    "100625.529000",
    "100627.528000",
    "100629.529000",
    "100631.529000",
    "100633.528000",
    "100635.529000",
    "100637.530000",
    "100639.529000",
    "100641.529000",
    "100643.529000",
    "100645.529000",
    "100647.529000",
    "100649.529000",
    "100651.528000",
    "100653.528000",
    "100655.529000",
    "100657.530000",
    "100659.529000",
    "100701.529000",
    "100703.528000",
    "100705.528000",
    "100707.552000"
   ],
   "InstanceCreationTime": [
    "095838.033000",
    "095839.529000",
    "095841.528000",
    "095843.528000",
    "095845.529000",
    "095847.530000",
    "095849.529000",
    "095851.530000",
    "095853.528000",
    "095855.528000",
    "095857.529000",
    "095859.528000",
    "095901.529000",
    "095903.529000",
    "095905.529000",
    "095907.529000",
    "095909.529000",
    "095911.528000",
    "095913.529000",
    "095915.528000",
    "095917.528000",
    "095919.528000",
    "095921.529000",
    "095923.530000",
    "095925.529000",
    "095928.029000",
    "095929.528000",
    "095931.529000",
    "095933.529000",
    "095935.528000",
    "095937.528000",
    "095939.530000",
    "095941.530000",
    "095943.529000",
    "095945.528000",
    "095947.529000",
    "095949.528000",
    "095951.529000",
    "095953.529000",
    "095955.529000",
    "095957.530000",
    "095959.530000",
    "100001.530000",
    "100003.528000",
    "100005.529000",
    "100007.528000",
    "100009.528000",
    "100011.528000",
    "100013.530000",
    "100015.530000",
    "100017.530000",
    "100019.530000",
    "100021.528000",
    "100023.528000",
    "100025.528000",
    "100027.528000",
    "100029.529000",
    "100031.530000",
    "100033.529000",
    "100035.529000",
    "100038.029000",
    "100039.528000",
    "100041.529000",
    "100043.528000",
    "100045.528000",
    "100047.528000",
    "100049.529000",
    "100051.530000",
    "100053.529000",
    "100056.028000",
    "100058.028000",
    "100059.528000",
    "100101.528000",
    "100103.529000",
    "100106.030000",
    "100107.530000",
    "100109.530000",
    "100111.530000",
    "100113.528000",
    "100115.529000",
    "100117.529000",
    "100120.029000",
    "100121.549000",
    "100123.530000",
    "100125.530000",
    "100127.530000",
    "100129.530000",
    "100131.529000",
    "100133.529000",
    "100136.029000",
    "100138.029000",
    "100139.529000",
    "100141.530000",
    "100143.529000",
    "100145.529000",
    "100147.529000",
    "100149.528000",
    "100151.529000",
    "100153.528000",
    "100155.529000",
    "100157.528000",
    "100159.529000",
    "100201.529000",
    "100203.529000",
    "100205.529000",
    "100207.529000",
    "100210.028000",
    "100211.528000",
    "100213.528000",
    "100215.529000",
    "100217.529000",
    "100219.530000",
    "100221.530000",
    "100223.528000",
    "100225.529000",
    "100227.528000",
    "100229.529000",
    "100231.528000",
    "100233.529000",
    "100235.530000",
    "100238.029000",
    "100239.544000",
    "100241.529000",
    "100243.529000",
    "100245.529000",
    "100247.529000",
    "100249.529000",
    "100251.529000",
    "100253.530000",
    "100255.530000",
    "100257.529000",
    "100259.529000",
    "100301.529000",
    "100303.528000",
    "100305.529000",
    "100307.529000",
    "100309.529000",
    "100311.529000",
    "100313.530000",
    "100315.528000",
    "100317.528000",
    "100319.529000",
    "100321.528000",
    "100323.529000",
    "100325.530000",
    "100327.529000",
    "100329.530000",
    "100331.529000",
    "100333.529000",
    "100335.529000",
    "100337.529000",
    "100339.528000",
    "100341.528000",
    "100343.529000",
    "100346.030000",
    "100347.530000",
    "100349.530000",
    "100351.529000",
    "100353.529000",
    "100355.529000",
    "100357.528000",
    "100359.528000",
    "100401.529000",
    "100403.530000",
    "100405.530000",
    "100407.530000",
    "100409.528000",
    "100411.528000",
    "100413.528000",
    "100415.528000",
    "100418.030000",
    "100419.530000",
    "100421.530000",
    "100423.531000",
    "100425.529000",
    "100427.530000",
    "100429.528000",
    "100431.528000",
    "100433.529000",
    "100435.529000",
    "100438.030000",
    "100439.530000",
    "100441.530000",
    "100443.529000",
    "100445.528000",
    "100447.529000",
    "100449.529000",
    "100451.528000",
    "100453.529000",
    "100455.530000",
    "100457.530000",
    "100459.530000",
    "100501.529000",
    "100503.528000",
    "100505.529000",
    "100507.529000",
    "100509.528000",
    "100511.530000",
    "100513.530000",
    "100515.530000",
    "100517.529000",
    "100519.528000",
    "100521.528000",
    "100523.529000",
    "100525.529000",
    "100527.529000",
    "100529.529000",
    "100531.529000",
    "100533.529000",
    "100535.529000",
    "100537.529000",
    "100539.529000",
    "100541.528000",
    "100543.528000",
    "100545.529000",
    "100547.529000",
    "100549.530000",
    "100551.529000",
    "100553.529000",
    "100555.529000",
    "100557.529000",
    "100559.529000",
    "100602.029000",
    "100603.529000",
    "100605.530000",
    "100607.530000",
    "100609.529000",
    "100611.529000",
    "100613.528000",
    "100615.529000",
    "100617.528000",
    "100619.529000",
    "100621.530000",
    "100623.529000",
    "100625.529000",
    "100627.528000",
    "100629.529000",
    "100631.529000",
    "100633.528000",
    "100635.529000",
    "100637.530000",
    "100639.529000",
    "100641.529000",
    "100643.529000",
    "100645.529000",
    "100647.529000",
    "100649.529000",
    "100651.528000",
    "100653.528000",
    "100655.529000",
    "100657.530000",
    "100659.529000",
    "100701.529000",
    "100703.528000",
    "100705.528000",
    "100707.552000"
   ],
   "InstanceNumber": [
    1,
    2,
    3,
    4,
    5,
    6,
    7,
    8,
    9,
    10,
    11,
    12,
    13,
    14,
    15,
    16,
    17,
    18,
    19,
    20,
    21,
    22,
    23,
    24,
    25,
    26,
    27,
    28,
    29,
    30,
    31,
    32,
    33,
    34,
    35,
    36,
    37,
    38,
    39,
    40,
    41,
    42,
    43,
    44,
    45,
    46,
    47,
    48,
    49,
    50,
    51,
    52,
    53,
    54,
    55,
    56,
    57,
    58,
    59,
    60,
    61,
    62,
    63,
    64,
    65,
    66,
    67,
    68,
    69,
    70,
    71,
    72,
    73,
    74,
    75,
    76,
    77,
    78,
    79,
    80,
    81,
    82,
    83,
    84,
    85,
    86,
    87,
    88,
    89,
    90,
    91,
    92,
    93,
    94,
    95,
    96,
    97,
    98,
    99,
    100,
    101,
    102,
    103,
    104,
    105,
    106,
    107,
    108,
    109,
    110,
    111,
    112,
    113,
    114,
    115,
    116,
    117,
    118,
    119,
    120,
    121,
    122,
    123,
    124,
    125,
    126,
    127,
    128,
    129,
    130,
    131,
    132,
    133,
    134,
    135,
    136,
    137,
    138,
    139,
    140,
    141,
    142,
    143,
    144,
    145,
    146,
    147,
    148,
    149,
    150,
    151,
    152,
    153,
    154,
    155,
    156,
    157,
    158,
    159,
    160,
    161,
    162,
    163,
    164,
    165,
    166,
    167,
    168,
    169,
    170,
    171,
    172,
    173,
    174,
    175,
    176,
    177,
    178,
    179,
    180,
    181,
    182,
    183,
    184,
    185,
    186,
    187,
    188,
    189,
    190,
    191,
    192,
    193,
    194,
    195,
    196,
    197,
    198,
    199,
    200,
    201,
    202,
    203,
    204,
    205,
    206,
    207,
    208,
    209,
    210,
    211,
    212,
    213,
    214,
    215,
    216,
    217,
    218,
    219,
    220,
    221,
    222,
    223,
    224,
    225,
    226,
    227,
    228,
    229,
    230,
    231,
    232,
    233,
    234,
    235,
    236,
    237,
    238,
    239,
    240,
    241,
    242,
    243,
    244,
    245,
    246,
    247,
    248,
    249,
    250,
    251,
    252,
    253,
    254,
    255,
    256
   ],
   "LargestImagePixelValue": [
    3450,
    3355,
    3362,
    3333,
    3328,
    3398,
    3379,
    3360,
    3361,
    3375,
    3393,
    3416,
    3439,
    3403,
    3411,
    3388,
    3366,
    3406,
    3381,
    3377,
    3366,
    3336,
    3395,
    3426,
    3440,
    3410,
    3433,
    3396,
    3449,
    3446,
    3427,
    3421,
    3411,
    3435,
    3426,
    3386,
    3426,
    3442,
    3422,
    3425,
    3438,
    3423,
    3418,
    3422,
    3422,
    3371,
    3385,
    3416,
    3366,
    3344,
    3382,
    3440,
    3396,
    3379,
    3392,
    3360,
    3332,
    3366,
    3358,
    3469,
    3478,
    3418,
    3438,
    3432,
    3388,
    3420,
    3396,
    3374,
    3394,
    3355,
    3369,
    3352,
    3386,
    3428,
    3352,
    3380,
    3422,
    3472,
    3400,
    3420,
    3410,
    3405,
    3330,
    3408,
    3446,
    3423,
    3411,
    3435,
    3400,
    3363,
    3383,
    3382,
    3322,
    3322,
    3362,
    3390,
    3392,
    3421,
    3398,
    3345,
    3300,
    3329,
    3346,
    3464,
    3466,
    3427,
    3364,
    3368,
    3409,
    3483,
    3400,
    3372,
    3357,
    3375,
    3376,
    3400,
    3365,
    3299,
    3355,
    3432,
    3451,
    3364,
    3359,
    3348,
    3370,
    3368,
    3394,
    3390,
    3411,
    3378,
    3394,
    3445,
    3434,
    3395,
    3367,
    3374,
    3391,
    3377,
    3425,
    3403,
    3392,
    3376,
    3362,
    3394,
    3402,
    3351,
    3429,
    3412,
    3475,
    3414,
    3397,
    3396,
    3392,
    3365,
    3369,
    3408,
    3448,
    3373,
    3340,
    3403,
    3381,
    3327,
    3334,
    3343,
    3355,
    3317,
    3358,
    3447,
    3478,
    3408,
    3423,
    3452,
    3363,
    3414,
    3428,
    3414,
    3427,
    3430,
    3462,
    3502,
    3494,
    3465,
    3480,
    3498,
    3398,
    3376,
    3394,
    3438,
    3414,
    3307,
    3339,
    3373,
    3414,
    3430,
    3412,
    3452,
    3468,
    3467,
    3410,
    3417,
    3404,
    3369,
    3362,
    3409,
    3404,
    3399,
    3441,
    3483,
    3473,
    3449,
    3372,
    3353,
    3358,
    3447,
    3410,
    3372,
    3368,
    3360,
    3382,
    3405,
    3445,
    3491,
    3438,
    3453,
    3398,
    3393,
    3418,
    3338,
    3402,
    3428,
    3419,
    3449,
    3449,
    3393,
    3347,
    3369,
    3347,
    3360,
    3446,
    3410,
    3402,
    3373,
    3443,
    3413,
    3493,
    3426,
    3440,
    3414,
    3419,
    3463,
    3455,
    3423,
    3423,
    3404,
    3413,
    3422
   ],
   "WindowCenter": [
    775.0,
    772.0,
    771.0,
    771.0,
    771.0,
    773.0,
    774.0,
    773.0,
    773.0,
    772.0,
    774.0,
    775.0,
    776.0,
    773.0,
    772.0,
    771.0,
    771.0,
    771.0,
    770.0,
    769.0,
    768.0,
    768.0,
    769.0,
    771.0,
    773.0,
    773.0,
    775.0,
    774.0,
    774.0,
    773.0,
    773.0,
    773.0,
    773.0,
    773.0,
    773.0,
    771.0,
    773.0,
    773.0,
    773.0,
    771.0,
    770.0,
    769.0,
    769.0,
    770.0,
    770.0,
    770.0,
    771.0,
    771.0,
    770.0,
    770.0,
    772.0,
    773.0,
    771.0,
    769.0,
    769.0,
    768.0,
    768.0,
    770.0,
    773.0,
    774.0,
    772.0,
    770.0,
    769.0,
    768.0,
    768.0,
    768.0,
    768.0,
    767.0,
    768.0,
    768.0,
    769.0,
    769.0,
    770.0,
    770.0,
    770.0,
    770.0,
    771.0,
    773.0,
    771.0,
    770.0,
    769.0,
    768.0,
    769.0,
    769.0,
    770.0,
    770.0,
    770.0,
    769.0,
    769.0,
    770.0,
    771.0,
    769.0,
    767.0,
    768.0,
    770.0,
    772.0,
    772.0,
    771.0,
    769.0,
    766.0,
    766.0,
    767.0,
    769.0,
    772.0,
    771.0,
    770.0,
    770.0,
    771.0,
    771.0,
    769.0,
    768.0,
    768.0,
    768.0,
    769.0,
    770.0,
    769.0,
    767.0,
    767.0,
    769.0,
    771.0,
    771.0,
    768.0,
    767.0,
    767.0,
    768.0,
    768.0,
    770.0,
