{
 "AcquisitionMatrixPE": 100,
 "AcquisitionNumber": 1,
 "AcquisitionTime": "13:37:59.542500",
 "BandwidthPerPixelPhaseEncode": 18.519,
 "BaseResolution": 100,
 "BodyPartExamined": "BRAIN",
 "ConsistencyInfo": "N4_VE11C_LATEST_20160120",
 "ConversionSoftware": "dcm2niix",
 "ConversionSoftwareVersion": "v1.0.20180622 GCC4.9.2",
 "DerivedVendorReportedEchoSpacing": 0.000539986,
 "DeviceSerialNumber": "166078",
 "DwellTime": 2.1e-06,
 "EchoTime": 0.034,
 "EchoTrainLength": 100,
 "EffectiveEchoSpacing": 0.000539986,
 "FlipAngle": 90,
 "ImageOrientationPatientDICOM": [
  0.999152,
  0.00136559,
  0.0411479,
  4.816e-12,
  0.99945,
  -0.033169
 ],
 "ImageType": [
  "ORIGINAL",
  "PRIMARY",
  "M",
  "ND",
  "MOSAIC"
 ],
 "InPlanePhaseEncodingDirectionDICOM": "COL",
 "InstitutionAddress": "Street_StreetNo_Bei_Jing_District_CN_ZIP",
 "InstitutionName": "BeiJing_Normal_University",
 "InstitutionalDepartmentName": "Department",
 "MRAcquisitionType": "2D",
 "MagneticFieldStrength": 3,
 "Manufacturer": "Siemens",
 "ManufacturersModelName": "Prisma",
 "Modality": "MR",
 "MultibandAccelerationFactor": 3,
 "PartialFourier": 1,
 "PatientPosition": "HFS",
 "PercentPhaseFOV": 100,
 "PhaseEncodingDirection": "j-",
 "PhaseEncodingSteps": 100,
 "PhaseResolution": 1,
 "PixelBandwidth": 2380,
 "ProcedureStepDescription": "BNU_P2018_64CH_Zhen.ZongLei",
 "ProtocolName": "bold_100x100_s3_2x2x2_static_256",
 "PulseSequenceDetails": "%SiemensSeq%_ep2d_bold",
 "ReceiveCoilActiveElements": "HC1-7;NC1",
 "ReceiveCoilName": "HeadNeck_64",
 "ReconMatrixPE": 100,
 "RepetitionTime": 2,
 "SAR": 0.0629992,
 "ScanOptions": "FS",
 "ScanningSequence": "EP",
 "SequenceName": "_epfid2d1_100",
 "SequenceVariant": "SK",
 "SeriesDescription": "bold_100x100_s3_2x2x2_static_256",
 "SeriesNumber": 4,
 "ShimSetting": [
  -5445,
  -11520,
  -1270,
  378,
  4,
  -262,
  -144,
  -18
 ],
 "SliceThickness": 2,
 "SliceTiming": [
  1.485,
  0,
  0.99,
  0.0825,
  1.0725,
  0.165,
  1.155,
  0.2475,
  1.2375,
  0.33,
  1.32,
  0.4125,
  1.4025,
  0.5775,
  1.5675,
  0.66,
  1.65,
  0.7425,
  1.7325,
  0.825,
  1.815,
  0.9075,
  1.8975,
  0.495,
  1.485,
  0,
  0.99,
  0.0825,
  1.0725,
  0.165,
  1.155,
  0.2475,
  1.2375,
  0.33,
  1.32,
  0.4125,
  1.4025,
  0.5775,
  1.5675,
  0.66,
  1.65,
  0.7425,
  1.7325,
  0.825,
  1.815,
  0.9075,
  1.8975,
  0.495,
  1.485,
  0,
  0.99,
  0.0825,
  1.0725,
  0.165,
  1.155,
  0.2475,
  1.2375,
  0.33,
  1.32,
  0.4125,
  1.4025,
  0.5775,
  1.5675,
  0.66,
  1.65,
  0.7425,
  1.7325,
  0.825,
  1.815,
  0.9075,
  1.8975,
  0.495
 ],
 "SoftwareVersions": "syngo_MR_E11",
 "SpacingBetweenSlices": 2,
 "StationName": "AWP166078",
 "TaskName": "imagenet",
 "TotalReadoutTime": 0.0534586,
 "TxRefAmp": 212.008,
 "dcmmeta_affine": [
  [
   -1.9983042478561401,
   9.632000058656942e-12,
   0.08234109729528427,
   97.17378234863281
  ],
  [
   -0.0027311723679304123,
   1.9988994598388672,
   -0.0662817731499672,
   -80.50149536132812
  ],
  [
   0.08229578286409378,
   0.06633801758289337,
   1.9972047805786133,
   -74.54894256591797
  ],
  [
   0.0,
   0.0,
   0.0,
   1.0
  ]
 ],
 "dcmmeta_reorient_transform": [
  [
   0.0,
   -1.0,
   0.0,
   99.0
  ],
  [
   1.0,
   0.0,
   0.0,
   0.0
  ],
  [
   0.0,
   0.0,
   1.0,
   0.0
  ],
  [
   0.0,
   0.0,
   0.0,
   1.0
  ]
 ],
 "dcmmeta_shape": [
  100,
  100,
  72,
  256
 ],
 "dcmmeta_slice_dim": 2,
 "dcmmeta_version": 0.6,
 "global": {
  "const": {
   "AcquisitionMatrix": [
    100,
    0,
    0,
    100
   ],
   "AngioFlag": "N",
   "BitsAllocated": 16,
   "BitsStored": 12,
   "BodyPartExamined": "BRAIN",
   "Columns": 900,
   "EchoNumbers": 1,
   "EchoTime": 34.0,
   "EchoTrainLength": 100,
   "FlipAngle": 90.0,
   "HighBit": 11,
   "ImageOrientationPatient": [
    0.99915213361018,
    0.00136558619318,
    0.04114789273563,
    4.816e-12,
    0.99944975706204,
    -0.0331690082551
   ],
   "ImagePositionPatient": [
    -896.49548544095,
    -918.0418304751,
    -74.364589782442
   ],
   "ImageType": [
    "ORIGINAL",
    "PRIMARY",
    "M",
    "ND",
    "MOSAIC"
   ],
   "ImagedNucleus": "1H",
   "ImagingFrequency": 123.257703,
   "InPlanePhaseEncodingDirection": "COL",
   "MRAcquisitionType": "2D",
   "MagneticFieldStrength": 3.0,
   "Manufacturer": "SIEMENS",
   "ManufacturerModelName": "Prisma",
   "Modality": "MR",
   "NumberOfAverages": 1.0,
   "NumberOfPhaseEncodingSteps": 100,
   "PercentPhaseFieldOfView": 100.0,
   "PercentSampling": 100.0,
   "PerformedProcedureStepStartTime": "132411.673000",
   "PhotometricInterpretation": "MONOCHROME2",
   "PixelBandwidth": 2380.0,
   "PixelRepresentation": 0,
   "PixelSpacing": [
    2.0,
    2.0
   ],
   "ProtocolName": "bold_100x100_s3_2x2x2_static_256",
   "RepetitionTime": 2000.0,
   "Rows": 900,
   "SAR": 0.06299918427388,
   "SamplesPerPixel": 1,
   "ScanOptions": "FS",
   "ScanningSequence": "EP",
   "SequenceName": "*epfid2d1_100",
   "SequenceVariant": "SK",
   "SeriesDescription": "bold_100x100_s3_2x2x2_static_256",
   "SeriesNumber": 4,
   "SeriesTime": "133802.318000",
   "SliceLocation": -67.776164611748,
   "SliceThickness": 2.0,
   "SmallestImagePixelValue": 0,
   "SoftwareVersions": "syngo MR E11",
   "SpacingBetweenSlices": 2.0000000254204,
   "SpecificCharacterSet": "ISO_IR 100",
   "StudyID": "1",
   "StudyTime": "132411.552000",
   "TransmitCoilName": "Body",
   "VariableFlipAngleFlag": "N",
   "WindowCenterWidthExplanation": "Algo1",
   "dBdt": 0.0
  },
  "slices": {}
 },
 "time": {
  "samples": {
   "AcquisitionNumber": [
    1,
    2,
    3,
    4,
    5,
    6,
    7,
    8,
    9,
    10,
    11,
    12,
    13,
    14,
    15,
    16,
    17,
    18,
    19,
    20,
    21,
    22,
    23,
    24,
    25,
    26,
    27,
    28,
    29,
    30,
    31,
    32,
    33,
    34,
    35,
    36,
    37,
    38,
    39,
    40,
    41,
    42,
    43,
    44,
    45,
    46,
    47,
    48,
    49,
    50,
    51,
    52,
    53,
    54,
    55,
    56,
    57,
    58,
    59,
    60,
    61,
    62,
    63,
    64,
    65,
    66,
    67,
    68,
    69,
    70,
    71,
    72,
    73,
    74,
    75,
    76,
    77,
    78,
    79,
    80,
    81,
    82,
    83,
    84,
    85,
    86,
    87,
    88,
    89,
    90,
    91,
    92,
    93,
    94,
    95,
    96,
    97,
    98,
    99,
    100,
    101,
    102,
    103,
    104,
    105,
    106,
    107,
    108,
    109,
    110,
    111,
    112,
    113,
    114,
    115,
    116,
    117,
    118,
    119,
    120,
    121,
    122,
    123,
    124,
    125,
    126,
    127,
    128,
    129,
    130,
    131,
    132,
    133,
    134,
    135,
    136,
    137,
    138,
    139,
    140,
    141,
    142,
    143,
    144,
    145,
    146,
    147,
    148,
    149,
    150,
    151,
    152,
    153,
    154,
    155,
    156,
    157,
    158,
    159,
    160,
    161,
    162,
    163,
    164,
    165,
    166,
    167,
    168,
    169,
    170,
    171,
    172,
    173,
    174,
    175,
    176,
    177,
    178,
    179,
    180,
    181,
    182,
    183,
    184,
    185,
    186,
    187,
    188,
    189,
    190,
    191,
    192,
    193,
    194,
    195,
    196,
    197,
    198,
    199,
    200,
    201,
    202,
    203,
    204,
    205,
    206,
    207,
    208,
    209,
    210,
    211,
    212,
    213,
    214,
    215,
    216,
    217,
    218,
    219,
    220,
    221,
    222,
    223,
    224,
    225,
    226,
    227,
    228,
    229,
    230,
    231,
    232,
    233,
    234,
    235,
    236,
    237,
    238,
    239,
    240,
    241,
    242,
    243,
    244,
    245,
    246,
    247,
    248,
    249,
    250,
    251,
    252,
    253,
    254,
    255,
    256
   ],
   "AcquisitionTime": [
    "133759.542500",
    "133801.542500",
    "133803.542500",
    "133805.542500",
    "133807.542500",
    "133809.542500",
    "133811.542500",
    "133813.542500",
    "133815.542500",
    "133817.542500",
    "133819.542500",
    "133821.542500",
    "133823.542500",
    "133825.542500",
    "133827.542500",
    "133829.542500",
    "133831.542500",
    "133833.542500",
    "133835.542500",
    "133837.542500",
    "133839.542500",
    "133841.542500",
    "133843.542500",
    "133845.542500",
    "133847.542500",
    "133849.542500",
    "133851.542500",
    "133853.542500",
    "133855.542500",
    "133857.542500",
    "133859.542500",
    "133901.542500",
    "133903.542500",
    "133905.542500",
    "133907.542500",
    "133909.542500",
    "133911.542500",
    "133913.542500",
    "133915.542500",
    "133917.542500",
    "133919.542500",
    "133921.542500",
    "133923.542500",
    "133925.542500",
    "133927.542500",
    "133929.542500",
    "133931.542500",
    "133933.542500",
    "133935.542500",
    "133937.542500",
    "133939.542500",
    "133941.542500",
    "133943.542500",
    "133945.542500",
    "133947.542500",
    "133949.542500",
    "133951.542500",
    "133953.542500",
    "133955.542500",
    "133957.542500",
    "133959.542500",
    "134001.542500",
    "134003.542500",
    "134005.542500",
    "134007.542500",
    "134009.542500",
    "134011.542500",
    "134013.542500",
    "134015.542500",
    "134017.542500",
    "134019.542500",
    "134021.542500",
    "134023.542500",
    "134025.542500",
    "134027.542500",
    "134029.542500",
    "134031.542500",
    "134033.542500",
    "134035.542500",
    "134037.542500",
    "134039.542500",
    "134041.542500",
    "134043.542500",
    "134045.542500",
    "134047.542500",
    "134049.542500",
    "134051.542500",
    "134053.542500",
    "134055.542500",
    "134057.542500",
    "134059.542500",
    "134101.542500",
    "134103.542500",
    "134105.542500",
    "134107.542500",
    "134109.542500",
    "134111.542500",
    "134113.542500",
    "134115.542500",
    "134117.542500",
    "134119.542500",
    "134121.542500",
    "134123.542500",
    "134125.542500",
    "134127.542500",
    "134129.542500",
    "134131.542500",
    "134133.542500",
    "134135.542500",
    "134137.542500",
    "134139.542500",
    "134141.542500",
    "134143.542500",
    "134145.542500",
    "134147.542500",
    "134149.542500",
    "134151.542500",
    "134153.542500",
    "134155.542500",
    "134157.542500",
    "134159.542500",
    "134201.542500",
    "134203.542500",
    "134205.542500",
    "134207.542500",
    "134209.542500",
    "134211.542500",
    "134213.542500",
    "134215.542500",
    "134217.542500",
    "134219.542500",
    "134221.542500",
    "134223.542500",
    "134225.542500",
    "134227.542500",
    "134229.542500",
    "134231.542500",
    "134233.542500",
    "134235.542500",
    "134237.542500",
    "134239.542500",
    "134241.542500",
    "134243.542500",
    "134245.542500",
    "134247.542500",
    "134249.542500",
    "134251.542500",
    "134253.542500",
    "134255.542500",
    "134257.542500",
    "134259.542500",
    "134301.542500",
    "134303.542500",
    "134305.542500",
    "134307.542500",
    "134309.542500",
    "134311.542500",
    "134313.542500",
    "134315.542500",
    "134317.542500",
    "134319.542500",
    "134321.542500",
    "134323.542500",
    "134325.542500",
    "134327.542500",
    "134329.542500",
    "134331.542500",
    "134333.542500",
    "134335.542500",
    "134337.542500",
    "134339.542500",
    "134341.542500",
    "134343.542500",
    "134345.542500",
    "134347.542500",
    "134349.542500",
    "134351.542500",
    "134353.542500",
    "134355.542500",
    "134357.542500",
    "134359.542500",
    "134401.542500",
    "134403.542500",
    "134405.542500",
    "134407.542500",
    "134409.542500",
    "134411.542500",
    "134413.542500",
    "134415.542500",
    "134417.542500",
    "134419.542500",
    "134421.542500",
    "134423.542500",
    "134425.542500",
    "134427.542500",
    "134429.542500",
    "134431.542500",
    "134433.542500",
    "134435.542500",
    "134437.542500",
    "134439.542500",
    "134441.542500",
    "134443.542500",
    "134445.542500",
    "134447.542500",
    "134449.542500",
    "134451.542500",
    "134453.542500",
    "134455.542500",
    "134457.542500",
    "134459.542500",
    "134501.542500",
    "134503.542500",
    "134505.542500",
    "134507.542500",
    "134509.542500",
    "134511.542500",
    "134513.542500",
    "134515.542500",
    "134517.542500",
    "134519.542500",
    "134521.542500",
    "134523.542500",
    "134525.542500",
    "134527.542500",
    "134529.542500",
    "134531.542500",
    "134533.542500",
    "134535.542500",
    "134537.542500",
    "134539.542500",
    "134541.542500",
    "134543.542500",
    "134545.542500",
    "134547.542500",
    "134549.542500",
    "134551.542500",
    "134553.542500",
    "134555.542500",
    "134557.542500",
    "134559.542500",
    "134601.542500",
    "134603.542500",
    "134605.542500",
    "134607.542500",
    "134609.542500",
    "134611.542500",
    "134613.542500",
    "134615.542500",
    "134617.542500",
    "134619.542500",
    "134621.542500",
    "134623.542500",
    "134625.542500",
    "134627.542500",
    "134629.542500"
   ],
   "ContentTime": [
    "133802.322000",
    "133804.317000",
    "133806.318000",
    "133808.316000",
    "133810.316000",
    "133811.816000",
    "133814.318000",
    "133815.818000",
    "133818.318000",
    "133819.818000",
    "133822.318000",
    "133824.316000",
    "133826.317000",
    "133828.316000",
    "133829.818000",
    "133832.317000",
    "133834.317000",
    "133836.318000",
    "133838.318000",
    "133840.318000",
    "133842.316000",
    "133844.316000",
    "133846.317000",
    "133848.317000",
    "133850.317000",
    "133852.317000",
    "133853.817000",
    "133856.318000",
    "133858.317000",
    "133900.317000",
    "133902.317000",
    "133904.316000",
    "133906.318000",
    "133907.817000",
    "133909.818000",
    "133912.318000",
    "133914.318000",
    "133916.318000",
    "133918.316000",
    "133920.317000",
    "133922.318000",
    "133924.318000",
    "133926.318000",
    "133927.817000",
    "133929.817000",
    "133932.317000",
    "133934.317000",
    "133935.816000",
    "133938.317000",
    "133940.317000",
    "133942.317000",
    "133944.318000",
    "133946.317000",
    "133948.317000",
    "133950.317000",
    "133952.316000",
    "133954.316000",
    "133956.316000",
    "133958.318000",
    "134000.318000",
    "134002.317000",
    "134004.318000",
    "134006.317000",
    "134007.818000",
    "134010.316000",
    "134011.818000",
    "134014.317000",
    "134016.317000",
    "134018.318000",
    "134020.318000",
    "134022.317000",
    "134024.317000",
    "134025.818000",
    "134028.316000",
    "134030.316000",
    "134032.318000",
    "134034.317000",
    "134036.317000",
    "134038.317000",
    "134040.317000",
    "134041.817000",
    "134044.317000",
    "134046.316000",
    "134048.316000",
    "134050.318000",
    "134051.817000",
    "134053.817000",
    "134055.817000",
    "134058.317000",
    "134059.817000",
    "134101.816000",
    "134104.317000",
    "134106.317000",
    "134108.318000",
    "134109.818000",
    "134112.317000",
    "134114.318000",
    "134116.317000",
    "134117.818000",
    "134120.317000",
    "134122.316000",
    "134124.317000",
    "134125.818000",
    "134128.318000",
    "134130.318000",
    "134132.318000",
    "134134.317000",
    "134136.318000",
    "134138.316000",
    "134140.316000",
    "134142.317000",
    "134144.318000",
    "134146.317000",
    "134148.318000",
    "134149.818000",
    "134151.818000",
    "134154.317000",
    "134156.317000",
    "134158.316000",
    "134159.817000",
    "134202.318000",
    "134204.326000",
    "134206.317000",
    "134208.318000",
    "134210.318000",
    "134212.317000",
    "134214.317000",
    "134216.317000",
    "134218.318000",
    "134219.817000",
    "134222.317000",
    "134224.318000",
    "134225.818000",
    "134228.317000",
    "134229.817000",
    "134232.316000",
    "134234.317000",
    "134236.318000",
    "134238.318000",
    "134240.318000",
    "134242.318000",
    "134244.318000",
    "134246.318000",
    "134248.317000",
    "134249.817000",
    "134252.317000",
    "134254.318000",
    "134256.318000",
    "134258.318000",
    "134259.817000",
    "134302.318000",
    "134304.317000",
    "134306.316000",
    "134308.317000",
    "134310.318000",
    "134312.317000",
    "134314.318000",
    "134316.318000",
    "134318.318000",
    "134320.318000",
    "134322.317000",
    "134324.317000",
    "134326.316000",
    "134328.317000",
    "134330.318000",
    "134332.317000",
    "134333.818000",
    "134335.818000",
    "134338.318000",
    "134340.316000",
    "134341.817000",
    "134344.317000",
    "134346.318000",
    "134347.818000",
    "134350.318000",
    "134352.318000",
    "134354.318000",
    "134356.317000",
    "134357.817000",
    "134400.316000",
    "134402.318000",
    "134403.818000",
    "134406.318000",
    "134408.317000",
    "134410.318000",
    "134412.317000",
    "134414.316000",
    "134416.317000",
    "134418.316000",
    "134420.318000",
    "134422.317000",
    "134424.317000",
    "134426.318000",
    "134428.318000",
    "134430.318000",
    "134432.316000",
    "134434.316000",
    "134436.316000",
    "134438.318000",
    "134440.318000",
    "134442.317000",
    "134444.318000",
    "134446.318000",
    "134448.318000",
    "134450.316000",
    "134452.316000",
    "134454.317000",
    "134456.318000",
    "134458.318000",
    "134500.318000",
    "134502.318000",
    "134504.318000",
    "134506.318000",
    "134508.317000",
    "134509.816000",
    "134511.818000",
    "134514.318000",
    "134516.317000",
    "134518.318000",
    "134519.817000",
    "134521.817000",
    "134524.317000",
    "134526.317000",
    "134528.316000",
    "134530.318000",
    "134532.318000",
    "134534.317000",
    "134536.318000",
    "134537.818000",
    "134539.817000",
    "134542.317000",
    "134544.317000",
    "134546.316000",
    "134548.317000",
    "134550.318000",
    "134552.318000",
    "134554.318000",
    "134556.318000",
    "134557.818000",
    "134559.816000",
    "134602.317000",
    "134604.317000",
    "134606.318000",
    "134607.818000",
    "134610.317000",
    "134612.318000",
    "134614.317000",
    "134616.316000",
    "134618.317000",
    "134620.316000",
    "134622.317000",
    "134623.817000",
    "134626.317000",
    "134628.318000",
    "134630.318000",
    "134631.794000"
   ],
   "InstanceCreationTime": [
    "133802.322000",
    "133804.317000",
    "133806.318000",
    "133808.316000",
    "133810.316000",
    "133811.816000",
    "133814.318000",
    "133815.818000",
    "133818.318000",
    "133819.818000",
    "133822.318000",
    "133824.316000",
    "133826.317000",
    "133828.316000",
    "133829.818000",
    "133832.317000",
    "133834.317000",
    "133836.318000",
    "133838.318000",
    "133840.318000",
    "133842.316000",
    "133844.316000",
    "133846.317000",
    "133848.317000",
    "133850.317000",
    "133852.317000",
    "133853.817000",
    "133856.318000",
    "133858.317000",
    "133900.317000",
    "133902.317000",
    "133904.316000",
    "133906.318000",
    "133907.817000",
    "133909.818000",
    "133912.318000",
    "133914.318000",
    "133916.318000",
    "133918.316000",
    "133920.317000",
    "133922.318000",
    "133924.318000",
    "133926.318000",
    "133927.817000",
    "133929.817000",
    "133932.317000",
    "133934.317000",
    "133935.816000",
    "133938.317000",
    "133940.317000",
    "133942.317000",
    "133944.318000",
    "133946.317000",
    "133948.317000",
    "133950.317000",
    "133952.316000",
    "133954.316000",
    "133956.316000",
    "133958.318000",
    "134000.318000",
    "134002.317000",
    "134004.318000",
    "134006.317000",
    "134007.818000",
    "134010.316000",
    "134011.818000",
    "134014.317000",
    "134016.317000",
    "134018.318000",
    "134020.318000",
    "134022.317000",
    "134024.317000",
    "134025.818000",
    "134028.316000",
    "134030.316000",
    "134032.318000",
    "134034.317000",
    "134036.317000",
    "134038.317000",
    "134040.317000",
    "134041.817000",
    "134044.317000",
    "134046.316000",
    "134048.316000",
    "134050.318000",
    "134051.817000",
    "134053.817000",
    "134055.817000",
    "134058.317000",
    "134059.817000",
    "134101.816000",
    "134104.317000",
    "134106.317000",
    "134108.318000",
    "134109.818000",
    "134112.317000",
    "134114.318000",
    "134116.317000",
    "134117.818000",
    "134120.317000",
    "134122.316000",
    "134124.317000",
    "134125.818000",
    "134128.318000",
    "134130.318000",
    "134132.318000",
    "134134.317000",
    "134136.318000",
    "134138.316000",
    "134140.316000",
    "134142.317000",
    "134144.318000",
    "134146.317000",
    "134148.318000",
    "134149.818000",
    "134151.818000",
    "134154.317000",
    "134156.317000",
    "134158.316000",
    "134159.817000",
    "134202.318000",
    "134204.326000",
    "134206.317000",
    "134208.318000",
    "134210.318000",
    "134212.317000",
    "134214.317000",
    "134216.317000",
    "134218.318000",
    "134219.817000",
    "134222.317000",
    "134224.318000",
    "134225.818000",
    "134228.317000",
    "134229.817000",
    "134232.316000",
    "134234.317000",
    "134236.318000",
    "134238.318000",
    "134240.318000",
    "134242.318000",
    "134244.318000",
    "134246.318000",
    "134248.317000",
    "134249.817000",
    "134252.317000",
    "134254.318000",
    "134256.318000",
    "134258.318000",
    "134259.817000",
    "134302.318000",
    "134304.317000",
    "134306.316000",
    "134308.317000",
    "134310.318000",
    "134312.317000",
    "134314.318000",
    "134316.318000",
    "134318.318000",
    "134320.318000",
    "134322.317000",
    "134324.317000",
    "134326.316000",
    "134328.317000",
    "134330.318000",
    "134332.317000",
    "134333.818000",
    "134335.818000",
    "134338.318000",
    "134340.316000",
    "134341.817000",
    "134344.317000",
    "134346.318000",
    "134347.818000",
    "134350.318000",
    "134352.318000",
    "134354.318000",
    "134356.317000",
    "134357.817000",
    "134400.316000",
    "134402.318000",
    "134403.818000",
    "134406.318000",
    "134408.317000",
    "134410.318000",
    "134412.317000",
    "134414.316000",
    "134416.317000",
    "134418.316000",
    "134420.318000",
    "134422.317000",
    "134424.317000",
    "134426.318000",
    "134428.318000",
    "134430.318000",
    "134432.316000",
    "134434.316000",
    "134436.316000",
    "134438.318000",
    "134440.318000",
    "134442.317000",
    "134444.318000",
    "134446.318000",
    "134448.318000",
    "134450.316000",
    "134452.316000",
    "134454.317000",
    "134456.318000",
    "134458.318000",
    "134500.318000",
    "134502.318000",
    "134504.318000",
    "134506.318000",
    "134508.317000",
    "134509.816000",
    "134511.818000",
    "134514.318000",
    "134516.317000",
    "134518.318000",
    "134519.817000",
    "134521.817000",
    "134524.317000",
    "134526.317000",
    "134528.316000",
    "134530.318000",
    "134532.318000",
    "134534.317000",
    "134536.318000",
    "134537.818000",
    "134539.817000",
    "134542.317000",
    "134544.317000",
    "134546.316000",
    "134548.317000",
    "134550.318000",
    "134552.318000",
    "134554.318000",
    "134556.318000",
    "134557.818000",
    "134559.816000",
    "134602.317000",
    "134604.317000",
    "134606.318000",
    "134607.818000",
    "134610.317000",
    "134612.318000",
    "134614.317000",
    "134616.316000",
    "134618.317000",
    "134620.316000",
    "134622.317000",
    "134623.817000",
    "134626.317000",
    "134628.318000",
    "134630.318000",
    "134631.794000"
   ],
   "InstanceNumber": [
    1,
    2,
    3,
    4,
    5,
    6,
    7,
    8,
    9,
    10,
    11,
    12,
    13,
    14,
    15,
    16,
    17,
    18,
    19,
    20,
    21,
    22,
    23,
    24,
    25,
    26,
    27,
    28,
    29,
    30,
    31,
    32,
    33,
    34,
    35,
    36,
    37,
    38,
    39,
    40,
    41,
    42,
    43,
    44,
    45,
    46,
    47,
    48,
    49,
    50,
    51,
    52,
    53,
    54,
    55,
    56,
    57,
    58,
    59,
    60,
    61,
    62,
    63,
    64,
    65,
    66,
    67,
    68,
    69,
    70,
    71,
    72,
    73,
    74,
    75,
    76,
    77,
    78,
    79,
    80,
    81,
    82,
    83,
    84,
    85,
    86,
    87,
    88,
    89,
    90,
    91,
    92,
    93,
    94,
    95,
    96,
    97,
    98,
    99,
    100,
    101,
    102,
    103,
    104,
    105,
    106,
    107,
    108,
    109,
    110,
    111,
    112,
    113,
    114,
    115,
    116,
    117,
    118,
    119,
    120,
    121,
    122,
    123,
    124,
    125,
    126,
    127,
    128,
    129,
    130,
    131,
    132,
    133,
    134,
    135,
    136,
    137,
    138,
    139,
    140,
    141,
    142,
    143,
    144,
    145,
    146,
    147,
    148,
    149,
    150,
    151,
    152,
    153,
    154,
    155,
    156,
    157,
    158,
    159,
    160,
    161,
    162,
    163,
    164,
    165,
    166,
    167,
    168,
    169,
    170,
    171,
    172,
    173,
    174,
    175,
    176,
    177,
    178,
    179,
    180,
    181,
    182,
    183,
    184,
    185,
    186,
    187,
    188,
    189,
    190,
    191,
    192,
    193,
    194,
    195,
    196,
    197,
    198,
    199,
    200,
    201,
    202,
    203,
    204,
    205,
    206,
    207,
    208,
    209,
    210,
    211,
    212,
    213,
    214,
    215,
    216,
    217,
    218,
    219,
    220,
    221,
    222,
    223,
    224,
    225,
    226,
    227,
    228,
    229,
    230,
    231,
    232,
    233,
    234,
    235,
    236,
    237,
    238,
    239,
    240,
    241,
    242,
    243,
    244,
    245,
    246,
    247,
    248,
    249,
    250,
    251,
    252,
    253,
    254,
    255,
    256
   ],
   "LargestImagePixelValue": [
    2515,
    2456,
    2508,
    2497,
    2453,
    2496,
    2522,
    2421,
    2539,
    2513,
    2420,
    2470,
    2448,
    2417,
    2526,
    2443,
    2407,
    2452,
    2481,
    2540,
    2526,
    2444,
    2573,
    2524,
    2489,
    2568,
    2519,
    2472,
    2414,
    2545,
    2468,
    2460,
    2578,
    2529,
    2490,
    2519,
    2503,
    2524,
    2444,
    2568,
    2433,
    2539,
    2475,
    2421,
    2533,
    2425,
    2538,
    2507,
    2469,
    2523,
    2500,
    2520,
    2445,
    2526,
    2519,
    2550,
    2445,
    2516,
    2518,
    2494,
    2522,
    2441,
    2490,
    2425,
    2469,
    2403,
    2465,
    2431,
    2537,
    2565,
    2474,
    2561,
    2450,
    2514,
    2449,
    2496,
    2472,
    2517,
    2469,
    2467,
    2510,
    2420,
    2517,
    2529,
    2495,
    2551,
    2528,
    2519,
    2491,
    2559,
    2468,
    2528,
    2492,
    2396,
    2504,
    2466,
    2502,
    2533,
    2545,
    2510,
    2569,
    2488,
    2593,
    2505,
    2409,
    2470,
    2494,
    2468,
    2564,
    2505,
    2434,
    2480,
    2453,
    2513,
    2483,
    2513,
    2514,
    2524,
    2473,
    2368,
    2504,
    2419,
    2464,
    2432,
    2502,
    2499,
    2411,
    2527,
    2419,
    2481,
    2453,
    2448,
    2440,
    2508,
    2401,
    2453,
    2426,
    2411,
    2418,
    2430,
    2433,
    2445,
    2469,
    2393,
    2510,
    2505,
    2431,
    2451,
    2427,
    2410,
    2411,
    2445,
    2424,
    2413,
    2391,
    2485,
    2413,
    2412,
    2403,
    2422,
    2408,
    2392,
    2422,
    2396,
    2426,
    2399,
    2381,
    2416,
    2435,
    2477,
    2423,
    2392,
    2423,
    2407,
    2420,
    2407,
    2381,
    2410,
    2432,
    2424,
    2387,
    2383,
    2409,
    2423,
    2372,
    2387,
    2513,
    2510,
    2445,
    2414,
    2416,
    2405,
    2423,
    2466,
    2408,
    2471,
    2379,
    2415,
    2406,
    2442,
    2404,
    2391,
    2407,
    2401,
    2378,
    2414,
    2383,
    2550,
    2402,
    2380,
    2637,
    2422,
    2376,
    2389,
    2399,
    2428,
    2387,
    2385,
    2406,
    2401,
    2582,
    2390,
    2406,
    2402,
    2391,
    2399,
    2433,
    2394,
    2410,
    2440,
    2401,
    2415,
    2485,
    2406,
    2416,
    2391,
    2387,
    2401,
    2381,
    2412,
    2415,
    2407,
    2368,
    2449,
    3010,
    2448,
    2452,
    2374,
    2405,
    2375,
    2389,
    2395,
    2419,
    2423,
    2419,
    2385
   ],
   "WindowCenter": [
    722.0,
    721.0,
    722.0,
    722.0,
    720.0,
    720.0,
    720.0,
    718.0,
    721.0,
    721.0,
    720.0,
    720.0,
    720.0,
    721.0,
    721.0,
    718.0,
    717.0,
    717.0,
    718.0,
    719.0,
    719.0,
    718.0,
    722.0,
    722.0,
    720.0,
    720.0,
    719.0,
    718.0,
    718.0,
    719.0,
    718.0,
    719.0,
    720.0,
    718.0,
    718.0,
    719.0,
    719.0,
    720.0,
    720.0,
    722.0,
    719.0,
    719.0,
    718.0,
    718.0,
    720.0,
    717.0,
    720.0,
    720.0,
    720.0,
    720.0,
    719.0,
    718.0,
    717.0,
    720.0,
    720.0,
    719.0,
    717.0,
    719.0,
    719.0,
    719.0,
    719.0,
    718.0,
    719.0,
    718.0,
    719.0,
    718.0,
    719.0,
    718.0,
    718.0,
    718.0,
    718.0,
    720.0,
    718.0,
    719.0,
    718.0,
    720.0,
    720.0,
    720.0,
    718.0,
    719.0,
    719.0,
    717.0,
    719.0,
    718.0,
    719.0,
    720.0,
    721.0,
    721.0,
    720.0,
    720.0,
    718.0,
    720.0,
    719.0,
    719.0,
    721.0,
    719.0,
    719.0,
    720.0,
    722.0,
    722.0,
    721.0,
    718.0,
    721.0,
    721.0,
    719.0,
    719.0,
    719.0,
    719.0,
    721.0,
    720.0,
