{
 "AcquisitionMatrixPE": 100,
 "AcquisitionNumber": 1,
 "AcquisitionTime": "10:43:11.345000",
 "BandwidthPerPixelPhaseEncode": 18.519,
 "BaseResolution": 100,
 "BodyPartExamined": "BRAIN",
 "ConsistencyInfo": "N4_VE11C_LATEST_20160120",
 "ConversionSoftware": "dcm2niix",
 "ConversionSoftwareVersion": "v1.0.20180622 GCC4.9.2",
 "DerivedVendorReportedEchoSpacing": 0.000539986,
 "DeviceSerialNumber": "166078",
 "DwellTime": 2.1e-06,
 "EchoTime": 0.034,
 "EchoTrainLength": 100,
 "EffectiveEchoSpacing": 0.000539986,
 "FlipAngle": 90,
 "ImageOrientationPatientDICOM": [
  1,
  0,
  0,
  0,
  0.999962,
  -0.00872654
 ],
 "ImageType": [
  "ORIGINAL",
  "PRIMARY",
  "M",
  "ND",
  "MOSAIC"
 ],
 "InPlanePhaseEncodingDirectionDICOM": "COL",
 "InstitutionAddress": "Street_StreetNo_Bei_Jing_District_CN_ZIP",
 "InstitutionName": "BeiJing_Normal_University",
 "InstitutionalDepartmentName": "Department",
 "MRAcquisitionType": "2D",
 "MagneticFieldStrength": 3,
 "Manufacturer": "Siemens",
 "ManufacturersModelName": "Prisma",
 "Modality": "MR",
 "MultibandAccelerationFactor": 3,
 "PartialFourier": 1,
 "PatientPosition": "HFS",
 "PercentPhaseFOV": 100,
 "PhaseEncodingDirection": "j-",
 "PhaseEncodingSteps": 100,
 "PhaseResolution": 1,
 "PixelBandwidth": 2380,
 "ProcedureStepDescription": "BNU_P2018_64CH_Zhen.ZongLei",
 "ProtocolName": "bold_100x100_s3_2x2x2_static_256",
 "PulseSequenceDetails": "%SiemensSeq%_ep2d_bold",
 "ReceiveCoilActiveElements": "HC1-7;NC1",
 "ReceiveCoilName": "HeadNeck_64",
 "ReconMatrixPE": 100,
 "RepetitionTime": 2,
 "SAR": 0.0616759,
 "ScanOptions": "FS",
 "ScanningSequence": "EP",
 "SequenceName": "_epfid2d1_100",
 "SequenceVariant": "SK",
 "SeriesDescription": "bold_100x100_s3_2x2x2_static_256",
 "SeriesNumber": 15,
 "ShimSetting": [
  -5448,
  -11460,
  -1288,
  444,
  -55,
  -313,
  -216,
  133
 ],
 "SliceThickness": 2,
 "SliceTiming": [
  1.485,
  0,
  0.99,
  0.0825,
  1.0725,
  0.165,
  1.155,
  0.2475,
  1.2375,
  0.33,
  1.32,
  0.4125,
  1.4025,
  0.5775,
  1.5675,
  0.66,
  1.65,
  0.7425,
  1.7325,
  0.825,
  1.815,
  0.9075,
  1.8975,
  0.495,
  1.485,
  0,
  0.99,
  0.0825,
  1.0725,
  0.165,
  1.155,
  0.2475,
  1.2375,
  0.33,
  1.32,
  0.4125,
  1.4025,
  0.5775,
  1.5675,
  0.66,
  1.65,
  0.7425,
  1.7325,
  0.825,
  1.815,
  0.9075,
  1.8975,
  0.495,
  1.485,
  0,
  0.99,
  0.0825,
  1.0725,
  0.165,
  1.155,
  0.2475,
  1.2375,
  0.33,
  1.32,
  0.4125,
  1.4025,
  0.5775,
  1.5675,
  0.66,
  1.65,
  0.7425,
  1.7325,
  0.825,
  1.815,
  0.9075,
  1.8975,
  0.495
 ],
 "SoftwareVersions": "syngo_MR_E11",
 "SpacingBetweenSlices": 2,
 "StationName": "AWP166078",
 "TaskName": "imagenet",
 "TotalReadoutTime": 0.0534586,
 "TxRefAmp": 212.039,
 "dcmmeta_affine": [
  [
   -2.0,
   0.0,
   0.0,
   100.0
  ],
  [
   0.0,
   1.999923825263977,
   -0.017453070729970932,
   -87.86094665527344
  ],
  [
   0.0,
   0.017453070729970932,
   1.999923825263977,
   -79.48445892333984
  ],
  [
   0.0,
   0.0,
   0.0,
   1.0
  ]
 ],
 "dcmmeta_reorient_transform": [
  [
   0.0,
   -1.0,
   0.0,
   99.0
  ],
  [
   1.0,
   0.0,
   0.0,
   0.0
  ],
  [
   0.0,
   0.0,
   1.0,
   0.0
  ],
  [
   0.0,
   0.0,
   0.0,
   1.0
  ]
 ],
 "dcmmeta_shape": [
  100,
  100,
  72,
  256
 ],
 "dcmmeta_slice_dim": 2,
 "dcmmeta_version": 0.6,
 "global": {
  "const": {
   "AcquisitionMatrix": [
    100,
    0,
    0,
    100
   ],
   "AngioFlag": "N",
   "BitsAllocated": 16,
   "BitsStored": 12,
   "BodyPartExamined": "BRAIN",
   "Columns": 900,
   "EchoNumbers": 1,
   "EchoTime": 34.0,
   "EchoTrainLength": 100,
   "FlipAngle": 90.0,
   "HighBit": 11,
   "ImageOrientationPatient": [
    1.0,
    0.0,
    0.0,
    0.0,
    0.99996192306517,
    -0.0087265353836
   ],
   "ImagePositionPatient": [
    -900.0,
    -910.10105332945,
    -70.775375356877
   ],
   "ImageType": [
    "ORIGINAL",
    "PRIMARY",
    "M",
    "ND",
    "MOSAIC"
   ],
   "ImagedNucleus": "1H",
   "ImagingFrequency": 123.257747,
   "InPlanePhaseEncodingDirection": "COL",
   "MRAcquisitionType": "2D",
   "MagneticFieldStrength": 3.0,
   "Manufacturer": "SIEMENS",
   "ManufacturerModelName": "Prisma",
   "Modality": "MR",
   "NumberOfAverages": 1.0,
   "NumberOfPhaseEncodingSteps": 100,
   "PercentPhaseFieldOfView": 100.0,
   "PercentSampling": 100.0,
   "PerformedProcedureStepStartTime": "090101.576000",
   "PhotometricInterpretation": "MONOCHROME2",
   "PixelBandwidth": 2380.0,
   "PixelRepresentation": 0,
   "PixelSpacing": [
    2.0,
    2.0
   ],
   "ProtocolName": "bold_100x100_s3_2x2x2_static_256",
   "RepetitionTime": 2000.0,
   "Rows": 900,
   "SAR": 0.06167587837942,
   "SamplesPerPixel": 1,
   "ScanOptions": "FS",
   "ScanningSequence": "EP",
   "SequenceName": "*epfid2d1_100",
   "SequenceVariant": "SK",
   "SeriesDescription": "bold_100x100_s3_2x2x2_static_256",
   "SeriesNumber": 15,
   "SeriesTime": "104313.809000",
   "SliceLocation": -78.714709492085,
   "SliceThickness": 2.0,
   "SmallestImagePixelValue": 0,
   "SoftwareVersions": "syngo MR E11",
   "SpacingBetweenSlices": 1.9999999673994,
   "SpecificCharacterSet": "ISO_IR 100",
   "StudyID": "1",
   "StudyTime": "090101.320000",
   "TransmitCoilName": "Body",
   "VariableFlipAngleFlag": "N",
   "WindowCenterWidthExplanation": "Algo1",
   "dBdt": 0.0
  },
  "slices": {}
 },
 "time": {
  "samples": {
   "AcquisitionNumber": [
    1,
    2,
    3,
    4,
    5,
    6,
    7,
    8,
    9,
    10,
    11,
    12,
    13,
    14,
    15,
    16,
    17,
    18,
    19,
    20,
    21,
    22,
    23,
    24,
    25,
    26,
    27,
    28,
    29,
    30,
    31,
    32,
    33,
    34,
    35,
    36,
    37,
    38,
    39,
    40,
    41,
    42,
    43,
    44,
    45,
    46,
    47,
    48,
    49,
    50,
    51,
    52,
    53,
    54,
    55,
    56,
    57,
    58,
    59,
    60,
    61,
    62,
    63,
    64,
    65,
    66,
    67,
    68,
    69,
    70,
    71,
    72,
    73,
    74,
    75,
    76,
    77,
    78,
    79,
    80,
    81,
    82,
    83,
    84,
    85,
    86,
    87,
    88,
    89,
    90,
    91,
    92,
    93,
    94,
    95,
    96,
    97,
    98,
    99,
    100,
    101,
    102,
    103,
    104,
    105,
    106,
    107,
    108,
    109,
    110,
    111,
    112,
    113,
    114,
    115,
    116,
    117,
    118,
    119,
    120,
    121,
    122,
    123,
    124,
    125,
    126,
    127,
    128,
    129,
    130,
    131,
    132,
    133,
    134,
    135,
    136,
    137,
    138,
    139,
    140,
    141,
    142,
    143,
    144,
    145,
    146,
    147,
    148,
    149,
    150,
    151,
    152,
    153,
    154,
    155,
    156,
    157,
    158,
    159,
    160,
    161,
    162,
    163,
    164,
    165,
    166,
    167,
    168,
    169,
    170,
    171,
    172,
    173,
    174,
    175,
    176,
    177,
    178,
    179,
    180,
    181,
    182,
    183,
    184,
    185,
    186,
    187,
    188,
    189,
    190,
    191,
    192,
    193,
    194,
    195,
    196,
    197,
    198,
    199,
    200,
    201,
    202,
    203,
    204,
    205,
    206,
    207,
    208,
    209,
    210,
    211,
    212,
    213,
    214,
    215,
    216,
    217,
    218,
    219,
    220,
    221,
    222,
    223,
    224,
    225,
    226,
    227,
    228,
    229,
    230,
    231,
    232,
    233,
    234,
    235,
    236,
    237,
    238,
    239,
    240,
    241,
    242,
    243,
    244,
    245,
    246,
    247,
    248,
    249,
    250,
    251,
    252,
    253,
    254,
    255,
    256
   ],
   "AcquisitionTime": [
    "104311.345000",
    "104313.345000",
    "104315.345000",
    "104317.345000",
    "104319.345000",
    "104321.345000",
    "104323.345000",
    "104325.345000",
    "104327.345000",
    "104329.345000",
    "104331.345000",
    "104333.345000",
    "104335.345000",
    "104337.345000",
    "104339.345000",
    "104341.345000",
    "104343.345000",
    "104345.345000",
    "104347.345000",
    "104349.345000",
    "104351.345000",
    "104353.345000",
    "104355.345000",
    "104357.345000",
    "104359.345000",
    "104401.345000",
    "104403.345000",
    "104405.345000",
    "104407.345000",
    "104409.345000",
    "104411.345000",
    "104413.345000",
    "104415.345000",
    "104417.345000",
    "104419.345000",
    "104421.345000",
    "104423.345000",
    "104425.345000",
    "104427.345000",
    "104429.345000",
    "104431.345000",
    "104433.345000",
    "104435.345000",
    "104437.345000",
    "104439.345000",
    "104441.345000",
    "104443.345000",
    "104445.345000",
    "104447.345000",
    "104449.345000",
    "104451.345000",
    "104453.345000",
    "104455.345000",
    "104457.345000",
    "104459.345000",
    "104501.345000",
    "104503.345000",
    "104505.345000",
    "104507.345000",
    "104509.345000",
    "104511.345000",
    "104513.345000",
    "104515.345000",
    "104517.345000",
    "104519.345000",
    "104521.345000",
    "104523.345000",
    "104525.345000",
    "104527.345000",
    "104529.345000",
    "104531.345000",
    "104533.345000",
    "104535.345000",
    "104537.345000",
    "104539.345000",
    "104541.345000",
    "104543.345000",
    "104545.345000",
    "104547.345000",
    "104549.345000",
    "104551.345000",
    "104553.345000",
    "104555.345000",
    "104557.345000",
    "104559.345000",
    "104601.345000",
    "104603.345000",
    "104605.345000",
    "104607.345000",
    "104609.345000",
    "104611.345000",
    "104613.345000",
    "104615.345000",
    "104617.345000",
    "104619.345000",
    "104621.345000",
    "104623.345000",
    "104625.345000",
    "104627.345000",
    "104629.345000",
    "104631.345000",
    "104633.345000",
    "104635.345000",
    "104637.345000",
    "104639.345000",
    "104641.345000",
    "104643.345000",
    "104645.345000",
    "104647.345000",
    "104649.345000",
    "104651.345000",
    "104653.345000",
    "104655.345000",
    "104657.345000",
    "104659.345000",
    "104701.345000",
    "104703.345000",
    "104705.345000",
    "104707.345000",
    "104709.345000",
    "104711.345000",
    "104713.345000",
    "104715.345000",
    "104717.345000",
    "104719.345000",
    "104721.345000",
    "104723.345000",
    "104725.345000",
    "104727.345000",
    "104729.345000",
    "104731.345000",
    "104733.345000",
    "104735.345000",
    "104737.345000",
    "104739.345000",
    "104741.345000",
    "104743.345000",
    "104745.345000",
    "104747.345000",
    "104749.345000",
    "104751.345000",
    "104753.345000",
    "104755.345000",
    "104757.345000",
    "104759.345000",
    "104801.345000",
    "104803.345000",
    "104805.345000",
    "104807.345000",
    "104809.345000",
    "104811.345000",
    "104813.345000",
    "104815.345000",
    "104817.345000",
    "104819.345000",
    "104821.345000",
    "104823.345000",
    "104825.345000",
    "104827.345000",
    "104829.345000",
    "104831.345000",
    "104833.345000",
    "104835.345000",
    "104837.345000",
    "104839.345000",
    "104841.345000",
    "104843.345000",
    "104845.345000",
    "104847.345000",
    "104849.345000",
    "104851.345000",
    "104853.345000",
    "104855.345000",
    "104857.345000",
    "104859.345000",
    "104901.345000",
    "104903.345000",
    "104905.345000",
    "104907.345000",
    "104909.345000",
    "104911.345000",
    "104913.345000",
    "104915.345000",
    "104917.345000",
    "104919.345000",
    "104921.345000",
    "104923.345000",
    "104925.345000",
    "104927.345000",
    "104929.345000",
    "104931.345000",
    "104933.345000",
    "104935.345000",
    "104937.345000",
    "104939.345000",
    "104941.345000",
    "104943.345000",
    "104945.345000",
    "104947.345000",
    "104949.345000",
    "104951.345000",
    "104953.345000",
    "104955.345000",
    "104957.345000",
    "104959.345000",
    "105001.345000",
    "105003.345000",
    "105005.345000",
    "105007.345000",
    "105009.345000",
    "105011.345000",
    "105013.345000",
    "105015.345000",
    "105017.345000",
    "105019.345000",
    "105021.345000",
    "105023.345000",
    "105025.345000",
    "105027.345000",
    "105029.345000",
    "105031.345000",
    "105033.345000",
    "105035.345000",
    "105037.345000",
    "105039.345000",
    "105041.345000",
    "105043.345000",
    "105045.345000",
    "105047.345000",
    "105049.345000",
    "105051.345000",
    "105053.345000",
    "105055.345000",
    "105057.345000",
    "105059.345000",
    "105101.345000",
    "105103.345000",
    "105105.345000",
    "105107.345000",
    "105109.345000",
    "105111.345000",
    "105113.345000",
    "105115.345000",
    "105117.345000",
    "105119.345000",
    "105121.345000",
    "105123.345000",
    "105125.345000",
    "105127.345000",
    "105129.345000",
    "105131.345000",
    "105133.345000",
    "105135.345000",
    "105137.345000",
    "105139.345000",
    "105141.345000"
   ],
   "ContentTime": [
    "104313.812000",
    "104315.307000",
    "104317.307000",
    "104319.308000",
    "104321.308000",
    "104323.309000",
    "104325.308000",
    "104327.308000",
    "104329.307000",
    "104331.307000",
    "104333.307000",
    "104335.307000",
    "104337.308000",
    "104339.307000",
    "104341.309000",
    "104343.308000",
    "104345.308000",
    "104347.308000",
    "104349.308000",
    "104351.308000",
    "104353.307000",
    "104355.308000",
    "104357.308000",
    "104359.309000",
    "104401.309000",
    "104403.308000",
    "104405.307000",
    "104407.308000",
    "104409.308000",
    "104411.307000",
    "104413.307000",
    "104415.308000",
    "104417.308000",
    "104419.308000",
    "104421.309000",
    "104423.308000",
    "104425.308000",
    "104427.307000",
    "104429.307000",
    "104431.307000",
    "104433.308000",
    "104435.309000",
    "104437.308000",
    "104439.308000",
    "104441.308000",
    "104443.307000",
    "104445.307000",
    "104447.308000",
    "104449.307000",
    "104451.308000",
    "104453.309000",
    "104455.308000",
    "104457.307000",
    "104459.308000",
    "104501.307000",
    "104503.308000",
    "104505.307000",
    "104507.308000",
    "104509.308000",
    "104511.309000",
    "104513.308000",
    "104515.307000",
    "104517.308000",
    "104519.307000",
    "104521.307000",
    "104523.307000",
    "104525.309000",
    "104527.309000",
    "104529.309000",
    "104531.308000",
    "104533.307000",
    "104535.308000",
    "104537.308000",
    "104539.307000",
    "104541.308000",
    "104543.308000",
    "104545.309000",
    "104547.309000",
    "104549.308000",
    "104551.308000",
    "104553.307000",
    "104555.308000",
    "104557.307000",
    "104559.307000",
    "104601.308000",
    "104603.308000",
    "104605.308000",
    "104607.307000",
    "104609.308000",
    "104611.307000",
    "104613.308000",
    "104615.308000",
    "104617.309000",
    "104619.308000",
    "104621.308000",
    "104623.308000",
    "104625.307000",
    "104627.307000",
    "104629.307000",
    "104631.308000",
    "104633.308000",
    "104635.308000",
    "104637.309000",
    "104639.308000",
    "104641.308000",
    "104643.308000",
    "104645.308000",
    "104647.308000",
    "104649.307000",
    "104651.308000",
    "104653.309000",
    "104655.308000",
    "104657.308000",
    "104659.307000",
    "104701.307000",
    "104703.307000",
    "104705.307000",
    "104707.307000",
    "104709.307000",
    "104711.308000",
    "104713.308000",
    "104715.319000",
    "104717.307000",
    "104719.307000",
    "104721.308000",
    "104723.308000",
    "104725.307000",
    "104727.308000",
    "104729.309000",
    "104731.309000",
    "104733.308000",
    "104735.307000",
    "104737.307000",
    "104739.308000",
    "104741.308000",
    "104743.308000",
    "104745.309000",
    "104747.308000",
    "104749.309000",
    "104751.308000",
    "104753.307000",
    "104755.308000",
    "104757.308000",
    "104759.308000",
    "104801.307000",
    "104803.309000",
    "104805.308000",
    "104807.309000",
    "104809.308000",
    "104811.307000",
    "104813.307000",
    "104815.308000",
    "104817.307000",
    "104819.308000",
    "104821.309000",
    "104823.308000",
    "104825.309000",
    "104827.308000",
    "104829.307000",
    "104831.308000",
    "104833.308000",
    "104835.308000",
    "104837.309000",
    "104839.308000",
    "104841.309000",
    "104843.309000",
    "104845.308000",
    "104847.307000",
    "104849.308000",
    "104851.308000",
    "104853.308000",
    "104855.309000",
    "104857.309000",
    "104859.308000",
    "104901.309000",
    "104903.308000",
    "104905.308000",
    "104907.308000",
    "104909.308000",
    "104911.307000",
    "104913.308000",
    "104915.308000",
    "104917.308000",
    "104919.307000",
    "104921.307000",
    "104923.308000",
    "104925.307000",
    "104927.307000",
    "104929.309000",
    "104931.308000",
    "104933.308000",
    "104935.308000",
    "104937.307000",
    "104939.307000",
    "104941.307000",
    "104943.307000",
    "104945.307000",
    "104947.308000",
    "104949.308000",
    "104951.308000",
    "104953.308000",
    "104955.307000",
    "104957.308000",
    "104959.308000",
    "105001.308000",
    "105003.308000",
    "105005.309000",
    "105007.309000",
    "105009.309000",
    "105011.309000",
    "105013.308000",
    "105015.308000",
    "105017.307000",
    "105019.307000",
    "105021.308000",
    "105023.309000",
    "105025.309000",
    "105027.308000",
    "105029.307000",
    "105031.308000",
    "105033.307000",
    "105035.307000",
    "105037.307000",
    "105039.308000",
    "105041.309000",
    "105043.308000",
    "105045.308000",
    "105047.308000",
    "105049.308000",
    "105051.307000",
    "105053.308000",
    "105055.308000",
    "105057.309000",
    "105059.309000",
    "105101.310000",
    "105103.310000",
    "105105.307000",
    "105107.307000",
    "105109.308000",
    "105111.307000",
    "105113.308000",
    "105115.309000",
    "105117.309000",
    "105119.309000",
    "105121.308000",
    "105123.308000",
    "105125.308000",
    "105127.307000",
    "105129.308000",
    "105131.308000",
    "105133.309000",
    "105135.308000",
    "105137.309000",
    "105139.308000",
    "105141.308000",
    "105143.124000"
   ],
   "InstanceCreationTime": [
    "104313.812000",
    "104315.307000",
    "104317.307000",
    "104319.308000",
    "104321.308000",
    "104323.309000",
    "104325.308000",
    "104327.308000",
    "104329.307000",
    "104331.307000",
    "104333.307000",
    "104335.307000",
    "104337.308000",
    "104339.307000",
    "104341.309000",
    "104343.308000",
    "104345.308000",
    "104347.308000",
    "104349.308000",
    "104351.308000",
    "104353.307000",
    "104355.308000",
    "104357.308000",
    "104359.309000",
    "104401.309000",
    "104403.308000",
    "104405.307000",
    "104407.308000",
    "104409.308000",
    "104411.307000",
    "104413.307000",
    "104415.308000",
    "104417.308000",
    "104419.308000",
    "104421.309000",
    "104423.308000",
    "104425.308000",
    "104427.307000",
    "104429.307000",
    "104431.307000",
    "104433.308000",
    "104435.309000",
    "104437.308000",
    "104439.308000",
    "104441.308000",
    "104443.307000",
    "104445.307000",
    "104447.308000",
    "104449.307000",
    "104451.308000",
    "104453.309000",
    "104455.308000",
    "104457.307000",
    "104459.308000",
    "104501.307000",
    "104503.308000",
    "104505.307000",
    "104507.308000",
    "104509.308000",
    "104511.309000",
    "104513.308000",
    "104515.307000",
    "104517.308000",
    "104519.307000",
    "104521.307000",
    "104523.307000",
    "104525.309000",
    "104527.309000",
    "104529.309000",
    "104531.308000",
    "104533.307000",
    "104535.308000",
    "104537.308000",
    "104539.307000",
    "104541.308000",
    "104543.308000",
    "104545.309000",
    "104547.309000",
    "104549.308000",
    "104551.308000",
    "104553.307000",
    "104555.308000",
    "104557.307000",
    "104559.307000",
    "104601.308000",
    "104603.308000",
    "104605.308000",
    "104607.307000",
    "104609.308000",
    "104611.307000",
    "104613.308000",
    "104615.308000",
    "104617.309000",
    "104619.308000",
    "104621.308000",
    "104623.308000",
    "104625.307000",
    "104627.307000",
    "104629.307000",
    "104631.308000",
    "104633.308000",
    "104635.308000",
    "104637.309000",
    "104639.308000",
    "104641.308000",
    "104643.308000",
    "104645.308000",
    "104647.308000",
    "104649.307000",
    "104651.308000",
    "104653.309000",
    "104655.308000",
    "104657.308000",
    "104659.307000",
    "104701.307000",
    "104703.307000",
    "104705.307000",
    "104707.307000",
    "104709.307000",
    "104711.308000",
    "104713.308000",
    "104715.319000",
    "104717.307000",
    "104719.307000",
    "104721.308000",
    "104723.308000",
    "104725.307000",
    "104727.308000",
    "104729.309000",
    "104731.309000",
    "104733.308000",
    "104735.307000",
    "104737.307000",
    "104739.308000",
    "104741.308000",
    "104743.308000",
    "104745.309000",
    "104747.308000",
    "104749.309000",
    "104751.308000",
    "104753.307000",
    "104755.308000",
    "104757.308000",
    "104759.308000",
    "104801.307000",
    "104803.309000",
    "104805.308000",
    "104807.309000",
    "104809.308000",
    "104811.307000",
    "104813.307000",
    "104815.308000",
    "104817.307000",
    "104819.308000",
    "104821.309000",
    "104823.308000",
    "104825.309000",
    "104827.308000",
    "104829.307000",
    "104831.308000",
    "104833.308000",
    "104835.308000",
    "104837.309000",
    "104839.308000",
    "104841.309000",
    "104843.309000",
    "104845.308000",
    "104847.307000",
    "104849.308000",
    "104851.308000",
    "104853.308000",
    "104855.309000",
    "104857.309000",
    "104859.308000",
    "104901.309000",
    "104903.308000",
    "104905.308000",
    "104907.308000",
    "104909.308000",
    "104911.307000",
    "104913.308000",
    "104915.308000",
    "104917.308000",
    "104919.307000",
    "104921.307000",
    "104923.308000",
    "104925.307000",
    "104927.307000",
    "104929.309000",
    "104931.308000",
    "104933.308000",
    "104935.308000",
    "104937.307000",
    "104939.307000",
    "104941.307000",
    "104943.307000",
    "104945.307000",
    "104947.308000",
    "104949.308000",
    "104951.308000",
    "104953.308000",
    "104955.307000",
    "104957.308000",
    "104959.308000",
    "105001.308000",
    "105003.308000",
    "105005.309000",
    "105007.309000",
    "105009.309000",
    "105011.309000",
    "105013.308000",
    "105015.308000",
    "105017.307000",
    "105019.307000",
    "105021.308000",
    "105023.309000",
    "105025.309000",
    "105027.308000",
    "105029.307000",
    "105031.308000",
    "105033.307000",
    "105035.307000",
    "105037.307000",
    "105039.308000",
    "105041.309000",
    "105043.308000",
    "105045.308000",
    "105047.308000",
    "105049.308000",
    "105051.307000",
    "105053.308000",
    "105055.308000",
    "105057.309000",
    "105059.309000",
    "105101.310000",
    "105103.310000",
    "105105.307000",
    "105107.307000",
    "105109.308000",
    "105111.307000",
    "105113.308000",
    "105115.309000",
    "105117.309000",
    "105119.309000",
    "105121.308000",
    "105123.308000",
    "105125.308000",
    "105127.307000",
    "105129.308000",
    "105131.308000",
    "105133.309000",
    "105135.308000",
    "105137.309000",
    "105139.308000",
    "105141.308000",
    "105143.124000"
   ],
   "InstanceNumber": [
    1,
    2,
    3,
    4,
    5,
    6,
    7,
    8,
    9,
    10,
    11,
    12,
    13,
    14,
    15,
    16,
    17,
    18,
    19,
    20,
    21,
    22,
    23,
    24,
    25,
    26,
    27,
    28,
    29,
    30,
    31,
    32,
    33,
    34,
    35,
    36,
    37,
    38,
    39,
    40,
    41,
    42,
    43,
    44,
    45,
    46,
    47,
    48,
    49,
    50,
    51,
    52,
    53,
    54,
    55,
    56,
    57,
    58,
    59,
    60,
    61,
    62,
    63,
    64,
    65,
    66,
    67,
    68,
    69,
    70,
    71,
    72,
    73,
    74,
    75,
    76,
    77,
    78,
    79,
    80,
    81,
    82,
    83,
    84,
    85,
    86,
    87,
    88,
    89,
    90,
    91,
    92,
    93,
    94,
    95,
    96,
    97,
    98,
    99,
    100,
    101,
    102,
    103,
    104,
    105,
    106,
    107,
    108,
    109,
    110,
    111,
    112,
    113,
    114,
    115,
    116,
    117,
    118,
    119,
    120,
    121,
    122,
    123,
    124,
    125,
    126,
    127,
    128,
    129,
    130,
    131,
    132,
    133,
    134,
    135,
    136,
    137,
    138,
    139,
    140,
    141,
    142,
    143,
    144,
    145,
    146,
    147,
    148,
    149,
    150,
    151,
    152,
    153,
    154,
    155,
    156,
    157,
    158,
    159,
    160,
    161,
    162,
    163,
    164,
    165,
    166,
    167,
    168,
    169,
    170,
    171,
    172,
    173,
    174,
    175,
    176,
    177,
    178,
    179,
    180,
    181,
    182,
    183,
    184,
    185,
    186,
    187,
    188,
    189,
    190,
    191,
    192,
    193,
    194,
    195,
    196,
    197,
    198,
    199,
    200,
    201,
    202,
    203,
    204,
    205,
    206,
    207,
    208,
    209,
    210,
    211,
    212,
    213,
    214,
    215,
    216,
    217,
    218,
    219,
    220,
    221,
    222,
    223,
    224,
    225,
    226,
    227,
    228,
    229,
    230,
    231,
    232,
    233,
    234,
    235,
    236,
    237,
    238,
    239,
    240,
    241,
    242,
    243,
    244,
    245,
    246,
    247,
    248,
    249,
    250,
    251,
    252,
    253,
    254,
    255,
    256
   ],
   "LargestImagePixelValue": [
    2963,
    2947,
    2925,
    2941,
    2912,
    2916,
    2924,
    2926,
    2910,
    2897,
    2947,
    2924,
    2913,
    2931,
    2921,
    2924,
    2955,
    2914,
    2936,
    2940,
    2944,
    2960,
    2935,
    2963,
    2944,
    2935,
    2943,
    2927,
    2959,
    2950,
    2956,
    2926,
    2936,
    2936,
    2938,
    2951,
    2929,
    2958,
    2926,
    2926,
    2958,
    2902,
    2918,
    2966,
    2933,
    2965,
    2931,
    2913,
    2943,
    2906,
    2944,
    2957,
    2923,
    2937,
    2958,
    2941,
    2960,
    2941,
    2935,
    2953,
    2921,
    2923,
    2932,
    2913,
    2935,
    2920,
    2927,
    2934,
    2952,
    2939,
    2940,
    2939,
    2928,
    2931,
    2929,
    2941,
    2938,
    2924,
    2935,
    2918,
    2954,
    2929,
    2928,
    2936,
    2948,
    2960,
    2971,
    2916,
    2930,
    2912,
    2912,
    2923,
    2957,
    2956,
    2897,
    2912,
    2947,
    2936,
    2924,
    2940,
    2926,
    2929,
    2949,
    2944,
    2957,
    2967,
    2952,
    2924,
    2939,
    2943,
    2941,
    2929,
    2943,
    2947,
    2920,
    2933,
    2926,
    2957,
    2950,
    2933,
    2942,
    2938,
    2939,
    2945,
    2904,
    2950,
    2960,
    2978,
    2938,
    2957,
    2914,
    2927,
    2949,
    2956,
    2954,
    2948,
    2941,
    2948,
    2955,
    2934,
    2932,
    2936,
    2908,
    2948,
    2933,
    2929,
    2934,
    2940,
    2965,
    2960,
    2917,
    2964,
    2951,
    2924,
    2919,
    2937,
    2919,
    2955,
    2936,
    2916,
    2964,
    2958,
    2967,
    2963,
    2945,
    2944,
    2968,
    2945,
    2957,
    2970,
    2945,
    2963,
    2933,
    2951,
    2991,
    2935,
    2908,
    2962,
    2967,
    2951,
    2995,
    2943,
    2953,
    2947,
    2964,
    2967,
    2971,
    2935,
    2945,
    2930,
    2959,
    2948,
    2940,
    2955,
    2988,
    2953,
    2973,
    2961,
    2951,
    2966,
    2943,
    2982,
    2970,
    2961,
    2963,
    2955,
    2948,
    2980,
    2957,
    2971,
    2989,
    2974,
    2959,
    2972,
    2954,
    2958,
    2963,
    2964,
    2941,
    2968,
    2944,
    2946,
    2956,
    2938,
    2951,
    2940,
    2958,
    2976,
    2952,
    2978,
    2952,
    2944,
    2977,
    2948,
    2950,
    2945,
    2990,
    2961,
    2952,
    2965,
    2955,
    2954,
    2973,
    2942,
    2988,
    2958,
    2946,
    2968,
    2990,
    2961,
    2954,
    2947,
    2935,
    2952,
    2967,
    2978
   ],
   "WindowCenter": [
    763.0,
    760.0,
    759.0,
    760.0,
    760.0,
    760.0,
    760.0,
    759.0,
    759.0,
    759.0,
    760.0,
    761.0,
    762.0,
    761.0,
    760.0,
    759.0,
    759.0,
    758.0,
    759.0,
    760.0,
    760.0,
    760.0,
    759.0,
    759.0,
    759.0,
    759.0,
    759.0,
    759.0,
    760.0,
    760.0,
    760.0,
    759.0,
    759.0,
    759.0,
    760.0,
    760.0,
    760.0,
    760.0,
    760.0,
    760.0,
    760.0,
    760.0,
    759.0,
    760.0,
    759.0,
    759.0,
    759.0,
    759.0,
    759.0,
    759.0,
    758.0,
    758.0,
    758.0,
    759.0,
    759.0,
    758.0,
    758.0,
    758.0,
    758.0,
    759.0,
    760.0,
    760.0,
    760.0,
    759.0,
    759.0,
    758.0,
    758.0,
    758.0,
    758.0,
    759.0,
    760.0,
    761.0,
    761.0,
    761.0,
    760.0,
    760.0,
    760.0,
    760.0,
    761.0,
    760.0,
    760.0,
    759.0,
    759.0,
    759.0,
    760.0,
    760.0,
    761.0,
    760.0,
    760.0,
    759.0,
    759.0,
    758.0,
    757.0,
    757.0,
    758.0,
    759.0,
    759.0,
    759.0,
    759.0,
    759.0,
    758.0,
    758.0,
    759.0,
    760.0,
    761.0,
    761.0,
    761.0,
    760.0,
    760.0,
    760.0,
    759.0,
    759.0,
    758.0,
    759.0,
    759.0,
    760.0,
    759.0,
    759.0,
    760.0,
    760.0,
    760.0,
    759.0,
    758.0,
    758.0,
    758.0,
    760.0,
