{
 "AcquisitionMatrixPE": 100,
 "AcquisitionNumber": 1,
 "AcquisitionTime": "09:37:56.560000",
 "BandwidthPerPixelPhaseEncode": 18.519,
 "BaseResolution": 100,
 "BodyPartExamined": "BRAIN",
 "ConsistencyInfo": "N4_VE11C_LATEST_20160120",
 "ConversionSoftware": "dcm2niix",
 "ConversionSoftwareVersion": "v1.0.20180622 GCC4.9.2",
 "DerivedVendorReportedEchoSpacing": 0.000539986,
 "DeviceSerialNumber": "166078",
 "DwellTime": 2.1e-06,
 "EchoTime": 0.034,
 "EchoTrainLength": 100,
 "EffectiveEchoSpacing": 0.000539986,
 "FlipAngle": 90,
 "ImageOrientationPatientDICOM": [
  1,
  0,
  0,
  0,
  0.999962,
  -0.00872654
 ],
 "ImageType": [
  "ORIGINAL",
  "PRIMARY",
  "M",
  "ND",
  "MOSAIC"
 ],
 "InPlanePhaseEncodingDirectionDICOM": "COL",
 "InstitutionAddress": "Street_StreetNo_Bei_Jing_District_CN_ZIP",
 "InstitutionName": "BeiJing_Normal_University",
 "InstitutionalDepartmentName": "Department",
 "MRAcquisitionType": "2D",
 "MagneticFieldStrength": 3,
 "Manufacturer": "Siemens",
 "ManufacturersModelName": "Prisma",
 "Modality": "MR",
 "MultibandAccelerationFactor": 3,
 "PartialFourier": 1,
 "PatientPosition": "HFS",
 "PercentPhaseFOV": 100,
 "PhaseEncodingDirection": "j-",
 "PhaseEncodingSteps": 100,
 "PhaseResolution": 1,
 "PixelBandwidth": 2380,
 "ProcedureStepDescription": "BNU_P2018_64CH_Zhen.ZongLei",
 "ProtocolName": "bold_100x100_s3_2x2x2_static_256",
 "PulseSequenceDetails": "%SiemensSeq%_ep2d_bold",
 "ReceiveCoilActiveElements": "HC1-7;NC1",
 "ReceiveCoilName": "HeadNeck_64",
 "ReconMatrixPE": 100,
 "RepetitionTime": 2,
 "SAR": 0.0616759,
 "ScanOptions": "FS",
 "ScanningSequence": "EP",
 "SequenceName": "_epfid2d1_100",
 "SequenceVariant": "SK",
 "SeriesDescription": "bold_100x100_s3_2x2x2_static_256",
 "SeriesNumber": 6,
 "ShimSetting": [
  -5448,
  -11460,
  -1288,
  444,
  -55,
  -313,
  -216,
  133
 ],
 "SliceThickness": 2,
 "SliceTiming": [
  1.485,
  0,
  0.99,
  0.0825,
  1.0725,
  0.165,
  1.155,
  0.2475,
  1.2375,
  0.33,
  1.32,
  0.4125,
  1.4025,
  0.5775,
  1.5675,
  0.66,
  1.65,
  0.7425,
  1.7325,
  0.825,
  1.815,
  0.9075,
  1.8975,
  0.495,
  1.485,
  0,
  0.99,
  0.0825,
  1.0725,
  0.165,
  1.155,
  0.2475,
  1.2375,
  0.33,
  1.32,
  0.4125,
  1.4025,
  0.5775,
  1.5675,
  0.66,
  1.65,
  0.7425,
  1.7325,
  0.825,
  1.815,
  0.9075,
  1.8975,
  0.495,
  1.485,
  0,
  0.99,
  0.0825,
  1.0725,
  0.165,
  1.155,
  0.2475,
  1.2375,
  0.33,
  1.32,
  0.4125,
  1.4025,
  0.5775,
  1.5675,
  0.66,
  1.65,
  0.7425,
  1.7325,
  0.825,
  1.815,
  0.9075,
  1.8975,
  0.495
 ],
 "SoftwareVersions": "syngo_MR_E11",
 "SpacingBetweenSlices": 2,
 "StationName": "AWP166078",
 "TaskName": "imagenet",
 "TotalReadoutTime": 0.0534586,
 "TxRefAmp": 212.039,
 "dcmmeta_affine": [
  [
   -2.0,
   0.0,
   0.0,
   100.0
  ],
  [
   0.0,
   1.999923825263977,
   -0.017453070729970932,
   -87.86094665527344
  ],
  [
   0.0,
   0.017453070729970932,
   1.999923825263977,
   -79.48445892333984
  ],
  [
   0.0,
   0.0,
   0.0,
   1.0
  ]
 ],
 "dcmmeta_reorient_transform": [
  [
   0.0,
   -1.0,
   0.0,
   99.0
  ],
  [
   1.0,
   0.0,
   0.0,
   0.0
  ],
  [
   0.0,
   0.0,
   1.0,
   0.0
  ],
  [
   0.0,
   0.0,
   0.0,
   1.0
  ]
 ],
 "dcmmeta_shape": [
  100,
  100,
  72,
  256
 ],
 "dcmmeta_slice_dim": 2,
 "dcmmeta_version": 0.6,
 "global": {
  "const": {
   "AcquisitionMatrix": [
    100,
    0,
    0,
    100
   ],
   "AngioFlag": "N",
   "BitsAllocated": 16,
   "BitsStored": 12,
   "BodyPartExamined": "BRAIN",
   "Columns": 900,
   "EchoNumbers": 1,
   "EchoTime": 34.0,
   "EchoTrainLength": 100,
   "FlipAngle": 90.0,
   "HighBit": 11,
   "ImageOrientationPatient": [
    1.0,
    0.0,
    0.0,
    0.0,
    0.99996192306517,
    -0.0087265353836
   ],
   "ImagePositionPatient": [
    -900.0,
    -910.10105332945,
    -70.775375356877
   ],
   "ImageType": [
    "ORIGINAL",
    "PRIMARY",
    "M",
    "ND",
    "MOSAIC"
   ],
   "ImagedNucleus": "1H",
   "ImagingFrequency": 123.257743,
   "InPlanePhaseEncodingDirection": "COL",
   "MRAcquisitionType": "2D",
   "MagneticFieldStrength": 3.0,
   "Manufacturer": "SIEMENS",
   "ManufacturerModelName": "Prisma",
   "Modality": "MR",
   "NumberOfAverages": 1.0,
   "NumberOfPhaseEncodingSteps": 100,
   "PercentPhaseFieldOfView": 100.0,
   "PercentSampling": 100.0,
   "PerformedProcedureStepStartTime": "090101.576000",
   "PhotometricInterpretation": "MONOCHROME2",
   "PixelBandwidth": 2380.0,
   "PixelRepresentation": 0,
   "PixelSpacing": [
    2.0,
    2.0
   ],
   "ProtocolName": "bold_100x100_s3_2x2x2_static_256",
   "RepetitionTime": 2000.0,
   "Rows": 900,
   "SAR": 0.06167587837942,
   "SamplesPerPixel": 1,
   "ScanOptions": "FS",
   "ScanningSequence": "EP",
   "SequenceName": "*epfid2d1_100",
   "SequenceVariant": "SK",
   "SeriesDescription": "bold_100x100_s3_2x2x2_static_256",
   "SeriesNumber": 6,
   "SeriesTime": "093759.422000",
   "SliceLocation": -78.714709492085,
   "SliceThickness": 2.0,
   "SmallestImagePixelValue": 0,
   "SoftwareVersions": "syngo MR E11",
   "SpacingBetweenSlices": 1.9999999673994,
   "SpecificCharacterSet": "ISO_IR 100",
   "StudyID": "1",
   "StudyTime": "090101.320000",
   "TransmitCoilName": "Body",
   "VariableFlipAngleFlag": "N",
   "WindowCenterWidthExplanation": "Algo1",
   "dBdt": 0.0
  },
  "slices": {}
 },
 "time": {
  "samples": {
   "AcquisitionNumber": [
    1,
    2,
    3,
    4,
    5,
    6,
    7,
    8,
    9,
    10,
    11,
    12,
    13,
    14,
    15,
    16,
    17,
    18,
    19,
    20,
    21,
    22,
    23,
    24,
    25,
    26,
    27,
    28,
    29,
    30,
    31,
    32,
    33,
    34,
    35,
    36,
    37,
    38,
    39,
    40,
    41,
    42,
    43,
    44,
    45,
    46,
    47,
    48,
    49,
    50,
    51,
    52,
    53,
    54,
    55,
    56,
    57,
    58,
    59,
    60,
    61,
    62,
    63,
    64,
    65,
    66,
    67,
    68,
    69,
    70,
    71,
    72,
    73,
    74,
    75,
    76,
    77,
    78,
    79,
    80,
    81,
    82,
    83,
    84,
    85,
    86,
    87,
    88,
    89,
    90,
    91,
    92,
    93,
    94,
    95,
    96,
    97,
    98,
    99,
    100,
    101,
    102,
    103,
    104,
    105,
    106,
    107,
    108,
    109,
    110,
    111,
    112,
    113,
    114,
    115,
    116,
    117,
    118,
    119,
    120,
    121,
    122,
    123,
    124,
    125,
    126,
    127,
    128,
    129,
    130,
    131,
    132,
    133,
    134,
    135,
    136,
    137,
    138,
    139,
    140,
    141,
    142,
    143,
    144,
    145,
    146,
    147,
    148,
    149,
    150,
    151,
    152,
    153,
    154,
    155,
    156,
    157,
    158,
    159,
    160,
    161,
    162,
    163,
    164,
    165,
    166,
    167,
    168,
    169,
    170,
    171,
    172,
    173,
    174,
    175,
    176,
    177,
    178,
    179,
    180,
    181,
    182,
    183,
    184,
    185,
    186,
    187,
    188,
    189,
    190,
    191,
    192,
    193,
    194,
    195,
    196,
    197,
    198,
    199,
    200,
    201,
    202,
    203,
    204,
    205,
    206,
    207,
    208,
    209,
    210,
    211,
    212,
    213,
    214,
    215,
    216,
    217,
    218,
    219,
    220,
    221,
    222,
    223,
    224,
    225,
    226,
    227,
    228,
    229,
    230,
    231,
    232,
    233,
    234,
    235,
    236,
    237,
    238,
    239,
    240,
    241,
    242,
    243,
    244,
    245,
    246,
    247,
    248,
    249,
    250,
    251,
    252,
    253,
    254,
    255,
    256
   ],
   "AcquisitionTime": [
    "093756.560000",
    "093758.560000",
    "093800.560000",
    "093802.560000",
    "093804.560000",
    "093806.560000",
    "093808.560000",
    "093810.560000",
    "093812.560000",
    "093814.560000",
    "093816.560000",
    "093818.560000",
    "093820.560000",
    "093822.560000",
    "093824.560000",
    "093826.560000",
    "093828.560000",
    "093830.560000",
    "093832.560000",
    "093834.560000",
    "093836.560000",
    "093838.560000",
    "093840.560000",
    "093842.560000",
    "093844.560000",
    "093846.560000",
    "093848.560000",
    "093850.560000",
    "093852.560000",
    "093854.560000",
    "093856.560000",
    "093858.560000",
    "093900.560000",
    "093902.560000",
    "093904.560000",
    "093906.560000",
    "093908.560000",
    "093910.560000",
    "093912.560000",
    "093914.560000",
    "093916.560000",
    "093918.560000",
    "093920.560000",
    "093922.560000",
    "093924.560000",
    "093926.560000",
    "093928.560000",
    "093930.560000",
    "093932.560000",
    "093934.560000",
    "093936.560000",
    "093938.560000",
    "093940.560000",
    "093942.560000",
    "093944.560000",
    "093946.560000",
    "093948.560000",
    "093950.560000",
    "093952.560000",
    "093954.560000",
    "093956.560000",
    "093958.560000",
    "094000.560000",
    "094002.560000",
    "094004.560000",
    "094006.560000",
    "094008.560000",
    "094010.560000",
    "094012.560000",
    "094014.560000",
    "094016.560000",
    "094018.560000",
    "094020.560000",
    "094022.560000",
    "094024.560000",
    "094026.560000",
    "094028.560000",
    "094030.560000",
    "094032.560000",
    "094034.560000",
    "094036.560000",
    "094038.560000",
    "094040.560000",
    "094042.560000",
    "094044.560000",
    "094046.560000",
    "094048.560000",
    "094050.560000",
    "094052.560000",
    "094054.560000",
    "094056.560000",
    "094058.560000",
    "094100.560000",
    "094102.560000",
    "094104.560000",
    "094106.560000",
    "094108.560000",
    "094110.560000",
    "094112.560000",
    "094114.560000",
    "094116.560000",
    "094118.560000",
    "094120.560000",
    "094122.560000",
    "094124.560000",
    "094126.560000",
    "094128.560000",
    "094130.560000",
    "094132.560000",
    "094134.560000",
    "094136.560000",
    "094138.560000",
    "094140.560000",
    "094142.560000",
    "094144.560000",
    "094146.560000",
    "094148.560000",
    "094150.560000",
    "094152.560000",
    "094154.560000",
    "094156.560000",
    "094158.560000",
    "094200.560000",
    "094202.560000",
    "094204.560000",
    "094206.560000",
    "094208.560000",
    "094210.560000",
    "094212.560000",
    "094214.560000",
    "094216.560000",
    "094218.560000",
    "094220.560000",
    "094222.560000",
    "094224.560000",
    "094226.560000",
    "094228.560000",
    "094230.560000",
    "094232.560000",
    "094234.560000",
    "094236.560000",
    "094238.560000",
    "094240.560000",
    "094242.560000",
    "094244.560000",
    "094246.560000",
    "094248.560000",
    "094250.560000",
    "094252.560000",
    "094254.560000",
    "094256.560000",
    "094258.560000",
    "094300.560000",
    "094302.560000",
    "094304.560000",
    "094306.560000",
    "094308.560000",
    "094310.560000",
    "094312.560000",
    "094314.560000",
    "094316.560000",
    "094318.560000",
    "094320.560000",
    "094322.560000",
    "094324.560000",
    "094326.560000",
    "094328.560000",
    "094330.560000",
    "094332.560000",
    "094334.560000",
    "094336.560000",
    "094338.560000",
    "094340.560000",
    "094342.560000",
    "094344.560000",
    "094346.560000",
    "094348.560000",
    "094350.560000",
    "094352.560000",
    "094354.560000",
    "094356.560000",
    "094358.560000",
    "094400.560000",
    "094402.560000",
    "094404.560000",
    "094406.560000",
    "094408.560000",
    "094410.560000",
    "094412.560000",
    "094414.560000",
    "094416.560000",
    "094418.560000",
    "094420.560000",
    "094422.560000",
    "094424.560000",
    "094426.560000",
    "094428.560000",
    "094430.560000",
    "094432.560000",
    "094434.560000",
    "094436.560000",
    "094438.560000",
    "094440.560000",
    "094442.560000",
    "094444.560000",
    "094446.560000",
    "094448.560000",
    "094450.560000",
    "094452.560000",
    "094454.560000",
    "094456.560000",
    "094458.560000",
    "094500.560000",
    "094502.560000",
    "094504.560000",
    "094506.560000",
    "094508.560000",
    "094510.560000",
    "094512.560000",
    "094514.560000",
    "094516.560000",
    "094518.560000",
    "094520.560000",
    "094522.560000",
    "094524.560000",
    "094526.560000",
    "094528.560000",
    "094530.560000",
    "094532.560000",
    "094534.560000",
    "094536.560000",
    "094538.560000",
    "094540.560000",
    "094542.560000",
    "094544.560000",
    "094546.560000",
    "094548.560000",
    "094550.560000",
    "094552.560000",
    "094554.560000",
    "094556.560000",
    "094558.560000",
    "094600.560000",
    "094602.560000",
    "094604.560000",
    "094606.560000",
    "094608.560000",
    "094610.560000",
    "094612.560000",
    "094614.560000",
    "094616.560000",
    "094618.560000",
    "094620.560000",
    "094622.560000",
    "094624.560000",
    "094626.560000"
   ],
   "ContentTime": [
    "093759.426000",
    "093800.920000",
    "093802.920000",
    "093804.920000",
    "093806.921000",
    "093808.921000",
    "093810.921000",
    "093812.922000",
    "093814.922000",
    "093816.921000",
    "093818.921000",
    "093820.920000",
    "093822.921000",
    "093824.922000",
    "093826.922000",
    "093828.921000",
    "093830.921000",
    "093832.922000",
    "093834.922000",
    "093836.920000",
    "093838.920000",
    "093840.921000",
    "093842.421000",
    "093844.922000",
    "093846.921000",
    "093848.922000",
    "093850.921000",
    "093852.921000",
    "093854.921000",
    "093856.920000",
    "093858.922000",
    "093900.922000",
    "093902.922000",
    "093904.921000",
    "093906.422000",
    "093908.922000",
    "093910.920000",
    "093912.921000",
    "093914.921000",
    "093916.921000",
    "093918.922000",
    "093920.922000",
    "093922.922000",
    "093924.921000",
    "093926.922000",
    "093928.921000",
    "093930.920000",
    "093932.920000",
    "093934.921000",
    "093936.922000",
    "093938.921000",
    "093940.921000",
    "093942.922000",
    "093944.921000",
    "093946.920000",
    "093948.921000",
    "093950.922000",
    "093952.921000",
    "093954.922000",
    "093956.921000",
    "093958.922000",
    "094000.922000",
    "094002.921000",
    "094004.920000",
    "094006.921000",
    "094008.922000",
    "094010.921000",
    "094012.921000",
    "094014.922000",
    "094016.922000",
    "094018.922000",
    "094020.921000",
    "094022.921000",
    "094024.921000",
    "094026.921000",
    "094028.921000",
    "094030.922000",
    "094032.922000",
    "094034.922000",
    "094036.922000",
    "094038.921000",
    "094040.921000",
    "094042.921000",
    "094044.922000",
    "094046.421000",
    "094048.922000",
    "094050.922000",
    "094052.921000",
    "094054.922000",
    "094056.921000",
    "094058.920000",
    "094100.921000",
    "094102.922000",
    "094104.921000",
    "094106.922000",
    "094108.921000",
    "094110.922000",
    "094112.920000",
    "094114.921000",
    "094116.920000",
    "094118.922000",
    "094120.921000",
    "094122.922000",
    "094124.921000",
    "094126.921000",
    "094128.921000",
    "094130.920000",
    "094132.920000",
    "094134.921000",
    "094136.921000",
    "094138.921000",
    "094140.921000",
    "094142.922000",
    "094144.922000",
    "094146.922000",
    "094148.920000",
    "094150.921000",
    "094152.920000",
    "094154.922000",
    "094156.922000",
    "094158.922000",
    "094200.921000",
    "094202.921000",
    "094204.921000",
    "094206.921000",
    "094208.921000",
    "094210.921000",
    "094212.921000",
    "094214.922000",
    "094216.921000",
    "094218.922000",
    "094220.921000",
    "094222.921000",
    "094224.420000",
    "094226.920000",
    "094228.921000",
    "094230.921000",
    "094232.922000",
    "094234.922000",
    "094236.922000",
    "094238.922000",
    "094240.921000",
    "094242.921000",
    "094244.921000",
    "094246.922000",
    "094248.922000",
    "094250.922000",
    "094252.921000",
    "094254.922000",
    "094256.922000",
    "094258.920000",
    "094300.921000",
    "094302.921000",
    "094304.922000",
    "094306.922000",
    "094308.921000",
    "094310.922000",
    "094312.921000",
    "094314.921000",
    "094316.920000",
    "094318.920000",
    "094320.921000",
    "094322.922000",
    "094324.921000",
    "094326.921000",
    "094328.921000",
    "094330.921000",
    "094332.920000",
    "094334.920000",
    "094336.920000",
    "094338.921000",
    "094340.922000",
    "094342.922000",
    "094344.922000",
    "094346.921000",
    "094348.921000",
    "094350.920000",
    "094352.920000",
    "094354.921000",
    "094356.922000",
    "094358.922000",
    "094400.921000",
    "094402.922000",
    "094404.922000",
    "094406.922000",
    "094408.921000",
    "094410.921000",
    "094412.921000",
    "094414.922000",
    "094416.421000",
    "094418.922000",
    "094420.921000",
    "094422.921000",
    "094424.922000",
    "094426.921000",
    "094428.921000",
    "094430.921000",
    "094432.921000",
    "094434.922000",
    "094436.922000",
    "094438.922000",
    "094440.921000",
    "094442.420000",
    "094444.921000",
    "094446.921000",
    "094448.921000",
    "094450.922000",
    "094452.922000",
    "094454.922000",
    "094456.933000",
    "094458.921000",
    "094500.921000",
    "094502.920000",
    "094504.921000",
    "094506.921000",
    "094508.921000",
    "094510.921000",
    "094512.922000",
    "094514.922000",
    "094516.922000",
    "094518.921000",
    "094520.920000",
    "094522.922000",
    "094524.921000",
    "094526.921000",
    "094528.922000",
    "094530.922000",
    "094532.921000",
    "094534.921000",
    "094536.921000",
    "094538.921000",
    "094540.922000",
    "094542.921000",
    "094544.421000",
    "094546.921000",
    "094548.921000",
    "094550.922000",
    "094552.921000",
    "094554.921000",
    "094556.921000",
    "094558.922000",
    "094600.921000",
    "094602.922000",
    "094604.921000",
    "094606.922000",
    "094608.922000",
    "094610.921000",
    "094612.921000",
    "094614.920000",
    "094616.922000",
    "094618.921000",
    "094620.921000",
    "094622.922000",
    "094624.922000",
    "094626.923000",
    "094628.399000"
   ],
   "InstanceCreationTime": [
    "093759.426000",
    "093800.920000",
    "093802.920000",
    "093804.920000",
    "093806.921000",
    "093808.921000",
    "093810.921000",
    "093812.922000",
    "093814.922000",
    "093816.921000",
    "093818.921000",
    "093820.920000",
    "093822.921000",
    "093824.922000",
    "093826.922000",
    "093828.921000",
    "093830.921000",
    "093832.922000",
    "093834.922000",
    "093836.920000",
    "093838.920000",
    "093840.921000",
    "093842.421000",
    "093844.922000",
    "093846.921000",
    "093848.922000",
    "093850.921000",
    "093852.921000",
    "093854.921000",
    "093856.920000",
    "093858.922000",
    "093900.922000",
    "093902.922000",
    "093904.921000",
    "093906.422000",
    "093908.922000",
    "093910.920000",
    "093912.921000",
    "093914.921000",
    "093916.921000",
    "093918.922000",
    "093920.922000",
    "093922.922000",
    "093924.921000",
    "093926.922000",
    "093928.921000",
    "093930.920000",
    "093932.920000",
    "093934.921000",
    "093936.922000",
    "093938.921000",
    "093940.921000",
    "093942.922000",
    "093944.921000",
    "093946.920000",
    "093948.921000",
    "093950.922000",
    "093952.921000",
    "093954.922000",
    "093956.921000",
    "093958.922000",
    "094000.922000",
    "094002.921000",
    "094004.920000",
    "094006.921000",
    "094008.922000",
    "094010.921000",
    "094012.921000",
    "094014.922000",
    "094016.922000",
    "094018.922000",
    "094020.921000",
    "094022.921000",
    "094024.921000",
    "094026.921000",
    "094028.921000",
    "094030.922000",
    "094032.922000",
    "094034.922000",
    "094036.922000",
    "094038.921000",
    "094040.921000",
    "094042.921000",
    "094044.922000",
    "094046.421000",
    "094048.922000",
    "094050.922000",
    "094052.921000",
    "094054.922000",
    "094056.921000",
    "094058.920000",
    "094100.921000",
    "094102.922000",
    "094104.921000",
    "094106.922000",
    "094108.921000",
    "094110.922000",
    "094112.920000",
    "094114.921000",
    "094116.920000",
    "094118.922000",
    "094120.921000",
    "094122.922000",
    "094124.921000",
    "094126.921000",
    "094128.921000",
    "094130.920000",
    "094132.920000",
    "094134.921000",
    "094136.921000",
    "094138.921000",
    "094140.921000",
    "094142.922000",
    "094144.922000",
    "094146.922000",
    "094148.920000",
    "094150.921000",
    "094152.920000",
    "094154.922000",
    "094156.922000",
    "094158.922000",
    "094200.921000",
    "094202.921000",
    "094204.921000",
    "094206.921000",
    "094208.921000",
    "094210.921000",
    "094212.921000",
    "094214.922000",
    "094216.921000",
    "094218.922000",
    "094220.921000",
    "094222.921000",
    "094224.420000",
    "094226.920000",
    "094228.921000",
    "094230.921000",
    "094232.922000",
    "094234.922000",
    "094236.922000",
    "094238.922000",
    "094240.921000",
    "094242.921000",
    "094244.921000",
    "094246.922000",
    "094248.922000",
    "094250.922000",
    "094252.921000",
    "094254.922000",
    "094256.922000",
    "094258.920000",
    "094300.921000",
    "094302.921000",
    "094304.922000",
    "094306.922000",
    "094308.921000",
    "094310.922000",
    "094312.921000",
    "094314.921000",
    "094316.920000",
    "094318.920000",
    "094320.921000",
    "094322.922000",
    "094324.921000",
    "094326.921000",
    "094328.921000",
    "094330.921000",
    "094332.920000",
    "094334.920000",
    "094336.920000",
    "094338.921000",
    "094340.922000",
    "094342.922000",
    "094344.922000",
    "094346.921000",
    "094348.921000",
    "094350.920000",
    "094352.920000",
    "094354.921000",
    "094356.922000",
    "094358.922000",
    "094400.921000",
    "094402.922000",
    "094404.922000",
    "094406.922000",
    "094408.921000",
    "094410.921000",
    "094412.921000",
    "094414.922000",
    "094416.421000",
    "094418.922000",
    "094420.921000",
    "094422.921000",
    "094424.922000",
    "094426.921000",
    "094428.921000",
    "094430.921000",
    "094432.921000",
    "094434.922000",
    "094436.922000",
    "094438.922000",
    "094440.921000",
    "094442.420000",
    "094444.921000",
    "094446.921000",
    "094448.921000",
    "094450.922000",
    "094452.922000",
    "094454.922000",
    "094456.933000",
    "094458.921000",
    "094500.921000",
    "094502.920000",
    "094504.921000",
    "094506.921000",
    "094508.921000",
    "094510.921000",
    "094512.922000",
    "094514.922000",
    "094516.922000",
    "094518.921000",
    "094520.920000",
    "094522.922000",
    "094524.921000",
    "094526.921000",
    "094528.922000",
    "094530.922000",
    "094532.921000",
    "094534.921000",
    "094536.921000",
    "094538.921000",
    "094540.922000",
    "094542.921000",
    "094544.421000",
    "094546.921000",
    "094548.921000",
    "094550.922000",
    "094552.921000",
    "094554.921000",
    "094556.921000",
    "094558.922000",
    "094600.921000",
    "094602.922000",
    "094604.921000",
    "094606.922000",
    "094608.922000",
    "094610.921000",
    "094612.921000",
    "094614.920000",
    "094616.922000",
    "094618.921000",
    "094620.921000",
    "094622.922000",
    "094624.922000",
    "094626.923000",
    "094628.399000"
   ],
   "InstanceNumber": [
    1,
    2,
    3,
    4,
    5,
    6,
    7,
    8,
    9,
    10,
    11,
    12,
    13,
    14,
    15,
    16,
    17,
    18,
    19,
    20,
    21,
    22,
    23,
    24,
    25,
    26,
    27,
    28,
    29,
    30,
    31,
    32,
    33,
    34,
    35,
    36,
    37,
    38,
    39,
    40,
    41,
    42,
    43,
    44,
    45,
    46,
    47,
    48,
    49,
    50,
    51,
    52,
    53,
    54,
    55,
    56,
    57,
    58,
    59,
    60,
    61,
    62,
    63,
    64,
    65,
    66,
    67,
    68,
    69,
    70,
    71,
    72,
    73,
    74,
    75,
    76,
    77,
    78,
    79,
    80,
    81,
    82,
    83,
    84,
    85,
    86,
    87,
    88,
    89,
    90,
    91,
    92,
    93,
    94,
    95,
    96,
    97,
    98,
    99,
    100,
    101,
    102,
    103,
    104,
    105,
    106,
    107,
    108,
    109,
    110,
    111,
    112,
    113,
    114,
    115,
    116,
    117,
    118,
    119,
    120,
    121,
    122,
    123,
    124,
    125,
    126,
    127,
    128,
    129,
    130,
    131,
    132,
    133,
    134,
    135,
    136,
    137,
    138,
    139,
    140,
    141,
    142,
    143,
    144,
    145,
    146,
    147,
    148,
    149,
    150,
    151,
    152,
    153,
    154,
    155,
    156,
    157,
    158,
    159,
    160,
    161,
    162,
    163,
    164,
    165,
    166,
    167,
    168,
    169,
    170,
    171,
    172,
    173,
    174,
    175,
    176,
    177,
    178,
    179,
    180,
    181,
    182,
    183,
    184,
    185,
    186,
    187,
    188,
    189,
    190,
    191,
    192,
    193,
    194,
    195,
    196,
    197,
    198,
    199,
    200,
    201,
    202,
    203,
    204,
    205,
    206,
    207,
    208,
    209,
    210,
    211,
    212,
    213,
    214,
    215,
    216,
    217,
    218,
    219,
    220,
    221,
    222,
    223,
    224,
    225,
    226,
    227,
    228,
    229,
    230,
    231,
    232,
    233,
    234,
    235,
    236,
    237,
    238,
    239,
    240,
    241,
    242,
    243,
    244,
    245,
    246,
    247,
    248,
    249,
    250,
    251,
    252,
    253,
    254,
    255,
    256
   ],
   "LargestImagePixelValue": [
    2951,
    2910,
    2927,
    2941,
    2924,
    2918,
    2898,
    2907,
    2965,
    2905,
    2928,
    2937,
    2903,
    2923,
    2924,
    2876,
    2887,
    2902,
    2907,
    2890,
    2904,
    2955,
    2926,
    2937,
    2936,
    2907,
    2933,
    2948,
    2898,
    2912,
    2914,
    2918,
    2939,
    2902,
    2911,
    2935,
    2925,
    2913,
    2942,
    2947,
    2924,
    2934,
    2964,
    2944,
    2922,
    2913,
    2927,
    2902,
    2922,
    2940,
    2900,
    2941,
    2923,
    2901,
    2886,
    2918,
    2907,
    2947,
    2911,
    2905,
    2897,
    2910,
    2917,
    2923,
    2956,
    2953,
    2876,
    2915,
    2936,
    2941,
    2919,
    2922,
    2928,
    2928,
    2918,
    2927,
    2928,
    2899,
    2877,
    2938,
    2896,
    2907,
    2934,
    2909,
    2913,
    2915,
    2931,
    2896,
    2897,
    2913,
    2922,
    2880,
    2902,
    2897,
    2902,
    2913,
    2908,
    2959,
    2906,
    2872,
    2898,
    2932,
    2909,
    2935,
    2927,
    2912,
    2905,
    2924,
    2914,
    2883,
    2906,
    2925,
    2909,
    2914,
    2883,
    2923,
    2949,
    2905,
    2894,
    2934,
    2909,
    2893,
    2923,
    2887,
    2948,
    2897,
    2917,
    2886,
    2927,
    2919,
    2931,
    2867,
    2913,
    2904,
    2931,
    2910,
    2911,
    2916,
    2885,
    2909,
    2920,
    2913,
    2907,
    2870,
    2928,
    2886,
    2924,
    2920,
    2939,
    2942,
    2918,
    2938,
    2937,
    2963,
    2943,
    2935,
    2942,
    2918,
    2904,
    2931,
    2918,
    2885,
    2919,
    2929,
    2902,
    2935,
    2930,
    2957,
    2934,
    2891,
    2889,
    2896,
    2928,
    2903,
    2918,
    2938,
    2927,
    2924,
    2933,
    2909,
    2936,
    2938,
    2939,
    2952,
    2943,
    2948,
    2938,
    2920,
    2908,
    2899,
    2931,
    2933,
    2899,
    2909,
    2892,
    2932,
    2903,
    2942,
    2917,
    2938,
    2895,
    2945,
    2913,
    2912,
    2913,
    2944,
    2902,
    2936,
    2941,
    2897,
    2936,
    2931,
    2913,
    2911,
    2921,
    2899,
    2912,
    2920,
    2916,
    2908,
    2915,
    2917,
    2931,
    2938,
    2930,
    2936,
    2899,
    2938,
    2916,
    2922,
    2922,
    2935,
    2958,
    2902,
    2919,
    2928,
    2905,
    2908,
    2926,
    2947,
    2940,
    2909,
    2945,
    2937,
    2938,
    2917,
    2920,
    2938,
    2893,
    2946,
    2963,
    2935,
    2909,
    2933,
    2943,
    2955
   ],
   "WindowCenter": [
    766.0,
    764.0,
    764.0,
    764.0,
    764.0,
    765.0,
    764.0,
    764.0,
    764.0,
    763.0,
    764.0,
    763.0,
    763.0,
    763.0,
    764.0,
    764.0,
    763.0,
    763.0,
    762.0,
    762.0,
    761.0,
    762.0,
    763.0,
    764.0,
    764.0,
    763.0,
    764.0,
    763.0,
    762.0,
    761.0,
    761.0,
    762.0,
    763.0,
    763.0,
    763.0,
    763.0,
    763.0,
    763.0,
    765.0,
    765.0,
    765.0,
    764.0,
    764.0,
    764.0,
    764.0,
    763.0,
    763.0,
    763.0,
    764.0,
    763.0,
    762.0,
    762.0,
    762.0,
    762.0,
    762.0,
    763.0,
    762.0,
    762.0,
    761.0,
    760.0,
    761.0,
    762.0,
    763.0,
    763.0,
    764.0,
    764.0,
    763.0,
    763.0,
    763.0,
    763.0,
    763.0,
    763.0,
    763.0,
    762.0,
    762.0,
    762.0,
    763.0,
    762.0,
    762.0,
    762.0,
    761.0,
    761.0,
    762.0,
    763.0,
    764.0,
    764.0,
    763.0,
    762.0,
    761.0,
    762.0,
    763.0,
    763.0,
    763.0,
    762.0,
    762.0,
    762.0,
    762.0,
    764.0,
    765.0,
    764.0,
    762.0,
    762.0,
    762.0,
    763.0,
    763.0,
    762.0,
    761.0,
    761.0,
    761.0,
    761.0,
    762.0,
    764.0,
    764.0,
    763.0,
    762.0,
    762.0,
    762.0,
    761.0,
    762.0,
    763.0,
    764.0,
    764.0,
    765.0,
    763.0,
    763.0,
    762.0,
