{
  "AcquisitionMatrixPE": 100,
  "AcquisitionNumber": 1,
  "AcquisitionTime": "10:13:0.152500",
  "BandwidthPerPixelPhaseEncode": 18.519,
  "BaseResolution": 100,
  "BodyPartExamined": "BRAIN",
  "ConsistencyInfo": "N4_VE11C_LATEST_20160120",
  "ConversionSoftware": "dcm2niix",
  "ConversionSoftwareVersion": "v1.0.20180622 GCC4.9.2",
  "DerivedVendorReportedEchoSpacing": 0.000539986,
  "DeviceSerialNumber": "166078",
  "DwellTime": 2.1e-06,
  "EchoTime": 0.034,
  "EchoTrainLength": 100,
  "EffectiveEchoSpacing": 0.000539986,
  "FlipAngle": 90,
  "ImageOrientationPatientDICOM": [1, 0, 0, 0, 0.999962, -0.00872654],
  "ImageType": [
    "ORIGINAL",
    "PRIMARY",
    "M",
    "ND",
    "MOSAIC"
],
  "InPlanePhaseEncodingDirectionDICOM": "COL",
  "InstitutionAddress": "Street_StreetNo_Bei_Jing_District_CN_ZIP",
  "InstitutionName": "BeiJing_Normal_University",
  "InstitutionalDepartmentName": "Department",
  "MRAcquisitionType": "2D",
  "MagneticFieldStrength": 3,
  "Manufacturer": "Siemens",
  "ManufacturersModelName": "Prisma",
  "Modality": "MR",
  "MultibandAccelerationFactor": 3,
  "PartialFourier": 1,
  "PatientPosition": "HFS",
  "PercentPhaseFOV": 100,
  "PhaseEncodingDirection": "j-",
  "PhaseEncodingSteps": 100,
  "PhaseResolution": 1,
  "PixelBandwidth": 2380,
  "ProcedureStepDescription": "BNU_P2018_64CH_Zhen.ZongLei",
  "ProtocolName": "bold_100x100_s3_2x2x2_static_256",
  "PulseSequenceDetails": "%SiemensSeq%_ep2d_bold",
  "ReceiveCoilActiveElements": "HC1-7;NC1",
  "ReceiveCoilName": "HeadNeck_64",
  "ReconMatrixPE": 100,
  "RepetitionTime": 2,
  "SAR": 0.0616759,
  "ScanOptions": "FS",
  "ScanningSequence": "EP",
  "SequenceName": "_epfid2d1_100",
  "SequenceVariant": "SK",
  "SeriesDescription": "bold_100x100_s3_2x2x2_static_256",
  "SeriesNumber": 11,
  "ShimSetting": [-5448, -11460, -1288, 444, -55, -313, -216, 133],
  "SliceThickness": 2,
  "SliceTiming": [1.485, 0, 0.99, 0.0825, 1.0725, 0.165, 1.155, 0.2475, 1.2375, 0.33, 1.32, 0.4125, 1.4025, 0.5775, 1.5675, 0.66, 1.65, 0.7425, 1.7325, 0.825, 1.815, 0.9075, 1.8975, 0.495, 1.485, 0, 0.99, 0.0825, 1.0725, 0.165, 1.155, 0.2475, 1.2375, 0.33, 1.32, 0.4125, 1.4025, 0.5775, 1.5675, 0.66, 1.65, 0.7425, 1.7325, 0.825, 1.815, 0.9075, 1.8975, 0.495, 1.485, 0, 0.99, 0.0825, 1.0725, 0.165, 1.155, 0.2475, 1.2375, 0.33, 1.32, 0.4125, 1.4025, 0.5775, 1.5675, 0.66, 1.65, 0.7425, 1.7325, 0.825, 1.815, 0.9075, 1.8975, 0.495],
  "SoftwareVersions": "syngo_MR_E11",
  "SpacingBetweenSlices": 2,
  "StationName": "AWP166078",
  "TaskName": "naturalvision",
  "TotalReadoutTime": 0.0534586,
  "TxRefAmp": 212.039,
  "dcmmeta_affine": [
    [-2.0, 0.0, 0.0, 100.0],
    [0.0, 1.999923825263977, -0.017453070729970932, -87.86094665527344],
    [0.0, 0.017453070729970932, 1.999923825263977, -79.48445892333984],
    [0.0, 0.0, 0.0, 1.0]
],
  "dcmmeta_reorient_transform": [
    [0.0, -1.0, 0.0, 99.0],
    [1.0, 0.0, 0.0, 0.0],
    [0.0, 0.0, 1.0, 0.0],
    [0.0, 0.0, 0.0, 1.0]
],
  "dcmmeta_shape": [100, 100, 72, 256],
  "dcmmeta_slice_dim": 2,
  "dcmmeta_version": 0.6,
  "global": {
    "const": {
      "AcquisitionMatrix": [100, 0, 0, 100],
      "AngioFlag": "N",
      "BitsAllocated": 16,
      "BitsStored": 12,
      "BodyPartExamined": "BRAIN",
      "Columns": 900,
      "EchoNumbers": 1,
      "EchoTime": 34.0,
      "EchoTrainLength": 100,
      "FlipAngle": 90.0,
      "HighBit": 11,
      "ImageOrientationPatient": [1.0, 0.0, 0.0, 0.0, 0.99996192306517, -0.0087265353836],
      "ImagePositionPatient": [-900.0, -910.10105332945, -70.775375356877],
      "ImageType": [
        "ORIGINAL",
        "PRIMARY",
        "M",
        "ND",
        "MOSAIC"
],
      "ImagedNucleus": "1H",
      "ImagingFrequency": 123.257743,
      "InPlanePhaseEncodingDirection": "COL",
      "MRAcquisitionType": "2D",
      "MagneticFieldStrength": 3.0,
      "Manufacturer": "SIEMENS",
      "ManufacturerModelName": "Prisma",
      "Modality": "MR",
      "NumberOfAverages": 1.0,
      "NumberOfPhaseEncodingSteps": 100,
      "PercentPhaseFieldOfView": 100.0,
      "PercentSampling": 100.0,
      "PerformedProcedureStepStartTime": "090101.576000",
      "PhotometricInterpretation": "MONOCHROME2",
      "PixelBandwidth": 2380.0,
      "PixelRepresentation": 0,
      "PixelSpacing": [2.0, 2.0],
      "ProtocolName": "bold_100x100_s3_2x2x2_static_256",
      "RepetitionTime": 2000.0,
      "Rows": 900,
      "SAR": 0.06167587837942,
      "SamplesPerPixel": 1,
      "ScanOptions": "FS",
      "ScanningSequence": "EP",
      "SequenceName": "*epfid2d1_100",
      "SequenceVariant": "SK",
      "SeriesDescription": "bold_100x100_s3_2x2x2_static_256",
      "SeriesNumber": 11,
      "SeriesTime": "101302.626000",
      "SliceLocation": -78.714709492085,
      "SliceThickness": 2.0,
      "SmallestImagePixelValue": 0,
      "SoftwareVersions": "syngo MR E11",
      "SpacingBetweenSlices": 1.9999999673994,
      "SpecificCharacterSet": "ISO_IR 100",
      "StudyID": "1",
      "StudyTime": "090101.320000",
      "TransmitCoilName": "Body",
      "VariableFlipAngleFlag": "N",
      "WindowCenterWidthExplanation": "Algo1",
      "dBdt": 0.0},
    "slices": {}
  },
  "time": {
    "samples": {
      "AcquisitionNumber": [1, 2, 3, 4, 5, 6, 7, 8, 9, 10, 11, 12, 13, 14, 15, 16, 17, 18, 19, 20, 21, 22, 23, 24, 25, 26, 27, 28, 29, 30, 31, 32, 33, 34, 35, 36, 37, 38, 39, 40, 41, 42, 43, 44, 45, 46, 47, 48, 49, 50, 51, 52, 53, 54, 55, 56, 57, 58, 59, 60, 61, 62, 63, 64, 65, 66, 67, 68, 69, 70, 71, 72, 73, 74, 75, 76, 77, 78, 79, 80, 81, 82, 83, 84, 85, 86, 87, 88, 89, 90, 91, 92, 93, 94, 95, 96, 97, 98, 99, 100, 101, 102, 103, 104, 105, 106, 107, 108, 109, 110, 111, 112, 113, 114, 115, 116, 117, 118, 119, 120, 121, 122, 123, 124, 125, 126, 127, 128, 129, 130, 131, 132, 133, 134, 135, 136, 137, 138, 139, 140, 141, 142, 143, 144, 145, 146, 147, 148, 149, 150, 151, 152, 153, 154, 155, 156, 157, 158, 159, 160, 161, 162, 163, 164, 165, 166, 167, 168, 169, 170, 171, 172, 173, 174, 175, 176, 177, 178, 179, 180, 181, 182, 183, 184, 185, 186, 187, 188, 189, 190, 191, 192, 193, 194, 195, 196, 197, 198, 199, 200, 201, 202, 203, 204, 205, 206, 207, 208, 209, 210, 211, 212, 213, 214, 215, 216, 217, 218, 219, 220, 221, 222, 223, 224, 225, 226, 227, 228, 229, 230, 231, 232, 233, 234, 235, 236, 237, 238, 239, 240, 241, 242, 243, 244, 245, 246, 247, 248, 249, 250, 251, 252, 253, 254, 255, 256],
      "AcquisitionTime": ["101300.152500", "101302.152500", "101304.152500", "101306.152500", "101308.152500", "101310.152500", "101312.152500", "101314.152500", "101316.152500", "101318.152500", "101320.152500", "101322.152500", "101324.152500", "101326.152500", "101328.152500", "101330.152500", "101332.152500", "101334.152500", "101336.152500", "101338.152500", "101340.152500", "101342.152500", "101344.152500", "101346.152500", "101348.152500", "101350.152500", "101352.152500", "101354.152500", "101356.152500", "101358.152500", "101400.152500", "101402.152500", "101404.152500", "101406.152500", "101408.152500", "101410.152500", "101412.152500", "101414.152500", "101416.152500", "101418.152500", "101420.152500", "101422.152500", "101424.152500", "101426.152500", "101428.152500", "101430.152500", "101432.152500", "101434.152500", "101436.152500", "101438.152500", "101440.152500", "101442.152500", "101444.152500", "101446.152500", "101448.152500", "101450.152500", "101452.152500", "101454.152500", "101456.152500", "101458.152500", "101500.152500", "101502.152500", "101504.152500", "101506.152500", "101508.152500", "101510.152500", "101512.152500", "101514.152500", "101516.152500", "101518.152500", "101520.152500", "101522.152500", "101524.152500", "101526.152500", "101528.152500", "101530.152500", "101532.152500", "101534.152500", "101536.152500", "101538.152500", "101540.152500", "101542.152500", "101544.152500", "101546.152500", "101548.152500", "101550.152500", "101552.152500", "101554.152500", "101556.152500", "101558.152500", "101600.152500", "101602.152500", "101604.152500", "101606.152500", "101608.152500", "101610.152500", "101612.152500", "101614.152500", "101616.152500", "101618.152500", "101620.152500", "101622.152500", "101624.152500", "101626.152500", "101628.152500", "101630.152500", "101632.152500", "101634.152500", "101636.152500", "101638.152500", "101640.152500", "101642.152500", "101644.152500", "101646.152500", "101648.152500", "101650.152500", "101652.152500", "101654.152500", "101656.152500", "101658.152500", "101700.152500", "101702.152500", "101704.152500", "101706.152500", "101708.152500", "101710.152500", "101712.152500", "101714.152500", "101716.152500", "101718.152500", "101720.152500", "101722.152500", "101724.152500", "101726.152500", "101728.152500", "101730.152500", "101732.152500", "101734.152500", "101736.152500", "101738.152500", "101740.152500", "101742.152500", "101744.152500", "101746.152500", "101748.152500", "101750.152500", "101752.152500", "101754.152500", "101756.152500", "101758.152500", "101800.152500", "101802.152500", "101804.152500", "101806.152500", "101808.152500", "101810.152500", "101812.152500", "101814.152500", "101816.152500", "101818.152500", "101820.152500", "101822.152500", "101824.152500", "101826.152500", "101828.152500", "101830.152500", "101832.152500", "101834.152500", "101836.152500", "101838.152500", "101840.152500", "101842.152500", "101844.152500", "101846.152500", "101848.152500", "101850.152500", "101852.152500", "101854.152500", "101856.152500", "101858.152500", "101900.152500", "101902.152500", "101904.152500", "101906.152500", "101908.152500", "101910.152500", "101912.152500", "101914.152500", "101916.152500", "101918.152500", "101920.152500", "101922.152500", "101924.152500", "101926.152500", "101928.152500", "101930.152500", "101932.152500", "101934.152500", "101936.152500", "101938.152500", "101940.152500", "101942.152500", "101944.152500", "101946.152500", "101948.152500", "101950.152500", "101952.152500", "101954.152500", "101956.152500", "101958.152500", "102000.152500", "102002.152500", "102004.152500", "102006.152500", "102008.152500", "102010.152500", "102012.152500", "102014.152500", "102016.152500", "102018.152500", "102020.152500", "102022.152500", "102024.152500", "102026.152500", "102028.152500", "102030.152500", "102032.152500", "102034.152500", "102036.152500", "102038.152500", "102040.152500", "102042.152500", "102044.152500", "102046.152500", "102048.152500", "102050.152500", "102052.152500", "102054.152500", "102056.152500", "102058.152500", "102100.152500", "102102.152500", "102104.152500", "102106.152500", "102108.152500", "102110.152500", "102112.152500", "102114.152500", "102116.152500", "102118.152500", "102120.152500", "102122.152500", "102124.152500", "102126.152500", "102128.152500", "102130.152500"],
      "ContentTime": ["101302.630000", "101304.126000", "101306.126000", "101308.126000", "101310.126000", "101312.126000", "101314.126000", "101316.126000", "101318.126000", "101320.125000", "101322.127000", "101324.126000", "101326.127000", "101328.127000", "101330.126000", "101332.127000", "101334.125000", "101336.126000", "101338.125000", "101340.126000", "101342.127000", "101344.127000", "101346.126000", "101348.127000", "101350.126000", "101352.125000", "101354.126000", "101356.125000", "101358.127000", "101400.127000", "101402.126000", "101404.127000", "101406.127000", "101408.126000", "101410.125000", "101412.125000", "101414.126000", "101416.126000", "101418.126000", "101420.127000", "101422.127000", "101424.127000", "101426.126000", "101428.125000", "101430.126000", "101432.126000", "101434.126000", "101436.127000", "101438.126000", "101440.126000", "101442.126000", "101444.125000", "101446.125000", "101448.125000", "101450.127000", "101452.127000", "101454.126000", "101456.127000", "101458.126000", "101500.127000", "101502.126000", "101504.125000", "101506.125000", "101508.126000", "101510.127000", "101512.126000", "101514.126000", "101516.127000", "101518.127000", "101520.126000", "101522.125000", "101524.127000", "101526.126000", "101528.127000", "101530.126000", "101532.126000", "101534.126000", "101536.126000", "101538.125000", "101540.126000", "101542.127000", "101544.127000", "101546.126000", "101548.127000", "101550.127000", "101552.126000", "101554.126000", "101556.126000", "101558.125000", "101600.127000", "101602.127000", "101604.126000", "101606.127000", "101608.126000", "101610.126000", "101612.126000", "101614.126000", "101616.127000", "101618.126000", "101620.126000", "101622.127000", "101624.126000", "101626.126000", "101628.127000", "101630.126000", "101632.125000", "101634.127000", "101636.127000", "101638.126000", "101640.126000", "101642.126000", "101644.126000", "101646.125000", "101648.126000", "101650.126000", "101652.127000", "101654.126000", "101656.127000", "101658.126000", "101700.127000", "101702.127000", "101704.126000", "101706.125000", "101708.125000", "101710.126000", "101712.127000", "101714.127000", "101716.127000", "101718.127000", "101720.126000", "101722.126000", "101724.126000", "101726.126000", "101728.127000", "101730.127000", "101732.126000", "101734.127000", "101736.127000", "101738.127000", "101740.126000", "101742.125000", "101744.126000", "101746.127000", "101748.127000", "101750.127000", "101752.127000", "101754.127000", "101756.126000", "101758.125000", "101800.126000", "101802.127000", "101804.126000", "101806.126000", "101808.127000", "101810.137000", "101812.127000", "101814.125000", "101816.125000", "101818.126000", "101820.127000", "101822.127000", "101824.126000", "101826.126000", "101828.127000", "101830.126000", "101832.125000", "101834.126000", "101836.127000", "101838.127000", "101840.126000", "101842.127000", "101844.126000", "101846.127000", "101848.126000", "101850.126000", "101852.125000", "101854.126000", "101856.126000", "101858.126000", "101900.126000", "101902.127000", "101904.127000", "101906.126000", "101908.125000", "101910.125000", "101912.127000", "101914.126000", "101916.126000", "101918.127000", "101920.126000", "101922.126000", "101924.125000", "101926.126000", "101928.125000", "101930.126000", "101932.127000", "101934.127000", "101936.127000", "101938.127000", "101940.126000", "101942.125000", "101944.125000", "101946.126000", "101948.127000", "101950.127000", "101952.126000", "101954.126000", "101956.126000", "101958.127000", "102000.125000", "102002.126000", "102004.126000", "102006.127000", "102008.127000", "102010.127000", "102012.127000", "102014.126000", "102016.126000", "102018.126000", "102020.126000", "102022.127000", "102024.127000", "102026.127000", "102028.127000", "102030.126000", "102032.128000", "102034.126000", "102036.126000", "102038.126000", "102040.127000", "102042.127000", "102044.127000", "102046.127000", "102048.127000", "102050.127000", "102052.126000", "102054.126000", "102056.127000", "102058.127000", "102100.127000", "102102.127000", "102104.126000", "102106.127000", "102108.126000", "102110.126000", "102112.125000", "102114.127000", "102116.126000", "102118.127000", "102120.127000", "102122.126000", "102124.127000", "102126.125000", "102128.126000", "102130.125000", "102131.827000"],
      "InstanceCreationTime": ["101302.630000", "101304.126000", "101306.126000", "101308.126000", "101310.126000", "101312.126000", "101314.126000", "101316.126000", "101318.126000", "101320.125000", "101322.127000", "101324.126000", "101326.127000", "101328.127000", "101330.126000", "101332.127000", "101334.125000", "101336.126000", "101338.125000", "101340.126000", "101342.127000", "101344.127000", "101346.126000", "101348.127000", "101350.126000", "101352.125000", "101354.126000", "101356.125000", "101358.127000", "101400.127000", "101402.126000", "101404.127000", "101406.127000", "101408.126000", "101410.125000", "101412.125000", "101414.126000", "101416.126000", "101418.126000", "101420.127000", "101422.127000", "101424.127000", "101426.126000", "101428.125000", "101430.126000", "101432.126000", "101434.126000", "101436.127000", "101438.126000", "101440.126000", "101442.126000", "101444.125000", "101446.125000", "101448.125000", "101450.127000", "101452.127000", "101454.126000", "101456.127000", "101458.126000", "101500.127000", "101502.126000", "101504.125000", "101506.125000", "101508.126000", "101510.127000", "101512.126000", "101514.126000", "101516.127000", "101518.127000", "101520.126000", "101522.125000", "101524.127000", "101526.126000", "101528.127000", "101530.126000", "101532.126000", "101534.126000", "101536.126000", "101538.125000", "101540.126000", "101542.127000", "101544.127000", "101546.126000", "101548.127000", "101550.127000", "101552.126000", "101554.126000", "101556.126000", "101558.125000", "101600.127000", "101602.127000", "101604.126000", "101606.127000", "101608.126000", "101610.126000", "101612.126000", "101614.126000", "101616.127000", "101618.126000", "101620.126000", "101622.127000", "101624.126000", "101626.126000", "101628.127000", "101630.126000", "101632.125000", "101634.127000", "101636.127000", "101638.126000", "101640.126000", "101642.126000", "101644.126000", "101646.125000", "101648.126000", "101650.126000", "101652.127000", "101654.126000", "101656.127000", "101658.126000", "101700.127000", "101702.127000", "101704.126000", "101706.125000", "101708.125000", "101710.126000", "101712.127000", "101714.127000", "101716.127000", "101718.127000", "101720.126000", "101722.126000", "101724.126000", "101726.126000", "101728.127000", "101730.127000", "101732.126000", "101734.127000", "101736.127000", "101738.127000", "101740.126000", "101742.125000", "101744.126000", "101746.127000", "101748.127000", "101750.127000", "101752.127000", "101754.127000", "101756.126000", "101758.125000", "101800.126000", "101802.127000", "101804.126000", "101806.126000", "101808.127000", "101810.137000", "101812.127000", "101814.125000", "101816.125000", "101818.126000", "101820.127000", "101822.127000", "101824.126000", "101826.126000", "101828.127000", "101830.126000", "101832.125000", "101834.126000", "101836.127000", "101838.127000", "101840.126000", "101842.127000", "101844.126000", "101846.127000", "101848.126000", "101850.126000", "101852.125000", "101854.126000", "101856.126000", "101858.126000", "101900.126000", "101902.127000", "101904.127000", "101906.126000", "101908.125000", "101910.125000", "101912.127000", "101914.126000", "101916.126000", "101918.127000", "101920.126000", "101922.126000", "101924.125000", "101926.126000", "101928.125000", "101930.126000", "101932.127000", "101934.127000", "101936.127000", "101938.127000", "101940.126000", "101942.125000", "101944.125000", "101946.126000", "101948.127000", "101950.127000", "101952.126000", "101954.126000", "101956.126000", "101958.127000", "102000.125000", "102002.126000", "102004.126000", "102006.127000", "102008.127000", "102010.127000", "102012.127000", "102014.126000", "102016.126000", "102018.126000", "102020.126000", "102022.127000", "102024.127000", "102026.127000", "102028.127000", "102030.126000", "102032.128000", "102034.126000", "102036.126000", "102038.126000", "102040.127000", "102042.127000", "102044.127000", "102046.127000", "102048.127000", "102050.127000", "102052.126000", "102054.126000", "102056.127000", "102058.127000", "102100.127000", "102102.127000", "102104.126000", "102106.127000", "102108.126000", "102110.126000", "102112.125000", "102114.127000", "102116.126000", "102118.127000", "102120.127000", "102122.126000", "102124.127000", "102126.125000", "102128.126000", "102130.125000", "102131.827000"],
      "InstanceNumber": [1, 2, 3, 4, 5, 6, 7, 8, 9, 10, 11, 12, 13, 14, 15, 16, 17, 18, 19, 20, 21, 22, 23, 24, 25, 26, 27, 28, 29, 30, 31, 32, 33, 34, 35, 36, 37, 38, 39, 40, 41, 42, 43, 44, 45, 46, 47, 48, 49, 50, 51, 52, 53, 54, 55, 56, 57, 58, 59, 60, 61, 62, 63, 64, 65, 66, 67, 68, 69, 70, 71, 72, 73, 74, 75, 76, 77, 78, 79, 80, 81, 82, 83, 84, 85, 86, 87, 88, 89, 90, 91, 92, 93, 94, 95, 96, 97, 98, 99, 100, 101, 102, 103, 104, 105, 106, 107, 108, 109, 110, 111, 112, 113, 114, 115, 116, 117, 118, 119, 120, 121, 122, 123, 124, 125, 126, 127, 128, 129, 130, 131, 132, 133, 134, 135, 136, 137, 138, 139, 140, 141, 142, 143, 144, 145, 146, 147, 148, 149, 150, 151, 152, 153, 154, 155, 156, 157, 158, 159, 160, 161, 162, 163, 164, 165, 166, 167, 168, 169, 170, 171, 172, 173, 174, 175, 176, 177, 178, 179, 180, 181, 182, 183, 184, 185, 186, 187, 188, 189, 190, 191, 192, 193, 194, 195, 196, 197, 198, 199, 200, 201, 202, 203, 204, 205, 206, 207, 208, 209, 210, 211, 212, 213, 214, 215, 216, 217, 218, 219, 220, 221, 222, 223, 224, 225, 226, 227, 228, 229, 230, 231, 232, 233, 234, 235, 236, 237, 238, 239, 240, 241, 242, 243, 244, 245, 246, 247, 248, 249, 250, 251, 252, 253, 254, 255, 256],
      "LargestImagePixelValue": [3011, 3020, 2980, 2966, 3008, 2970, 3013, 2977, 2969, 3010, 2999, 2997, 3020, 3029, 2996, 3005, 3002, 2980, 2983, 3012, 2987, 2991, 2992, 3000, 3000, 2988, 2982, 2990, 3004, 3016, 3014, 2990, 2987, 2978, 2982, 2988, 3004, 2984, 2990, 2986, 2996, 2992, 2993, 2994, 2977, 2986, 3002, 3006, 2973, 2971, 2985, 2981, 2970, 2974, 2973, 3000, 3010, 2981, 2999, 2981, 2988, 2983, 2989, 3001, 2997, 2967, 3030, 2987, 2981, 2979, 2986, 3002, 3013, 3019, 2994, 2978, 3004, 2995, 2971, 2980, 2991, 2966, 2969, 2974, 2974, 2987, 2986, 2953, 2969, 2983, 2991, 2977, 2986, 2983, 2957, 2989, 2995, 2998, 3020, 2984, 2983, 2977, 2968, 2981, 2984, 2977, 2987, 2964, 2986, 2986, 2964, 2993, 2940, 2960, 2934, 2968, 2937, 2941, 2999, 2964, 2972, 2969, 2981, 2966, 2946, 2996, 2980, 2958, 2948, 2952, 2953, 2975, 2960, 2962, 2958, 2956, 2948, 2969, 2962, 2939, 2983, 2976, 2948, 2972, 2993, 2945, 2991, 2959, 2977, 2983, 2953, 2975, 2968, 2964, 2971, 2966, 2984, 2952, 3001, 2943, 2939, 2983, 2958, 2966, 2950, 2959, 2952, 2967, 2969, 2950, 2952, 2952, 2967, 2956, 2926, 2960, 2921, 2945, 2950, 2944, 2905, 2947, 2958, 2905, 3003, 2954, 2941, 2979, 2980, 2969, 2956, 2963, 2975, 2953, 2944, 2931, 2969, 2947, 2917, 2929, 2963, 2921, 2915, 2931, 2958, 2962, 2911, 2941, 2906, 2929, 2932, 2936, 2929, 2968, 2947, 2952, 2935, 2956, 2970, 2972, 2964, 2942, 2929, 2919, 2953, 2945, 2961, 2928, 2938, 2959, 2937, 2938, 2903, 2910, 2936, 2924, 2943, 2912, 2940, 2932, 2900, 2913, 2947, 2915, 2940, 2911, 2904, 2942, 2942, 2918, 2927, 2922, 2912, 2940, 2947, 2914],
      "WindowCenter": [764.0, 763.0, 763.0, 764.0, 763.0, 762.0, 763.0, 762.0, 762.0, 762.0, 762.0, 762.0, 763.0, 764.0, 764.0, 763.0, 763.0, 763.0, 763.0, 763.0, 761.0, 761.0, 761.0, 761.0, 761.0, 761.0, 762.0, 763.0, 763.0, 762.0, 762.0, 761.0, 761.0, 761.0, 762.0, 762.0, 763.0, 763.0, 763.0, 762.0, 761.0, 761.0, 761.0, 761.0, 761.0, 762.0, 762.0, 762.0, 761.0, 762.0, 761.0, 760.0, 761.0, 761.0, 761.0, 761.0, 761.0, 761.0, 760.0, 760.0, 761.0, 762.0, 762.0, 762.0, 762.0, 761.0, 762.0, 761.0, 761.0, 761.0, 761.0, 762.0, 762.0, 762.0, 761.0, 761.0, 762.0, 762.0, 762.0, 762.0, 761.0, 760.0, 760.0, 760.0, 760.0, 761.0, 762.0, 761.0, 761.0, 761.0, 761.0, 760.0, 760.0, 760.0, 761.0, 761.0, 762.0, 762.0, 762.0, 761.0, 762.0, 762.0, 761.0, 761.0, 761.0, 761.0, 761.0, 762.0, 761.0, 761.0, 761.0, 764.0, 763.0, 761.0, 759.0, 759.0, 759.0, 759.0, 760.0, 760.0, 762.0, 762.0, 763.0, 763.0, 761.0, 761.0, 761.0, 761.0, 761.0, 760.0, 760.0, 760.0, 759.0, 759.0, 759.0, 760.0, 761.0, 762.0, 762.0, 761.0, 760.0, 760.0, 759.0, 760.0, 761.0, 761.0, 762.0, 762.0, 762.0, 762.0, 761.0, 760.0, 760.0, 760.0, 760.0, 760.0, 761.0, 761.0, 762.0, 760.0, 761.0, 762.0, 762.0, 760.0, 758.0, 757.0, 758.0, 759.0, 760.0, 761.0, 761.0, 761.0, 760.0, 760.0, 759.0, 759.0, 758.0, 758.0, 759.0, 760.0, 760.0, 760.0, 761.0, 760.0, 762.0, 762.0, 762.0, 762.0, 761.0, 760.0, 760.0, 762.0, 762.0, 762.0, 760.0, 760.0, 760.0, 761.0, 761.0, 760.0, 760.0, 759.0, 759.0, 760.0, 760.0, 760.0, 760.0, 760.0, 759.0, 759.0, 760.0, 759.0, 759.0, 760.0, 761.0, 762.0, 762.0, 761.0, 761.0, 760.0, 761.0, 761.0, 761.0, 761.0, 761.0, 761.0, 762.0, 761.0, 761.0, 760.0, 761.0, 760.0, 759.0, 759.0, 759.0, 759.0, 759.0, 759.0, 759.0, 760.0, 760.0, 761.0, 761.0, 760.0, 760.0, 760.0, 760.0, 760.0, 760.0, 760.0, 760.0, 760.0, 759.0, 759.0, 759.0, 760.0],
      "WindowWidth": [1648.0, 1646.0, 1647.0, 1648.0, 1646.0, 1645.0, 1646.0, 1645.0, 1643.0, 1643.0, 1643.0, 1645.0, 1647.0, 1649.0, 1649.0, 1647.0, 1646.0, 1646.0, 1647.0, 1646.0, 1641.0, 1641.0, 1641.0, 1642.0, 1642.0, 1642.0, 1645.0, 1647.0, 1646.0, 1644.0, 1643.0, 1641.0, 1640.0, 1642.0, 1644.0, 1645.0, 1646.0, 1647.0, 1647.0, 1643.0, 1642.0, 1642.0, 1642.0, 1642.0, 1643.0, 1643.0, 1643.0, 1643.0, 1643.0, 1643.0, 1641.0, 1640.0, 1640.0, 1640.0, 1641.0, 1641.0, 1641.0, 1640.0, 1640.0, 1639.0, 1642.0, 1644.0, 1644.0, 1644.0, 1643.0, 1640.0, 1643.0, 1641.0, 1640.0, 1640.0, 1642.0, 1644.0, 1645.0, 1644.0, 1642.0, 1641.0, 1643.0, 1644.0, 1644.0, 1643.0, 1641.0, 1639.0, 1638.0, 1638.0, 1639.0, 1642.0, 1643.0, 1641.0, 1640.0, 1641.0, 1641.0, 1639.0, 1638.0, 1638.0, 1640.0, 1641.0, 1644.0, 1644.0, 1644.0, 1642.0, 1643.0, 1643.0, 1642.0, 1641.0, 1641.0, 1641.0, 1642.0, 1642.0, 1642.0, 1641.0, 1641.0, 1647.0, 1645.0, 1641.0, 1636.0, 1636.0, 1635.0, 1635.0, 1639.0, 1640.0, 1643.0, 1645.0, 1646.0, 1646.0, 1642.0, 1641.0, 1641.0, 1641.0, 1640.0, 1639.0, 1639.0, 1638.0, 1637.0, 1637.0, 1637.0, 1638.0, 1640.0, 1643.0, 1643.0, 1641.0, 1639.0, 1638.0, 1637.0, 1639.0, 1641.0, 1641.0, 1643.0, 1643.0, 1643.0, 1642.0, 1640.0, 1639.0, 1637.0, 1638.0, 1639.0, 1639.0, 1641.0, 1642.0, 1643.0, 1640.0, 1640.0, 1643.0, 1643.0, 1638.0, 1633.0, 1631.0, 1632.0, 1636.0, 1639.0, 1642.0, 1642.0, 1640.0, 1638.0, 1638.0, 1636.0, 1634.0, 1632.0, 1634.0, 1636.0, 1639.0, 1639.0, 1640.0, 1640.0, 1639.0, 1644.0, 1643.0, 1644.0, 1644.0, 1641.0, 1639.0, 1640.0, 1643.0, 1644.0, 1643.0, 1639.0, 1637.0, 1638.0, 1641.0, 1642.0, 1639.0, 1637.0, 1637.0, 1637.0, 1638.0, 1638.0, 1638.0, 1639.0, 1639.0, 1637.0, 1635.0, 1637.0, 1636.0, 1635.0, 1638.0, 1640.0, 1643.0, 1643.0, 1642.0, 1641.0, 1639.0, 1640.0, 1640.0, 1640.0, 1641.0, 1641.0, 1640.0, 1643.0, 1640.0, 1641.0, 1639.0, 1641.0, 1639.0, 1636.0, 1635.0, 1636.0, 1636.0, 1637.0, 1635.0, 1637.0, 1638.0, 1638.0, 1640.0, 1640.0, 1639.0, 1639.0, 1638.0, 1639.0, 1637.0, 1637.0, 1638.0, 1638.0, 1638.0, 1636.0, 1636.0, 1636.0, 1638.0]
    },
    "slices": {}
  }
}