{
  "AcquisitionMatrixPE": 100,
  "AcquisitionNumber": 1,
  "AcquisitionTime": "09:07:29.027500",
  "BandwidthPerPixelPhaseEncode": 18.519,
  "BaseResolution": 100,
  "BodyPartExamined": "BRAIN",
  "ConsistencyInfo": "N4_VE11C_LATEST_20160120",
  "ConversionSoftware": "dcm2niix",
  "ConversionSoftwareVersion": "v1.0.20180622 GCC4.9.2",
  "DerivedVendorReportedEchoSpacing": 0.000539986,
  "DeviceSerialNumber": "166078",
  "DwellTime": 2.1e-06,
  "EchoTime": 0.034,
  "EchoTrainLength": 100,
  "EffectiveEchoSpacing": 0.000539986,
  "FlipAngle": 90,
  "ImageOrientationPatientDICOM": [1, 0, 0, 0, 0.999962, -0.00872654],
  "ImageType": [
    "ORIGINAL",
    "PRIMARY",
    "M",
    "ND",
    "MOSAIC"
],
  "InPlanePhaseEncodingDirectionDICOM": "COL",
  "InstitutionAddress": "Street_StreetNo_Bei_Jing_District_CN_ZIP",
  "InstitutionName": "BeiJing_Normal_University",
  "InstitutionalDepartmentName": "Department",
  "MRAcquisitionType": "2D",
  "MagneticFieldStrength": 3,
  "Manufacturer": "Siemens",
  "ManufacturersModelName": "Prisma",
  "Modality": "MR",
  "MultibandAccelerationFactor": 3,
  "PartialFourier": 1,
  "PatientPosition": "HFS",
  "PercentPhaseFOV": 100,
  "PhaseEncodingDirection": "j-",
  "PhaseEncodingSteps": 100,
  "PhaseResolution": 1,
  "PixelBandwidth": 2380,
  "ProcedureStepDescription": "BNU_P2018_64CH_Zhen.ZongLei",
  "ProtocolName": "bold_100x100_s3_2x2x2_static_256",
  "PulseSequenceDetails": "%SiemensSeq%_ep2d_bold",
  "ReceiveCoilActiveElements": "HC1-7;NC1",
  "ReceiveCoilName": "HeadNeck_64",
  "ReconMatrixPE": 100,
  "RepetitionTime": 2,
  "SAR": 0.0616759,
  "ScanOptions": "FS",
  "ScanningSequence": "EP",
  "SequenceName": "_epfid2d1_100",
  "SequenceVariant": "SK",
  "SeriesDescription": "bold_100x100_s3_2x2x2_static_256",
  "SeriesNumber": 3,
  "ShimSetting": [-5448, -11460, -1288, 444, -55, -313, -216, 133],
  "SliceThickness": 2,
  "SliceTiming": [1.485, 0, 0.99, 0.0825, 1.0725, 0.165, 1.155, 0.2475, 1.2375, 0.33, 1.32, 0.4125, 1.4025, 0.5775, 1.5675, 0.66, 1.65, 0.7425, 1.7325, 0.825, 1.815, 0.9075, 1.8975, 0.495, 1.485, 0, 0.99, 0.0825, 1.0725, 0.165, 1.155, 0.2475, 1.2375, 0.33, 1.32, 0.4125, 1.4025, 0.5775, 1.5675, 0.66, 1.65, 0.7425, 1.7325, 0.825, 1.815, 0.9075, 1.8975, 0.495, 1.485, 0, 0.99, 0.0825, 1.0725, 0.165, 1.155, 0.2475, 1.2375, 0.33, 1.32, 0.4125, 1.4025, 0.5775, 1.5675, 0.66, 1.65, 0.7425, 1.7325, 0.825, 1.815, 0.9075, 1.8975, 0.495],
  "SoftwareVersions": "syngo_MR_E11",
  "SpacingBetweenSlices": 2,
  "StationName": "AWP166078",
  "TaskName": "naturalvision",
  "TotalReadoutTime": 0.0534586,
  "TxRefAmp": 212.039,
  "dcmmeta_affine": [
    [-2.0, 0.0, 0.0, 100.0],
    [0.0, 1.999923825263977, -0.017453070729970932, -87.86094665527344],
    [0.0, 0.017453070729970932, 1.999923825263977, -79.48445892333984],
    [0.0, 0.0, 0.0, 1.0]
],
  "dcmmeta_reorient_transform": [
    [0.0, -1.0, 0.0, 99.0],
    [1.0, 0.0, 0.0, 0.0],
    [0.0, 0.0, 1.0, 0.0],
    [0.0, 0.0, 0.0, 1.0]
],
  "dcmmeta_shape": [100, 100, 72, 256],
  "dcmmeta_slice_dim": 2,
  "dcmmeta_version": 0.6,
  "global": {
    "const": {
      "AcquisitionMatrix": [100, 0, 0, 100],
      "AngioFlag": "N",
      "BitsAllocated": 16,
      "BitsStored": 12,
      "BodyPartExamined": "BRAIN",
      "Columns": 900,
      "EchoNumbers": 1,
      "EchoTime": 34.0,
      "EchoTrainLength": 100,
      "FlipAngle": 90.0,
      "HighBit": 11,
      "ImageOrientationPatient": [1.0, 0.0, 0.0, 0.0, 0.99996192306517, -0.0087265353836],
      "ImagePositionPatient": [-900.0, -910.10105332945, -70.775375356877],
      "ImageType": [
        "ORIGINAL",
        "PRIMARY",
        "M",
        "ND",
        "MOSAIC"
],
      "ImagedNucleus": "1H",
      "ImagingFrequency": 123.257731,
      "InPlanePhaseEncodingDirection": "COL",
      "MRAcquisitionType": "2D",
      "MagneticFieldStrength": 3.0,
      "Manufacturer": "SIEMENS",
      "ManufacturerModelName": "Prisma",
      "Modality": "MR",
      "NumberOfAverages": 1.0,
      "NumberOfPhaseEncodingSteps": 100,
      "PercentPhaseFieldOfView": 100.0,
      "PercentSampling": 100.0,
      "PerformedProcedureStepStartTime": "090101.576000",
      "PhotometricInterpretation": "MONOCHROME2",
      "PixelBandwidth": 2380.0,
      "PixelRepresentation": 0,
      "PixelSpacing": [2.0, 2.0],
      "ProtocolName": "bold_100x100_s3_2x2x2_static_256",
      "RepetitionTime": 2000.0,
      "Rows": 900,
      "SAR": 0.06167587837942,
      "SamplesPerPixel": 1,
      "ScanOptions": "FS",
      "ScanningSequence": "EP",
      "SequenceName": "*epfid2d1_100",
      "SequenceVariant": "SK",
      "SeriesDescription": "bold_100x100_s3_2x2x2_static_256",
      "SeriesNumber": 3,
      "SeriesTime": "090732.116000",
      "SliceLocation": -78.714709492085,
      "SliceThickness": 2.0,
      "SmallestImagePixelValue": 0,
      "SoftwareVersions": "syngo MR E11",
      "SpacingBetweenSlices": 1.9999999673994,
      "SpecificCharacterSet": "ISO_IR 100",
      "StudyID": "1",
      "StudyTime": "090101.320000",
      "TransmitCoilName": "Body",
      "VariableFlipAngleFlag": "N",
      "WindowCenterWidthExplanation": "Algo1",
      "dBdt": 0.0},
    "slices": {}
  },
  "time": {
    "samples": {
      "AcquisitionNumber": [1, 2, 3, 4, 5, 6, 7, 8, 9, 10, 11, 12, 13, 14, 15, 16, 17, 18, 19, 20, 21, 22, 23, 24, 25, 26, 27, 28, 29, 30, 31, 32, 33, 34, 35, 36, 37, 38, 39, 40, 41, 42, 43, 44, 45, 46, 47, 48, 49, 50, 51, 52, 53, 54, 55, 56, 57, 58, 59, 60, 61, 62, 63, 64, 65, 66, 67, 68, 69, 70, 71, 72, 73, 74, 75, 76, 77, 78, 79, 80, 81, 82, 83, 84, 85, 86, 87, 88, 89, 90, 91, 92, 93, 94, 95, 96, 97, 98, 99, 100, 101, 102, 103, 104, 105, 106, 107, 108, 109, 110, 111, 112, 113, 114, 115, 116, 117, 118, 119, 120, 121, 122, 123, 124, 125, 126, 127, 128, 129, 130, 131, 132, 133, 134, 135, 136, 137, 138, 139, 140, 141, 142, 143, 144, 145, 146, 147, 148, 149, 150, 151, 152, 153, 154, 155, 156, 157, 158, 159, 160, 161, 162, 163, 164, 165, 166, 167, 168, 169, 170, 171, 172, 173, 174, 175, 176, 177, 178, 179, 180, 181, 182, 183, 184, 185, 186, 187, 188, 189, 190, 191, 192, 193, 194, 195, 196, 197, 198, 199, 200, 201, 202, 203, 204, 205, 206, 207, 208, 209, 210, 211, 212, 213, 214, 215, 216, 217, 218, 219, 220, 221, 222, 223, 224, 225, 226, 227, 228, 229, 230, 231, 232, 233, 234, 235, 236, 237, 238, 239, 240, 241, 242, 243, 244, 245, 246, 247, 248, 249, 250, 251, 252, 253, 254, 255, 256],
      "AcquisitionTime": ["090729.027500", "090731.027500", "090733.027500", "090735.027500", "090737.027500", "090739.027500", "090741.027500", "090743.027500", "090745.027500", "090747.027500", "090749.027500", "090751.027500", "090753.027500", "090755.027500", "090757.027500", "090759.027500", "090801.027500", "090803.027500", "090805.027500", "090807.027500", "090809.027500", "090811.027500", "090813.027500", "090815.027500", "090817.027500", "090819.027500", "090821.027500", "090823.027500", "090825.027500", "090827.027500", "090829.027500", "090831.027500", "090833.027500", "090835.027500", "090837.027500", "090839.027500", "090841.027500", "090843.027500", "090845.027500", "090847.027500", "090849.027500", "090851.027500", "090853.027500", "090855.027500", "090857.027500", "090859.027500", "090901.027500", "090903.027500", "090905.027500", "090907.027500", "090909.027500", "090911.027500", "090913.027500", "090915.027500", "090917.027500", "090919.027500", "090921.027500", "090923.027500", "090925.027500", "090927.027500", "090929.027500", "090931.027500", "090933.027500", "090935.027500", "090937.027500", "090939.027500", "090941.027500", "090943.027500", "090945.027500", "090947.027500", "090949.027500", "090951.027500", "090953.027500", "090955.027500", "090957.027500", "090959.027500", "091001.027500", "091003.027500", "091005.027500", "091007.027500", "091009.027500", "091011.027500", "091013.027500", "091015.027500", "091017.027500", "091019.027500", "091021.027500", "091023.027500", "091025.027500", "091027.027500", "091029.027500", "091031.027500", "091033.027500", "091035.027500", "091037.027500", "091039.027500", "091041.027500", "091043.027500", "091045.027500", "091047.027500", "091049.027500", "091051.027500", "091053.027500", "091055.027500", "091057.027500", "091059.027500", "091101.027500", "091103.027500", "091105.027500", "091107.027500", "091109.027500", "091111.027500", "091113.027500", "091115.027500", "091117.027500", "091119.027500", "091121.027500", "091123.027500", "091125.027500", "091127.027500", "091129.027500", "091131.027500", "091133.027500", "091135.027500", "091137.027500", "091139.027500", "091141.027500", "091143.027500", "091145.027500", "091147.027500", "091149.027500", "091151.027500", "091153.027500", "091155.027500", "091157.027500", "091159.027500", "091201.027500", "091203.027500", "091205.027500", "091207.027500", "091209.027500", "091211.027500", "091213.027500", "091215.027500", "091217.027500", "091219.027500", "091221.027500", "091223.027500", "091225.027500", "091227.027500", "091229.027500", "091231.027500", "091233.027500", "091235.027500", "091237.027500", "091239.027500", "091241.027500", "091243.027500", "091245.027500", "091247.027500", "091249.027500", "091251.027500", "091253.027500", "091255.027500", "091257.027500", "091259.027500", "091301.027500", "091303.027500", "091305.027500", "091307.027500", "091309.027500", "091311.027500", "091313.027500", "091315.027500", "091317.027500", "091319.027500", "091321.027500", "091323.027500", "091325.027500", "091327.027500", "091329.027500", "091331.027500", "091333.027500", "091335.027500", "091337.027500", "091339.027500", "091341.027500", "091343.027500", "091345.027500", "091347.027500", "091349.027500", "091351.027500", "091353.027500", "091355.027500", "091357.027500", "091359.027500", "091401.027500", "091403.027500", "091405.027500", "091407.027500", "091409.027500", "091411.027500", "091413.027500", "091415.027500", "091417.027500", "091419.027500", "091421.027500", "091423.027500", "091425.027500", "091427.027500", "091429.027500", "091431.027500", "091433.027500", "091435.027500", "091437.027500", "091439.027500", "091441.027500", "091443.027500", "091445.027500", "091447.027500", "091449.027500", "091451.027500", "091453.027500", "091455.027500", "091457.027500", "091459.027500", "091501.027500", "091503.027500", "091505.027500", "091507.027500", "091509.027500", "091511.027500", "091513.027500", "091515.027500", "091517.027500", "091519.027500", "091521.027500", "091523.027500", "091525.027500", "091527.027500", "091529.027500", "091531.027500", "091533.027500", "091535.027500", "091537.027500", "091539.027500", "091541.027500", "091543.027500", "091545.027500", "091547.027500", "091549.027500", "091551.027500", "091553.027500", "091555.027500", "091557.027500", "091559.027500"],
      "ContentTime": ["090732.120000", "090733.615000", "090736.616000", "090737.615000", "090740.114000", "090741.614000", "090743.614000", "090745.615000", "090747.114000", "090749.115000", "090751.115000", "090753.115000", "090756.115000", "090757.614000", "090759.114000", "090801.614000", "090803.114000", "090806.115000", "090807.115000", "090810.615000", "090811.616000", "090813.115000", "090815.615000", "090817.615000", "090819.614000", "090823.115000", "090824.115000", "090825.116000", "090827.115000", "090829.615000", "090832.614000", "090836.614000", "090836.618000", "090837.615000", "090839.114000", "090841.615000", "090843.115000", "090845.115000", "090847.616000", "090849.115000", "090851.115000", "090853.114000", "090855.614000", "090857.615000", "090859.115000", "090901.116000", "090903.115000", "090905.616000", "090907.114000", "090909.114000", "090911.114000", "090913.114000", "090915.115000", "090917.115000", "090919.115000", "090921.115000", "090923.115000", "090925.615000", "090927.615000", "090929.114000", "090931.114000", "090933.116000", "090935.115000", "090937.616000", "090939.115000", "090941.115000", "090943.114000", "090945.115000", "090947.114000", "090949.114000", "090951.616000", "090953.115000", "090955.616000", "090957.115000", "090959.115000", "091001.115000", "091003.114000", "091005.114000", "091007.114000", "091009.115000", "091011.115000", "091013.115000", "091015.615000", "091017.115000", "091019.615000", "091021.115000", "091023.114000", "091025.115000", "091027.115000", "091029.115000", "091031.116000", "091033.115000", "091035.114000", "091037.114000", "091039.114000", "091041.615000", "091043.115000", "091045.115000", "091047.615000", "091049.616000", "091051.616000", "091053.114000", "091055.615000", "091057.614000", "091059.114000", "091101.115000", "091103.615000", "091105.115000", "091107.115000", "091109.115000", "091111.360000", "091113.114000", "091115.114000", "091117.615000", "091119.116000", "091121.116000", "091123.115000", "091125.615000", "091127.114000", "091129.114000", "091131.114000", "091133.539000", "091135.115000", "091137.116000", "091139.115000", "091141.115000", "091143.116000", "091145.114000", "091147.615000", "091149.114000", "091151.115000", "091153.615000", "091155.115000", "091157.616000", "091159.115000", "091201.116000", "091203.114000", "091205.114000", "091207.614000", "091209.114000", "091211.115000", "091213.115000", "091215.115000", "091217.118000", "091219.614000", "091221.114000", "091223.615000", "091225.114000", "091227.615000", "091229.615000", "091231.616000", "091233.115000", "091235.116000", "091237.114000", "091239.114000", "091241.114000", "091243.115000", "091245.115000", "091247.115000", "091249.616000", "091251.115000", "091253.116000", "091255.115000", "091257.614000", "091259.615000", "091301.114000", "091303.115000", "091305.116000", "091307.615000", "091309.116000", "091311.116000", "091313.114000", "091315.115000", "091317.115000", "091319.114000", "091321.115000", "091323.115000", "091325.116000", "091327.115000", "091329.116000", "091331.114000", "091333.114000", "091335.114000", "091337.114000", "091339.116000", "091341.116000", "091343.616000", "091346.115000", "091347.114000", "091349.114000", "091351.115000", "091353.115000", "091355.616000", "091357.616000", "091359.115000", "091401.115000", "091403.115000", "091405.114000", "091407.115000", "091409.615000", "091411.114000", "091413.116000", "091415.115000", "091417.115000", "091419.116000", "091421.115000", "091423.114000", "091425.114000", "091427.115000", "091429.114000", "091431.116000", "091433.115000", "091435.116000", "091437.116000", "091439.116000", "091441.114000", "091443.615000", "091445.614000", "091447.115000", "091449.615000", "091451.115000", "091453.116000", "091455.115000", "091457.115000", "091459.114000", "091501.115000", "091503.115000", "091505.115000", "091507.115000", "091509.116000", "091511.116000", "091513.116000", "091515.115000", "091517.614000", "091519.114000", "091521.114000", "091523.615000", "091525.116000", "091527.116000", "091529.116000", "091531.116000", "091533.114000", "091535.115000", "091537.115000", "091539.114000", "091541.115000", "091543.116000", "091545.116000", "091547.115000", "091549.115000", "091551.115000", "091553.614000", "091555.115000", "091557.116000", "091559.115000", "091601.069000"],
      "InstanceCreationTime": ["090732.120000", "090733.615000", "090736.616000", "090737.615000", "090740.114000", "090741.614000", "090743.614000", "090745.615000", "090747.114000", "090749.115000", "090751.115000", "090753.115000", "090756.115000", "090757.614000", "090759.114000", "090801.614000", "090803.114000", "090806.115000", "090807.115000", "090810.615000", "090811.616000", "090813.115000", "090815.615000", "090817.615000", "090819.614000", "090823.115000", "090824.115000", "090825.116000", "090827.115000", "090829.615000", "090832.614000", "090836.614000", "090836.618000", "090837.615000", "090839.114000", "090841.615000", "090843.115000", "090845.115000", "090847.616000", "090849.115000", "090851.115000", "090853.114000", "090855.614000", "090857.615000", "090859.115000", "090901.116000", "090903.115000", "090905.616000", "090907.114000", "090909.114000", "090911.114000", "090913.114000", "090915.115000", "090917.115000", "090919.115000", "090921.115000", "090923.115000", "090925.615000", "090927.615000", "090929.114000", "090931.114000", "090933.116000", "090935.115000", "090937.616000", "090939.115000", "090941.115000", "090943.114000", "090945.115000", "090947.114000", "090949.114000", "090951.616000", "090953.115000", "090955.616000", "090957.115000", "090959.115000", "091001.115000", "091003.114000", "091005.114000", "091007.114000", "091009.115000", "091011.115000", "091013.115000", "091015.615000", "091017.115000", "091019.615000", "091021.115000", "091023.114000", "091025.115000", "091027.115000", "091029.115000", "091031.116000", "091033.115000", "091035.114000", "091037.114000", "091039.114000", "091041.615000", "091043.115000", "091045.115000", "091047.615000", "091049.616000", "091051.616000", "091053.114000", "091055.615000", "091057.614000", "091059.114000", "091101.115000", "091103.615000", "091105.115000", "091107.115000", "091109.115000", "091111.360000", "091113.114000", "091115.114000", "091117.615000", "091119.116000", "091121.116000", "091123.115000", "091125.615000", "091127.114000", "091129.114000", "091131.114000", "091133.539000", "091135.115000", "091137.116000", "091139.115000", "091141.115000", "091143.116000", "091145.114000", "091147.615000", "091149.114000", "091151.115000", "091153.615000", "091155.115000", "091157.616000", "091159.115000", "091201.116000", "091203.114000", "091205.114000", "091207.614000", "091209.114000", "091211.115000", "091213.115000", "091215.115000", "091217.118000", "091219.614000", "091221.114000", "091223.615000", "091225.114000", "091227.615000", "091229.615000", "091231.616000", "091233.115000", "091235.116000", "091237.114000", "091239.114000", "091241.114000", "091243.115000", "091245.115000", "091247.115000", "091249.616000", "091251.115000", "091253.116000", "091255.115000", "091257.614000", "091259.615000", "091301.114000", "091303.115000", "091305.116000", "091307.615000", "091309.116000", "091311.116000", "091313.114000", "091315.115000", "091317.115000", "091319.114000", "091321.115000", "091323.115000", "091325.116000", "091327.115000", "091329.116000", "091331.114000", "091333.114000", "091335.114000", "091337.114000", "091339.116000", "091341.116000", "091343.616000", "091346.115000", "091347.114000", "091349.114000", "091351.115000", "091353.115000", "091355.616000", "091357.616000", "091359.115000", "091401.115000", "091403.115000", "091405.114000", "091407.115000", "091409.615000", "091411.114000", "091413.116000", "091415.115000", "091417.115000", "091419.116000", "091421.115000", "091423.114000", "091425.114000", "091427.115000", "091429.114000", "091431.116000", "091433.115000", "091435.116000", "091437.116000", "091439.116000", "091441.114000", "091443.615000", "091445.614000", "091447.115000", "091449.615000", "091451.115000", "091453.116000", "091455.115000", "091457.115000", "091459.114000", "091501.115000", "091503.115000", "091505.115000", "091507.115000", "091509.116000", "091511.116000", "091513.116000", "091515.115000", "091517.614000", "091519.114000", "091521.114000", "091523.615000", "091525.116000", "091527.116000", "091529.116000", "091531.116000", "091533.114000", "091535.115000", "091537.115000", "091539.114000", "091541.115000", "091543.116000", "091545.116000", "091547.115000", "091549.115000", "091551.115000", "091553.614000", "091555.115000", "091557.116000", "091559.115000", "091601.069000"],
      "InstanceNumber": [1, 2, 3, 4, 5, 6, 7, 8, 9, 10, 11, 12, 13, 14, 15, 16, 17, 18, 19, 20, 21, 22, 23, 24, 25, 26, 27, 28, 29, 30, 31, 32, 33, 34, 35, 36, 37, 38, 39, 40, 41, 42, 43, 44, 45, 46, 47, 48, 49, 50, 51, 52, 53, 54, 55, 56, 57, 58, 59, 60, 61, 62, 63, 64, 65, 66, 67, 68, 69, 70, 71, 72, 73, 74, 75, 76, 77, 78, 79, 80, 81, 82, 83, 84, 85, 86, 87, 88, 89, 90, 91, 92, 93, 94, 95, 96, 97, 98, 99, 100, 101, 102, 103, 104, 105, 106, 107, 108, 109, 110, 111, 112, 113, 114, 115, 116, 117, 118, 119, 120, 121, 122, 123, 124, 125, 126, 127, 128, 129, 130, 131, 132, 133, 134, 135, 136, 137, 138, 139, 140, 141, 142, 143, 144, 145, 146, 147, 148, 149, 150, 151, 152, 153, 154, 155, 156, 157, 158, 159, 160, 161, 162, 163, 164, 165, 166, 167, 168, 169, 170, 171, 172, 173, 174, 175, 176, 177, 178, 179, 180, 181, 182, 183, 184, 185, 186, 187, 188, 189, 190, 191, 192, 193, 194, 195, 196, 197, 198, 199, 200, 201, 202, 203, 204, 205, 206, 207, 208, 209, 210, 211, 212, 213, 214, 215, 216, 217, 218, 219, 220, 221, 222, 223, 224, 225, 226, 227, 228, 229, 230, 231, 232, 233, 234, 235, 236, 237, 238, 239, 240, 241, 242, 243, 244, 245, 246, 247, 248, 249, 250, 251, 252, 253, 254, 255, 256],
      "LargestImagePixelValue": [3042, 2971, 2940, 2970, 2913, 2924, 2950, 2950, 2920, 2921, 2946, 2928, 2925, 2931, 2944, 2923, 2946, 2950, 2928, 2928, 2928, 2919, 2941, 2946, 2920, 2947, 2909, 2935, 2964, 2929, 2916, 2932, 2934, 2957, 2971, 2942, 2960, 2925, 2932, 2945, 2945, 2931, 2934, 2930, 2923, 2960, 2938, 2931, 2936, 2967, 2909, 2922, 2920, 2912, 2908, 2909, 2937, 2936, 2960, 2945, 2921, 2910, 2920, 2922, 2941, 2903, 2916, 2899, 2899, 2921, 2909, 2898, 2916, 2910, 2935, 2895, 2890, 2893, 2907, 2895, 2915, 2908, 2909, 2922, 2954, 2936, 2910, 2911, 2932, 2922, 2926, 2902, 2904, 2897, 2895, 2924, 2944, 2928, 2933, 2921, 2916, 2932, 2913, 2903, 2894, 2912, 2947, 2937, 2946, 2936, 2915, 2909, 2907, 2889, 2913, 2912, 2906, 2908, 2908, 2914, 2915, 2927, 2915, 2926, 2939, 2917, 2906, 2907, 2916, 2888, 2908, 2880, 2888, 2944, 2913, 2901, 2942, 2915, 2888, 2899, 2918, 2903, 2922, 2904, 2905, 2920, 2919, 2893, 2938, 2919, 2890, 2898, 2879, 2911, 2896, 2904, 2918, 2936, 2908, 2923, 2892, 2902, 2898, 2911, 2891, 2906, 2902, 2921, 2918, 2911, 2900, 2877, 2908, 2909, 2922, 2908, 2897, 2934, 2906, 2901, 2902, 2921, 2916, 2907, 2917, 2909, 2914, 2882, 2910, 2904, 2882, 2894, 2886, 2923, 2915, 2883, 2901, 2908, 2910, 2887, 2869, 2900, 2882, 2913, 2894, 2896, 2909, 2911, 2913, 2931, 2913, 2902, 2898, 2889, 2890, 2899, 2913, 2888, 2891, 2877, 2884, 2899, 2906, 2922, 2882, 2872, 2896, 2900, 2899, 2891, 2910, 2899, 2890, 2914, 2878, 2881, 2888, 2886, 2929, 2888, 2900, 2918, 2886, 2915, 2898, 2906, 2904, 2883, 2894, 2879, 2878, 2873, 2884, 2883, 2888, 2903],
      "WindowCenter": [767.0, 767.0, 768.0, 767.0, 766.0, 766.0, 766.0, 766.0, 765.0, 766.0, 767.0, 768.0, 768.0, 767.0, 767.0, 766.0, 767.0, 766.0, 765.0, 765.0, 765.0, 765.0, 765.0, 765.0, 766.0, 767.0, 766.0, 765.0, 766.0, 767.0, 767.0, 766.0, 764.0, 764.0, 765.0, 766.0, 767.0, 766.0, 766.0, 765.0, 764.0, 765.0, 765.0, 765.0, 764.0, 765.0, 767.0, 767.0, 766.0, 766.0, 765.0, 765.0, 764.0, 764.0, 764.0, 765.0, 765.0, 764.0, 764.0, 764.0, 765.0, 765.0, 765.0, 765.0, 765.0, 764.0, 764.0, 764.0, 765.0, 765.0, 764.0, 764.0, 765.0, 766.0, 767.0, 764.0, 764.0, 764.0, 763.0, 763.0, 764.0, 765.0, 765.0, 764.0, 764.0, 764.0, 764.0, 765.0, 765.0, 764.0, 764.0, 765.0, 765.0, 765.0, 764.0, 764.0, 764.0, 765.0, 765.0, 764.0, 764.0, 765.0, 765.0, 765.0, 764.0, 763.0, 764.0, 764.0, 765.0, 765.0, 765.0, 765.0, 765.0, 764.0, 764.0, 764.0, 764.0, 764.0, 765.0, 765.0, 765.0, 764.0, 764.0, 765.0, 766.0, 765.0, 765.0, 764.0, 764.0, 764.0, 764.0, 764.0, 765.0, 765.0, 764.0, 765.0, 766.0, 766.0, 765.0, 765.0, 764.0, 765.0, 766.0, 766.0, 764.0, 764.0, 764.0, 764.0, 764.0, 764.0, 765.0, 765.0, 765.0, 766.0, 765.0, 765.0, 766.0, 765.0, 764.0, 763.0, 762.0, 762.0, 762.0, 764.0, 765.0, 765.0, 764.0, 764.0, 764.0, 765.0, 765.0, 765.0, 764.0, 764.0, 764.0, 765.0, 766.0, 766.0, 765.0, 764.0, 765.0, 766.0, 765.0, 764.0, 763.0, 763.0, 764.0, 764.0, 765.0, 764.0, 764.0, 764.0, 764.0, 765.0, 765.0, 764.0, 763.0, 763.0, 763.0, 764.0, 764.0, 763.0, 763.0, 764.0, 765.0, 764.0, 764.0, 763.0, 764.0, 765.0, 765.0, 765.0, 764.0, 763.0, 763.0, 763.0, 764.0, 764.0, 765.0, 765.0, 764.0, 762.0, 763.0, 763.0, 764.0, 763.0, 762.0, 763.0, 763.0, 763.0, 763.0, 763.0, 763.0, 764.0, 763.0, 764.0, 763.0, 763.0, 764.0, 763.0, 764.0, 764.0, 764.0, 764.0, 764.0, 763.0, 763.0, 763.0, 765.0, 765.0, 764.0, 765.0, 765.0, 764.0, 764.0, 763.0],
      "WindowWidth": [1658.0, 1657.0, 1659.0, 1659.0, 1655.0, 1654.0, 1654.0, 1654.0, 1653.0, 1655.0, 1659.0, 1660.0, 1660.0, 1659.0, 1658.0, 1655.0, 1656.0, 1656.0, 1652.0, 1652.0, 1652.0, 1652.0, 1652.0, 1653.0, 1656.0, 1658.0, 1655.0, 1653.0, 1655.0, 1657.0, 1657.0, 1654.0, 1649.0, 1648.0, 1653.0, 1654.0, 1657.0, 1656.0, 1655.0, 1652.0, 1650.0, 1652.0, 1653.0, 1651.0, 1650.0, 1653.0, 1656.0, 1657.0, 1655.0, 1655.0, 1653.0, 1651.0, 1650.0, 1650.0, 1651.0, 1652.0, 1653.0, 1650.0, 1650.0, 1650.0, 1653.0, 1653.0, 1653.0, 1652.0, 1651.0, 1649.0, 1649.0, 1650.0, 1651.0, 1650.0, 1648.0, 1648.0, 1653.0, 1655.0, 1656.0, 1650.0, 1649.0, 1648.0, 1647.0, 1646.0, 1648.0, 1651.0, 1651.0, 1650.0, 1650.0, 1649.0, 1650.0, 1650.0, 1651.0, 1650.0, 1649.0, 1651.0, 1653.0, 1651.0, 1648.0, 1649.0, 1650.0, 1651.0, 1652.0, 1648.0, 1648.0, 1651.0, 1652.0, 1652.0, 1649.0, 1647.0, 1648.0, 1649.0, 1651.0, 1652.0, 1652.0, 1652.0, 1651.0, 1649.0, 1649.0, 1648.0, 1648.0, 1649.0, 1650.0, 1652.0, 1651.0, 1650.0, 1650.0, 1651.0, 1653.0, 1652.0, 1651.0, 1649.0, 1648.0, 1648.0, 1649.0, 1650.0, 1651.0, 1651.0, 1650.0, 1650.0, 1655.0, 1655.0, 1652.0, 1650.0, 1648.0, 1650.0, 1654.0, 1654.0, 1649.0, 1648.0, 1648.0, 1648.0, 1650.0, 1650.0, 1651.0, 1652.0, 1652.0, 1654.0, 1652.0, 1651.0, 1654.0, 1652.0, 1649.0, 1646.0, 1644.0, 1642.0, 1644.0, 1650.0, 1652.0, 1651.0, 1647.0, 1648.0, 1648.0, 1650.0, 1651.0, 1650.0, 1649.0, 1649.0, 1650.0, 1651.0, 1653.0, 1654.0, 1651.0, 1649.0, 1650.0, 1654.0, 1652.0, 1648.0, 1646.0, 1645.0, 1647.0, 1648.0, 1650.0, 1649.0, 1647.0, 1648.0, 1649.0, 1651.0, 1650.0, 1648.0, 1646.0, 1645.0, 1646.0, 1647.0, 1648.0, 1646.0, 1646.0, 1649.0, 1650.0, 1649.0, 1647.0, 1647.0, 1649.0, 1651.0, 1651.0, 1650.0, 1647.0, 1647.0, 1646.0, 1646.0, 1647.0, 1649.0, 1652.0, 1652.0, 1648.0, 1644.0, 1645.0, 1647.0, 1648.0, 1645.0, 1644.0, 1645.0, 1647.0, 1646.0, 1645.0, 1644.0, 1646.0, 1647.0, 1646.0, 1647.0, 1644.0, 1645.0, 1647.0, 1646.0, 1647.0, 1648.0, 1647.0, 1649.0, 1648.0, 1646.0, 1645.0, 1645.0, 1649.0, 1649.0, 1649.0, 1650.0, 1650.0, 1649.0, 1647.0, 1646.0]
    },
    "slices": {}
  }
}