{
  "AcquisitionMatrixPE": 100,
  "AcquisitionNumber": 1,
  "AcquisitionTime": "10:03:15.320000",
  "BandwidthPerPixelPhaseEncode": 18.519,
  "BaseResolution": 100,
  "BodyPartExamined": "BRAIN",
  "ConsistencyInfo": "N4_VE11C_LATEST_20160120",
  "ConversionSoftware": "dcm2niix",
  "ConversionSoftwareVersion": "v1.0.20180622 GCC4.9.2",
  "DerivedVendorReportedEchoSpacing": 0.000539986,
  "DeviceSerialNumber": "166078",
  "DwellTime": 2.1e-06,
  "EchoTime": 0.034,
  "EchoTrainLength": 100,
  "EffectiveEchoSpacing": 0.000539986,
  "FlipAngle": 90,
  "ImageOrientationPatientDICOM": [1, 0, 0, 0, 0.999962, -0.00872654],
  "ImageType": [
    "ORIGINAL",
    "PRIMARY",
    "M",
    "ND",
    "MOSAIC"
],
  "InPlanePhaseEncodingDirectionDICOM": "COL",
  "InstitutionAddress": "Street_StreetNo_Bei_Jing_District_CN_ZIP",
  "InstitutionName": "BeiJing_Normal_University",
  "InstitutionalDepartmentName": "Department",
  "MRAcquisitionType": "2D",
  "MagneticFieldStrength": 3,
  "Manufacturer": "Siemens",
  "ManufacturersModelName": "Prisma",
  "Modality": "MR",
  "MultibandAccelerationFactor": 3,
  "PartialFourier": 1,
  "PatientPosition": "HFS",
  "PercentPhaseFOV": 100,
  "PhaseEncodingDirection": "j-",
  "PhaseEncodingSteps": 100,
  "PhaseResolution": 1,
  "PixelBandwidth": 2380,
  "ProcedureStepDescription": "BNU_P2018_64CH_Zhen.ZongLei",
  "ProtocolName": "bold_100x100_s3_2x2x2_static_256",
  "PulseSequenceDetails": "%SiemensSeq%_ep2d_bold",
  "ReceiveCoilActiveElements": "HC1-7;NC1",
  "ReceiveCoilName": "HeadNeck_64",
  "ReconMatrixPE": 100,
  "RepetitionTime": 2,
  "SAR": 0.0616759,
  "ScanOptions": "FS",
  "ScanningSequence": "EP",
  "SequenceName": "_epfid2d1_100",
  "SequenceVariant": "SK",
  "SeriesDescription": "bold_100x100_s3_2x2x2_static_256",
  "SeriesNumber": 10,
  "ShimSetting": [-5448, -11460, -1288, 444, -55, -313, -216, 133],
  "SliceThickness": 2,
  "SliceTiming": [1.485, 0, 0.99, 0.0825, 1.0725, 0.165, 1.155, 0.2475, 1.2375, 0.33, 1.32, 0.4125, 1.4025, 0.5775, 1.5675, 0.66, 1.65, 0.7425, 1.7325, 0.825, 1.815, 0.9075, 1.8975, 0.495, 1.485, 0, 0.99, 0.0825, 1.0725, 0.165, 1.155, 0.2475, 1.2375, 0.33, 1.32, 0.4125, 1.4025, 0.5775, 1.5675, 0.66, 1.65, 0.7425, 1.7325, 0.825, 1.815, 0.9075, 1.8975, 0.495, 1.485, 0, 0.99, 0.0825, 1.0725, 0.165, 1.155, 0.2475, 1.2375, 0.33, 1.32, 0.4125, 1.4025, 0.5775, 1.5675, 0.66, 1.65, 0.7425, 1.7325, 0.825, 1.815, 0.9075, 1.8975, 0.495],
  "SoftwareVersions": "syngo_MR_E11",
  "SpacingBetweenSlices": 2,
  "StationName": "AWP166078",
  "TaskName": "naturalvision",
  "TotalReadoutTime": 0.0534586,
  "TxRefAmp": 212.039,
  "dcmmeta_affine": [
    [-2.0, 0.0, 0.0, 100.0],
    [0.0, 1.999923825263977, -0.017453070729970932, -87.86094665527344],
    [0.0, 0.017453070729970932, 1.999923825263977, -79.48445892333984],
    [0.0, 0.0, 0.0, 1.0]
],
  "dcmmeta_reorient_transform": [
    [0.0, -1.0, 0.0, 99.0],
    [1.0, 0.0, 0.0, 0.0],
    [0.0, 0.0, 1.0, 0.0],
    [0.0, 0.0, 0.0, 1.0]
],
  "dcmmeta_shape": [100, 100, 72, 256],
  "dcmmeta_slice_dim": 2,
  "dcmmeta_version": 0.6,
  "global": {
    "const": {
      "AcquisitionMatrix": [100, 0, 0, 100],
      "AngioFlag": "N",
      "BitsAllocated": 16,
      "BitsStored": 12,
      "BodyPartExamined": "BRAIN",
      "Columns": 900,
      "EchoNumbers": 1,
      "EchoTime": 34.0,
      "EchoTrainLength": 100,
      "FlipAngle": 90.0,
      "HighBit": 11,
      "ImageOrientationPatient": [1.0, 0.0, 0.0, 0.0, 0.99996192306517, -0.0087265353836],
      "ImagePositionPatient": [-900.0, -910.10105332945, -70.775375356877],
      "ImageType": [
        "ORIGINAL",
        "PRIMARY",
        "M",
        "ND",
        "MOSAIC"
],
      "ImagedNucleus": "1H",
      "ImagingFrequency": 123.25774,
      "InPlanePhaseEncodingDirection": "COL",
      "MRAcquisitionType": "2D",
      "MagneticFieldStrength": 3.0,
      "Manufacturer": "SIEMENS",
      "ManufacturerModelName": "Prisma",
      "Modality": "MR",
      "NumberOfAverages": 1.0,
      "NumberOfPhaseEncodingSteps": 100,
      "PercentPhaseFieldOfView": 100.0,
      "PercentSampling": 100.0,
      "PerformedProcedureStepStartTime": "090101.576000",
      "PhotometricInterpretation": "MONOCHROME2",
      "PixelBandwidth": 2380.0,
      "PixelRepresentation": 0,
      "PixelSpacing": [2.0, 2.0],
      "ProtocolName": "bold_100x100_s3_2x2x2_static_256",
      "RepetitionTime": 2000.0,
      "Rows": 900,
      "SAR": 0.06167587837942,
      "SamplesPerPixel": 1,
      "ScanOptions": "FS",
      "ScanningSequence": "EP",
      "SequenceName": "*epfid2d1_100",
      "SequenceVariant": "SK",
      "SeriesDescription": "bold_100x100_s3_2x2x2_static_256",
      "SeriesNumber": 10,
      "SeriesTime": "100317.947000",
      "SliceLocation": -78.714709492085,
      "SliceThickness": 2.0,
      "SmallestImagePixelValue": 0,
      "SoftwareVersions": "syngo MR E11",
      "SpacingBetweenSlices": 1.9999999673994,
      "SpecificCharacterSet": "ISO_IR 100",
      "StudyID": "1",
      "StudyTime": "090101.320000",
      "TransmitCoilName": "Body",
      "VariableFlipAngleFlag": "N",
      "WindowCenterWidthExplanation": "Algo1",
      "dBdt": 0.0},
    "slices": {}
  },
  "time": {
    "samples": {
      "AcquisitionNumber": [1, 2, 3, 4, 5, 6, 7, 8, 9, 10, 11, 12, 13, 14, 15, 16, 17, 18, 19, 20, 21, 22, 23, 24, 25, 26, 27, 28, 29, 30, 31, 32, 33, 34, 35, 36, 37, 38, 39, 40, 41, 42, 43, 44, 45, 46, 47, 48, 49, 50, 51, 52, 53, 54, 55, 56, 57, 58, 59, 60, 61, 62, 63, 64, 65, 66, 67, 68, 69, 70, 71, 72, 73, 74, 75, 76, 77, 78, 79, 80, 81, 82, 83, 84, 85, 86, 87, 88, 89, 90, 91, 92, 93, 94, 95, 96, 97, 98, 99, 100, 101, 102, 103, 104, 105, 106, 107, 108, 109, 110, 111, 112, 113, 114, 115, 116, 117, 118, 119, 120, 121, 122, 123, 124, 125, 126, 127, 128, 129, 130, 131, 132, 133, 134, 135, 136, 137, 138, 139, 140, 141, 142, 143, 144, 145, 146, 147, 148, 149, 150, 151, 152, 153, 154, 155, 156, 157, 158, 159, 160, 161, 162, 163, 164, 165, 166, 167, 168, 169, 170, 171, 172, 173, 174, 175, 176, 177, 178, 179, 180, 181, 182, 183, 184, 185, 186, 187, 188, 189, 190, 191, 192, 193, 194, 195, 196, 197, 198, 199, 200, 201, 202, 203, 204, 205, 206, 207, 208, 209, 210, 211, 212, 213, 214, 215, 216, 217, 218, 219, 220, 221, 222, 223, 224, 225, 226, 227, 228, 229, 230, 231, 232, 233, 234, 235, 236, 237, 238, 239, 240, 241, 242, 243, 244, 245, 246, 247, 248, 249, 250, 251, 252, 253, 254, 255, 256],
      "AcquisitionTime": ["100315.320000", "100317.320000", "100319.320000", "100321.320000", "100323.320000", "100325.320000", "100327.320000", "100329.320000", "100331.320000", "100333.320000", "100335.320000", "100337.320000", "100339.320000", "100341.320000", "100343.320000", "100345.320000", "100347.320000", "100349.320000", "100351.320000", "100353.320000", "100355.320000", "100357.320000", "100359.320000", "100401.320000", "100403.320000", "100405.320000", "100407.320000", "100409.320000", "100411.320000", "100413.320000", "100415.320000", "100417.320000", "100419.320000", "100421.320000", "100423.320000", "100425.320000", "100427.320000", "100429.320000", "100431.320000", "100433.320000", "100435.320000", "100437.320000", "100439.320000", "100441.320000", "100443.320000", "100445.320000", "100447.320000", "100449.320000", "100451.320000", "100453.320000", "100455.320000", "100457.320000", "100459.320000", "100501.320000", "100503.320000", "100505.320000", "100507.320000", "100509.320000", "100511.320000", "100513.320000", "100515.320000", "100517.320000", "100519.320000", "100521.320000", "100523.320000", "100525.320000", "100527.320000", "100529.320000", "100531.320000", "100533.320000", "100535.320000", "100537.320000", "100539.320000", "100541.320000", "100543.320000", "100545.320000", "100547.320000", "100549.320000", "100551.320000", "100553.320000", "100555.320000", "100557.320000", "100559.320000", "100601.320000", "100603.320000", "100605.320000", "100607.320000", "100609.320000", "100611.320000", "100613.320000", "100615.320000", "100617.320000", "100619.320000", "100621.320000", "100623.320000", "100625.320000", "100627.320000", "100629.320000", "100631.320000", "100633.320000", "100635.320000", "100637.320000", "100639.320000", "100641.320000", "100643.320000", "100645.320000", "100647.320000", "100649.320000", "100651.320000", "100653.320000", "100655.320000", "100657.320000", "100659.320000", "100701.320000", "100703.320000", "100705.320000", "100707.320000", "100709.320000", "100711.320000", "100713.320000", "100715.320000", "100717.320000", "100719.320000", "100721.320000", "100723.320000", "100725.320000", "100727.320000", "100729.320000", "100731.320000", "100733.320000", "100735.320000", "100737.320000", "100739.320000", "100741.320000", "100743.320000", "100745.320000", "100747.320000", "100749.320000", "100751.320000", "100753.320000", "100755.320000", "100757.320000", "100759.320000", "100801.320000", "100803.320000", "100805.320000", "100807.320000", "100809.320000", "100811.320000", "100813.320000", "100815.320000", "100817.320000", "100819.320000", "100821.320000", "100823.320000", "100825.320000", "100827.320000", "100829.320000", "100831.320000", "100833.320000", "100835.320000", "100837.320000", "100839.320000", "100841.320000", "100843.320000", "100845.320000", "100847.320000", "100849.320000", "100851.320000", "100853.320000", "100855.320000", "100857.320000", "100859.320000", "100901.320000", "100903.320000", "100905.320000", "100907.320000", "100909.320000", "100911.320000", "100913.320000", "100915.320000", "100917.320000", "100919.320000", "100921.320000", "100923.320000", "100925.320000", "100927.320000", "100929.320000", "100931.320000", "100933.320000", "100935.320000", "100937.320000", "100939.320000", "100941.320000", "100943.320000", "100945.320000", "100947.320000", "100949.320000", "100951.320000", "100953.320000", "100955.320000", "100957.320000", "100959.320000", "101001.320000", "101003.320000", "101005.320000", "101007.320000", "101009.320000", "101011.320000", "101013.320000", "101015.320000", "101017.320000", "101019.320000", "101021.320000", "101023.320000", "101025.320000", "101027.320000", "101029.320000", "101031.320000", "101033.320000", "101035.320000", "101037.320000", "101039.320000", "101041.320000", "101043.320000", "101045.320000", "101047.320000", "101049.320000", "101051.320000", "101053.320000", "101055.320000", "101057.320000", "101059.320000", "101101.320000", "101103.320000", "101105.320000", "101107.320000", "101109.320000", "101111.320000", "101113.320000", "101115.320000", "101117.320000", "101119.320000", "101121.320000", "101123.320000", "101125.320000", "101127.320000", "101129.320000", "101131.320000", "101133.320000", "101135.320000", "101137.320000", "101139.320000", "101141.320000", "101143.320000", "101145.320000"],
      "ContentTime": ["100317.950000", "100319.446000", "100321.445000", "100323.445000", "100325.444000", "100327.445000", "100329.445000", "100331.445000", "100333.445000", "100335.445000", "100337.445000", "100339.445000", "100341.446000", "100343.445000", "100345.445000", "100347.446000", "100349.445000", "100351.446000", "100353.445000", "100355.446000", "100357.445000", "100359.446000", "100401.445000", "100403.445000", "100405.445000", "100407.445000", "100409.445000", "100411.446000", "100413.445000", "100415.445000", "100417.444000", "100419.445000", "100421.445000", "100423.446000", "100425.445000", "100427.445000", "100429.445000", "100431.445000", "100433.445000", "100435.444000", "100437.446000", "100439.445000", "100441.445000", "100443.446000", "100445.445000", "100447.445000", "100449.445000", "100451.445000", "100453.444000", "100455.446000", "100457.445000", "100459.445000", "100501.446000", "100503.446000", "100505.446000", "100507.446000", "100509.445000", "100511.444000", "100513.446000", "100515.446000", "100517.445000", "100519.445000", "100521.445000", "100523.446000", "100525.445000", "100527.444000", "100529.445000", "100531.445000", "100533.445000", "100535.446000", "100537.446000", "100539.445000", "100541.445000", "100543.445000", "100545.445000", "100547.445000", "100549.445000", "100551.445000", "100553.445000", "100555.445000", "100557.445000", "100559.446000", "100601.446000", "100603.444000", "100605.446000", "100607.445000", "100609.446000", "100611.445000", "100613.445000", "100615.446000", "100617.445000", "100619.445000", "100621.445000", "100623.446000", "100625.446000", "100627.445000", "100629.445000", "100631.445000", "100633.445000", "100635.446000", "100637.445000", "100639.445000", "100641.446000", "100643.445000", "100645.445000", "100647.446000", "100649.445000", "100651.445000", "100653.445000", "100655.445000", "100657.446000", "100659.445000", "100701.446000", "100703.446000", "100705.446000", "100707.445000", "100709.445000", "100711.445000", "100713.444000", "100715.446000", "100717.445000", "100719.446000", "100721.445000", "100723.445000", "100725.445000", "100727.446000", "100729.445000", "100731.444000", "100733.445000", "100735.445000", "100737.445000", "100739.445000", "100741.445000", "100743.446000", "100745.446000", "100747.445000", "100749.445000", "100751.445000", "100753.446000", "100755.446000", "100757.445000", "100759.445000", "100801.445000", "100803.460000", "100805.444000", "100807.445000", "100809.445000", "100811.446000", "100813.445000", "100815.445000", "100817.445000", "100819.445000", "100821.445000", "100823.444000", "100825.446000", "100827.445000", "100829.445000", "100831.445000", "100833.445000", "100835.446000", "100837.446000", "100839.446000", "100841.444000", "100843.445000", "100845.445000", "100847.445000", "100849.445000", "100851.445000", "100853.445000", "100855.445000", "100857.445000", "100859.445000", "100901.446000", "100903.446000", "100905.446000", "100907.446000", "100909.445000", "100911.445000", "100913.446000", "100915.444000", "100917.446000", "100919.446000", "100921.445000", "100923.446000", "100925.445000", "100927.445000", "100929.445000", "100931.446000", "100933.445000", "100935.445000", "100937.446000", "100939.445000", "100941.445000", "100943.445000", "100945.445000", "100947.445000", "100949.446000", "100951.444000", "100953.446000", "100955.445000", "100957.445000", "100959.445000", "101001.446000", "101003.446000", "101005.445000", "101007.445000", "101009.445000", "101011.446000", "101013.446000", "101015.446000", "101017.446000", "101019.445000", "101021.445000", "101023.445000", "101025.445000", "101027.446000", "101029.445000", "101031.445000", "101033.446000", "101035.445000", "101037.445000", "101039.445000", "101041.446000", "101043.444000", "101045.446000", "101047.445000", "101049.446000", "101051.445000", "101053.445000", "101055.446000", "101057.446000", "101059.445000", "101101.445000", "101103.446000", "101105.446000", "101107.446000", "101109.446000", "101111.445000", "101113.446000", "101115.446000", "101117.445000", "101119.445000", "101121.445000", "101123.446000", "101125.446000", "101127.445000", "101129.445000", "101131.446000", "101133.446000", "101135.445000", "101137.445000", "101139.445000", "101141.446000", "101143.446000", "101145.446000", "101147.281000"],
      "InstanceCreationTime": ["100317.950000", "100319.446000", "100321.445000", "100323.445000", "100325.444000", "100327.445000", "100329.445000", "100331.445000", "100333.445000", "100335.445000", "100337.445000", "100339.445000", "100341.446000", "100343.445000", "100345.445000", "100347.446000", "100349.445000", "100351.446000", "100353.445000", "100355.446000", "100357.445000", "100359.446000", "100401.445000", "100403.445000", "100405.445000", "100407.445000", "100409.445000", "100411.446000", "100413.445000", "100415.445000", "100417.444000", "100419.445000", "100421.445000", "100423.446000", "100425.445000", "100427.445000", "100429.445000", "100431.445000", "100433.445000", "100435.444000", "100437.446000", "100439.445000", "100441.445000", "100443.446000", "100445.445000", "100447.445000", "100449.445000", "100451.445000", "100453.444000", "100455.446000", "100457.445000", "100459.445000", "100501.446000", "100503.446000", "100505.446000", "100507.446000", "100509.445000", "100511.444000", "100513.446000", "100515.446000", "100517.445000", "100519.445000", "100521.445000", "100523.446000", "100525.445000", "100527.444000", "100529.445000", "100531.445000", "100533.445000", "100535.446000", "100537.446000", "100539.445000", "100541.445000", "100543.445000", "100545.445000", "100547.445000", "100549.445000", "100551.445000", "100553.445000", "100555.445000", "100557.445000", "100559.446000", "100601.446000", "100603.444000", "100605.446000", "100607.445000", "100609.446000", "100611.445000", "100613.445000", "100615.446000", "100617.445000", "100619.445000", "100621.445000", "100623.446000", "100625.446000", "100627.445000", "100629.445000", "100631.445000", "100633.445000", "100635.446000", "100637.445000", "100639.445000", "100641.446000", "100643.445000", "100645.445000", "100647.446000", "100649.445000", "100651.445000", "100653.445000", "100655.445000", "100657.446000", "100659.445000", "100701.446000", "100703.446000", "100705.446000", "100707.445000", "100709.445000", "100711.445000", "100713.444000", "100715.446000", "100717.445000", "100719.446000", "100721.445000", "100723.445000", "100725.445000", "100727.446000", "100729.445000", "100731.444000", "100733.445000", "100735.445000", "100737.445000", "100739.445000", "100741.445000", "100743.446000", "100745.446000", "100747.445000", "100749.445000", "100751.445000", "100753.446000", "100755.446000", "100757.445000", "100759.445000", "100801.445000", "100803.460000", "100805.444000", "100807.445000", "100809.445000", "100811.446000", "100813.445000", "100815.445000", "100817.445000", "100819.445000", "100821.445000", "100823.444000", "100825.446000", "100827.445000", "100829.445000", "100831.445000", "100833.445000", "100835.446000", "100837.446000", "100839.446000", "100841.444000", "100843.445000", "100845.445000", "100847.445000", "100849.445000", "100851.445000", "100853.445000", "100855.445000", "100857.445000", "100859.445000", "100901.446000", "100903.446000", "100905.446000", "100907.446000", "100909.445000", "100911.445000", "100913.446000", "100915.444000", "100917.446000", "100919.446000", "100921.445000", "100923.446000", "100925.445000", "100927.445000", "100929.445000", "100931.446000", "100933.445000", "100935.445000", "100937.446000", "100939.445000", "100941.445000", "100943.445000", "100945.445000", "100947.445000", "100949.446000", "100951.444000", "100953.446000", "100955.445000", "100957.445000", "100959.445000", "101001.446000", "101003.446000", "101005.445000", "101007.445000", "101009.445000", "101011.446000", "101013.446000", "101015.446000", "101017.446000", "101019.445000", "101021.445000", "101023.445000", "101025.445000", "101027.446000", "101029.445000", "101031.445000", "101033.446000", "101035.445000", "101037.445000", "101039.445000", "101041.446000", "101043.444000", "101045.446000", "101047.445000", "101049.446000", "101051.445000", "101053.445000", "101055.446000", "101057.446000", "101059.445000", "101101.445000", "101103.446000", "101105.446000", "101107.446000", "101109.446000", "101111.445000", "101113.446000", "101115.446000", "101117.445000", "101119.445000", "101121.445000", "101123.446000", "101125.446000", "101127.445000", "101129.445000", "101131.446000", "101133.446000", "101135.445000", "101137.445000", "101139.445000", "101141.446000", "101143.446000", "101145.446000", "101147.281000"],
      "InstanceNumber": [1, 2, 3, 4, 5, 6, 7, 8, 9, 10, 11, 12, 13, 14, 15, 16, 17, 18, 19, 20, 21, 22, 23, 24, 25, 26, 27, 28, 29, 30, 31, 32, 33, 34, 35, 36, 37, 38, 39, 40, 41, 42, 43, 44, 45, 46, 47, 48, 49, 50, 51, 52, 53, 54, 55, 56, 57, 58, 59, 60, 61, 62, 63, 64, 65, 66, 67, 68, 69, 70, 71, 72, 73, 74, 75, 76, 77, 78, 79, 80, 81, 82, 83, 84, 85, 86, 87, 88, 89, 90, 91, 92, 93, 94, 95, 96, 97, 98, 99, 100, 101, 102, 103, 104, 105, 106, 107, 108, 109, 110, 111, 112, 113, 114, 115, 116, 117, 118, 119, 120, 121, 122, 123, 124, 125, 126, 127, 128, 129, 130, 131, 132, 133, 134, 135, 136, 137, 138, 139, 140, 141, 142, 143, 144, 145, 146, 147, 148, 149, 150, 151, 152, 153, 154, 155, 156, 157, 158, 159, 160, 161, 162, 163, 164, 165, 166, 167, 168, 169, 170, 171, 172, 173, 174, 175, 176, 177, 178, 179, 180, 181, 182, 183, 184, 185, 186, 187, 188, 189, 190, 191, 192, 193, 194, 195, 196, 197, 198, 199, 200, 201, 202, 203, 204, 205, 206, 207, 208, 209, 210, 211, 212, 213, 214, 215, 216, 217, 218, 219, 220, 221, 222, 223, 224, 225, 226, 227, 228, 229, 230, 231, 232, 233, 234, 235, 236, 237, 238, 239, 240, 241, 242, 243, 244, 245, 246, 247, 248, 249, 250, 251, 252, 253, 254, 255, 256],
      "LargestImagePixelValue": [2975, 2959, 2939, 2959, 2923, 2953, 2952, 2930, 2961, 2947, 2935, 2950, 2944, 2921, 2899, 2943, 2940, 2963, 2903, 2925, 2909, 2956, 2926, 2937, 2968, 2927, 2915, 2935, 2913, 2964, 2938, 2948, 2929, 2963, 2935, 2918, 2942, 2913, 2923, 2967, 2941, 2929, 2961, 2953, 2910, 2902, 2934, 2940, 2929, 2948, 2946, 2912, 2926, 2909, 2979, 2906, 2946, 2891, 2920, 2935, 2914, 2916, 2912, 2900, 2950, 2923, 2921, 2963, 2931, 2916, 2943, 2899, 2917, 2928, 2916, 2891, 2909, 2905, 2908, 2949, 2920, 2911, 2949, 2907, 2931, 2955, 2883, 2920, 2955, 2930, 2961, 2943, 2938, 2926, 2912, 2921, 2950, 2957, 2942, 2927, 2917, 2903, 2919, 2898, 2915, 2916, 2897, 2912, 2942, 2906, 2898, 2922, 2922, 2929, 2918, 2909, 2916, 2894, 2883, 2950, 2884, 2920, 2895, 2907, 2936, 2897, 2896, 2895, 2913, 2901, 2868, 2885, 2911, 2912, 2908, 2881, 2882, 2902, 2884, 2924, 2901, 2905, 2933, 2943, 2903, 2900, 2930, 2884, 2873, 2929, 2914, 2934, 2922, 2921, 2935, 2902, 2922, 2894, 2923, 2912, 2924, 2897, 2887, 2922, 2898, 2893, 2854, 2905, 2903, 2880, 2910, 2916, 2857, 2865, 2824, 2857, 2868, 2866, 2865, 2849, 2844, 2851, 2826, 2876, 2858, 2876, 2857, 2883, 2828, 2857, 2865, 2873, 2855, 2897, 2883, 2874, 2883, 2859, 2873, 2841, 2856, 2886, 2838, 2858, 2854, 2844, 2868, 2853, 2857, 2845, 2855, 2886, 2861, 2864, 2847, 2825, 2832, 2865, 2848, 2871, 2844, 2860, 2833, 2846, 2853, 2796, 2852, 2825, 2851, 2860, 2823, 2861, 2856, 2820, 2874, 2825, 2869, 2836, 2867, 2865, 2878, 2860, 2830, 2861, 2856, 2875, 2868, 2825, 2872, 2846, 2840, 2869, 2860, 2862, 2880, 2864],
      "WindowCenter": [765.0, 764.0, 764.0, 764.0, 762.0, 762.0, 761.0, 760.0, 760.0, 760.0, 760.0, 762.0, 763.0, 763.0, 762.0, 762.0, 762.0, 763.0, 762.0, 763.0, 761.0, 761.0, 761.0, 762.0, 763.0, 763.0, 761.0, 760.0, 760.0, 760.0, 760.0, 760.0, 760.0, 761.0, 760.0, 760.0, 760.0, 761.0, 761.0, 761.0, 761.0, 761.0, 762.0, 762.0, 761.0, 760.0, 760.0, 760.0, 760.0, 761.0, 761.0, 761.0, 760.0, 760.0, 762.0, 761.0, 761.0, 759.0, 759.0, 759.0, 759.0, 760.0, 760.0, 760.0, 760.0, 760.0, 760.0, 760.0, 759.0, 759.0, 759.0, 760.0, 760.0, 761.0, 760.0, 759.0, 759.0, 759.0, 760.0, 760.0, 760.0, 760.0, 760.0, 760.0, 760.0, 761.0, 761.0, 762.0, 761.0, 760.0, 760.0, 760.0, 759.0, 758.0, 757.0, 757.0, 758.0, 759.0, 760.0, 760.0, 759.0, 759.0, 759.0, 759.0, 759.0, 759.0, 759.0, 759.0, 760.0, 760.0, 760.0, 760.0, 760.0, 760.0, 760.0, 758.0, 758.0, 758.0, 758.0, 759.0, 759.0, 759.0, 759.0, 758.0, 757.0, 758.0, 759.0, 759.0, 759.0, 758.0, 757.0, 758.0, 758.0, 758.0, 760.0, 760.0, 760.0, 759.0, 758.0, 758.0, 757.0, 757.0, 759.0, 760.0, 761.0, 760.0, 759.0, 757.0, 756.0, 757.0, 758.0, 759.0, 759.0, 759.0, 760.0, 761.0, 760.0, 759.0, 759.0, 758.0, 759.0, 758.0, 758.0, 758.0, 758.0, 757.0, 757.0, 759.0, 759.0, 759.0, 759.0, 760.0, 760.0, 759.0, 758.0, 758.0, 757.0, 757.0, 757.0, 757.0, 757.0, 757.0, 757.0, 757.0, 758.0, 758.0, 758.0, 758.0, 757.0, 757.0, 757.0, 758.0, 757.0, 758.0, 759.0, 759.0, 759.0, 759.0, 758.0, 759.0, 758.0, 757.0, 757.0, 757.0, 757.0, 757.0, 758.0, 757.0, 757.0, 757.0, 758.0, 758.0, 757.0, 757.0, 757.0, 757.0, 757.0, 757.0, 757.0, 758.0, 758.0, 759.0, 758.0, 756.0, 756.0, 755.0, 757.0, 756.0, 757.0, 757.0, 757.0, 758.0, 758.0, 756.0, 757.0, 756.0, 756.0, 756.0, 757.0, 757.0, 759.0, 759.0, 759.0, 759.0, 758.0, 756.0, 756.0, 755.0, 755.0, 755.0, 756.0, 757.0, 758.0, 757.0, 758.0, 758.0],
      "WindowWidth": [1651.0, 1650.0, 1649.0, 1649.0, 1644.0, 1643.0, 1641.0, 1639.0, 1639.0, 1638.0, 1640.0, 1643.0, 1645.0, 1646.0, 1644.0, 1644.0, 1643.0, 1646.0, 1645.0, 1645.0, 1640.0, 1640.0, 1640.0, 1644.0, 1647.0, 1645.0, 1641.0, 1639.0, 1637.0, 1638.0, 1639.0, 1639.0, 1639.0, 1640.0, 1639.0, 1638.0, 1639.0, 1640.0, 1640.0, 1642.0, 1641.0, 1640.0, 1643.0, 1644.0, 1640.0, 1637.0, 1637.0, 1638.0, 1639.0, 1641.0, 1641.0, 1641.0, 1639.0, 1639.0, 1643.0, 1641.0, 1640.0, 1636.0, 1635.0, 1636.0, 1637.0, 1638.0, 1639.0, 1638.0, 1639.0, 1638.0, 1638.0, 1639.0, 1637.0, 1636.0, 1636.0, 1637.0, 1640.0, 1641.0, 1640.0, 1637.0, 1636.0, 1637.0, 1637.0, 1639.0, 1638.0, 1638.0, 1639.0, 1638.0, 1639.0, 1641.0, 1641.0, 1643.0, 1642.0, 1638.0, 1638.0, 1638.0, 1636.0, 1633.0, 1631.0, 1631.0, 1633.0, 1635.0, 1638.0, 1637.0, 1635.0, 1635.0, 1636.0, 1636.0, 1636.0, 1635.0, 1636.0, 1637.0, 1638.0, 1638.0, 1639.0, 1639.0, 1638.0, 1638.0, 1637.0, 1634.0, 1633.0, 1633.0, 1633.0, 1636.0, 1635.0, 1636.0, 1634.0, 1632.0, 1631.0, 1633.0, 1636.0, 1636.0, 1636.0, 1633.0, 1631.0, 1632.0, 1633.0, 1634.0, 1638.0, 1639.0, 1638.0, 1636.0, 1633.0, 1632.0, 1629.0, 1631.0, 1635.0, 1639.0, 1641.0, 1638.0, 1635.0, 1629.0, 1628.0, 1630.0, 1634.0, 1636.0, 1635.0, 1636.0, 1639.0, 1640.0, 1638.0, 1636.0, 1634.0, 1634.0, 1635.0, 1633.0, 1633.0, 1633.0, 1631.0, 1630.0, 1630.0, 1635.0, 1635.0, 1635.0, 1637.0, 1638.0, 1639.0, 1636.0, 1634.0, 1632.0, 1631.0, 1631.0, 1630.0, 1630.0, 1630.0, 1630.0, 1630.0, 1631.0, 1633.0, 1633.0, 1633.0, 1633.0, 1631.0, 1630.0, 1631.0, 1632.0, 1631.0, 1634.0, 1635.0, 1636.0, 1636.0, 1634.0, 1634.0, 1634.0, 1633.0, 1631.0, 1630.0, 1631.0, 1631.0, 1631.0, 1632.0, 1631.0, 1631.0, 1631.0, 1633.0, 1633.0, 1631.0, 1630.0, 1630.0, 1629.0, 1629.0, 1630.0, 1631.0, 1632.0, 1633.0, 1635.0, 1633.0, 1628.0, 1626.0, 1626.0, 1630.0, 1628.0, 1629.0, 1629.0, 1630.0, 1633.0, 1631.0, 1629.0, 1630.0, 1627.0, 1628.0, 1628.0, 1631.0, 1631.0, 1635.0, 1635.0, 1636.0, 1636.0, 1632.0, 1628.0, 1627.0, 1626.0, 1626.0, 1625.0, 1628.0, 1630.0, 1631.0, 1631.0, 1632.0, 1633.0]
    },
    "slices": {}
  }
}