{
 "AcquisitionMatrixPE": 100,
 "AcquisitionNumber": 1,
 "AcquisitionTime": "12:12:59.042500",
 "BandwidthPerPixelPhaseEncode": 18.519,
 "BaseResolution": 100,
 "BodyPartExamined": "BRAIN",
 "ConsistencyInfo": "N4_VE11C_LATEST_20160120",
 "ConversionSoftware": "dcm2niix",
 "ConversionSoftwareVersion": "v1.0.20180622 GCC4.9.2",
 "DerivedVendorReportedEchoSpacing": 0.000539986,
 "DeviceSerialNumber": "166078",
 "DwellTime": 2.1e-06,
 "EchoTime": 0.034,
 "EchoTrainLength": 100,
 "EffectiveEchoSpacing": 0.000539986,
 "FlipAngle": 90,
 "ImageOrientationPatientDICOM": [
  0.998393,
  0.00675559,
  0.0562657,
  0.00174249,
  0.98874,
  -0.149633
 ],
 "ImageType": [
  "ORIGINAL",
  "PRIMARY",
  "M",
  "ND",
  "MOSAIC"
 ],
 "InPlanePhaseEncodingDirectionDICOM": "COL",
 "InstitutionAddress": "Street_StreetNo_Bei_Jing_District_CN_ZIP",
 "InstitutionName": "BeiJing_Normal_University",
 "InstitutionalDepartmentName": "Department",
 "MRAcquisitionType": "2D",
 "MagneticFieldStrength": 3,
 "Manufacturer": "Siemens",
 "ManufacturersModelName": "Prisma",
 "Modality": "MR",
 "MultibandAccelerationFactor": 3,
 "PartialFourier": 1,
 "PatientPosition": "HFS",
 "PercentPhaseFOV": 100,
 "PhaseEncodingDirection": "j-",
 "PhaseEncodingSteps": 100,
 "PhaseResolution": 1,
 "PixelBandwidth": 2380,
 "ProcedureStepDescription": "BNU_P2018_64CH_Zhen.ZongLei",
 "ProtocolName": "bold_100x100_s3_2x2x2_static_256",
 "PulseSequenceDetails": "%SiemensSeq%_ep2d_bold",
 "ReceiveCoilActiveElements": "HC1-7;NC1",
 "ReceiveCoilName": "HeadNeck_64",
 "ReconMatrixPE": 100,
 "RepetitionTime": 2,
 "SAR": 0.0700087,
 "ScanOptions": "FS",
 "ScanningSequence": "EP",
 "SequenceName": "_epfid2d1_100",
 "SequenceVariant": "SK",
 "SeriesDescription": "bold_100x100_s3_2x2x2_static_256",
 "SeriesNumber": 11,
 "ShimSetting": [
  -5452,
  -11487,
  -1283,
  313,
  69,
  -113,
  -156,
  113
 ],
 "SliceThickness": 2,
 "SliceTiming": [
  1.485,
  0,
  0.99,
  0.0825,
  1.0725,
  0.165,
  1.155,
  0.2475,
  1.2375,
  0.33,
  1.32,
  0.4125,
  1.4025,
  0.5775,
  1.5675,
  0.66,
  1.65,
  0.7425,
  1.7325,
  0.825,
  1.815,
  0.9075,
  1.8975,
  0.495,
  1.485,
  0,
  0.99,
  0.0825,
  1.0725,
  0.165,
  1.155,
  0.2475,
  1.2375,
  0.33,
  1.32,
  0.4125,
  1.4025,
  0.5775,
  1.5675,
  0.66,
  1.65,
  0.7425,
  1.7325,
  0.825,
  1.815,
  0.9075,
  1.8975,
  0.495,
  1.485,
  0,
  0.99,
  0.0825,
  1.0725,
  0.165,
  1.155,
  0.2475,
  1.2375,
  0.33,
  1.32,
  0.4125,
  1.4025,
  0.5775,
  1.5675,
  0.66,
  1.65,
  0.7425,
  1.7325,
  0.825,
  1.815,
  0.9075,
  1.8975,
  0.495
 ],
 "SoftwareVersions": "syngo_MR_E11",
 "SpacingBetweenSlices": 2,
 "StationName": "AWP166078",
 "TaskName": "imagenet",
 "TotalReadoutTime": 0.0534586,
 "TxRefAmp": 228.714,
 "dcmmeta_affine": [
  [
   -1.9967859983444214,
   0.003484982531517744,
   0.11328604072332382,
   98.32250213623047
  ],
  [
   -0.013511180877685547,
   1.9774800539016724,
   -0.2989814281463623,
   -83.06224822998047
  ],
  [
   0.11253141611814499,
   0.2992662489414215,
   1.9742786884307861,
   -85.91451263427734
  ],
  [
   0.0,
   0.0,
   0.0,
   1.0
  ]
 ],
 "dcmmeta_reorient_transform": [
  [
   0.0,
   -1.0,
   0.0,
   99.0
  ],
  [
   1.0,
   0.0,
   0.0,
   0.0
  ],
  [
   0.0,
   0.0,
   1.0,
   0.0
  ],
  [
   0.0,
   0.0,
   0.0,
   1.0
  ]
 ],
 "dcmmeta_shape": [
  100,
  100,
  72,
  256
 ],
 "dcmmeta_slice_dim": 2,
 "dcmmeta_version": 0.6,
 "global": {
  "const": {
   "AcquisitionMatrix": [
    100,
    0,
    0,
    100
   ],
   "AngioFlag": "N",
   "BitsAllocated": 16,
   "BitsStored": 12,
   "BodyPartExamined": "BRAIN",
   "Columns": 900,
   "EchoNumbers": 1,
   "EchoTime": 34.0,
   "EchoTrainLength": 100,
   "FlipAngle": 90.0,
   "HighBit": 11,
   "ImageOrientationPatient": [
    0.99839297484957,
    0.00675559029302,
    0.056265706881,
    0.00174249127712,
    0.98874005207592,
    -0.1496331285012
   ],
   "ImagePositionPatient": [
    -898.77588606008,
    -909.10479814853,
    18.406785720393
   ],
   "ImageType": [
    "ORIGINAL",
    "PRIMARY",
    "M",
    "ND",
    "MOSAIC"
   ],
   "ImagedNucleus": "1H",
   "ImagingFrequency": 123.257759,
   "InPlanePhaseEncodingDirection": "COL",
   "MRAcquisitionType": "2D",
   "MagneticFieldStrength": 3.0,
   "Manufacturer": "SIEMENS",
   "ManufacturerModelName": "Prisma",
   "Modality": "MR",
   "NumberOfAverages": 1.0,
   "NumberOfPhaseEncodingSteps": 100,
   "PercentPhaseFieldOfView": 100.0,
   "PercentSampling": 100.0,
   "PerformedProcedureStepStartTime": "110641.103000",
   "PhotometricInterpretation": "MONOCHROME2",
   "PixelBandwidth": 2380.0,
   "PixelRepresentation": 0,
   "PixelSpacing": [
    2.0,
    2.0
   ],
   "ProtocolName": "bold_100x100_s3_2x2x2_static_256",
   "RepetitionTime": 2000.0,
   "Rows": 900,
   "SAR": 0.07000867473645,
   "SamplesPerPixel": 1,
   "ScanOptions": "FS",
   "ScanningSequence": "EP",
   "SequenceName": "*epfid2d1_100",
   "SequenceVariant": "SK",
   "SeriesDescription": "bold_100x100_s3_2x2x2_static_256",
   "SeriesNumber": 11,
   "SeriesTime": "121301.578000",
   "SliceLocation": -66.823277587386,
   "SliceThickness": 2.0,
   "SmallestImagePixelValue": 0,
   "SoftwareVersions": "syngo MR E11",
   "SpacingBetweenSlices": 2.0000000302302,
   "SpecificCharacterSet": "ISO_IR 100",
   "StudyID": "1",
   "StudyTime": "110641.031000",
   "TransmitCoilName": "Body",
   "VariableFlipAngleFlag": "N",
   "WindowCenterWidthExplanation": "Algo1",
   "dBdt": 0.0
  },
  "slices": {}
 },
 "time": {
  "samples": {
   "AcquisitionNumber": [
    1,
    2,
    3,
    4,
    5,
    6,
    7,
    8,
    9,
    10,
    11,
    12,
    13,
    14,
    15,
    16,
    17,
    18,
    19,
    20,
    21,
    22,
    23,
    24,
    25,
    26,
    27,
    28,
    29,
    30,
    31,
    32,
    33,
    34,
    35,
    36,
    37,
    38,
    39,
    40,
    41,
    42,
    43,
    44,
    45,
    46,
    47,
    48,
    49,
    50,
    51,
    52,
    53,
    54,
    55,
    56,
    57,
    58,
    59,
    60,
    61,
    62,
    63,
    64,
    65,
    66,
    67,
    68,
    69,
    70,
    71,
    72,
    73,
    74,
    75,
    76,
    77,
    78,
    79,
    80,
    81,
    82,
    83,
    84,
    85,
    86,
    87,
    88,
    89,
    90,
    91,
    92,
    93,
    94,
    95,
    96,
    97,
    98,
    99,
    100,
    101,
    102,
    103,
    104,
    105,
    106,
    107,
    108,
    109,
    110,
    111,
    112,
    113,
    114,
    115,
    116,
    117,
    118,
    119,
    120,
    121,
    122,
    123,
    124,
    125,
    126,
    127,
    128,
    129,
    130,
    131,
    132,
    133,
    134,
    135,
    136,
    137,
    138,
    139,
    140,
    141,
    142,
    143,
    144,
    145,
    146,
    147,
    148,
    149,
    150,
    151,
    152,
    153,
    154,
    155,
    156,
    157,
    158,
    159,
    160,
    161,
    162,
    163,
    164,
    165,
    166,
    167,
    168,
    169,
    170,
    171,
    172,
    173,
    174,
    175,
    176,
    177,
    178,
    179,
    180,
    181,
    182,
    183,
    184,
    185,
    186,
    187,
    188,
    189,
    190,
    191,
    192,
    193,
    194,
    195,
    196,
    197,
    198,
    199,
    200,
    201,
    202,
    203,
    204,
    205,
    206,
    207,
    208,
    209,
    210,
    211,
    212,
    213,
    214,
    215,
    216,
    217,
    218,
    219,
    220,
    221,
    222,
    223,
    224,
    225,
    226,
    227,
    228,
    229,
    230,
    231,
    232,
    233,
    234,
    235,
    236,
    237,
    238,
    239,
    240,
    241,
    242,
    243,
    244,
    245,
    246,
    247,
    248,
    249,
    250,
    251,
    252,
    253,
    254,
    255,
    256
   ],
   "AcquisitionTime": [
    "121259.042500",
    "121301.042500",
    "121303.042500",
    "121305.042500",
    "121307.042500",
    "121309.042500",
    "121311.042500",
    "121313.042500",
    "121315.042500",
    "121317.042500",
    "121319.042500",
    "121321.042500",
    "121323.042500",
    "121325.042500",
    "121327.042500",
    "121329.042500",
    "121331.042500",
    "121333.042500",
    "121335.042500",
    "121337.042500",
    "121339.042500",
    "121341.042500",
    "121343.042500",
    "121345.042500",
    "121347.042500",
    "121349.042500",
    "121351.042500",
    "121353.042500",
    "121355.042500",
    "121357.042500",
    "121359.042500",
    "121401.042500",
    "121403.042500",
    "121405.042500",
    "121407.042500",
    "121409.042500",
    "121411.042500",
    "121413.042500",
    "121415.042500",
    "121417.042500",
    "121419.042500",
    "121421.042500",
    "121423.042500",
    "121425.042500",
    "121427.042500",
    "121429.042500",
    "121431.042500",
    "121433.042500",
    "121435.042500",
    "121437.042500",
    "121439.042500",
    "121441.042500",
    "121443.042500",
    "121445.042500",
    "121447.042500",
    "121449.042500",
    "121451.042500",
    "121453.042500",
    "121455.042500",
    "121457.042500",
    "121459.042500",
    "121501.042500",
    "121503.042500",
    "121505.042500",
    "121507.042500",
    "121509.042500",
    "121511.042500",
    "121513.042500",
    "121515.042500",
    "121517.042500",
    "121519.042500",
    "121521.042500",
    "121523.042500",
    "121525.042500",
    "121527.042500",
    "121529.042500",
    "121531.042500",
    "121533.042500",
    "121535.042500",
    "121537.042500",
    "121539.042500",
    "121541.042500",
    "121543.042500",
    "121545.042500",
    "121547.042500",
    "121549.042500",
    "121551.042500",
    "121553.042500",
    "121555.042500",
    "121557.042500",
    "121559.042500",
    "121601.042500",
    "121603.042500",
    "121605.042500",
    "121607.042500",
    "121609.042500",
    "121611.042500",
    "121613.042500",
    "121615.042500",
    "121617.042500",
    "121619.042500",
    "121621.042500",
    "121623.042500",
    "121625.042500",
    "121627.042500",
    "121629.042500",
    "121631.042500",
    "121633.042500",
    "121635.042500",
    "121637.042500",
    "121639.042500",
    "121641.042500",
    "121643.042500",
    "121645.042500",
    "121647.042500",
    "121649.042500",
    "121651.042500",
    "121653.042500",
    "121655.042500",
    "121657.042500",
    "121659.042500",
    "121701.042500",
    "121703.042500",
    "121705.042500",
    "121707.042500",
    "121709.042500",
    "121711.042500",
    "121713.042500",
    "121715.042500",
    "121717.042500",
    "121719.042500",
    "121721.042500",
    "121723.042500",
    "121725.042500",
    "121727.042500",
    "121729.042500",
    "121731.042500",
    "121733.042500",
    "121735.042500",
    "121737.042500",
    "121739.042500",
    "121741.042500",
    "121743.042500",
    "121745.042500",
    "121747.042500",
    "121749.042500",
    "121751.042500",
    "121753.042500",
    "121755.042500",
    "121757.042500",
    "121759.042500",
    "121801.042500",
    "121803.042500",
    "121805.042500",
    "121807.042500",
    "121809.042500",
    "121811.042500",
    "121813.042500",
    "121815.042500",
    "121817.042500",
    "121819.042500",
    "121821.042500",
    "121823.042500",
    "121825.042500",
    "121827.042500",
    "121829.042500",
    "121831.042500",
    "121833.042500",
    "121835.042500",
    "121837.042500",
    "121839.042500",
    "121841.042500",
    "121843.042500",
    "121845.042500",
    "121847.042500",
    "121849.042500",
    "121851.042500",
    "121853.042500",
    "121855.042500",
    "121857.042500",
    "121859.042500",
    "121901.042500",
    "121903.042500",
    "121905.042500",
    "121907.042500",
    "121909.042500",
    "121911.042500",
    "121913.042500",
    "121915.042500",
    "121917.042500",
    "121919.042500",
    "121921.042500",
    "121923.042500",
    "121925.042500",
    "121927.042500",
    "121929.042500",
    "121931.042500",
    "121933.042500",
    "121935.042500",
    "121937.042500",
    "121939.042500",
    "121941.042500",
    "121943.042500",
    "121945.042500",
    "121947.042500",
    "121949.042500",
    "121951.042500",
    "121953.042500",
    "121955.042500",
    "121957.042500",
    "121959.042500",
    "122001.042500",
    "122003.042500",
    "122005.042500",
    "122007.042500",
    "122009.042500",
    "122011.042500",
    "122013.042500",
    "122015.042500",
    "122017.042500",
    "122019.042500",
    "122021.042500",
    "122023.042500",
    "122025.042500",
    "122027.042500",
    "122029.042500",
    "122031.042500",
    "122033.042500",
    "122035.042500",
    "122037.042500",
    "122039.042500",
    "122041.042500",
    "122043.042500",
    "122045.042500",
    "122047.042500",
    "122049.042500",
    "122051.042500",
    "122053.042500",
    "122055.042500",
    "122057.042500",
    "122059.042500",
    "122101.042500",
    "122103.042500",
    "122105.042500",
    "122107.042500",
    "122109.042500",
    "122111.042500",
    "122113.042500",
    "122115.042500",
    "122117.042500",
    "122119.042500",
    "122121.042500",
    "122123.042500",
    "122125.042500",
    "122127.042500",
    "122129.042500"
   ],
   "ContentTime": [
    "121301.582000",
    "121303.077000",
    "121305.077000",
    "121307.079000",
    "121309.578000",
    "121311.578000",
    "121313.579000",
    "121315.578000",
    "121317.077000",
    "121319.578000",
    "121321.577000",
    "121323.079000",
    "121325.078000",
    "121327.079000",
    "121329.079000",
    "121331.578000",
    "121333.078000",
    "121335.578000",
    "121337.077000",
    "121339.578000",
    "121341.578000",
    "121343.079000",
    "121345.078000",
    "121347.079000",
    "121349.079000",
    "121351.079000",
    "121353.577000",
    "121355.078000",
    "121357.577000",
    "121359.578000",
    "121401.079000",
    "121403.079000",
    "121405.579000",
    "121407.578000",
    "121409.078000",
    "121411.578000",
    "121413.578000",
    "121415.078000",
    "121417.578000",
    "121419.578000",
    "121421.079000",
    "121423.579000",
    "121425.578000",
    "121427.577000",
    "121429.577000",
    "121431.578000",
    "121433.578000",
    "121435.578000",
    "121437.578000",
    "121439.079000",
    "121441.578000",
    "121443.578000",
    "121445.078000",
    "121447.577000",
    "121449.578000",
    "121451.079000",
    "121453.578000",
    "121455.078000",
    "121457.579000",
    "121459.078000",
    "121501.078000",
    "121503.077000",
    "121505.577000",
    "121507.577000",
    "121509.079000",
    "121511.079000",
    "121513.078000",
    "121515.079000",
    "121517.578000",
    "121519.578000",
    "121521.078000",
    "121523.577000",
    "121525.077000",
    "121527.578000",
    "121529.079000",
    "121531.579000",
    "121533.078000",
    "121535.578000",
    "121537.577000",
    "121539.077000",
    "121541.078000",
    "121543.578000",
    "121545.579000",
    "121547.079000",
    "121549.079000",
    "121551.079000",
    "121553.078000",
    "121555.578000",
    "121557.077000",
    "121559.577000",
    "121601.079000",
    "121603.579000",
    "121605.578000",
    "121607.078000",
    "121609.578000",
    "121611.579000",
    "121613.078000",
    "121615.577000",
    "121617.078000",
    "121619.578000",
    "121621.578000",
    "121623.578000",
    "121625.079000",
    "121627.079000",
    "121629.578000",
    "121631.077000",
    "121633.577000",
    "121635.579000",
    "121637.578000",
    "121639.579000",
    "121641.078000",
    "121643.578000",
    "121645.079000",
    "121647.078000",
    "121649.578000",
    "121651.578000",
    "121653.079000",
    "121655.579000",
    "121657.578000",
    "121659.578000",
    "121701.578000",
    "121703.079000",
    "121705.578000",
    "121707.577000",
    "121709.577000",
    "121711.578000",
    "121713.579000",
    "121715.078000",
    "121717.078000",
    "121719.079000",
    "121721.579000",
    "121723.578000",
    "121725.577000",
    "121727.578000",
    "121729.578000",
    "121731.579000",
    "121733.079000",
    "121735.579000",
    "121737.578000",
    "121739.577000",
    "121741.578000",
    "121743.078000",
    "121745.579000",
    "121747.579000",
    "121749.579000",
    "121751.578000",
    "121753.579000",
    "121755.079000",
    "121757.078000",
    "121759.078000",
    "121801.077000",
    "121803.079000",
    "121805.579000",
    "121807.578000",
    "121809.578000",
    "121811.579000",
    "121813.578000",
    "121815.077000",
    "121817.078000",
    "121819.077000",
    "121821.578000",
    "121823.579000",
    "121825.079000",
    "121827.579000",
    "121829.079000",
    "121831.579000",
    "121833.577000",
    "121835.077000",
    "121837.077000",
    "121839.578000",
    "121841.578000",
    "121843.078000",
    "121845.579000",
    "121847.578000",
    "121849.578000",
    "121851.077000",
    "121853.578000",
    "121855.578000",
    "121857.078000",
    "121859.079000",
    "121901.579000",
    "121903.579000",
    "121905.079000",
    "121907.078000",
    "121909.577000",
    "121911.077000",
    "121913.579000",
    "121915.579000",
    "121917.579000",
    "121919.079000",
    "121921.078000",
    "121923.079000",
    "121925.077000",
    "121927.578000",
    "121929.078000",
    "121931.578000",
    "121933.079000",
    "121935.579000",
    "121937.583000",
    "121939.578000",
    "121941.578000",
    "121943.577000",
    "121945.578000",
    "121947.578000",
    "121949.578000",
    "121951.578000",
    "121953.079000",
    "121955.078000",
    "121957.578000",
    "121959.079000",
    "122001.078000",
    "122003.578000",
    "122005.579000",
    "122007.579000",
    "122009.579000",
    "122011.578000",
    "122013.578000",
    "122015.578000",
    "122017.578000",
    "122019.577000",
    "122021.577000",
    "122023.078000",
    "122025.579000",
    "122027.079000",
    "122029.579000",
    "122031.578000",
    "122033.579000",
    "122035.577000",
    "122037.578000",
    "122039.078000",
    "122041.579000",
    "122043.579000",
    "122045.078000",
    "122047.079000",
    "122049.579000",
    "122051.577000",
    "122053.078000",
    "122055.078000",
    "122057.078000",
    "122059.579000",
    "122101.079000",
    "122103.079000",
    "122105.578000",
    "122107.579000",
    "122109.577000",
    "122111.578000",
    "122113.577000",
    "122115.079000",
    "122117.579000",
    "122119.579000",
    "122121.079000",
    "122123.579000",
    "122125.079000",
    "122127.578000",
    "122129.078000",
    "122131.027000"
   ],
   "InstanceCreationTime": [
    "121301.582000",
    "121303.077000",
    "121305.077000",
    "121307.079000",
    "121309.578000",
    "121311.578000",
    "121313.579000",
    "121315.578000",
    "121317.077000",
    "121319.578000",
    "121321.577000",
    "121323.079000",
    "121325.078000",
    "121327.079000",
    "121329.079000",
    "121331.578000",
    "121333.078000",
    "121335.578000",
    "121337.077000",
    "121339.578000",
    "121341.578000",
    "121343.079000",
    "121345.078000",
    "121347.079000",
    "121349.079000",
    "121351.079000",
    "121353.577000",
    "121355.078000",
    "121357.577000",
    "121359.578000",
    "121401.079000",
    "121403.079000",
    "121405.579000",
    "121407.578000",
    "121409.078000",
    "121411.578000",
    "121413.578000",
    "121415.078000",
    "121417.578000",
    "121419.578000",
    "121421.079000",
    "121423.579000",
    "121425.578000",
    "121427.577000",
    "121429.577000",
    "121431.578000",
    "121433.578000",
    "121435.578000",
    "121437.578000",
    "121439.079000",
    "121441.578000",
    "121443.578000",
    "121445.078000",
    "121447.577000",
    "121449.578000",
    "121451.079000",
    "121453.578000",
    "121455.078000",
    "121457.579000",
    "121459.078000",
    "121501.078000",
    "121503.077000",
    "121505.577000",
    "121507.577000",
    "121509.079000",
    "121511.079000",
    "121513.078000",
    "121515.079000",
    "121517.578000",
    "121519.578000",
    "121521.078000",
    "121523.577000",
    "121525.077000",
    "121527.578000",
    "121529.079000",
    "121531.579000",
    "121533.078000",
    "121535.578000",
    "121537.577000",
    "121539.077000",
    "121541.078000",
    "121543.578000",
    "121545.579000",
    "121547.079000",
    "121549.079000",
    "121551.079000",
    "121553.078000",
    "121555.578000",
    "121557.077000",
    "121559.577000",
    "121601.079000",
    "121603.579000",
    "121605.578000",
    "121607.078000",
    "121609.578000",
    "121611.579000",
    "121613.078000",
    "121615.577000",
    "121617.078000",
    "121619.578000",
    "121621.578000",
    "121623.578000",
    "121625.079000",
    "121627.079000",
    "121629.578000",
    "121631.077000",
    "121633.577000",
    "121635.579000",
    "121637.578000",
    "121639.579000",
    "121641.078000",
    "121643.578000",
    "121645.079000",
    "121647.078000",
    "121649.578000",
    "121651.578000",
    "121653.079000",
    "121655.579000",
    "121657.578000",
    "121659.578000",
    "121701.578000",
    "121703.079000",
    "121705.578000",
    "121707.577000",
    "121709.577000",
    "121711.578000",
    "121713.579000",
    "121715.078000",
    "121717.078000",
    "121719.079000",
    "121721.579000",
    "121723.578000",
    "121725.577000",
    "121727.578000",
    "121729.578000",
    "121731.579000",
    "121733.079000",
    "121735.579000",
    "121737.578000",
    "121739.577000",
    "121741.578000",
    "121743.078000",
    "121745.579000",
    "121747.579000",
    "121749.579000",
    "121751.578000",
    "121753.579000",
    "121755.079000",
    "121757.078000",
    "121759.078000",
    "121801.077000",
    "121803.079000",
    "121805.579000",
    "121807.578000",
    "121809.578000",
    "121811.579000",
    "121813.578000",
    "121815.077000",
    "121817.078000",
    "121819.077000",
    "121821.578000",
    "121823.579000",
    "121825.079000",
    "121827.579000",
    "121829.079000",
    "121831.579000",
    "121833.577000",
    "121835.077000",
    "121837.077000",
    "121839.578000",
    "121841.578000",
    "121843.078000",
    "121845.579000",
    "121847.578000",
    "121849.578000",
    "121851.077000",
    "121853.578000",
    "121855.578000",
    "121857.078000",
    "121859.079000",
    "121901.579000",
    "121903.579000",
    "121905.079000",
    "121907.078000",
    "121909.577000",
    "121911.077000",
    "121913.579000",
    "121915.579000",
    "121917.579000",
    "121919.079000",
    "121921.078000",
    "121923.079000",
    "121925.077000",
    "121927.578000",
    "121929.078000",
    "121931.578000",
    "121933.079000",
    "121935.579000",
    "121937.583000",
    "121939.578000",
    "121941.578000",
    "121943.577000",
    "121945.578000",
    "121947.578000",
    "121949.578000",
    "121951.578000",
    "121953.079000",
    "121955.078000",
    "121957.578000",
    "121959.079000",
    "122001.078000",
    "122003.578000",
    "122005.579000",
    "122007.579000",
    "122009.579000",
    "122011.578000",
    "122013.578000",
    "122015.578000",
    "122017.578000",
    "122019.577000",
    "122021.577000",
    "122023.078000",
    "122025.579000",
    "122027.079000",
    "122029.579000",
    "122031.578000",
    "122033.579000",
    "122035.577000",
    "122037.578000",
    "122039.078000",
    "122041.579000",
    "122043.579000",
    "122045.078000",
    "122047.079000",
    "122049.579000",
    "122051.577000",
    "122053.078000",
    "122055.078000",
    "122057.078000",
    "122059.579000",
    "122101.079000",
    "122103.079000",
    "122105.578000",
    "122107.579000",
    "122109.577000",
    "122111.578000",
    "122113.577000",
    "122115.079000",
    "122117.579000",
    "122119.579000",
    "122121.079000",
    "122123.579000",
    "122125.079000",
    "122127.578000",
    "122129.078000",
    "122131.027000"
   ],
   "InstanceNumber": [
    1,
    2,
    3,
    4,
    5,
    6,
    7,
    8,
    9,
    10,
    11,
    12,
    13,
    14,
    15,
    16,
    17,
    18,
    19,
    20,
    21,
    22,
    23,
    24,
    25,
    26,
    27,
    28,
    29,
    30,
    31,
    32,
    33,
    34,
    35,
    36,
    37,
    38,
    39,
    40,
    41,
    42,
    43,
    44,
    45,
    46,
    47,
    48,
    49,
    50,
    51,
    52,
    53,
    54,
    55,
    56,
    57,
    58,
    59,
    60,
    61,
    62,
    63,
    64,
    65,
    66,
    67,
    68,
    69,
    70,
    71,
    72,
    73,
    74,
    75,
    76,
    77,
    78,
    79,
    80,
    81,
    82,
    83,
    84,
    85,
    86,
    87,
    88,
    89,
    90,
    91,
    92,
    93,
    94,
    95,
    96,
    97,
    98,
    99,
    100,
    101,
    102,
    103,
    104,
    105,
    106,
    107,
    108,
    109,
    110,
    111,
    112,
    113,
    114,
    115,
    116,
    117,
    118,
    119,
    120,
    121,
    122,
    123,
    124,
    125,
    126,
    127,
    128,
    129,
    130,
    131,
    132,
    133,
    134,
    135,
    136,
    137,
    138,
    139,
    140,
    141,
    142,
    143,
    144,
    145,
    146,
    147,
    148,
    149,
    150,
    151,
    152,
    153,
    154,
    155,
    156,
    157,
    158,
    159,
    160,
    161,
    162,
    163,
    164,
    165,
    166,
    167,
    168,
    169,
    170,
    171,
    172,
    173,
    174,
    175,
    176,
    177,
    178,
    179,
    180,
    181,
    182,
    183,
    184,
    185,
    186,
    187,
    188,
    189,
    190,
    191,
    192,
    193,
    194,
    195,
    196,
    197,
    198,
    199,
    200,
    201,
    202,
    203,
    204,
    205,
    206,
    207,
    208,
    209,
    210,
    211,
    212,
    213,
    214,
    215,
    216,
    217,
    218,
    219,
    220,
    221,
    222,
    223,
    224,
    225,
    226,
    227,
    228,
    229,
    230,
    231,
    232,
    233,
    234,
    235,
    236,
    237,
    238,
    239,
    240,
    241,
    242,
    243,
    244,
    245,
    246,
    247,
    248,
    249,
    250,
    251,
    252,
    253,
    254,
    255,
    256
   ],
   "LargestImagePixelValue": [
    3531,
    3474,
    3400,
    3497,
    3445,
    3468,
    3467,
    3450,
    3458,
    3442,
    3482,
    3467,
    3446,
    3468,
    3489,
    3458,
    3485,
    3422,
    3499,
    3429,
    3492,
    3467,
    3511,
    3471,
    3477,
    3488,
    3503,
    3485,
    3483,
    3485,
    3508,
    3463,
    3501,
    3477,
    3433,
    3471,
    3424,
    3474,
    3462,
    3502,
    3465,
    3527,
    3495,
    3535,
    3508,
    3488,
    3475,
    3472,
    3502,
    3500,
    3512,
    3503,
    3532,
    3483,
    3475,
    3479,
    3508,
    3474,
    3507,
    3454,
    3511,
    3511,
    3491,
    3507,
    3496,
    3502,
    3484,
    3488,
    3503,
    3510,
    3506,
    3528,
    3506,
    3505,
    3506,
    3523,
    3481,
    3506,
    3520,
    3516,
    3530,
    3518,
    3543,
    3503,
    3541,
    3540,
    3546,
    3494,
    3495,
    3519,
    3538,
    3545,
    3536,
    3538,
    3551,
    3521,
    3555,
    3532,
    3543,
    3536,
    3568,
    3540,
    3504,
    3503,
    3577,
    3562,
    3527,
    3541,
    3539,
    3553,
    3550,
    3588,
    3530,
    3603,
    3549,
    3581,
    3543,
    3562,
    3540,
    3600,
    3592,
    3551,
    3574,
    3560,
    3540,
    3592,
    3533,
    3595,
    3550,
    3597,
    3597,
    3585,
    3575,
    3523,
    3553,
    3584,
    3568,
    3609,
    3537,
    3582,
    3578,
    3606,
    3565,
    3591,
    3553,
    3617,
    3581,
    3589,
    3583,
    3603,
    3598,
    3578,
    3588,
    3575,
    3587,
    3583,
    3621,
    3571,
    3592,
    3552,
    3588,
    3563,
    3526,
    3565,
    3587,
    3613,
    3603,
    3610,
    3618,
    3597,
    3595,
    3591,
    3585,
    3584,
    3581,
    3543,
    3581,
    3588,
    3569,
    3595,
    3583,
    3606,
    3600,
    3602,
    3606,
    3579,
    3576,
    3569,
    3609,
    3568,
    3579,
    3586,
    3556,
    3550,
    3594,
    3592,
    3596,
    3605,
    3588,
    3592,
    3597,
    3606,
    3594,
    3585,
    3586,
    3564,
    3512,
    3594,
    3556,
    3542,
    3561,
    3575,
    3582,
    3603,
    3543,
    3533,
    3549,
    3590,
    3587,
    3578,
    3631,
    3565,
    3576,
    3562,
    3544,
    3570,
    3607,
    3540,
    3530,
    3538,
    3538,
    3582,
    3555,
    3604,
    3565,
    3619,
    3544,
    3585,
    3549,
    3536,
    3524,
    3561,
    3544,
    3573,
    3553,
    3580,
    3531,
    3548,
    3585,
    3507,
    3597,
    3563,
    3583,
    3580,
    3592,
    3546
   ],
   "WindowCenter": [
    804.0,
    802.0,
    802.0,
    802.0,
    802.0,
    803.0,
    804.0,
    806.0,
    806.0,
    806.0,
    806.0,
    806.0,
    805.0,
    805.0,
    806.0,
    806.0,
    808.0,
    809.0,
    809.0,
    807.0,
    806.0,
    805.0,
    806.0,
    807.0,
    806.0,
    805.0,
    805.0,
    805.0,
    806.0,
    807.0,
    808.0,
    807.0,
    807.0,
    806.0,
    809.0,
    811.0,
    809.0,
    807.0,
    806.0,
    805.0,
    805.0,
    805.0,
    805.0,
    805.0,
    806.0,
    808.0,
    808.0,
    807.0,
    806.0,
    805.0,
    805.0,
    804.0,
    805.0,
    805.0,
    805.0,
    804.0,
    805.0,
    808.0,
    808.0,
    805.0,
    804.0,
    804.0,
    804.0,
    805.0,
    807.0,
    807.0,
    808.0,
    807.0,
    806.0,
    805.0,
    806.0,
    805.0,
    805.0,
    805.0,
    805.0,
    806.0,
    805.0,
    806.0,
    806.0,
    806.0,
    806.0,
    805.0,
    806.0,
    805.0,
    804.0,
    805.0,
    807.0,
    807.0,
    806.0,
    804.0,
    804.0,
    804.0,
    803.0,
    803.0,
    804.0,
    805.0,
    806.0,
    807.0,
    806.0,
    805.0,
    806.0,
    807.0,
    807.0,
    805.0,
    804.0,
    803.0,
    804.0,
    805.0,
    804.0,
    804.0,
