{
  "AcquisitionMatrixPE": 100,
  "AcquisitionNumber": 1,
  "AcquisitionTime": "12:41:57.680000",
  "BandwidthPerPixelPhaseEncode": 18.519,
  "BaseResolution": 100,
  "BodyPartExamined": "BRAIN",
  "ConsistencyInfo": "N4_VE11C_LATEST_20160120",
  "ConversionSoftware": "dcm2niix",
  "ConversionSoftwareVersion": "v1.0.20180622 GCC4.9.2",
  "DerivedVendorReportedEchoSpacing": 0.000539986,
  "DeviceSerialNumber": "166078",
  "DwellTime": 2.1e-06,
  "EchoTime": 0.034,
  "EchoTrainLength": 100,
  "EffectiveEchoSpacing": 0.000539986,
  "FlipAngle": 90,
  "ImageOrientationPatientDICOM": [0.998393, 0.00675559, 0.0562657, 0.00174249, 0.98874, -0.149633],
  "ImageType": [
    "ORIGINAL",
    "PRIMARY",
    "M",
    "ND",
    "MOSAIC"
],
  "InPlanePhaseEncodingDirectionDICOM": "COL",
  "InstitutionAddress": "Street_StreetNo_Bei_Jing_District_CN_ZIP",
  "InstitutionName": "BeiJing_Normal_University",
  "InstitutionalDepartmentName": "Department",
  "MRAcquisitionType": "2D",
  "MagneticFieldStrength": 3,
  "Manufacturer": "Siemens",
  "ManufacturersModelName": "Prisma",
  "Modality": "MR",
  "MultibandAccelerationFactor": 3,
  "PartialFourier": 1,
  "PatientPosition": "HFS",
  "PercentPhaseFOV": 100,
  "PhaseEncodingDirection": "j-",
  "PhaseEncodingSteps": 100,
  "PhaseResolution": 1,
  "PixelBandwidth": 2380,
  "ProcedureStepDescription": "BNU_P2018_64CH_Zhen.ZongLei",
  "ProtocolName": "bold_100x100_s3_2x2x2_static_256",
  "PulseSequenceDetails": "%SiemensSeq%_ep2d_bold",
  "ReceiveCoilActiveElements": "HC1-7;NC1",
  "ReceiveCoilName": "HeadNeck_64",
  "ReconMatrixPE": 100,
  "RepetitionTime": 2,
  "SAR": 0.0700087,
  "ScanOptions": "FS",
  "ScanningSequence": "EP",
  "SequenceName": "_epfid2d1_100",
  "SequenceVariant": "SK",
  "SeriesDescription": "bold_100x100_s3_2x2x2_static_256",
  "SeriesNumber": 14,
  "ShimSetting": [-5452, -11487, -1283, 313, 69, -113, -156, 113],
  "SliceThickness": 2,
  "SliceTiming": [1.485, 0, 0.99, 0.0825, 1.0725, 0.165, 1.155, 0.2475, 1.2375, 0.33, 1.32, 0.4125, 1.4025, 0.5775, 1.5675, 0.66, 1.65, 0.7425, 1.7325, 0.825, 1.815, 0.9075, 1.8975, 0.495, 1.485, 0, 0.99, 0.0825, 1.0725, 0.165, 1.155, 0.2475, 1.2375, 0.33, 1.32, 0.4125, 1.4025, 0.5775, 1.5675, 0.66, 1.65, 0.7425, 1.7325, 0.825, 1.815, 0.9075, 1.8975, 0.495, 1.485, 0, 0.99, 0.0825, 1.0725, 0.165, 1.155, 0.2475, 1.2375, 0.33, 1.32, 0.4125, 1.4025, 0.5775, 1.5675, 0.66, 1.65, 0.7425, 1.7325, 0.825, 1.815, 0.9075, 1.8975, 0.495],
  "SoftwareVersions": "syngo_MR_E11",
  "SpacingBetweenSlices": 2,
  "StationName": "AWP166078",
  "TaskName": "naturalvision",
  "TotalReadoutTime": 0.0534586,
  "TxRefAmp": 228.714,
  "dcmmeta_affine": [
    [-1.9967859983444214, 0.003484982531517744, 0.11328604072332382, 98.32250213623047],
    [-0.013511180877685547, 1.9774800539016724, -0.2989814281463623, -83.06224822998047],
    [0.11253141611814499, 0.2992662489414215, 1.9742786884307861, -85.91451263427734],
    [0.0, 0.0, 0.0, 1.0]
],
  "dcmmeta_reorient_transform": [
    [0.0, -1.0, 0.0, 99.0],
    [1.0, 0.0, 0.0, 0.0],
    [0.0, 0.0, 1.0, 0.0],
    [0.0, 0.0, 0.0, 1.0]
],
  "dcmmeta_shape": [100, 100, 72, 256],
  "dcmmeta_slice_dim": 2,
  "dcmmeta_version": 0.6,
  "global": {
    "const": {
      "AcquisitionMatrix": [100, 0, 0, 100],
      "AngioFlag": "N",
      "BitsAllocated": 16,
      "BitsStored": 12,
      "BodyPartExamined": "BRAIN",
      "Columns": 900,
      "EchoNumbers": 1,
      "EchoTime": 34.0,
      "EchoTrainLength": 100,
      "FlipAngle": 90.0,
      "HighBit": 11,
      "ImageOrientationPatient": [0.99839297484957, 0.00675559029302, 0.056265706881, 0.00174249127712, 0.98874005207592, -0.1496331285012],
      "ImagePositionPatient": [-898.77588606008, -909.10479814853, 18.406785720393],
      "ImageType": [
        "ORIGINAL",
        "PRIMARY",
        "M",
        "ND",
        "MOSAIC"
],
      "ImagedNucleus": "1H",
      "ImagingFrequency": 123.257764,
      "InPlanePhaseEncodingDirection": "COL",
      "MRAcquisitionType": "2D",
      "MagneticFieldStrength": 3.0,
      "Manufacturer": "SIEMENS",
      "ManufacturerModelName": "Prisma",
      "Modality": "MR",
      "NumberOfAverages": 1.0,
      "NumberOfPhaseEncodingSteps": 100,
      "PercentPhaseFieldOfView": 100.0,
      "PercentSampling": 100.0,
      "PerformedProcedureStepStartTime": "110641.103000",
      "PhotometricInterpretation": "MONOCHROME2",
      "PixelBandwidth": 2380.0,
      "PixelRepresentation": 0,
      "PixelSpacing": [2.0, 2.0],
      "ProtocolName": "bold_100x100_s3_2x2x2_static_256",
      "RepetitionTime": 2000.0,
      "Rows": 900,
      "SAR": 0.07000867473645,
      "SamplesPerPixel": 1,
      "ScanOptions": "FS",
      "ScanningSequence": "EP",
      "SequenceName": "*epfid2d1_100",
      "SequenceVariant": "SK",
      "SeriesDescription": "bold_100x100_s3_2x2x2_static_256",
      "SeriesNumber": 14,
      "SeriesTime": "124200.651000",
      "SliceLocation": -66.823277587386,
      "SliceThickness": 2.0,
      "SmallestImagePixelValue": 0,
      "SoftwareVersions": "syngo MR E11",
      "SpacingBetweenSlices": 2.0000000302302,
      "SpecificCharacterSet": "ISO_IR 100",
      "StudyID": "1",
      "StudyTime": "110641.031000",
      "TransmitCoilName": "Body",
      "VariableFlipAngleFlag": "N",
      "WindowCenterWidthExplanation": "Algo1",
      "dBdt": 0.0},
    "slices": {}
  },
  "time": {
    "samples": {
      "AcquisitionNumber": [1, 2, 3, 4, 5, 6, 7, 8, 9, 10, 11, 12, 13, 14, 15, 16, 17, 18, 19, 20, 21, 22, 23, 24, 25, 26, 27, 28, 29, 30, 31, 32, 33, 34, 35, 36, 37, 38, 39, 40, 41, 42, 43, 44, 45, 46, 47, 48, 49, 50, 51, 52, 53, 54, 55, 56, 57, 58, 59, 60, 61, 62, 63, 64, 65, 66, 67, 68, 69, 70, 71, 72, 73, 74, 75, 76, 77, 78, 79, 80, 81, 82, 83, 84, 85, 86, 87, 88, 89, 90, 91, 92, 93, 94, 95, 96, 97, 98, 99, 100, 101, 102, 103, 104, 105, 106, 107, 108, 109, 110, 111, 112, 113, 114, 115, 116, 117, 118, 119, 120, 121, 122, 123, 124, 125, 126, 127, 128, 129, 130, 131, 132, 133, 134, 135, 136, 137, 138, 139, 140, 141, 142, 143, 144, 145, 146, 147, 148, 149, 150, 151, 152, 153, 154, 155, 156, 157, 158, 159, 160, 161, 162, 163, 164, 165, 166, 167, 168, 169, 170, 171, 172, 173, 174, 175, 176, 177, 178, 179, 180, 181, 182, 183, 184, 185, 186, 187, 188, 189, 190, 191, 192, 193, 194, 195, 196, 197, 198, 199, 200, 201, 202, 203, 204, 205, 206, 207, 208, 209, 210, 211, 212, 213, 214, 215, 216, 217, 218, 219, 220, 221, 222, 223, 224, 225, 226, 227, 228, 229, 230, 231, 232, 233, 234, 235, 236, 237, 238, 239, 240, 241, 242, 243, 244, 245, 246, 247, 248, 249, 250, 251, 252, 253, 254, 255, 256],
      "AcquisitionTime": ["124157.680000", "124159.680000", "124201.680000", "124203.680000", "124205.680000", "124207.680000", "124209.680000", "124211.680000", "124213.680000", "124215.680000", "124217.680000", "124219.680000", "124221.680000", "124223.680000", "124225.680000", "124227.680000", "124229.680000", "124231.680000", "124233.680000", "124235.680000", "124237.680000", "124239.680000", "124241.680000", "124243.680000", "124245.680000", "124247.680000", "124249.680000", "124251.680000", "124253.680000", "124255.680000", "124257.680000", "124259.680000", "124301.680000", "124303.680000", "124305.680000", "124307.680000", "124309.680000", "124311.680000", "124313.680000", "124315.680000", "124317.680000", "124319.680000", "124321.680000", "124323.680000", "124325.680000", "124327.680000", "124329.680000", "124331.680000", "124333.680000", "124335.680000", "124337.680000", "124339.680000", "124341.680000", "124343.680000", "124345.680000", "124347.680000", "124349.680000", "124351.680000", "124353.680000", "124355.680000", "124357.680000", "124359.680000", "124401.680000", "124403.680000", "124405.680000", "124407.680000", "124409.680000", "124411.680000", "124413.680000", "124415.680000", "124417.680000", "124419.680000", "124421.680000", "124423.680000", "124425.680000", "124427.680000", "124429.680000", "124431.680000", "124433.680000", "124435.680000", "124437.680000", "124439.680000", "124441.680000", "124443.680000", "124445.680000", "124447.680000", "124449.680000", "124451.680000", "124453.680000", "124455.680000", "124457.680000", "124459.680000", "124501.680000", "124503.680000", "124505.680000", "124507.680000", "124509.680000", "124511.680000", "124513.680000", "124515.680000", "124517.680000", "124519.680000", "124521.680000", "124523.680000", "124525.680000", "124527.680000", "124529.680000", "124531.680000", "124533.680000", "124535.680000", "124537.680000", "124539.680000", "124541.680000", "124543.680000", "124545.680000", "124547.680000", "124549.680000", "124551.680000", "124553.680000", "124555.680000", "124557.680000", "124559.680000", "124601.680000", "124603.680000", "124605.680000", "124607.680000", "124609.680000", "124611.680000", "124613.680000", "124615.680000", "124617.680000", "124619.680000", "124621.680000", "124623.680000", "124625.680000", "124627.680000", "124629.680000", "124631.680000", "124633.680000", "124635.680000", "124637.680000", "124639.680000", "124641.680000", "124643.680000", "124645.680000", "124647.680000", "124649.680000", "124651.680000", "124653.680000", "124655.680000", "124657.680000", "124659.680000", "124701.680000", "124703.680000", "124705.680000", "124707.680000", "124709.680000", "124711.680000", "124713.680000", "124715.680000", "124717.680000", "124719.680000", "124721.680000", "124723.680000", "124725.680000", "124727.680000", "124729.680000", "124731.680000", "124733.680000", "124735.680000", "124737.680000", "124739.680000", "124741.680000", "124743.680000", "124745.680000", "124747.680000", "124749.680000", "124751.680000", "124753.680000", "124755.680000", "124757.680000", "124759.680000", "124801.680000", "124803.680000", "124805.680000", "124807.680000", "124809.680000", "124811.680000", "124813.680000", "124815.680000", "124817.680000", "124819.680000", "124821.680000", "124823.680000", "124825.680000", "124827.680000", "124829.680000", "124831.680000", "124833.680000", "124835.680000", "124837.680000", "124839.680000", "124841.680000", "124843.680000", "124845.680000", "124847.680000", "124849.680000", "124851.680000", "124853.680000", "124855.680000", "124857.680000", "124859.680000", "124901.680000", "124903.680000", "124905.680000", "124907.680000", "124909.680000", "124911.680000", "124913.680000", "124915.680000", "124917.680000", "124919.680000", "124921.680000", "124923.680000", "124925.680000", "124927.680000", "124929.680000", "124931.680000", "124933.680000", "124935.680000", "124937.680000", "124939.680000", "124941.680000", "124943.680000", "124945.680000", "124947.680000", "124949.680000", "124951.680000", "124953.680000", "124955.680000", "124957.680000", "124959.680000", "125001.680000", "125003.680000", "125005.680000", "125007.680000", "125009.680000", "125011.680000", "125013.680000", "125015.680000", "125017.680000", "125019.680000", "125021.680000", "125023.680000", "125025.680000", "125027.680000"],
      "ContentTime": ["124200.654000", "124202.149000", "124204.150000", "124206.149000", "124208.149000", "124210.149000", "124212.149000", "124214.150000", "124216.150000", "124218.150000", "124220.150000", "124222.149000", "124224.150000", "124226.149000", "124228.149000", "124230.149000", "124232.149000", "124234.150000", "124236.150000", "124238.150000", "124240.150000", "124242.149000", "124244.149000", "124246.148000", "124248.149000", "124250.149000", "124252.150000", "124254.150000", "124256.150000", "124258.149000", "124300.149000", "124302.148000", "124304.148000", "124306.150000", "124308.149000", "124310.150000", "124312.149000", "124314.150000", "124316.150000", "124318.149000", "124320.149000", "124322.149000", "124324.149000", "124326.149000", "124328.150000", "124330.149000", "124332.149000", "124334.150000", "124336.149000", "124338.149000", "124340.149000", "124342.149000", "124344.149000", "124346.149000", "124348.150000", "124350.149000", "124352.148000", "124354.149000", "124356.149000", "124358.148000", "124400.149000", "124402.149000", "124404.150000", "124406.150000", "124408.149000", "124410.149000", "124412.149000", "124414.148000", "124416.150000", "124418.150000", "124420.150000", "124422.150000", "124424.150000", "124426.150000", "124428.149000", "124430.149000", "124432.149000", "124434.149000", "124436.149000", "124438.150000", "124440.150000", "124442.149000", "124444.150000", "124446.148000", "124448.149000", "124450.148000", "124452.150000", "124454.150000", "124456.150000", "124458.150000", "124500.150000", "124502.149000", "124504.149000", "124506.149000", "124508.149000", "124510.150000", "124512.150000", "124514.150000", "124516.150000", "124518.149000", "124520.148000", "124522.149000", "124524.149000", "124526.150000", "124528.150000", "124530.149000", "124532.149000", "124534.150000", "124536.150000", "124538.149000", "124540.148000", "124542.149000", "124544.150000", "124546.150000", "124548.150000", "124550.150000", "124552.150000", "124554.149000", "124556.149000", "124558.149000", "124600.149000", "124602.150000", "124604.150000", "124606.149000", "124608.149000", "124610.150000", "124612.149000", "124614.149000", "124616.149000", "124618.148000", "124620.150000", "124622.149000", "124624.150000", "124626.149000", "124628.149000", "124630.149000", "124632.149000", "124634.149000", "124636.150000", "124638.149000", "124640.149000", "124642.150000", "124644.149000", "124646.150000", "124648.149000", "124650.149000", "124652.149000", "124654.150000", "124656.150000", "124658.150000", "124700.150000", "124702.150000", "124704.150000", "124706.149000", "124708.149000", "124710.148000", "124712.150000", "124714.149000", "124716.150000", "124718.149000", "124720.150000", "124722.149000", "124724.150000", "124726.150000", "124728.150000", "124730.150000", "124732.151000", "124734.150000", "124736.150000", "124738.150000", "124740.149000", "124742.149000", "124744.149000", "124746.150000", "124748.150000", "124750.150000", "124752.150000", "124754.150000", "124756.150000", "124758.149000", "124800.149000", "124802.149000", "124804.150000", "124806.150000", "124808.150000", "124810.149000", "124812.150000", "124814.150000", "124816.149000", "124818.148000", "124820.149000", "124822.150000", "124824.150000", "124826.150000", "124828.150000", "124830.150000", "124832.148000", "124834.149000", "124836.148000", "124838.148000", "124840.150000", "124842.150000", "124844.150000", "124846.150000", "124848.149000", "124850.149000", "124852.149000", "124854.149000", "124856.150000", "124858.150000", "124900.150000", "124902.150000", "124904.150000", "124906.149000", "124908.149000", "124910.149000", "124912.149000", "124914.150000", "124916.149000", "124918.150000", "124920.150000", "124922.149000", "124924.150000", "124926.149000", "124928.149000", "124930.149000", "124932.150000", "124934.150000", "124936.150000", "124938.150000", "124940.150000", "124942.149000", "124944.149000", "124946.148000", "124948.149000", "124950.150000", "124952.150000", "124954.150000", "124956.149000", "124958.150000", "125000.149000", "125002.149000", "125004.166000", "125006.150000", "125008.150000", "125010.150000", "125012.150000", "125014.150000", "125016.150000", "125018.149000", "125020.149000", "125022.148000", "125024.150000", "125026.150000", "125028.150000", "125029.771000"],
      "InstanceCreationTime": ["124200.654000", "124202.149000", "124204.150000", "124206.149000", "124208.149000", "124210.149000", "124212.149000", "124214.150000", "124216.150000", "124218.150000", "124220.150000", "124222.149000", "124224.150000", "124226.149000", "124228.149000", "124230.149000", "124232.149000", "124234.150000", "124236.150000", "124238.150000", "124240.150000", "124242.149000", "124244.149000", "124246.148000", "124248.149000", "124250.149000", "124252.150000", "124254.150000", "124256.150000", "124258.149000", "124300.149000", "124302.148000", "124304.148000", "124306.150000", "124308.149000", "124310.150000", "124312.149000", "124314.150000", "124316.150000", "124318.149000", "124320.149000", "124322.149000", "124324.149000", "124326.149000", "124328.150000", "124330.149000", "124332.149000", "124334.150000", "124336.149000", "124338.149000", "124340.149000", "124342.149000", "124344.149000", "124346.149000", "124348.150000", "124350.149000", "124352.148000", "124354.149000", "124356.149000", "124358.148000", "124400.149000", "124402.149000", "124404.150000", "124406.150000", "124408.149000", "124410.149000", "124412.149000", "124414.148000", "124416.150000", "124418.150000", "124420.150000", "124422.150000", "124424.150000", "124426.150000", "124428.149000", "124430.149000", "124432.149000", "124434.149000", "124436.149000", "124438.150000", "124440.150000", "124442.149000", "124444.150000", "124446.148000", "124448.149000", "124450.148000", "124452.150000", "124454.150000", "124456.150000", "124458.150000", "124500.150000", "124502.149000", "124504.149000", "124506.149000", "124508.149000", "124510.150000", "124512.150000", "124514.150000", "124516.150000", "124518.149000", "124520.148000", "124522.149000", "124524.149000", "124526.150000", "124528.150000", "124530.149000", "124532.149000", "124534.150000", "124536.150000", "124538.149000", "124540.148000", "124542.149000", "124544.150000", "124546.150000", "124548.150000", "124550.150000", "124552.150000", "124554.149000", "124556.149000", "124558.149000", "124600.149000", "124602.150000", "124604.150000", "124606.149000", "124608.149000", "124610.150000", "124612.149000", "124614.149000", "124616.149000", "124618.148000", "124620.150000", "124622.149000", "124624.150000", "124626.149000", "124628.149000", "124630.149000", "124632.149000", "124634.149000", "124636.150000", "124638.149000", "124640.149000", "124642.150000", "124644.149000", "124646.150000", "124648.149000", "124650.149000", "124652.149000", "124654.150000", "124656.150000", "124658.150000", "124700.150000", "124702.150000", "124704.150000", "124706.149000", "124708.149000", "124710.148000", "124712.150000", "124714.149000", "124716.150000", "124718.149000", "124720.150000", "124722.149000", "124724.150000", "124726.150000", "124728.150000", "124730.150000", "124732.151000", "124734.150000", "124736.150000", "124738.150000", "124740.149000", "124742.149000", "124744.149000", "124746.150000", "124748.150000", "124750.150000", "124752.150000", "124754.150000", "124756.150000", "124758.149000", "124800.149000", "124802.149000", "124804.150000", "124806.150000", "124808.150000", "124810.149000", "124812.150000", "124814.150000", "124816.149000", "124818.148000", "124820.149000", "124822.150000", "124824.150000", "124826.150000", "124828.150000", "124830.150000", "124832.148000", "124834.149000", "124836.148000", "124838.148000", "124840.150000", "124842.150000", "124844.150000", "124846.150000", "124848.149000", "124850.149000", "124852.149000", "124854.149000", "124856.150000", "124858.150000", "124900.150000", "124902.150000", "124904.150000", "124906.149000", "124908.149000", "124910.149000", "124912.149000", "124914.150000", "124916.149000", "124918.150000", "124920.150000", "124922.149000", "124924.150000", "124926.149000", "124928.149000", "124930.149000", "124932.150000", "124934.150000", "124936.150000", "124938.150000", "124940.150000", "124942.149000", "124944.149000", "124946.148000", "124948.149000", "124950.150000", "124952.150000", "124954.150000", "124956.149000", "124958.150000", "125000.149000", "125002.149000", "125004.166000", "125006.150000", "125008.150000", "125010.150000", "125012.150000", "125014.150000", "125016.150000", "125018.149000", "125020.149000", "125022.148000", "125024.150000", "125026.150000", "125028.150000", "125029.771000"],
      "InstanceNumber": [1, 2, 3, 4, 5, 6, 7, 8, 9, 10, 11, 12, 13, 14, 15, 16, 17, 18, 19, 20, 21, 22, 23, 24, 25, 26, 27, 28, 29, 30, 31, 32, 33, 34, 35, 36, 37, 38, 39, 40, 41, 42, 43, 44, 45, 46, 47, 48, 49, 50, 51, 52, 53, 54, 55, 56, 57, 58, 59, 60, 61, 62, 63, 64, 65, 66, 67, 68, 69, 70, 71, 72, 73, 74, 75, 76, 77, 78, 79, 80, 81, 82, 83, 84, 85, 86, 87, 88, 89, 90, 91, 92, 93, 94, 95, 96, 97, 98, 99, 100, 101, 102, 103, 104, 105, 106, 107, 108, 109, 110, 111, 112, 113, 114, 115, 116, 117, 118, 119, 120, 121, 122, 123, 124, 125, 126, 127, 128, 129, 130, 131, 132, 133, 134, 135, 136, 137, 138, 139, 140, 141, 142, 143, 144, 145, 146, 147, 148, 149, 150, 151, 152, 153, 154, 155, 156, 157, 158, 159, 160, 161, 162, 163, 164, 165, 166, 167, 168, 169, 170, 171, 172, 173, 174, 175, 176, 177, 178, 179, 180, 181, 182, 183, 184, 185, 186, 187, 188, 189, 190, 191, 192, 193, 194, 195, 196, 197, 198, 199, 200, 201, 202, 203, 204, 205, 206, 207, 208, 209, 210, 211, 212, 213, 214, 215, 216, 217, 218, 219, 220, 221, 222, 223, 224, 225, 226, 227, 228, 229, 230, 231, 232, 233, 234, 235, 236, 237, 238, 239, 240, 241, 242, 243, 244, 245, 246, 247, 248, 249, 250, 251, 252, 253, 254, 255, 256],
      "LargestImagePixelValue": [3548, 3525, 3480, 3449, 3491, 3428, 3493, 3446, 3430, 3456, 3454, 3474, 3455, 3469, 3464, 3437, 3469, 3460, 3446, 3530, 3449, 3524, 3461, 3441, 3442, 3441, 3456, 3397, 3494, 3433, 3431, 3442, 3437, 3485, 3420, 3433, 3428, 3503, 3439, 3497, 3456, 3478, 3461, 3470, 3460, 3459, 3421, 3419, 3443, 3425, 3478, 3420, 3457, 3414, 3444, 3430, 3423, 3448, 3441, 3501, 3412, 3497, 3426, 3507, 3418, 3482, 3409, 3440, 3412, 3417, 3454, 3417, 3490, 3377, 3448, 3427, 3452, 3393, 3467, 3428, 3418, 3437, 3436, 3447, 3427, 3463, 3423, 3469, 3417, 3493, 3429, 3497, 3429, 3479, 3459, 3471, 3434, 3410, 3499, 3429, 3482, 3414, 3504, 3395, 3481, 3361, 3441, 3403, 3454, 3443, 3428, 3395, 3404, 3431, 3411, 3448, 3415, 3422, 3407, 3462, 3378, 3468, 3373, 3460, 3403, 3485, 3372, 3455, 3393, 3472, 3400, 3461, 3409, 3466, 3412, 3475, 3386, 3437, 3404, 3402, 3392, 3412, 3404, 3377, 3472, 3397, 3452, 3412, 3436, 3444, 3336, 3434, 3374, 3462, 3407, 3403, 3403, 3382, 3430, 3380, 3433, 3385, 3401, 3380, 3419, 3408, 3374, 3414, 3382, 3464, 3413, 3438, 3410, 3450, 3400, 3449, 3380, 3433, 3394, 3449, 3438, 3452, 3409, 3498, 3418, 3484, 3430, 3481, 3399, 3472, 3401, 3446, 3410, 3479, 3427, 3467, 3392, 3472, 3431, 3442, 3436, 3447, 3359, 3478, 3396, 3467, 3403, 3465, 3391, 3422, 3404, 3361, 3462, 3390, 3443, 3370, 3437, 3405, 3371, 3411, 3400, 3452, 3366, 3443, 3373, 3448, 3401, 3365, 3405, 3371, 3410, 3393, 3418, 3418, 3420, 3405, 3428, 3371, 3409, 3402, 3396, 3394, 3396, 3414, 3445, 3395, 3393, 3432, 3421, 3426, 3415, 3439, 3478, 3383, 3414, 3348],
      "WindowCenter": [805.0, 803.0, 802.0, 800.0, 800.0, 801.0, 802.0, 802.0, 802.0, 802.0, 805.0, 806.0, 805.0, 803.0, 803.0, 802.0, 802.0, 802.0, 801.0, 802.0, 801.0, 800.0, 801.0, 802.0, 802.0, 801.0, 800.0, 800.0, 802.0, 802.0, 803.0, 804.0, 803.0, 803.0, 801.0, 802.0, 802.0, 804.0, 804.0, 804.0, 803.0, 803.0, 803.0, 803.0, 803.0, 802.0, 802.0, 803.0, 803.0, 803.0, 803.0, 802.0, 802.0, 803.0, 804.0, 804.0, 803.0, 802.0, 803.0, 803.0, 804.0, 804.0, 802.0, 802.0, 802.0, 804.0, 803.0, 803.0, 802.0, 803.0, 802.0, 802.0, 803.0, 802.0, 802.0, 802.0, 802.0, 803.0, 805.0, 804.0, 802.0, 803.0, 804.0, 804.0, 803.0, 802.0, 802.0, 801.0, 802.0, 802.0, 802.0, 802.0, 801.0, 803.0, 803.0, 803.0, 802.0, 802.0, 804.0, 805.0, 805.0, 803.0, 803.0, 802.0, 804.0, 804.0, 804.0, 802.0, 804.0, 803.0, 804.0, 803.0, 802.0, 802.0, 801.0, 801.0, 801.0, 802.0, 802.0, 803.0, 803.0, 803.0, 803.0, 804.0, 803.0, 804.0, 802.0, 802.0, 801.0, 802.0, 801.0, 801.0, 801.0, 802.0, 801.0, 800.0, 800.0, 802.0, 804.0, 804.0, 803.0, 801.0, 801.0, 802.0, 803.0, 802.0, 803.0, 803.0, 804.0, 803.0, 802.0, 803.0, 802.0, 803.0, 803.0, 803.0, 803.0, 803.0, 804.0, 803.0, 803.0, 802.0, 803.0, 804.0, 804.0, 803.0, 803.0, 804.0, 804.0, 805.0, 804.0, 804.0, 803.0, 803.0, 802.0, 801.0, 801.0, 803.0, 804.0, 803.0, 803.0, 804.0, 803.0, 802.0, 800.0, 801.0, 801.0, 801.0, 800.0, 801.0, 801.0, 802.0, 802.0, 803.0, 803.0, 802.0, 801.0, 801.0, 804.0, 805.0, 803.0, 802.0, 801.0, 802.0, 801.0, 802.0, 803.0, 804.0, 802.0, 801.0, 800.0, 800.0, 801.0, 802.0, 803.0, 803.0, 802.0, 802.0, 802.0, 804.0, 803.0, 803.0, 802.0, 802.0, 802.0, 804.0, 806.0, 804.0, 803.0, 803.0, 803.0, 802.0, 802.0, 802.0, 801.0, 800.0, 799.0, 799.0, 801.0, 802.0, 803.0, 802.0, 801.0, 800.0, 801.0, 804.0, 805.0, 804.0, 802.0, 801.0, 801.0, 803.0, 804.0, 803.0, 802.0, 801.0],
      "WindowWidth": [1715.0, 1711.0, 1708.0, 1704.0, 1703.0, 1705.0, 1709.0, 1709.0, 1707.0, 1709.0, 1715.0, 1717.0, 1715.0, 1711.0, 1709.0, 1708.0, 1708.0, 1707.0, 1706.0, 1708.0, 1704.0, 1704.0, 1705.0, 1708.0, 1708.0, 1704.0, 1704.0, 1704.0, 1707.0, 1707.0, 1709.0, 1713.0, 1711.0, 1710.0, 1706.0, 1707.0, 1708.0, 1714.0, 1712.0, 1714.0, 1711.0, 1711.0, 1711.0, 1711.0, 1710.0, 1709.0, 1708.0, 1709.0, 1710.0, 1710.0, 1711.0, 1708.0, 1708.0, 1710.0, 1713.0, 1713.0, 1711.0, 1709.0, 1709.0, 1711.0, 1711.0, 1712.0, 1708.0, 1708.0, 1708.0, 1712.0, 1711.0, 1709.0, 1708.0, 1709.0, 1709.0, 1708.0, 1710.0, 1708.0, 1708.0, 1707.0, 1707.0, 1711.0, 1716.0, 1712.0, 1707.0, 1709.0, 1714.0, 1713.0, 1710.0, 1709.0, 1706.0, 1706.0, 1707.0, 1708.0, 1707.0, 1708.0, 1706.0, 1709.0, 1711.0, 1711.0, 1708.0, 1708.0, 1712.0, 1715.0, 1716.0, 1710.0, 1710.0, 1709.0, 1713.0, 1712.0, 1713.0, 1708.0, 1712.0, 1711.0, 1711.0, 1710.0, 1708.0, 1706.0, 1705.0, 1706.0, 1704.0, 1707.0, 1708.0, 1710.0, 1709.0, 1710.0, 1708.0, 1712.0, 1711.0, 1712.0, 1708.0, 1708.0, 1706.0, 1707.0, 1705.0, 1705.0, 1706.0, 1707.0, 1704.0, 1702.0, 1702.0, 1708.0, 1712.0, 1713.0, 1709.0, 1705.0, 1706.0, 1706.0, 1710.0, 1707.0, 1709.0, 1710.0, 1711.0, 1711.0, 1708.0, 1709.0, 1708.0, 1711.0, 1711.0, 1709.0, 1709.0, 1710.0, 1713.0, 1711.0, 1711.0, 1709.0, 1710.0, 1712.0, 1713.0, 1711.0, 1710.0, 1712.0, 1713.0, 1714.0, 1712.0, 1712.0, 1710.0, 1711.0, 1708.0, 1705.0, 1706.0, 1711.0, 1713.0, 1710.0, 1710.0, 1713.0, 1710.0, 1708.0, 1703.0, 1706.0, 1704.0, 1705.0, 1702.0, 1704.0, 1705.0, 1706.0, 1708.0, 1710.0, 1710.0, 1708.0, 1706.0, 1706.0, 1712.0, 1716.0, 1711.0, 1706.0, 1704.0, 1707.0, 1706.0, 1708.0, 1710.0, 1712.0, 1708.0, 1705.0, 1703.0, 1702.0, 1705.0, 1708.0, 1711.0, 1709.0, 1708.0, 1707.0, 1708.0, 1712.0, 1711.0, 1711.0, 1708.0, 1708.0, 1706.0, 1714.0, 1719.0, 1712.0, 1710.0, 1709.0, 1709.0, 1708.0, 1708.0, 1707.0, 1704.0, 1701.0, 1701.0, 1701.0, 1704.0, 1707.0, 1710.0, 1707.0, 1705.0, 1703.0, 1706.0, 1712.0, 1714.0, 1713.0, 1708.0, 1704.0, 1705.0, 1709.0, 1712.0, 1709.0, 1708.0, 1705.0]
    },
    "slices": {}
  }
}