{
 "AcquisitionMatrixPE": 100,
 "AcquisitionNumber": 1,
 "AcquisitionTime": "11:17:3.850000",
 "BandwidthPerPixelPhaseEncode": 18.519,
 "BaseResolution": 100,
 "BodyPartExamined": "BRAIN",
 "ConsistencyInfo": "N4_VE11C_LATEST_20160120",
 "ConversionSoftware": "dcm2niix",
 "ConversionSoftwareVersion": "v1.0.20180622 GCC4.9.2",
 "DerivedVendorReportedEchoSpacing": 0.000539986,
 "DeviceSerialNumber": "166078",
 "DwellTime": 2.1e-06,
 "EchoTime": 0.034,
 "EchoTrainLength": 100,
 "EffectiveEchoSpacing": 0.000539986,
 "FlipAngle": 90,
 "ImageOrientationPatientDICOM": [
  1,
  0,
  0,
  0,
  0.971961,
  -0.235142
 ],
 "ImageType": [
  "ORIGINAL",
  "PRIMARY",
  "M",
  "ND",
  "MOSAIC"
 ],
 "InPlanePhaseEncodingDirectionDICOM": "COL",
 "InstitutionAddress": "Street_StreetNo_Bei_Jing_District_CN_ZIP",
 "InstitutionName": "BeiJing_Normal_University",
 "InstitutionalDepartmentName": "Department",
 "MRAcquisitionType": "2D",
 "MagneticFieldStrength": 3,
 "Manufacturer": "Siemens",
 "ManufacturersModelName": "Prisma",
 "Modality": "MR",
 "MultibandAccelerationFactor": 3,
 "PartialFourier": 1,
 "PatientPosition": "HFS",
 "PercentPhaseFOV": 100,
 "PhaseEncodingDirection": "j-",
 "PhaseEncodingSteps": 100,
 "PhaseResolution": 1,
 "PixelBandwidth": 2380,
 "ProcedureStepDescription": "BNU_P2018_64CH_Zhen.ZongLei",
 "ProtocolName": "bold_100x100_s3_2x2x2_static_256",
 "PulseSequenceDetails": "%SiemensSeq%_ep2d_bold",
 "ReceiveCoilActiveElements": "HC1-7;NC1",
 "ReceiveCoilName": "HeadNeck_64",
 "ReconMatrixPE": 100,
 "RepetitionTime": 2,
 "SAR": 0.0660291,
 "ScanOptions": "FS",
 "ScanningSequence": "EP",
 "SequenceName": "_epfid2d1_100",
 "SequenceVariant": "SK",
 "SeriesDescription": "bold_100x100_s3_2x2x2_static_256",
 "SeriesNumber": 4,
 "ShimSetting": [
  -5475,
  -11487,
  -1257,
  439,
  -30,
  -147,
  -145,
  86
 ],
 "SliceThickness": 2,
 "SliceTiming": [
  1.485,
  0,
  0.99,
  0.0825,
  1.0725,
  0.165,
  1.155,
  0.2475,
  1.2375,
  0.33,
  1.32,
  0.4125,
  1.4025,
  0.5775,
  1.5675,
  0.66,
  1.65,
  0.7425,
  1.7325,
  0.825,
  1.815,
  0.9075,
  1.8975,
  0.495,
  1.485,
  0,
  0.99,
  0.0825,
  1.0725,
  0.165,
  1.155,
  0.2475,
  1.2375,
  0.33,
  1.32,
  0.4125,
  1.4025,
  0.5775,
  1.5675,
  0.66,
  1.65,
  0.7425,
  1.7325,
  0.825,
  1.815,
  0.9075,
  1.8975,
  0.495,
  1.485,
  0,
  0.99,
  0.0825,
  1.0725,
  0.165,
  1.155,
  0.2475,
  1.2375,
  0.33,
  1.32,
  0.4125,
  1.4025,
  0.5775,
  1.5675,
  0.66,
  1.65,
  0.7425,
  1.7325,
  0.825,
  1.815,
  0.9075,
  1.8975,
  0.495
 ],
 "SoftwareVersions": "syngo_MR_E11",
 "SpacingBetweenSlices": 2,
 "StationName": "AWP166078",
 "TaskName": "imagenet",
 "TotalReadoutTime": 0.0534586,
 "TxRefAmp": 208.985,
 "dcmmeta_affine": [
  [
   -2.0,
   0.0,
   0.0,
   100.67469787597656
  ],
  [
   0.0,
   1.9439220428466797,
   -0.47028419375419617,
   -78.27275085449219
  ],
  [
   0.0,
   0.47028419375419617,
   1.9439219236373901,
   -86.50135040283203
  ],
  [
   0.0,
   0.0,
   0.0,
   1.0
  ]
 ],
 "dcmmeta_reorient_transform": [
  [
   0.0,
   -1.0,
   0.0,
   99.0
  ],
  [
   1.0,
   0.0,
   0.0,
   0.0
  ],
  [
   0.0,
   0.0,
   1.0,
   0.0
  ],
  [
   0.0,
   0.0,
   0.0,
   1.0
  ]
 ],
 "dcmmeta_shape": [
  100,
  100,
  72,
  256
 ],
 "dcmmeta_slice_dim": 2,
 "dcmmeta_version": 0.6,
 "global": {
  "const": {
   "AcquisitionMatrix": [
    100,
    0,
    0,
    100
   ],
   "AngioFlag": "N",
   "BitsAllocated": 16,
   "BitsStored": 12,
   "BodyPartExamined": "BRAIN",
   "Columns": 900,
   "EchoNumbers": 1,
   "EchoTime": 34.0,
   "EchoTrainLength": 100,
   "FlipAngle": 90.0,
   "HighBit": 11,
   "ImageOrientationPatient": [
    1.0,
    0.0,
    0.0,
    0.0,
    0.97196100271939,
    -0.2351421042534
   ],
   "ImagePositionPatient": [
    -900.67469877005,
    -891.7443297851,
    148.17046966425
   ],
   "ImageType": [
    "ORIGINAL",
    "PRIMARY",
    "M",
    "ND",
    "MOSAIC"
   ],
   "ImagedNucleus": "1H",
   "ImagingFrequency": 123.257776,
   "InPlanePhaseEncodingDirection": "COL",
   "MRAcquisitionType": "2D",
   "MagneticFieldStrength": 3.0,
   "Manufacturer": "SIEMENS",
   "ManufacturerModelName": "Prisma",
   "Modality": "MR",
   "NumberOfAverages": 1.0,
   "NumberOfPhaseEncodingSteps": 100,
   "PercentPhaseFieldOfView": 100.0,
   "PercentSampling": 100.0,
   "PerformedProcedureStepStartTime": "110459.350000",
   "PhotometricInterpretation": "MONOCHROME2",
   "PixelBandwidth": 2380.0,
   "PixelRepresentation": 0,
   "PixelSpacing": [
    2.0,
    2.0
   ],
   "ProtocolName": "bold_100x100_s3_2x2x2_static_256",
   "RepetitionTime": 2000.0,
   "Rows": 900,
   "SAR": 0.06602914037193,
   "SamplesPerPixel": 1,
   "ScanOptions": "FS",
   "ScanningSequence": "EP",
   "SequenceName": "*epfid2d1_100",
   "SequenceVariant": "SK",
   "SeriesDescription": "bold_100x100_s3_2x2x2_static_256",
   "SeriesNumber": 4,
   "SeriesTime": "111706.489000",
   "SliceLocation": -65.670719893447,
   "SliceThickness": 2.0,
   "SmallestImagePixelValue": 0,
   "SoftwareVersions": "syngo MR E11",
   "SpacingBetweenSlices": 1.9999999639342,
   "SpecificCharacterSet": "ISO_IR 100",
   "StudyID": "1",
   "StudyTime": "110459.231000",
   "TransmitCoilName": "Body",
   "VariableFlipAngleFlag": "N",
   "WindowCenterWidthExplanation": "Algo1",
   "dBdt": 0.0
  },
  "slices": {}
 },
 "time": {
  "samples": {
   "AcquisitionNumber": [
    1,
    2,
    3,
    4,
    5,
    6,
    7,
    8,
    9,
    10,
    11,
    12,
    13,
    14,
    15,
    16,
    17,
    18,
    19,
    20,
    21,
    22,
    23,
    24,
    25,
    26,
    27,
    28,
    29,
    30,
    31,
    32,
    33,
    34,
    35,
    36,
    37,
    38,
    39,
    40,
    41,
    42,
    43,
    44,
    45,
    46,
    47,
    48,
    49,
    50,
    51,
    52,
    53,
    54,
    55,
    56,
    57,
    58,
    59,
    60,
    61,
    62,
    63,
    64,
    65,
    66,
    67,
    68,
    69,
    70,
    71,
    72,
    73,
    74,
    75,
    76,
    77,
    78,
    79,
    80,
    81,
    82,
    83,
    84,
    85,
    86,
    87,
    88,
    89,
    90,
    91,
    92,
    93,
    94,
    95,
    96,
    97,
    98,
    99,
    100,
    101,
    102,
    103,
    104,
    105,
    106,
    107,
    108,
    109,
    110,
    111,
    112,
    113,
    114,
    115,
    116,
    117,
    118,
    119,
    120,
    121,
    122,
    123,
    124,
    125,
    126,
    127,
    128,
    129,
    130,
    131,
    132,
    133,
    134,
    135,
    136,
    137,
    138,
    139,
    140,
    141,
    142,
    143,
    144,
    145,
    146,
    147,
    148,
    149,
    150,
    151,
    152,
    153,
    154,
    155,
    156,
    157,
    158,
    159,
    160,
    161,
    162,
    163,
    164,
    165,
    166,
    167,
    168,
    169,
    170,
    171,
    172,
    173,
    174,
    175,
    176,
    177,
    178,
    179,
    180,
    181,
    182,
    183,
    184,
    185,
    186,
    187,
    188,
    189,
    190,
    191,
    192,
    193,
    194,
    195,
    196,
    197,
    198,
    199,
    200,
    201,
    202,
    203,
    204,
    205,
    206,
    207,
    208,
    209,
    210,
    211,
    212,
    213,
    214,
    215,
    216,
    217,
    218,
    219,
    220,
    221,
    222,
    223,
    224,
    225,
    226,
    227,
    228,
    229,
    230,
    231,
    232,
    233,
    234,
    235,
    236,
    237,
    238,
    239,
    240,
    241,
    242,
    243,
    244,
    245,
    246,
    247,
    248,
    249,
    250,
    251,
    252,
    253,
    254,
    255,
    256
   ],
   "AcquisitionTime": [
    "111703.850000",
    "111705.850000",
    "111707.850000",
    "111709.850000",
    "111711.850000",
    "111713.850000",
    "111715.850000",
    "111717.850000",
    "111719.850000",
    "111721.850000",
    "111723.850000",
    "111725.850000",
    "111727.850000",
    "111729.850000",
    "111731.850000",
    "111733.850000",
    "111735.850000",
    "111737.850000",
    "111739.850000",
    "111741.850000",
    "111743.850000",
    "111745.850000",
    "111747.850000",
    "111749.850000",
    "111751.850000",
    "111753.850000",
    "111755.850000",
    "111757.850000",
    "111759.850000",
    "111801.850000",
    "111803.850000",
    "111805.850000",
    "111807.850000",
    "111809.850000",
    "111811.850000",
    "111813.850000",
    "111815.850000",
    "111817.850000",
    "111819.850000",
    "111821.850000",
    "111823.850000",
    "111825.850000",
    "111827.850000",
    "111829.850000",
    "111831.850000",
    "111833.850000",
    "111835.850000",
    "111837.850000",
    "111839.850000",
    "111841.850000",
    "111843.850000",
    "111845.850000",
    "111847.850000",
    "111849.850000",
    "111851.850000",
    "111853.850000",
    "111855.850000",
    "111857.850000",
    "111859.850000",
    "111901.850000",
    "111903.850000",
    "111905.850000",
    "111907.850000",
    "111909.850000",
    "111911.850000",
    "111913.850000",
    "111915.850000",
    "111917.850000",
    "111919.850000",
    "111921.850000",
    "111923.850000",
    "111925.850000",
    "111927.850000",
    "111929.850000",
    "111931.850000",
    "111933.850000",
    "111935.850000",
    "111937.850000",
    "111939.850000",
    "111941.850000",
    "111943.850000",
    "111945.850000",
    "111947.850000",
    "111949.850000",
    "111951.850000",
    "111953.850000",
    "111955.850000",
    "111957.850000",
    "111959.850000",
    "112001.850000",
    "112003.850000",
    "112005.850000",
    "112007.850000",
    "112009.850000",
    "112011.850000",
    "112013.850000",
    "112015.850000",
    "112017.850000",
    "112019.850000",
    "112021.850000",
    "112023.850000",
    "112025.850000",
    "112027.850000",
    "112029.850000",
    "112031.850000",
    "112033.850000",
    "112035.850000",
    "112037.850000",
    "112039.850000",
    "112041.850000",
    "112043.850000",
    "112045.850000",
    "112047.850000",
    "112049.850000",
    "112051.850000",
    "112053.850000",
    "112055.850000",
    "112057.850000",
    "112059.850000",
    "112101.850000",
    "112103.850000",
    "112105.850000",
    "112107.850000",
    "112109.850000",
    "112111.850000",
    "112113.850000",
    "112115.850000",
    "112117.850000",
    "112119.850000",
    "112121.850000",
    "112123.850000",
    "112125.850000",
    "112127.850000",
    "112129.850000",
    "112131.850000",
    "112133.850000",
    "112135.850000",
    "112137.850000",
    "112139.850000",
    "112141.850000",
    "112143.850000",
    "112145.850000",
    "112147.850000",
    "112149.850000",
    "112151.850000",
    "112153.850000",
    "112155.850000",
    "112157.850000",
    "112159.850000",
    "112201.850000",
    "112203.850000",
    "112205.850000",
    "112207.850000",
    "112209.850000",
    "112211.850000",
    "112213.850000",
    "112215.850000",
    "112217.850000",
    "112219.850000",
    "112221.850000",
    "112223.850000",
    "112225.850000",
    "112227.850000",
    "112229.850000",
    "112231.850000",
    "112233.850000",
    "112235.850000",
    "112237.850000",
    "112239.850000",
    "112241.850000",
    "112243.850000",
    "112245.850000",
    "112247.850000",
    "112249.850000",
    "112251.850000",
    "112253.850000",
    "112255.850000",
    "112257.850000",
    "112259.850000",
    "112301.850000",
    "112303.850000",
    "112305.850000",
    "112307.850000",
    "112309.850000",
    "112311.850000",
    "112313.850000",
    "112315.850000",
    "112317.850000",
    "112319.850000",
    "112321.850000",
    "112323.850000",
    "112325.850000",
    "112327.850000",
    "112329.850000",
    "112331.850000",
    "112333.850000",
    "112335.850000",
    "112337.850000",
    "112339.850000",
    "112341.850000",
    "112343.850000",
    "112345.850000",
    "112347.850000",
    "112349.850000",
    "112351.850000",
    "112353.850000",
    "112355.850000",
    "112357.850000",
    "112359.850000",
    "112401.850000",
    "112403.850000",
    "112405.850000",
    "112407.850000",
    "112409.850000",
    "112411.850000",
    "112413.850000",
    "112415.850000",
    "112417.850000",
    "112419.850000",
    "112421.850000",
    "112423.850000",
    "112425.850000",
    "112427.850000",
    "112429.850000",
    "112431.850000",
    "112433.850000",
    "112435.850000",
    "112437.850000",
    "112439.850000",
    "112441.850000",
    "112443.850000",
    "112445.850000",
    "112447.850000",
    "112449.850000",
    "112451.850000",
    "112453.850000",
    "112455.850000",
    "112457.850000",
    "112459.850000",
    "112501.850000",
    "112503.850000",
    "112505.850000",
    "112507.850000",
    "112509.850000",
    "112511.850000",
    "112513.850000",
    "112515.850000",
    "112517.850000",
    "112519.850000",
    "112521.850000",
    "112523.850000",
    "112525.850000",
    "112527.850000",
    "112529.850000",
    "112531.850000",
    "112533.850000"
   ],
   "ContentTime": [
    "111706.493000",
    "111707.989000",
    "111709.990000",
    "111711.988000",
    "111713.988000",
    "111715.989000",
    "111717.989000",
    "111719.988000",
    "111721.988000",
    "111723.988000",
    "111725.988000",
    "111727.989000",
    "111729.989000",
    "111731.989000",
    "111733.989000",
    "111735.988000",
    "111737.989000",
    "111739.988000",
    "111741.988000",
    "111743.988000",
    "111745.989000",
    "111747.989000",
    "111749.989000",
    "111751.989000",
    "111753.989000",
    "111755.989000",
    "111757.989000",
    "111759.989000",
    "111801.989000",
    "111803.988000",
    "111805.988000",
    "111807.989000",
    "111809.988000",
    "111811.989000",
    "111813.988000",
    "111815.988000",
    "111817.989000",
    "111819.990000",
    "111821.989000",
    "111823.989000",
    "111825.989000",
    "111827.989000",
    "111829.989000",
    "111831.988000",
    "111833.989000",
    "111835.988000",
    "111837.988000",
    "111839.989000",
    "111841.988000",
    "111843.988000",
    "111845.988000",
    "111847.988000",
    "111849.988000",
    "111851.989000",
    "111853.988000",
    "111855.988000",
    "111857.989000",
    "111859.989000",
    "111901.988000",
    "111903.988000",
    "111905.988000",
    "111907.988000",
    "111909.988000",
    "111911.989000",
    "111913.988000",
    "111915.988000",
    "111917.989000",
    "111919.989000",
    "111921.989000",
    "111923.988000",
    "111925.989000",
    "111927.988000",
    "111930.489000",
    "111931.988000",
    "111933.989000",
    "111935.988000",
    "111937.988000",
    "111939.988000",
    "111941.988000",
    "111943.989000",
    "111945.988000",
    "111947.989000",
    "111949.988000",
    "111951.988000",
    "111953.989000",
    "111955.989000",
    "111957.989000",
    "111959.989000",
    "112001.989000",
    "112003.989000",
    "112005.988000",
    "112007.988000",
    "112009.988000",
    "112011.988000",
    "112013.988000",
    "112015.989000",
    "112017.989000",
    "112019.988000",
    "112021.988000",
    "112023.989000",
    "112025.989000",
    "112027.988000",
    "112029.988000",
    "112031.988000",
    "112033.989000",
    "112035.989000",
    "112037.988000",
    "112039.989000",
    "112041.988000",
    "112043.988000",
    "112045.988000",
    "112047.989000",
    "112049.989000",
    "112051.989000",
    "112053.989000",
    "112055.989000",
    "112057.989000",
    "112059.988000",
    "112101.988000",
    "112103.989000",
    "112105.988000",
    "112107.988000",
    "112109.988000",
    "112111.988000",
    "112113.988000",
    "112115.988000",
    "112117.988000",
    "112119.988000",
    "112121.988000",
    "112123.989000",
    "112125.989000",
    "112127.988000",
    "112129.988000",
    "112131.989000",
    "112133.989000",
    "112135.989000",
    "112137.988000",
    "112139.988000",
    "112141.989000",
    "112143.988000",
    "112145.989000",
    "112147.989000",
    "112149.989000",
    "112151.989000",
    "112153.988000",
    "112155.988000",
    "112157.989000",
    "112159.988000",
    "112201.989000",
    "112203.989000",
    "112205.989000",
    "112207.989000",
    "112209.988000",
    "112211.989000",
    "112213.988000",
    "112215.988000",
    "112217.988000",
    "112219.988000",
    "112221.989000",
    "112223.988000",
    "112225.989000",
    "112227.989000",
    "112229.988000",
    "112231.989000",
    "112233.989000",
    "112235.989000",
    "112237.989000",
    "112239.989000",
    "112241.989000",
    "112243.989000",
    "112245.988000",
    "112247.988000",
    "112249.989000",
    "112251.989000",
    "112253.989000",
    "112255.988000",
    "112257.988000",
    "112259.990000",
    "112301.988000",
    "112303.989000",
    "112305.988000",
    "112307.989000",
    "112309.988000",
    "112311.989000",
    "112313.989000",
    "112315.989000",
    "112317.988000",
    "112319.988000",
    "112321.989000",
    "112323.989000",
    "112325.989000",
    "112327.988000",
    "112329.989000",
    "112331.989000",
    "112333.989000",
    "112335.989000",
    "112337.989000",
    "112339.989000",
    "112341.995000",
    "112343.988000",
    "112345.989000",
    "112347.988000",
    "112349.989000",
    "112351.988000",
    "112353.989000",
    "112355.989000",
    "112357.989000",
    "112359.989000",
    "112401.989000",
    "112403.989000",
    "112405.989000",
    "112407.989000",
    "112409.989000",
    "112411.989000",
    "112413.989000",
    "112415.988000",
    "112417.988000",
    "112419.988000",
    "112421.988000",
    "112423.989000",
    "112425.989000",
    "112427.989000",
    "112429.988000",
    "112431.989000",
    "112433.989000",
    "112435.989000",
    "112437.988000",
    "112439.988000",
    "112441.989000",
    "112443.989000",
    "112445.989000",
    "112447.989000",
    "112449.989000",
    "112451.989000",
    "112453.989000",
    "112455.989000",
    "112457.988000",
    "112459.989000",
    "112501.990000",
    "112503.989000",
    "112505.989000",
    "112507.988000",
    "112509.989000",
    "112511.989000",
    "112513.988000",
    "112515.988000",
    "112517.988000",
    "112519.989000",
    "112521.989000",
    "112523.989000",
    "112525.988000",
    "112527.989000",
    "112529.989000",
    "112531.989000",
    "112533.989000",
    "112535.845000"
   ],
   "InstanceCreationTime": [
    "111706.493000",
    "111707.989000",
    "111709.990000",
    "111711.988000",
    "111713.988000",
    "111715.989000",
    "111717.989000",
    "111719.988000",
    "111721.988000",
    "111723.988000",
    "111725.988000",
    "111727.989000",
    "111729.989000",
    "111731.989000",
    "111733.989000",
    "111735.988000",
    "111737.989000",
    "111739.988000",
    "111741.988000",
    "111743.988000",
    "111745.989000",
    "111747.989000",
    "111749.989000",
    "111751.989000",
    "111753.989000",
    "111755.989000",
    "111757.989000",
    "111759.989000",
    "111801.989000",
    "111803.988000",
    "111805.988000",
    "111807.989000",
    "111809.988000",
    "111811.989000",
    "111813.988000",
    "111815.988000",
    "111817.989000",
    "111819.990000",
    "111821.989000",
    "111823.989000",
    "111825.989000",
    "111827.989000",
    "111829.989000",
    "111831.988000",
    "111833.989000",
    "111835.988000",
    "111837.988000",
    "111839.989000",
    "111841.988000",
    "111843.988000",
    "111845.988000",
    "111847.988000",
    "111849.988000",
    "111851.989000",
    "111853.988000",
    "111855.988000",
    "111857.989000",
    "111859.989000",
    "111901.988000",
    "111903.988000",
    "111905.988000",
    "111907.988000",
    "111909.988000",
    "111911.989000",
    "111913.988000",
    "111915.988000",
    "111917.989000",
    "111919.989000",
    "111921.989000",
    "111923.988000",
    "111925.989000",
    "111927.988000",
    "111930.489000",
    "111931.988000",
    "111933.989000",
    "111935.988000",
    "111937.988000",
    "111939.988000",
    "111941.988000",
    "111943.989000",
    "111945.988000",
    "111947.989000",
    "111949.988000",
    "111951.988000",
    "111953.989000",
    "111955.989000",
    "111957.989000",
    "111959.989000",
    "112001.989000",
    "112003.989000",
    "112005.988000",
    "112007.988000",
    "112009.988000",
    "112011.988000",
    "112013.988000",
    "112015.989000",
    "112017.989000",
    "112019.988000",
    "112021.988000",
    "112023.989000",
    "112025.989000",
    "112027.988000",
    "112029.988000",
    "112031.988000",
    "112033.989000",
    "112035.989000",
    "112037.988000",
    "112039.989000",
    "112041.988000",
    "112043.988000",
    "112045.988000",
    "112047.989000",
    "112049.989000",
    "112051.989000",
    "112053.989000",
    "112055.989000",
    "112057.989000",
    "112059.988000",
    "112101.988000",
    "112103.989000",
    "112105.988000",
    "112107.988000",
    "112109.988000",
    "112111.988000",
    "112113.988000",
    "112115.988000",
    "112117.988000",
    "112119.988000",
    "112121.988000",
    "112123.989000",
    "112125.989000",
    "112127.988000",
    "112129.988000",
    "112131.989000",
    "112133.989000",
    "112135.989000",
    "112137.988000",
    "112139.988000",
    "112141.989000",
    "112143.988000",
    "112145.989000",
    "112147.989000",
    "112149.989000",
    "112151.989000",
    "112153.988000",
    "112155.988000",
    "112157.989000",
    "112159.988000",
    "112201.989000",
    "112203.989000",
    "112205.989000",
    "112207.989000",
    "112209.988000",
    "112211.989000",
    "112213.988000",
    "112215.988000",
    "112217.988000",
    "112219.988000",
    "112221.989000",
    "112223.988000",
    "112225.989000",
    "112227.989000",
    "112229.988000",
    "112231.989000",
    "112233.989000",
    "112235.989000",
    "112237.989000",
    "112239.989000",
    "112241.989000",
    "112243.989000",
    "112245.988000",
    "112247.988000",
    "112249.989000",
    "112251.989000",
    "112253.989000",
    "112255.988000",
    "112257.988000",
    "112259.990000",
    "112301.988000",
    "112303.989000",
    "112305.988000",
    "112307.989000",
    "112309.988000",
    "112311.989000",
    "112313.989000",
    "112315.989000",
    "112317.988000",
    "112319.988000",
    "112321.989000",
    "112323.989000",
    "112325.989000",
    "112327.988000",
    "112329.989000",
    "112331.989000",
    "112333.989000",
    "112335.989000",
    "112337.989000",
    "112339.989000",
    "112341.995000",
    "112343.988000",
    "112345.989000",
    "112347.988000",
    "112349.989000",
    "112351.988000",
    "112353.989000",
    "112355.989000",
    "112357.989000",
    "112359.989000",
    "112401.989000",
    "112403.989000",
    "112405.989000",
    "112407.989000",
    "112409.989000",
    "112411.989000",
    "112413.989000",
    "112415.988000",
    "112417.988000",
    "112419.988000",
    "112421.988000",
    "112423.989000",
    "112425.989000",
    "112427.989000",
    "112429.988000",
    "112431.989000",
    "112433.989000",
    "112435.989000",
    "112437.988000",
    "112439.988000",
    "112441.989000",
    "112443.989000",
    "112445.989000",
    "112447.989000",
    "112449.989000",
    "112451.989000",
    "112453.989000",
    "112455.989000",
    "112457.988000",
    "112459.989000",
    "112501.990000",
    "112503.989000",
    "112505.989000",
    "112507.988000",
    "112509.989000",
    "112511.989000",
    "112513.988000",
    "112515.988000",
    "112517.988000",
    "112519.989000",
    "112521.989000",
    "112523.989000",
    "112525.988000",
    "112527.989000",
    "112529.989000",
    "112531.989000",
    "112533.989000",
    "112535.845000"
   ],
   "InstanceNumber": [
    1,
    2,
    3,
    4,
    5,
    6,
    7,
    8,
    9,
    10,
    11,
    12,
    13,
    14,
    15,
    16,
    17,
    18,
    19,
    20,
    21,
    22,
    23,
    24,
    25,
    26,
    27,
    28,
    29,
    30,
    31,
    32,
    33,
    34,
    35,
    36,
    37,
    38,
    39,
    40,
    41,
    42,
    43,
    44,
    45,
    46,
    47,
    48,
    49,
    50,
    51,
    52,
    53,
    54,
    55,
    56,
    57,
    58,
    59,
    60,
    61,
    62,
    63,
    64,
    65,
    66,
    67,
    68,
    69,
    70,
    71,
    72,
    73,
    74,
    75,
    76,
    77,
    78,
    79,
    80,
    81,
    82,
    83,
    84,
    85,
    86,
    87,
    88,
    89,
    90,
    91,
    92,
    93,
    94,
    95,
    96,
    97,
    98,
    99,
    100,
    101,
    102,
    103,
    104,
    105,
    106,
    107,
    108,
    109,
    110,
    111,
    112,
    113,
    114,
    115,
    116,
    117,
    118,
    119,
    120,
    121,
    122,
    123,
    124,
    125,
    126,
    127,
    128,
    129,
    130,
    131,
    132,
    133,
    134,
    135,
    136,
    137,
    138,
    139,
    140,
    141,
    142,
    143,
    144,
    145,
    146,
    147,
    148,
    149,
    150,
    151,
    152,
    153,
    154,
    155,
    156,
    157,
    158,
    159,
    160,
    161,
    162,
    163,
    164,
    165,
    166,
    167,
    168,
    169,
    170,
    171,
    172,
    173,
    174,
    175,
    176,
    177,
    178,
    179,
    180,
    181,
    182,
    183,
    184,
    185,
    186,
    187,
    188,
    189,
    190,
    191,
    192,
    193,
    194,
    195,
    196,
    197,
    198,
    199,
    200,
    201,
    202,
    203,
    204,
    205,
    206,
    207,
    208,
    209,
    210,
    211,
    212,
    213,
    214,
    215,
    216,
    217,
    218,
    219,
    220,
    221,
    222,
    223,
    224,
    225,
    226,
    227,
    228,
    229,
    230,
    231,
    232,
    233,
    234,
    235,
    236,
    237,
    238,
    239,
    240,
    241,
    242,
    243,
    244,
    245,
    246,
    247,
    248,
    249,
    250,
    251,
    252,
    253,
    254,
    255,
    256
   ],
   "LargestImagePixelValue": [
    3980,
    3773,
    3820,
    3807,
    3800,
    3876,
    3824,
    3860,
    3863,
    3846,
    3852,
    3875,
    3884,
    3779,
    3756,
    3754,
    3794,
    3776,
    3805,
    3802,
    3829,
    3792,
    3817,
    3838,
    3857,
    3862,
    3815,
    3806,
    3820,
    3845,
    3828,
    3839,
    3841,
    3858,
    3862,
    3817,
    3832,
    3828,
    3838,
    3858,
    3889,
    3897,
    3850,
    3850,
    3813,
    3816,
    3780,
    3814,
    3807,
    3786,
    3834,
    3773,
    3793,
    3756,
    3780,
    3837,
    3838,
    3803,
    3815,
    3823,
    3825,
    3844,
    3815,
    3845,
    3828,
    3829,
    3845,
    3798,
    3840,
    3868,
    3866,
    3803,
    3801,
    3806,
    3817,
    3823,
    3835,
    3746,
    3779,
    3782,
    3828,
    3827,
    3751,
    3851,
    3799,
    3817,
    3796,
    3806,
    3819,
    3852,
    3851,
    3791,
    3886,
    3812,
    3762,
    3742,
    3736,
    3721,
    3766,
    3774,
    3744,
    3833,
    3786,
    3836,
    3800,
    3799,
    3794,
    3810,
    3786,
    3826,
    3796,
    3831,
    3792,
    3811,
    3794,
    3808,
    3824,
    3794,
    3788,
    3800,
    3759,
    3768,
    3740,
    3785,
    3738,
    3691,
    3666,
    3627,
    3685,
    3762,
    3731,
    3728,
    3835,
    3720,
    3768,
    3717,
    3721,
    3818,
    3746,
    3772,
    3738,
    3737,
    3746,
    3716,
    3752,
    3720,
    3830,
    3790,
    3685,
    3677,
    3700,
    3711,
    3737,
    3689,
    3656,
    3721,
    3758,
    3757,
    3796,
    3806,
    3763,
    3824,
    3852,
    3754,
    3771,
    3831,
    3786,
    3819,
    3806,
    3810,
    3778,
    3733,
    3733,
    3761,
    3701,
    3756,
    3744,
    3718,
    3733,
    3749,
    3808,
    3775,
    3777,
    3811,
    3850,
    3800,
    3800,
    3823,
    3791,
    3815,
    3766,
    3825,
    3807,
    3823,
    3827,
    3782,
    3782,
    3794,
    3789,
    3742,
    3731,
    3716,
    3691,
    3764,
    3747,
    3795,
    3771,
    3791,
    3800,
    3821,
    3869,
    3836,
    3775,
    3739,
    3814,
    3783,
    3841,
    3808,
    3809,
    3783,
    3758,
    3774,
    3838,
    3816,
    3764,
    3958,
    3741,
    3752,
    3719,
    3810,
    3731,
    3818,
    3708,
    3750,
    3738,
    3795,
    3774,
    3797,
    3794,
    3888,
    3819,
    3736,
    3811,
    3774,
    3759,
    3792,
    3876,
    3909,
    3876,
    3862,
    3790,
    3813,
    3904,
    3858,
    3894,
    3805
   ],
   "WindowCenter": [
    805.0,
    803.0,
    803.0,
    804.0,
    803.0,
    802.0,
    802.0,
    803.0,
    804.0,
    804.0,
    805.0,
    805.0,
    805.0,
    805.0,
    805.0,
    806.0,
    805.0,
    804.0,
    804.0,
    803.0,
    803.0,
    804.0,
    804.0,
    804.0,
    805.0,
    805.0,
    805.0,
    804.0,
    804.0,
    804.0,
    805.0,
    805.0,
    805.0,
    803.0,
    803.0,
    803.0,
    804.0,
    805.0,
    804.0,
    803.0,
    803.0,
    804.0,
    804.0,
    804.0,
    804.0,
    804.0,
    805.0,
    805.0,
    805.0,
    805.0,
    804.0,
    804.0,
    805.0,
    805.0,
    805.0,
    804.0,
    803.0,
    802.0,
    803.0,
    804.0,
    805.0,
    804.0,
    803.0,
    802.0,
    803.0,
    803.0,
    804.0,
    804.0,
    804.0,
    803.0,
    803.0,
    803.0,
    803.0,
    804.0,
    804.0,
    804.0,
    804.0,
    802.0,
    803.0,
    803.0,
    803.0,
    803.0,
    803.0,
    803.0,
    804.0,
    805.0,
    805.0,
    803.0,
    803.0,
    804.0,
    805.0,
    804.0,
    804.0,
    803.0,
    804.0,
    805.0,
    805.0,
    804.0,
    804.0,
    806.0,
    806.0,
    805.0,
    803.0,
    803.0,
    803.0,
    803.0,
    804.0,
    804.0,
    804.0,
    805.0,
    804.0,
    805.0,
    804.0,
    803.0,
    802.0,
    803.0,
    803.0,
    802.0,
    803.0,
    804.0,
    804.0,
    803.0,
    803.0,
    803.0,
    803.0,
