{
 "AcquisitionMatrixPE": 100,
 "AcquisitionNumber": 1,
 "AcquisitionTime": "12:29:14.282500",
 "BandwidthPerPixelPhaseEncode": 18.519,
 "BaseResolution": 100,
 "BodyPartExamined": "BRAIN",
 "ConsistencyInfo": "N4_VE11C_LATEST_20160120",
 "ConversionSoftware": "dcm2niix",
 "ConversionSoftwareVersion": "v1.0.20180622 GCC4.9.2",
 "DerivedVendorReportedEchoSpacing": 0.000539986,
 "DeviceSerialNumber": "166078",
 "DwellTime": 2.1e-06,
 "EchoTime": 0.034,
 "EchoTrainLength": 100,
 "EffectiveEchoSpacing": 0.000539986,
 "FlipAngle": 90,
 "ImageOrientationPatientDICOM": [
  1,
  0,
  0,
  0,
  0.971961,
  -0.235142
 ],
 "ImageType": [
  "ORIGINAL",
  "PRIMARY",
  "M",
  "ND",
  "MOSAIC"
 ],
 "InPlanePhaseEncodingDirectionDICOM": "COL",
 "InstitutionAddress": "Street_StreetNo_Bei_Jing_District_CN_ZIP",
 "InstitutionName": "BeiJing_Normal_University",
 "InstitutionalDepartmentName": "Department",
 "MRAcquisitionType": "2D",
 "MagneticFieldStrength": 3,
 "Manufacturer": "Siemens",
 "ManufacturersModelName": "Prisma",
 "Modality": "MR",
 "MultibandAccelerationFactor": 3,
 "PartialFourier": 1,
 "PatientPosition": "HFS",
 "PercentPhaseFOV": 100,
 "PhaseEncodingDirection": "j-",
 "PhaseEncodingSteps": 100,
 "PhaseResolution": 1,
 "PixelBandwidth": 2380,
 "ProcedureStepDescription": "BNU_P2018_64CH_Zhen.ZongLei",
 "ProtocolName": "bold_100x100_s3_2x2x2_static_256",
 "PulseSequenceDetails": "%SiemensSeq%_ep2d_bold",
 "ReceiveCoilActiveElements": "HC1-7;NC1",
 "ReceiveCoilName": "HeadNeck_64",
 "ReconMatrixPE": 100,
 "RepetitionTime": 2,
 "SAR": 0.0660291,
 "ScanOptions": "FS",
 "ScanningSequence": "EP",
 "SequenceName": "_epfid2d1_100",
 "SequenceVariant": "SK",
 "SeriesDescription": "bold_100x100_s3_2x2x2_static_256",
 "SeriesNumber": 13,
 "ShimSetting": [
  -5475,
  -11487,
  -1257,
  439,
  -30,
  -147,
  -145,
  86
 ],
 "SliceThickness": 2,
 "SliceTiming": [
  1.485,
  0,
  0.99,
  0.0825,
  1.0725,
  0.165,
  1.155,
  0.2475,
  1.2375,
  0.33,
  1.32,
  0.4125,
  1.4025,
  0.5775,
  1.5675,
  0.66,
  1.65,
  0.7425,
  1.7325,
  0.825,
  1.815,
  0.9075,
  1.8975,
  0.495,
  1.485,
  0,
  0.99,
  0.0825,
  1.0725,
  0.165,
  1.155,
  0.2475,
  1.2375,
  0.33,
  1.32,
  0.4125,
  1.4025,
  0.5775,
  1.5675,
  0.66,
  1.65,
  0.7425,
  1.7325,
  0.825,
  1.815,
  0.9075,
  1.8975,
  0.495,
  1.485,
  0,
  0.99,
  0.0825,
  1.0725,
  0.165,
  1.155,
  0.2475,
  1.2375,
  0.33,
  1.32,
  0.4125,
  1.4025,
  0.5775,
  1.5675,
  0.66,
  1.65,
  0.7425,
  1.7325,
  0.825,
  1.815,
  0.9075,
  1.8975,
  0.495
 ],
 "SoftwareVersions": "syngo_MR_E11",
 "SpacingBetweenSlices": 2,
 "StationName": "AWP166078",
 "TaskName": "imagenet",
 "TotalReadoutTime": 0.0534586,
 "TxRefAmp": 208.985,
 "dcmmeta_affine": [
  [
   -2.0,
   0.0,
   0.0,
   100.67469787597656
  ],
  [
   0.0,
   1.9439220428466797,
   -0.47028419375419617,
   -78.27275085449219
  ],
  [
   0.0,
   0.47028419375419617,
   1.9439219236373901,
   -86.50135040283203
  ],
  [
   0.0,
   0.0,
   0.0,
   1.0
  ]
 ],
 "dcmmeta_reorient_transform": [
  [
   0.0,
   -1.0,
   0.0,
   99.0
  ],
  [
   1.0,
   0.0,
   0.0,
   0.0
  ],
  [
   0.0,
   0.0,
   1.0,
   0.0
  ],
  [
   0.0,
   0.0,
   0.0,
   1.0
  ]
 ],
 "dcmmeta_shape": [
  100,
  100,
  72,
  256
 ],
 "dcmmeta_slice_dim": 2,
 "dcmmeta_version": 0.6,
 "global": {
  "const": {
   "AcquisitionMatrix": [
    100,
    0,
    0,
    100
   ],
   "AngioFlag": "N",
   "BitsAllocated": 16,
   "BitsStored": 12,
   "BodyPartExamined": "BRAIN",
   "Columns": 900,
   "EchoNumbers": 1,
   "EchoTime": 34.0,
   "EchoTrainLength": 100,
   "FlipAngle": 90.0,
   "HighBit": 11,
   "ImageOrientationPatient": [
    1.0,
    0.0,
    0.0,
    0.0,
    0.97196100271939,
    -0.2351421042534
   ],
   "ImagePositionPatient": [
    -900.67469877005,
    -891.7443297851,
    148.17046966425
   ],
   "ImageType": [
    "ORIGINAL",
    "PRIMARY",
    "M",
    "ND",
    "MOSAIC"
   ],
   "ImagedNucleus": "1H",
   "ImagingFrequency": 123.257779,
   "InPlanePhaseEncodingDirection": "COL",
   "MRAcquisitionType": "2D",
   "MagneticFieldStrength": 3.0,
   "Manufacturer": "SIEMENS",
   "ManufacturerModelName": "Prisma",
   "Modality": "MR",
   "NumberOfAverages": 1.0,
   "NumberOfPhaseEncodingSteps": 100,
   "PercentPhaseFieldOfView": 100.0,
   "PercentSampling": 100.0,
   "PerformedProcedureStepStartTime": "110459.350000",
   "PhotometricInterpretation": "MONOCHROME2",
   "PixelBandwidth": 2380.0,
   "PixelRepresentation": 0,
   "PixelSpacing": [
    2.0,
    2.0
   ],
   "ProtocolName": "bold_100x100_s3_2x2x2_static_256",
   "RepetitionTime": 2000.0,
   "Rows": 900,
   "SAR": 0.06602914037193,
   "SamplesPerPixel": 1,
   "ScanOptions": "FS",
   "ScanningSequence": "EP",
   "SequenceName": "*epfid2d1_100",
   "SequenceVariant": "SK",
   "SeriesDescription": "bold_100x100_s3_2x2x2_static_256",
   "SeriesNumber": 13,
   "SeriesTime": "122916.936000",
   "SliceLocation": -65.670719893447,
   "SliceThickness": 2.0,
   "SmallestImagePixelValue": 0,
   "SoftwareVersions": "syngo MR E11",
   "SpacingBetweenSlices": 1.9999999639342,
   "SpecificCharacterSet": "ISO_IR 100",
   "StudyID": "1",
   "StudyTime": "110459.231000",
   "TransmitCoilName": "Body",
   "VariableFlipAngleFlag": "N",
   "WindowCenterWidthExplanation": "Algo1",
   "dBdt": 0.0
  },
  "slices": {}
 },
 "time": {
  "samples": {
   "AcquisitionNumber": [
    1,
    2,
    3,
    4,
    5,
    6,
    7,
    8,
    9,
    10,
    11,
    12,
    13,
    14,
    15,
    16,
    17,
    18,
    19,
    20,
    21,
    22,
    23,
    24,
    25,
    26,
    27,
    28,
    29,
    30,
    31,
    32,
    33,
    34,
    35,
    36,
    37,
    38,
    39,
    40,
    41,
    42,
    43,
    44,
    45,
    46,
    47,
    48,
    49,
    50,
    51,
    52,
    53,
    54,
    55,
    56,
    57,
    58,
    59,
    60,
    61,
    62,
    63,
    64,
    65,
    66,
    67,
    68,
    69,
    70,
    71,
    72,
    73,
    74,
    75,
    76,
    77,
    78,
    79,
    80,
    81,
    82,
    83,
    84,
    85,
    86,
    87,
    88,
    89,
    90,
    91,
    92,
    93,
    94,
    95,
    96,
    97,
    98,
    99,
    100,
    101,
    102,
    103,
    104,
    105,
    106,
    107,
    108,
    109,
    110,
    111,
    112,
    113,
    114,
    115,
    116,
    117,
    118,
    119,
    120,
    121,
    122,
    123,
    124,
    125,
    126,
    127,
    128,
    129,
    130,
    131,
    132,
    133,
    134,
    135,
    136,
    137,
    138,
    139,
    140,
    141,
    142,
    143,
    144,
    145,
    146,
    147,
    148,
    149,
    150,
    151,
    152,
    153,
    154,
    155,
    156,
    157,
    158,
    159,
    160,
    161,
    162,
    163,
    164,
    165,
    166,
    167,
    168,
    169,
    170,
    171,
    172,
    173,
    174,
    175,
    176,
    177,
    178,
    179,
    180,
    181,
    182,
    183,
    184,
    185,
    186,
    187,
    188,
    189,
    190,
    191,
    192,
    193,
    194,
    195,
    196,
    197,
    198,
    199,
    200,
    201,
    202,
    203,
    204,
    205,
    206,
    207,
    208,
    209,
    210,
    211,
    212,
    213,
    214,
    215,
    216,
    217,
    218,
    219,
    220,
    221,
    222,
    223,
    224,
    225,
    226,
    227,
    228,
    229,
    230,
    231,
    232,
    233,
    234,
    235,
    236,
    237,
    238,
    239,
    240,
    241,
    242,
    243,
    244,
    245,
    246,
    247,
    248,
    249,
    250,
    251,
    252,
    253,
    254,
    255,
    256
   ],
   "AcquisitionTime": [
    "122914.282500",
    "122916.282500",
    "122918.282500",
    "122920.282500",
    "122922.282500",
    "122924.282500",
    "122926.282500",
    "122928.282500",
    "122930.282500",
    "122932.282500",
    "122934.282500",
    "122936.282500",
    "122938.282500",
    "122940.282500",
    "122942.282500",
    "122944.282500",
    "122946.282500",
    "122948.282500",
    "122950.282500",
    "122952.282500",
    "122954.282500",
    "122956.282500",
    "122958.282500",
    "123000.282500",
    "123002.282500",
    "123004.282500",
    "123006.282500",
    "123008.282500",
    "123010.282500",
    "123012.282500",
    "123014.282500",
    "123016.282500",
    "123018.282500",
    "123020.282500",
    "123022.282500",
    "123024.282500",
    "123026.282500",
    "123028.282500",
    "123030.282500",
    "123032.282500",
    "123034.282500",
    "123036.282500",
    "123038.282500",
    "123040.282500",
    "123042.282500",
    "123044.282500",
    "123046.282500",
    "123048.282500",
    "123050.282500",
    "123052.282500",
    "123054.282500",
    "123056.282500",
    "123058.282500",
    "123100.282500",
    "123102.282500",
    "123104.282500",
    "123106.282500",
    "123108.282500",
    "123110.282500",
    "123112.282500",
    "123114.282500",
    "123116.282500",
    "123118.282500",
    "123120.282500",
    "123122.282500",
    "123124.282500",
    "123126.282500",
    "123128.282500",
    "123130.282500",
    "123132.282500",
    "123134.282500",
    "123136.282500",
    "123138.282500",
    "123140.282500",
    "123142.282500",
    "123144.282500",
    "123146.282500",
    "123148.282500",
    "123150.282500",
    "123152.282500",
    "123154.282500",
    "123156.282500",
    "123158.282500",
    "123200.282500",
    "123202.282500",
    "123204.282500",
    "123206.282500",
    "123208.282500",
    "123210.282500",
    "123212.282500",
    "123214.282500",
    "123216.282500",
    "123218.282500",
    "123220.282500",
    "123222.282500",
    "123224.282500",
    "123226.282500",
    "123228.282500",
    "123230.282500",
    "123232.282500",
    "123234.282500",
    "123236.282500",
    "123238.282500",
    "123240.282500",
    "123242.282500",
    "123244.282500",
    "123246.282500",
    "123248.282500",
    "123250.282500",
    "123252.282500",
    "123254.282500",
    "123256.282500",
    "123258.282500",
    "123300.282500",
    "123302.282500",
    "123304.282500",
    "123306.282500",
    "123308.282500",
    "123310.282500",
    "123312.282500",
    "123314.282500",
    "123316.282500",
    "123318.282500",
    "123320.282500",
    "123322.282500",
    "123324.282500",
    "123326.282500",
    "123328.282500",
    "123330.282500",
    "123332.282500",
    "123334.282500",
    "123336.282500",
    "123338.282500",
    "123340.282500",
    "123342.282500",
    "123344.282500",
    "123346.282500",
    "123348.282500",
    "123350.282500",
    "123352.282500",
    "123354.282500",
    "123356.282500",
    "123358.282500",
    "123400.282500",
    "123402.282500",
    "123404.282500",
    "123406.282500",
    "123408.282500",
    "123410.282500",
    "123412.282500",
    "123414.282500",
    "123416.282500",
    "123418.282500",
    "123420.282500",
    "123422.282500",
    "123424.282500",
    "123426.282500",
    "123428.282500",
    "123430.282500",
    "123432.282500",
    "123434.282500",
    "123436.282500",
    "123438.282500",
    "123440.282500",
    "123442.282500",
    "123444.282500",
    "123446.282500",
    "123448.282500",
    "123450.282500",
    "123452.282500",
    "123454.282500",
    "123456.282500",
    "123458.282500",
    "123500.282500",
    "123502.282500",
    "123504.282500",
    "123506.282500",
    "123508.282500",
    "123510.282500",
    "123512.282500",
    "123514.282500",
    "123516.282500",
    "123518.282500",
    "123520.282500",
    "123522.282500",
    "123524.282500",
    "123526.282500",
    "123528.282500",
    "123530.282500",
    "123532.282500",
    "123534.282500",
    "123536.282500",
    "123538.282500",
    "123540.282500",
    "123542.282500",
    "123544.282500",
    "123546.282500",
    "123548.282500",
    "123550.282500",
    "123552.282500",
    "123554.282500",
    "123556.282500",
    "123558.282500",
    "123600.282500",
    "123602.282500",
    "123604.282500",
    "123606.282500",
    "123608.282500",
    "123610.282500",
    "123612.282500",
    "123614.282500",
    "123616.282500",
    "123618.282500",
    "123620.282500",
    "123622.282500",
    "123624.282500",
    "123626.282500",
    "123628.282500",
    "123630.282500",
    "123632.282500",
    "123634.282500",
    "123636.282500",
    "123638.282500",
    "123640.282500",
    "123642.282500",
    "123644.282500",
    "123646.282500",
    "123648.282500",
    "123650.282500",
    "123652.282500",
    "123654.282500",
    "123656.282500",
    "123658.282500",
    "123700.282500",
    "123702.282500",
    "123704.282500",
    "123706.282500",
    "123708.282500",
    "123710.282500",
    "123712.282500",
    "123714.282500",
    "123716.282500",
    "123718.282500",
    "123720.282500",
    "123722.282500",
    "123724.282500",
    "123726.282500",
    "123728.282500",
    "123730.282500",
    "123732.282500",
    "123734.282500",
    "123736.282500",
    "123738.282500",
    "123740.282500",
    "123742.282500",
    "123744.282500"
   ],
   "ContentTime": [
    "122916.948000",
    "122918.435000",
    "122920.435000",
    "122922.436000",
    "122924.436000",
    "122926.436000",
    "122928.437000",
    "122930.436000",
    "122932.436000",
    "122934.436000",
    "122936.435000",
    "122938.435000",
    "122940.436000",
    "122942.435000",
    "122944.436000",
    "122946.436000",
    "122948.436000",
    "122950.436000",
    "122952.436000",
    "122954.435000",
    "122956.435000",
    "122958.436000",
    "123000.435000",
    "123002.437000",
    "123004.437000",
    "123006.437000",
    "123008.436000",
    "123010.435000",
    "123012.436000",
    "123014.435000",
    "123016.436000",
    "123018.437000",
    "123020.436000",
    "123022.437000",
    "123024.436000",
    "123026.436000",
    "123028.435000",
    "123030.436000",
    "123032.436000",
    "123034.436000",
    "123036.436000",
    "123038.437000",
    "123040.437000",
    "123042.437000",
    "123044.435000",
    "123046.435000",
    "123048.436000",
    "123050.435000",
    "123052.436000",
    "123054.436000",
    "123056.436000",
    "123058.436000",
    "123100.437000",
    "123102.436000",
    "123104.436000",
    "123106.435000",
    "123108.436000",
    "123110.435000",
    "123112.437000",
    "123114.436000",
    "123116.437000",
    "123118.436000",
    "123120.436000",
    "123122.436000",
    "123124.436000",
    "123126.435000",
    "123128.436000",
    "123130.437000",
    "123132.437000",
    "123134.436000",
    "123136.437000",
    "123138.435000",
    "123140.435000",
    "123142.435000",
    "123144.436000",
    "123146.436000",
    "123148.436000",
    "123150.436000",
    "123152.436000",
    "123154.436000",
    "123156.436000",
    "123158.435000",
    "123200.435000",
    "123202.436000",
    "123204.437000",
    "123206.437000",
    "123208.436000",
    "123210.437000",
    "123212.436000",
    "123214.436000",
    "123216.435000",
    "123218.436000",
    "123220.435000",
    "123222.436000",
    "123224.436000",
    "123226.437000",
    "123228.437000",
    "123230.435000",
    "123232.436000",
    "123234.436000",
    "123236.435000",
    "123238.437000",
    "123240.437000",
    "123242.436000",
    "123244.436000",
    "123246.437000",
    "123248.436000",
    "123250.435000",
    "123252.436000",
    "123254.435000",
    "123256.437000",
    "123258.437000",
    "123300.437000",
    "123302.437000",
    "123304.436000",
    "123306.436000",
    "123308.436000",
    "123310.436000",
    "123312.435000",
    "123314.436000",
    "123316.437000",
    "123318.445000",
    "123320.436000",
    "123322.435000",
    "123324.435000",
    "123326.435000",
    "123328.436000",
    "123330.436000",
    "123332.437000",
    "123334.436000",
    "123336.437000",
    "123338.437000",
    "123340.436000",
    "123342.436000",
    "123344.436000",
    "123346.435000",
    "123348.437000",
    "123350.437000",
    "123352.436000",
    "123354.437000",
    "123356.436000",
    "123358.436000",
    "123400.435000",
    "123402.436000",
    "123404.436000",
    "123406.437000",
    "123408.436000",
    "123410.436000",
    "123412.437000",
    "123414.436000",
    "123416.436000",
    "123418.436000",
    "123420.435000",
    "123422.436000",
    "123424.437000",
    "123426.437000",
    "123428.437000",
    "123430.436000",
    "123432.436000",
    "123434.435000",
    "123436.435000",
    "123438.435000",
    "123440.436000",
    "123442.437000",
    "123444.437000",
    "123446.437000",
    "123448.437000",
    "123450.436000",
    "123452.436000",
    "123454.436000",
    "123456.435000",
    "123458.436000",
    "123500.437000",
    "123502.436000",
    "123504.436000",
    "123506.437000",
    "123508.436000",
    "123510.435000",
    "123512.435000",
    "123514.436000",
    "123516.437000",
    "123518.437000",
    "123520.437000",
    "123522.436000",
    "123524.436000",
    "123526.435000",
    "123528.436000",
    "123530.436000",
    "123532.435000",
    "123534.437000",
    "123536.437000",
    "123538.437000",
    "123540.437000",
    "123542.436000",
    "123544.436000",
    "123546.436000",
    "123548.436000",
    "123550.437000",
    "123552.437000",
    "123554.437000",
    "123556.437000",
    "123558.437000",
    "123600.436000",
    "123602.436000",
    "123604.436000",
    "123606.436000",
    "123608.437000",
    "123610.437000",
    "123612.436000",
    "123614.436000",
    "123616.436000",
    "123618.436000",
    "123620.435000",
    "123622.436000",
    "123624.435000",
    "123626.437000",
    "123628.436000",
    "123630.437000",
    "123632.436000",
    "123634.436000",
    "123636.435000",
    "123638.436000",
    "123640.436000",
    "123642.436000",
    "123644.437000",
    "123646.437000",
    "123648.437000",
    "123650.436000",
    "123652.435000",
    "123654.436000",
    "123656.435000",
    "123658.435000",
    "123700.437000",
    "123702.436000",
    "123704.437000",
    "123706.437000",
    "123708.437000",
    "123710.436000",
    "123712.436000",
    "123714.436000",
    "123716.435000",
    "123718.436000",
    "123720.437000",
    "123722.436000",
    "123724.436000",
    "123726.436000",
    "123728.436000",
    "123730.436000",
    "123732.436000",
    "123734.436000",
    "123736.436000",
    "123738.436000",
    "123740.436000",
    "123742.437000",
    "123744.435000",
    "123746.142000"
   ],
   "InstanceCreationTime": [
    "122916.948000",
    "122918.435000",
    "122920.435000",
    "122922.436000",
    "122924.436000",
    "122926.436000",
    "122928.437000",
    "122930.436000",
    "122932.436000",
    "122934.436000",
    "122936.435000",
    "122938.435000",
    "122940.436000",
    "122942.435000",
    "122944.436000",
    "122946.436000",
    "122948.436000",
    "122950.436000",
    "122952.436000",
    "122954.435000",
    "122956.435000",
    "122958.436000",
    "123000.435000",
    "123002.437000",
    "123004.437000",
    "123006.437000",
    "123008.436000",
    "123010.435000",
    "123012.436000",
    "123014.435000",
    "123016.436000",
    "123018.437000",
    "123020.436000",
    "123022.437000",
    "123024.436000",
    "123026.436000",
    "123028.435000",
    "123030.436000",
    "123032.436000",
    "123034.436000",
    "123036.436000",
    "123038.437000",
    "123040.437000",
    "123042.437000",
    "123044.435000",
    "123046.435000",
    "123048.436000",
    "123050.435000",
    "123052.436000",
    "123054.436000",
    "123056.436000",
    "123058.436000",
    "123100.437000",
    "123102.436000",
    "123104.436000",
    "123106.435000",
    "123108.436000",
    "123110.435000",
    "123112.437000",
    "123114.436000",
    "123116.437000",
    "123118.436000",
    "123120.436000",
    "123122.436000",
    "123124.436000",
    "123126.435000",
    "123128.436000",
    "123130.437000",
    "123132.437000",
    "123134.436000",
    "123136.437000",
    "123138.435000",
    "123140.435000",
    "123142.435000",
    "123144.436000",
    "123146.436000",
    "123148.436000",
    "123150.436000",
    "123152.436000",
    "123154.436000",
    "123156.436000",
    "123158.435000",
    "123200.435000",
    "123202.436000",
    "123204.437000",
    "123206.437000",
    "123208.436000",
    "123210.437000",
    "123212.436000",
    "123214.436000",
    "123216.435000",
    "123218.436000",
    "123220.435000",
    "123222.436000",
    "123224.436000",
    "123226.437000",
    "123228.437000",
    "123230.435000",
    "123232.436000",
    "123234.436000",
    "123236.435000",
    "123238.437000",
    "123240.437000",
    "123242.436000",
    "123244.436000",
    "123246.437000",
    "123248.436000",
    "123250.435000",
    "123252.436000",
    "123254.435000",
    "123256.437000",
    "123258.437000",
    "123300.437000",
    "123302.437000",
    "123304.436000",
    "123306.436000",
    "123308.436000",
    "123310.436000",
    "123312.435000",
    "123314.436000",
    "123316.437000",
    "123318.445000",
    "123320.436000",
    "123322.435000",
    "123324.435000",
    "123326.435000",
    "123328.436000",
    "123330.436000",
    "123332.437000",
    "123334.436000",
    "123336.437000",
    "123338.437000",
    "123340.436000",
    "123342.436000",
    "123344.436000",
    "123346.435000",
    "123348.437000",
    "123350.437000",
    "123352.436000",
    "123354.437000",
    "123356.436000",
    "123358.436000",
    "123400.435000",
    "123402.436000",
    "123404.436000",
    "123406.437000",
    "123408.436000",
    "123410.436000",
    "123412.437000",
    "123414.436000",
    "123416.436000",
    "123418.436000",
    "123420.435000",
    "123422.436000",
    "123424.437000",
    "123426.437000",
    "123428.437000",
    "123430.436000",
    "123432.436000",
    "123434.435000",
    "123436.435000",
    "123438.435000",
    "123440.436000",
    "123442.437000",
    "123444.437000",
    "123446.437000",
    "123448.437000",
    "123450.436000",
    "123452.436000",
    "123454.436000",
    "123456.435000",
    "123458.436000",
    "123500.437000",
    "123502.436000",
    "123504.436000",
    "123506.437000",
    "123508.436000",
    "123510.435000",
    "123512.435000",
    "123514.436000",
    "123516.437000",
    "123518.437000",
    "123520.437000",
    "123522.436000",
    "123524.436000",
    "123526.435000",
    "123528.436000",
    "123530.436000",
    "123532.435000",
    "123534.437000",
    "123536.437000",
    "123538.437000",
    "123540.437000",
    "123542.436000",
    "123544.436000",
    "123546.436000",
    "123548.436000",
    "123550.437000",
    "123552.437000",
    "123554.437000",
    "123556.437000",
    "123558.437000",
    "123600.436000",
    "123602.436000",
    "123604.436000",
    "123606.436000",
    "123608.437000",
    "123610.437000",
    "123612.436000",
    "123614.436000",
    "123616.436000",
    "123618.436000",
    "123620.435000",
    "123622.436000",
    "123624.435000",
    "123626.437000",
    "123628.436000",
    "123630.437000",
    "123632.436000",
    "123634.436000",
    "123636.435000",
    "123638.436000",
    "123640.436000",
    "123642.436000",
    "123644.437000",
    "123646.437000",
    "123648.437000",
    "123650.436000",
    "123652.435000",
    "123654.436000",
    "123656.435000",
    "123658.435000",
    "123700.437000",
    "123702.436000",
    "123704.437000",
    "123706.437000",
    "123708.437000",
    "123710.436000",
    "123712.436000",
    "123714.436000",
    "123716.435000",
    "123718.436000",
    "123720.437000",
    "123722.436000",
    "123724.436000",
    "123726.436000",
    "123728.436000",
    "123730.436000",
    "123732.436000",
    "123734.436000",
    "123736.436000",
    "123738.436000",
    "123740.436000",
    "123742.437000",
    "123744.435000",
    "123746.142000"
   ],
   "InstanceNumber": [
    1,
    2,
    3,
    4,
    5,
    6,
    7,
    8,
    9,
    10,
    11,
    12,
    13,
    14,
    15,
    16,
    17,
    18,
    19,
    20,
    21,
    22,
    23,
    24,
    25,
    26,
    27,
    28,
    29,
    30,
    31,
    32,
    33,
    34,
    35,
    36,
    37,
    38,
    39,
    40,
    41,
    42,
    43,
    44,
    45,
    46,
    47,
    48,
    49,
    50,
    51,
    52,
    53,
    54,
    55,
    56,
    57,
    58,
    59,
    60,
    61,
    62,
    63,
    64,
    65,
    66,
    67,
    68,
    69,
    70,
    71,
    72,
    73,
    74,
    75,
    76,
    77,
    78,
    79,
    80,
    81,
    82,
    83,
    84,
    85,
    86,
    87,
    88,
    89,
    90,
    91,
    92,
    93,
    94,
    95,
    96,
    97,
    98,
    99,
    100,
    101,
    102,
    103,
    104,
    105,
    106,
    107,
    108,
    109,
    110,
    111,
    112,
    113,
    114,
    115,
    116,
    117,
    118,
    119,
    120,
    121,
    122,
    123,
    124,
    125,
    126,
    127,
    128,
    129,
    130,
    131,
    132,
    133,
    134,
    135,
    136,
    137,
    138,
    139,
    140,
    141,
    142,
    143,
    144,
    145,
    146,
    147,
    148,
    149,
    150,
    151,
    152,
    153,
    154,
    155,
    156,
    157,
    158,
    159,
    160,
    161,
    162,
    163,
    164,
    165,
    166,
    167,
    168,
    169,
    170,
    171,
    172,
    173,
    174,
    175,
    176,
    177,
    178,
    179,
    180,
    181,
    182,
    183,
    184,
    185,
    186,
    187,
    188,
    189,
    190,
    191,
    192,
    193,
    194,
    195,
    196,
    197,
    198,
    199,
    200,
    201,
    202,
    203,
    204,
    205,
    206,
    207,
    208,
    209,
    210,
    211,
    212,
    213,
    214,
    215,
    216,
    217,
    218,
    219,
    220,
    221,
    222,
    223,
    224,
    225,
    226,
    227,
    228,
    229,
    230,
    231,
    232,
    233,
    234,
    235,
    236,
    237,
    238,
    239,
    240,
    241,
    242,
    243,
    244,
    245,
    246,
    247,
    248,
    249,
    250,
    251,
    252,
    253,
    254,
    255,
    256
   ],
   "LargestImagePixelValue": [
    3808,
    3773,
    3717,
    3667,
    3733,
    3698,
    3717,
    3719,
    3741,
    3734,
    3749,
    3727,
    3718,
    3712,
    3721,
    3744,
    3728,
    3698,
    3688,
    3679,
    3707,
    3693,
    3677,
    3679,
    3700,
    3730,
    3734,
    3736,
    3738,
    3725,
    3716,
    3715,
    3763,
    3723,
    3796,
    3724,
    3715,
    3778,
    3716,
    3769,
    3732,
    3784,
    3716,
    3746,
    3700,
    3715,
    3712,
    3710,
    3713,
    3712,
    3694,
    3764,
    3678,
    3760,
    3709,
    3724,
    3683,
    3715,
    3714,
    3709,
    3734,
    3715,
    3771,
    3699,
    3725,
    3706,
    3741,
    3752,
    3756,
    3754,
    3782,
    3745,
    3741,
    3772,
    3754,
    3752,
    3755,
    3735,
    3729,
    3713,
    3726,
    3711,
    3750,
    3729,
    3707,
    3746,
    3737,
    3753,
    3719,
    3777,
    3765,
    3774,
    3729,
    3820,
    3734,
    3762,
    3726,
    3736,
    3716,
    3741,
    3785,
    3725,
    3768,
    3717,
    3756,
    3720,
    3733,
    3711,
    3722,
    3730,
    3719,
    3766,
    3701,
    3721,
    3709,
    3745,
    3730,
    3724,
    3714,
    3707,
    3887,
    3938,
    3928,
    3857,
    3838,
    3866,
    3813,
    3889,
    3865,
    3914,
    3872,
    3846,
    3913,
    3890,
    3901,
    3848,
    3874,
    3891,
    3872,
    3842,
    3866,
    3843,
    3888,
    3837,
    3857,
    3796,
    3834,
    3862,
    3839,
    3880,
    3868,
    3872,
    3909,
    3885,
    3831,
    3944,
    3835,
    3899,
    3835,
    3850,
    3863,
    3880,
    3862,
    3861,
    3848,
    3900,
    3894,
    3910,
    3863,
    3813,
    3892,
    3832,
    3840,
    3862,
    3779,
    3880,
    3826,
    3865,
    3833,
    3846,
    3828,
    3879,
    3844,
    3902,
    3890,
    3840,
    3891,
    3864,
    3873,
    3856,
    3932,
    3896,
    3933,
    3890,
    3871,
    3820,
    3775,
    3875,
    3801,
    3883,
    3817,
    3887,
    3851,
    3841,
    3895,
    3889,
    3786,
    3890,
    3884,
    3906,
    3881,
    3904,
    3828,
    3932,
    3863,
    3904,
    3871,
    3878,
    3863,
    3858,
    3835,
    3790,
    3870,
    3818,
    3875,
    3863,
    3911,
    3831,
    3935,
    3868,
    3802,
    3943,
    3857,
    3929,
    3825,
    3952,
    3876,
    3884,
    3850,
    3861,
    3864,
    3910,
    3842,
    3885,
    3884,
    3894,
    3876,
    3866,
    3943,
    3913,
    3837,
    3900,
    3830,
    3825,
    3804,
    3840
   ],
   "WindowCenter": [
    811.0,
    809.0,
    808.0,
    806.0,
    807.0,
    808.0,
    809.0,
    810.0,
    809.0,
    808.0,
    808.0,
    808.0,
    809.0,
    808.0,
    808.0,
    808.0,
    808.0,
    809.0,
    808.0,
    807.0,
    807.0,
    806.0,
    807.0,
    807.0,
    807.0,
    808.0,
    809.0,
    810.0,
    809.0,
    808.0,
    808.0,
    808.0,
    808.0,
    809.0,
    808.0,
    807.0,
    807.0,
    808.0,
    808.0,
    808.0,
    808.0,
    808.0,
    808.0,
    808.0,
    807.0,
    806.0,
    806.0,
    807.0,
    807.0,
    808.0,
    808.0,
    809.0,
    810.0,
    810.0,
    809.0,
    808.0,
    808.0,
    809.0,
    809.0,
    809.0,
    809.0,
    808.0,
    808.0,
    808.0,
    808.0,
    807.0,
    808.0,
    808.0,
    808.0,
    808.0,
    808.0,
    808.0,
    808.0,
    808.0,
    807.0,
    808.0,
    808.0,
    807.0,
    808.0,
    808.0,
    807.0,
    807.0,
    807.0,
    807.0,
    808.0,
    808.0,
    808.0,
    808.0,
    807.0,
    807.0,
    807.0,
    807.0,
    806.0,
    808.0,
    809.0,
    809.0,
    808.0,
    807.0,
    806.0,
    807.0,
    807.0,
    807.0,
    808.0,
    808.0,
    808.0,
    807.0,
    806.0,
    806.0,
    806.0,
    807.0,
    807.0,
    807.0,
    806.0,
    807.0,
    808.0,
    810.0,
    809.0,
    808.0,
    807.0,
    805.0,
    805.0,
    805.0,
    805.0,
    805.0,
