{
 "AcquisitionMatrixPE": 100,
 "AcquisitionNumber": 1,
 "AcquisitionTime": "11:07:44.855000",
 "BandwidthPerPixelPhaseEncode": 18.519,
 "BaseResolution": 100,
 "BodyPartExamined": "BRAIN",
 "ConsistencyInfo": "N4_VE11C_LATEST_20160120",
 "ConversionSoftware": "dcm2niix",
 "ConversionSoftwareVersion": "v1.0.20180622 GCC4.9.2",
 "DerivedVendorReportedEchoSpacing": 0.000539986,
 "DeviceSerialNumber": "166078",
 "DwellTime": 2.1e-06,
 "EchoTime": 0.034,
 "EchoTrainLength": 100,
 "EffectiveEchoSpacing": 0.000539986,
 "FlipAngle": 90,
 "ImageOrientationPatientDICOM": [
  1,
  0,
  0,
  0,
  0.971961,
  -0.235142
 ],
 "ImageType": [
  "ORIGINAL",
  "PRIMARY",
  "M",
  "ND",
  "MOSAIC"
 ],
 "InPlanePhaseEncodingDirectionDICOM": "COL",
 "InstitutionAddress": "Street_StreetNo_Bei_Jing_District_CN_ZIP",
 "InstitutionName": "BeiJing_Normal_University",
 "InstitutionalDepartmentName": "Department",
 "MRAcquisitionType": "2D",
 "MagneticFieldStrength": 3,
 "Manufacturer": "Siemens",
 "ManufacturersModelName": "Prisma",
 "Modality": "MR",
 "MultibandAccelerationFactor": 3,
 "PartialFourier": 1,
 "PatientPosition": "HFS",
 "PercentPhaseFOV": 100,
 "PhaseEncodingDirection": "j-",
 "PhaseEncodingSteps": 100,
 "PhaseResolution": 1,
 "PixelBandwidth": 2380,
 "ProcedureStepDescription": "BNU_P2018_64CH_Zhen.ZongLei",
 "ProtocolName": "bold_100x100_s3_2x2x2_static_256",
 "PulseSequenceDetails": "%SiemensSeq%_ep2d_bold",
 "ReceiveCoilActiveElements": "HC1-7;NC1",
 "ReceiveCoilName": "HeadNeck_64",
 "ReconMatrixPE": 100,
 "RepetitionTime": 2,
 "SAR": 0.0660291,
 "ScanOptions": "FS",
 "ScanningSequence": "EP",
 "SequenceName": "_epfid2d1_100",
 "SequenceVariant": "SK",
 "SeriesDescription": "bold_100x100_s3_2x2x2_static_256",
 "SeriesNumber": 3,
 "ShimSetting": [
  -5475,
  -11487,
  -1257,
  439,
  -30,
  -147,
  -145,
  86
 ],
 "SliceThickness": 2,
 "SliceTiming": [
  1.485,
  0,
  0.99,
  0.0825,
  1.0725,
  0.165,
  1.155,
  0.2475,
  1.2375,
  0.33,
  1.32,
  0.4125,
  1.4025,
  0.5775,
  1.5675,
  0.66,
  1.65,
  0.7425,
  1.7325,
  0.825,
  1.815,
  0.9075,
  1.8975,
  0.495,
  1.485,
  0,
  0.99,
  0.0825,
  1.0725,
  0.165,
  1.155,
  0.2475,
  1.2375,
  0.33,
  1.32,
  0.4125,
  1.4025,
  0.5775,
  1.5675,
  0.66,
  1.65,
  0.7425,
  1.7325,
  0.825,
  1.815,
  0.9075,
  1.8975,
  0.495,
  1.485,
  0,
  0.99,
  0.0825,
  1.0725,
  0.165,
  1.155,
  0.2475,
  1.2375,
  0.33,
  1.32,
  0.4125,
  1.4025,
  0.5775,
  1.5675,
  0.66,
  1.65,
  0.7425,
  1.7325,
  0.825,
  1.815,
  0.9075,
  1.8975,
  0.495
 ],
 "SoftwareVersions": "syngo_MR_E11",
 "SpacingBetweenSlices": 2,
 "StationName": "AWP166078",
 "TaskName": "imagenet",
 "TotalReadoutTime": 0.0534586,
 "TxRefAmp": 208.985,
 "dcmmeta_affine": [
  [
   -2.0,
   0.0,
   0.0,
   100.67469787597656
  ],
  [
   0.0,
   1.9439220428466797,
   -0.47028419375419617,
   -78.27275085449219
  ],
  [
   0.0,
   0.47028419375419617,
   1.9439219236373901,
   -86.50135040283203
  ],
  [
   0.0,
   0.0,
   0.0,
   1.0
  ]
 ],
 "dcmmeta_reorient_transform": [
  [
   0.0,
   -1.0,
   0.0,
   99.0
  ],
  [
   1.0,
   0.0,
   0.0,
   0.0
  ],
  [
   0.0,
   0.0,
   1.0,
   0.0
  ],
  [
   0.0,
   0.0,
   0.0,
   1.0
  ]
 ],
 "dcmmeta_shape": [
  100,
  100,
  72,
  256
 ],
 "dcmmeta_slice_dim": 2,
 "dcmmeta_version": 0.6,
 "global": {
  "const": {
   "AcquisitionMatrix": [
    100,
    0,
    0,
    100
   ],
   "AngioFlag": "N",
   "BitsAllocated": 16,
   "BitsStored": 12,
   "BodyPartExamined": "BRAIN",
   "Columns": 900,
   "EchoNumbers": 1,
   "EchoTime": 34.0,
   "EchoTrainLength": 100,
   "FlipAngle": 90.0,
   "HighBit": 11,
   "ImageOrientationPatient": [
    1.0,
    0.0,
    0.0,
    0.0,
    0.97196100271939,
    -0.2351421042534
   ],
   "ImagePositionPatient": [
    -900.67469877005,
    -891.7443297851,
    148.17046966425
   ],
   "ImageType": [
    "ORIGINAL",
    "PRIMARY",
    "M",
    "ND",
    "MOSAIC"
   ],
   "ImagedNucleus": "1H",
   "ImagingFrequency": 123.257769,
   "InPlanePhaseEncodingDirection": "COL",
   "MRAcquisitionType": "2D",
   "MagneticFieldStrength": 3.0,
   "Manufacturer": "SIEMENS",
   "ManufacturerModelName": "Prisma",
   "Modality": "MR",
   "NumberOfAverages": 1.0,
   "NumberOfPhaseEncodingSteps": 100,
   "PercentPhaseFieldOfView": 100.0,
   "PercentSampling": 100.0,
   "PerformedProcedureStepStartTime": "110459.350000",
   "PhotometricInterpretation": "MONOCHROME2",
   "PixelBandwidth": 2380.0,
   "PixelRepresentation": 0,
   "PixelSpacing": [
    2.0,
    2.0
   ],
   "ProtocolName": "bold_100x100_s3_2x2x2_static_256",
   "RepetitionTime": 2000.0,
   "Rows": 900,
   "SAR": 0.06602914037193,
   "SamplesPerPixel": 1,
   "ScanOptions": "FS",
   "ScanningSequence": "EP",
   "SequenceName": "*epfid2d1_100",
   "SequenceVariant": "SK",
   "SeriesDescription": "bold_100x100_s3_2x2x2_static_256",
   "SeriesNumber": 3,
   "SeriesTime": "110747.401000",
   "SliceLocation": -65.670719893447,
   "SliceThickness": 2.0,
   "SmallestImagePixelValue": 0,
   "SoftwareVersions": "syngo MR E11",
   "SpacingBetweenSlices": 1.9999999639342,
   "SpecificCharacterSet": "ISO_IR 100",
   "StudyID": "1",
   "StudyTime": "110459.231000",
   "TransmitCoilName": "Body",
   "VariableFlipAngleFlag": "N",
   "WindowCenterWidthExplanation": "Algo1",
   "dBdt": 0.0
  },
  "slices": {}
 },
 "time": {
  "samples": {
   "AcquisitionNumber": [
    1,
    2,
    3,
    4,
    5,
    6,
    7,
    8,
    9,
    10,
    11,
    12,
    13,
    14,
    15,
    16,
    17,
    18,
    19,
    20,
    21,
    22,
    23,
    24,
    25,
    26,
    27,
    28,
    29,
    30,
    31,
    32,
    33,
    34,
    35,
    36,
    37,
    38,
    39,
    40,
    41,
    42,
    43,
    44,
    45,
    46,
    47,
    48,
    49,
    50,
    51,
    52,
    53,
    54,
    55,
    56,
    57,
    58,
    59,
    60,
    61,
    62,
    63,
    64,
    65,
    66,
    67,
    68,
    69,
    70,
    71,
    72,
    73,
    74,
    75,
    76,
    77,
    78,
    79,
    80,
    81,
    82,
    83,
    84,
    85,
    86,
    87,
    88,
    89,
    90,
    91,
    92,
    93,
    94,
    95,
    96,
    97,
    98,
    99,
    100,
    101,
    102,
    103,
    104,
    105,
    106,
    107,
    108,
    109,
    110,
    111,
    112,
    113,
    114,
    115,
    116,
    117,
    118,
    119,
    120,
    121,
    122,
    123,
    124,
    125,
    126,
    127,
    128,
    129,
    130,
    131,
    132,
    133,
    134,
    135,
    136,
    137,
    138,
    139,
    140,
    141,
    142,
    143,
    144,
    145,
    146,
    147,
    148,
    149,
    150,
    151,
    152,
    153,
    154,
    155,
    156,
    157,
    158,
    159,
    160,
    161,
    162,
    163,
    164,
    165,
    166,
    167,
    168,
    169,
    170,
    171,
    172,
    173,
    174,
    175,
    176,
    177,
    178,
    179,
    180,
    181,
    182,
    183,
    184,
    185,
    186,
    187,
    188,
    189,
    190,
    191,
    192,
    193,
    194,
    195,
    196,
    197,
    198,
    199,
    200,
    201,
    202,
    203,
    204,
    205,
    206,
    207,
    208,
    209,
    210,
    211,
    212,
    213,
    214,
    215,
    216,
    217,
    218,
    219,
    220,
    221,
    222,
    223,
    224,
    225,
    226,
    227,
    228,
    229,
    230,
    231,
    232,
    233,
    234,
    235,
    236,
    237,
    238,
    239,
    240,
    241,
    242,
    243,
    244,
    245,
    246,
    247,
    248,
    249,
    250,
    251,
    252,
    253,
    254,
    255,
    256
   ],
   "AcquisitionTime": [
    "110744.855000",
    "110746.855000",
    "110748.855000",
    "110750.855000",
    "110752.855000",
    "110754.855000",
    "110756.855000",
    "110758.855000",
    "110800.855000",
    "110802.855000",
    "110804.855000",
    "110806.855000",
    "110808.855000",
    "110810.855000",
    "110812.855000",
    "110814.855000",
    "110816.855000",
    "110818.855000",
    "110820.855000",
    "110822.855000",
    "110824.855000",
    "110826.855000",
    "110828.855000",
    "110830.855000",
    "110832.855000",
    "110834.855000",
    "110836.855000",
    "110838.855000",
    "110840.855000",
    "110842.855000",
    "110844.855000",
    "110846.855000",
    "110848.855000",
    "110850.855000",
    "110852.855000",
    "110854.855000",
    "110856.855000",
    "110858.855000",
    "110900.855000",
    "110902.855000",
    "110904.855000",
    "110906.855000",
    "110908.855000",
    "110910.855000",
    "110912.855000",
    "110914.855000",
    "110916.855000",
    "110918.855000",
    "110920.855000",
    "110922.855000",
    "110924.855000",
    "110926.855000",
    "110928.855000",
    "110930.855000",
    "110932.855000",
    "110934.855000",
    "110936.855000",
    "110938.855000",
    "110940.855000",
    "110942.855000",
    "110944.855000",
    "110946.855000",
    "110948.855000",
    "110950.855000",
    "110952.855000",
    "110954.855000",
    "110956.855000",
    "110958.855000",
    "111000.855000",
    "111002.855000",
    "111004.855000",
    "111006.855000",
    "111008.855000",
    "111010.855000",
    "111012.855000",
    "111014.855000",
    "111016.855000",
    "111018.855000",
    "111020.855000",
    "111022.855000",
    "111024.855000",
    "111026.855000",
    "111028.855000",
    "111030.855000",
    "111032.855000",
    "111034.855000",
    "111036.855000",
    "111038.855000",
    "111040.855000",
    "111042.855000",
    "111044.855000",
    "111046.855000",
    "111048.855000",
    "111050.855000",
    "111052.855000",
    "111054.855000",
    "111056.855000",
    "111058.855000",
    "111100.855000",
    "111102.855000",
    "111104.855000",
    "111106.855000",
    "111108.855000",
    "111110.855000",
    "111112.855000",
    "111114.855000",
    "111116.855000",
    "111118.855000",
    "111120.855000",
    "111122.855000",
    "111124.855000",
    "111126.855000",
    "111128.855000",
    "111130.855000",
    "111132.855000",
    "111134.855000",
    "111136.855000",
    "111138.855000",
    "111140.855000",
    "111142.855000",
    "111144.855000",
    "111146.855000",
    "111148.855000",
    "111150.855000",
    "111152.855000",
    "111154.855000",
    "111156.855000",
    "111158.855000",
    "111200.855000",
    "111202.855000",
    "111204.855000",
    "111206.855000",
    "111208.855000",
    "111210.855000",
    "111212.855000",
    "111214.855000",
    "111216.855000",
    "111218.855000",
    "111220.855000",
    "111222.855000",
    "111224.855000",
    "111226.855000",
    "111228.855000",
    "111230.855000",
    "111232.855000",
    "111234.855000",
    "111236.855000",
    "111238.855000",
    "111240.855000",
    "111242.855000",
    "111244.855000",
    "111246.855000",
    "111248.855000",
    "111250.855000",
    "111252.855000",
    "111254.855000",
    "111256.855000",
    "111258.855000",
    "111300.855000",
    "111302.855000",
    "111304.855000",
    "111306.855000",
    "111308.855000",
    "111310.855000",
    "111312.855000",
    "111314.855000",
    "111316.855000",
    "111318.855000",
    "111320.855000",
    "111322.855000",
    "111324.855000",
    "111326.855000",
    "111328.855000",
    "111330.855000",
    "111332.855000",
    "111334.855000",
    "111336.855000",
    "111338.855000",
    "111340.855000",
    "111342.855000",
    "111344.855000",
    "111346.855000",
    "111348.855000",
    "111350.855000",
    "111352.855000",
    "111354.855000",
    "111356.855000",
    "111358.855000",
    "111400.855000",
    "111402.855000",
    "111404.855000",
    "111406.855000",
    "111408.855000",
    "111410.855000",
    "111412.855000",
    "111414.855000",
    "111416.855000",
    "111418.855000",
    "111420.855000",
    "111422.855000",
    "111424.855000",
    "111426.855000",
    "111428.855000",
    "111430.855000",
    "111432.855000",
    "111434.855000",
    "111436.855000",
    "111438.855000",
    "111440.855000",
    "111442.855000",
    "111444.855000",
    "111446.855000",
    "111448.855000",
    "111450.855000",
    "111452.855000",
    "111454.855000",
    "111456.855000",
    "111458.855000",
    "111500.855000",
    "111502.855000",
    "111504.855000",
    "111506.855000",
    "111508.855000",
    "111510.855000",
    "111512.855000",
    "111514.855000",
    "111516.855000",
    "111518.855000",
    "111520.855000",
    "111522.855000",
    "111524.855000",
    "111526.855000",
    "111528.855000",
    "111530.855000",
    "111532.855000",
    "111534.855000",
    "111536.855000",
    "111538.855000",
    "111540.855000",
    "111542.855000",
    "111544.855000",
    "111546.855000",
    "111548.855000",
    "111550.855000",
    "111552.855000",
    "111554.855000",
    "111556.855000",
    "111558.855000",
    "111600.855000",
    "111602.855000",
    "111604.855000",
    "111606.855000",
    "111608.855000",
    "111610.855000",
    "111612.855000",
    "111614.855000"
   ],
   "ContentTime": [
    "110747.405000",
    "110748.900000",
    "110750.900000",
    "110752.900000",
    "110754.900000",
    "110756.901000",
    "110758.901000",
    "110800.901000",
    "110802.900000",
    "110804.901000",
    "110806.899000",
    "110808.900000",
    "110810.900000",
    "110812.900000",
    "110814.901000",
    "110816.900000",
    "110818.900000",
    "110820.900000",
    "110822.901000",
    "110824.900000",
    "110826.900000",
    "110828.900000",
    "110830.901000",
    "110832.900000",
    "110834.901000",
    "110836.900000",
    "110838.900000",
    "110840.900000",
    "110842.901000",
    "110844.901000",
    "110846.900000",
    "110848.900000",
    "110850.900000",
    "110852.900000",
    "110854.900000",
    "110856.900000",
    "110858.899000",
    "110900.901000",
    "110902.901000",
    "110904.901000",
    "110906.900000",
    "110908.900000",
    "110910.900000",
    "110912.901000",
    "110914.900000",
    "110916.899000",
    "110918.901000",
    "110920.900000",
    "110922.900000",
    "110924.900000",
    "110926.901000",
    "110928.901000",
    "110930.900000",
    "110932.900000",
    "110934.900000",
    "110936.900000",
    "110938.901000",
    "110940.901000",
    "110942.900000",
    "110944.901000",
    "110946.900000",
    "110948.900000",
    "110950.900000",
    "110952.901000",
    "110954.901000",
    "110956.900000",
    "110958.901000",
    "111000.900000",
    "111002.900000",
    "111004.901000",
    "111006.901000",
    "111008.899000",
    "111010.900000",
    "111012.900000",
    "111014.901000",
    "111016.900000",
    "111018.900000",
    "111020.901000",
    "111022.901000",
    "111024.901000",
    "111026.899000",
    "111028.901000",
    "111030.901000",
    "111032.900000",
    "111034.901000",
    "111036.900000",
    "111038.901000",
    "111040.900000",
    "111042.900000",
    "111044.899000",
    "111046.901000",
    "111048.900000",
    "111050.900000",
    "111052.901000",
    "111054.900000",
    "111056.901000",
    "111058.901000",
    "111100.901000",
    "111102.900000",
    "111104.900000",
    "111106.901000",
    "111108.900000",
    "111110.901000",
    "111112.901000",
    "111114.900000",
    "111116.900000",
    "111118.899000",
    "111120.900000",
    "111122.901000",
    "111124.901000",
    "111126.900000",
    "111128.901000",
    "111130.900000",
    "111132.901000",
    "111134.901000",
    "111136.899000",
    "111138.901000",
    "111140.901000",
    "111142.900000",
    "111144.900000",
    "111146.900000",
    "111148.900000",
    "111150.901000",
    "111152.900000",
    "111154.899000",
    "111156.900000",
    "111158.901000",
    "111200.900000",
    "111202.901000",
    "111204.900000",
    "111206.901000",
    "111208.901000",
    "111210.900000",
    "111212.900000",
    "111214.900000",
    "111216.900000",
    "111218.901000",
    "111220.901000",
    "111222.900000",
    "111224.900000",
    "111226.901000",
    "111228.899000",
    "111230.900000",
    "111232.901000",
    "111234.900000",
    "111236.900000",
    "111238.901000",
    "111240.900000",
    "111242.901000",
    "111244.900000",
    "111246.899000",
    "111248.900000",
    "111250.900000",
    "111252.901000",
    "111254.900000",
    "111256.900000",
    "111258.900000",
    "111300.901000",
    "111302.901000",
    "111304.900000",
    "111306.900000",
    "111308.901000",
    "111310.900000",
    "111312.901000",
    "111314.900000",
    "111316.900000",
    "111318.901000",
    "111320.900000",
    "111322.901000",
    "111324.900000",
    "111326.900000",
    "111328.900000",
    "111330.901000",
    "111332.901000",
    "111334.900000",
    "111336.900000",
    "111338.900000",
    "111340.900000",
    "111342.901000",
    "111344.901000",
    "111346.901000",
    "111348.901000",
    "111350.901000",
    "111352.901000",
    "111354.900000",
    "111356.900000",
    "111358.900000",
    "111400.900000",
    "111402.900000",
    "111404.901000",
    "111406.900000",
    "111408.901000",
    "111410.901000",
    "111412.900000",
    "111414.900000",
    "111416.901000",
    "111418.900000",
    "111420.900000",
    "111422.900000",
    "111424.901000",
    "111426.901000",
    "111428.901000",
    "111430.900000",
    "111432.900000",
    "111434.900000",
    "111436.900000",
    "111438.901000",
    "111440.901000",
    "111442.901000",
    "111444.916000",
    "111446.901000",
    "111448.900000",
    "111450.901000",
    "111452.901000",
    "111454.901000",
    "111456.900000",
    "111458.901000",
    "111500.900000",
    "111502.901000",
    "111504.901000",
    "111506.900000",
    "111508.901000",
    "111510.900000",
    "111512.900000",
    "111514.901000",
    "111516.901000",
    "111518.901000",
    "111520.900000",
    "111522.901000",
    "111524.900000",
    "111526.900000",
    "111528.901000",
    "111530.901000",
    "111532.900000",
    "111534.901000",
    "111536.901000",
    "111538.901000",
    "111540.900000",
    "111542.901000",
    "111544.900000",
    "111546.900000",
    "111548.901000",
    "111550.900000",
    "111552.901000",
    "111554.901000",
    "111556.901000",
    "111558.900000",
    "111600.901000",
    "111602.901000",
    "111604.901000",
    "111606.900000",
    "111608.900000",
    "111610.901000",
    "111612.901000",
    "111614.901000",
    "111616.684000"
   ],
   "InstanceCreationTime": [
    "110747.405000",
    "110748.900000",
    "110750.900000",
    "110752.900000",
    "110754.900000",
    "110756.901000",
    "110758.901000",
    "110800.901000",
    "110802.900000",
    "110804.901000",
    "110806.899000",
    "110808.900000",
    "110810.900000",
    "110812.900000",
    "110814.901000",
    "110816.900000",
    "110818.900000",
    "110820.900000",
    "110822.901000",
    "110824.900000",
    "110826.900000",
    "110828.900000",
    "110830.901000",
    "110832.900000",
    "110834.901000",
    "110836.900000",
    "110838.900000",
    "110840.900000",
    "110842.901000",
    "110844.901000",
    "110846.900000",
    "110848.900000",
    "110850.900000",
    "110852.900000",
    "110854.900000",
    "110856.900000",
    "110858.899000",
    "110900.901000",
    "110902.901000",
    "110904.901000",
    "110906.900000",
    "110908.900000",
    "110910.900000",
    "110912.901000",
    "110914.900000",
    "110916.899000",
    "110918.901000",
    "110920.900000",
    "110922.900000",
    "110924.900000",
    "110926.901000",
    "110928.901000",
    "110930.900000",
    "110932.900000",
    "110934.900000",
    "110936.900000",
    "110938.901000",
    "110940.901000",
    "110942.900000",
    "110944.901000",
    "110946.900000",
    "110948.900000",
    "110950.900000",
    "110952.901000",
    "110954.901000",
    "110956.900000",
    "110958.901000",
    "111000.900000",
    "111002.900000",
    "111004.901000",
    "111006.901000",
    "111008.899000",
    "111010.900000",
    "111012.900000",
    "111014.901000",
    "111016.900000",
    "111018.900000",
    "111020.901000",
    "111022.901000",
    "111024.901000",
    "111026.899000",
    "111028.901000",
    "111030.901000",
    "111032.900000",
    "111034.901000",
    "111036.900000",
    "111038.901000",
    "111040.900000",
    "111042.900000",
    "111044.899000",
    "111046.901000",
    "111048.900000",
    "111050.900000",
    "111052.901000",
    "111054.900000",
    "111056.901000",
    "111058.901000",
    "111100.901000",
    "111102.900000",
    "111104.900000",
    "111106.901000",
    "111108.900000",
    "111110.901000",
    "111112.901000",
    "111114.900000",
    "111116.900000",
    "111118.899000",
    "111120.900000",
    "111122.901000",
    "111124.901000",
    "111126.900000",
    "111128.901000",
    "111130.900000",
    "111132.901000",
    "111134.901000",
    "111136.899000",
    "111138.901000",
    "111140.901000",
    "111142.900000",
    "111144.900000",
    "111146.900000",
    "111148.900000",
    "111150.901000",
    "111152.900000",
    "111154.899000",
    "111156.900000",
    "111158.901000",
    "111200.900000",
    "111202.901000",
    "111204.900000",
    "111206.901000",
    "111208.901000",
    "111210.900000",
    "111212.900000",
    "111214.900000",
    "111216.900000",
    "111218.901000",
    "111220.901000",
    "111222.900000",
    "111224.900000",
    "111226.901000",
    "111228.899000",
    "111230.900000",
    "111232.901000",
    "111234.900000",
    "111236.900000",
    "111238.901000",
    "111240.900000",
    "111242.901000",
    "111244.900000",
    "111246.899000",
    "111248.900000",
    "111250.900000",
    "111252.901000",
    "111254.900000",
    "111256.900000",
    "111258.900000",
    "111300.901000",
    "111302.901000",
    "111304.900000",
    "111306.900000",
    "111308.901000",
    "111310.900000",
    "111312.901000",
    "111314.900000",
    "111316.900000",
    "111318.901000",
    "111320.900000",
    "111322.901000",
    "111324.900000",
    "111326.900000",
    "111328.900000",
    "111330.901000",
    "111332.901000",
    "111334.900000",
    "111336.900000",
    "111338.900000",
    "111340.900000",
    "111342.901000",
    "111344.901000",
    "111346.901000",
    "111348.901000",
    "111350.901000",
    "111352.901000",
    "111354.900000",
    "111356.900000",
    "111358.900000",
    "111400.900000",
    "111402.900000",
    "111404.901000",
    "111406.900000",
    "111408.901000",
    "111410.901000",
    "111412.900000",
    "111414.900000",
    "111416.901000",
    "111418.900000",
    "111420.900000",
    "111422.900000",
    "111424.901000",
    "111426.901000",
    "111428.901000",
    "111430.900000",
    "111432.900000",
    "111434.900000",
    "111436.900000",
    "111438.901000",
    "111440.901000",
    "111442.901000",
    "111444.916000",
    "111446.901000",
    "111448.900000",
    "111450.901000",
    "111452.901000",
    "111454.901000",
    "111456.900000",
    "111458.901000",
    "111500.900000",
    "111502.901000",
    "111504.901000",
    "111506.900000",
    "111508.901000",
    "111510.900000",
    "111512.900000",
    "111514.901000",
    "111516.901000",
    "111518.901000",
    "111520.900000",
    "111522.901000",
    "111524.900000",
    "111526.900000",
    "111528.901000",
    "111530.901000",
    "111532.900000",
    "111534.901000",
    "111536.901000",
    "111538.901000",
    "111540.900000",
    "111542.901000",
    "111544.900000",
    "111546.900000",
    "111548.901000",
    "111550.900000",
    "111552.901000",
    "111554.901000",
    "111556.901000",
    "111558.900000",
    "111600.901000",
    "111602.901000",
    "111604.901000",
    "111606.900000",
    "111608.900000",
    "111610.901000",
    "111612.901000",
    "111614.901000",
    "111616.684000"
   ],
   "InstanceNumber": [
    1,
    2,
    3,
    4,
    5,
    6,
    7,
    8,
    9,
    10,
    11,
    12,
    13,
    14,
    15,
    16,
    17,
    18,
    19,
    20,
    21,
    22,
    23,
    24,
    25,
    26,
    27,
    28,
    29,
    30,
    31,
    32,
    33,
    34,
    35,
    36,
    37,
    38,
    39,
    40,
    41,
    42,
    43,
    44,
    45,
    46,
    47,
    48,
    49,
    50,
    51,
    52,
    53,
    54,
    55,
    56,
    57,
    58,
    59,
    60,
    61,
    62,
    63,
    64,
    65,
    66,
    67,
    68,
    69,
    70,
    71,
    72,
    73,
    74,
    75,
    76,
    77,
    78,
    79,
    80,
    81,
    82,
    83,
    84,
    85,
    86,
    87,
    88,
    89,
    90,
    91,
    92,
    93,
    94,
    95,
    96,
    97,
    98,
    99,
    100,
    101,
    102,
    103,
    104,
    105,
    106,
    107,
    108,
    109,
    110,
    111,
    112,
    113,
    114,
    115,
    116,
    117,
    118,
    119,
    120,
    121,
    122,
    123,
    124,
    125,
    126,
    127,
    128,
    129,
    130,
    131,
    132,
    133,
    134,
    135,
    136,
    137,
    138,
    139,
    140,
    141,
    142,
    143,
    144,
    145,
    146,
    147,
    148,
    149,
    150,
    151,
    152,
    153,
    154,
    155,
    156,
    157,
    158,
    159,
    160,
    161,
    162,
    163,
    164,
    165,
    166,
    167,
    168,
    169,
    170,
    171,
    172,
    173,
    174,
    175,
    176,
    177,
    178,
    179,
    180,
    181,
    182,
    183,
    184,
    185,
    186,
    187,
    188,
    189,
    190,
    191,
    192,
    193,
    194,
    195,
    196,
    197,
    198,
    199,
    200,
    201,
    202,
    203,
    204,
    205,
    206,
    207,
    208,
    209,
    210,
    211,
    212,
    213,
    214,
    215,
    216,
    217,
    218,
    219,
    220,
    221,
    222,
    223,
    224,
    225,
    226,
    227,
    228,
    229,
    230,
    231,
    232,
    233,
    234,
    235,
    236,
    237,
    238,
    239,
    240,
    241,
    242,
    243,
    244,
    245,
    246,
    247,
    248,
    249,
    250,
    251,
    252,
    253,
    254,
    255,
    256
   ],
   "LargestImagePixelValue": [
    3643,
    3593,
    3599,
    3692,
    3591,
    3636,
    3626,
    3586,
    3598,
    3590,
    3607,
    3623,
    3609,
    3631,
    3629,
    3633,
    3644,
    3651,
    3608,
    3626,
    3615,
    3581,
    3587,
    3644,
    3602,
    3622,
    3678,
    3638,
    3672,
    3706,
    3694,
    3675,
    3695,
    3681,
    3697,
    3717,
    3772,
    3715,
    3722,
    3772,
    3716,
    3702,
    3702,
    3768,
    3706,
    3722,
    3734,
    3699,
    3707,
    3724,
    3709,
    3674,
    3693,
    3694,
    3664,
    3727,
    3789,
    3709,
    3736,
    3718,
    3710,
    3763,
    3772,
    3794,
    3704,
    3762,
    3769,
    3701,
    3736,
    3774,
    3736,
    3798,
    3780,
    3727,
    3709,
    3701,
    3699,
    3640,
    3682,
    3730,
    3766,
    3729,
    3762,
    3771,
    3804,
    3777,
    3806,
    3842,
    3804,
    3777,
    3788,
    3828,
    3808,
    3814,
    3805,
    3835,
    3763,
    3746,
    3719,
    3752,
    3799,
    3756,
    3783,
    3781,
    3848,
    3822,
    3766,
    3837,
    3826,
    3841,
    3618,
    3657,
    3620,
    3674,
    3670,
    3734,
    3608,
    3641,
    3660,
    3678,
    3648,
    3661,
    3642,
    3650,
    3621,
    3617,
    3667,
    3683,
    3682,
    3720,
    3715,
    3694,
    3706,
    3729,
    3750,
    3810,
    3773,
    3829,
    3749,
    3774,
    3787,
    3768,
    3790,
    3799,
    3808,
    3805,
    3770,
    3773,
    3788,
    3784,
    3731,
    3686,
    3693,
    3692,
    3742,
    3751,
    3723,
    3808,
    3725,
    3751,
    3778,
    3772,
    3833,
    3801,
    3783,
    3744,
    3788,
    3828,
    3816,
    3839,
    3832,
    3812,
    3740,
    3726,
    3784,
    3769,
    3808,
    3802,
    3819,
    3857,
    3756,
    3741,
    3699,
    3731,
    3703,
    3721,
    3677,
    3680,
    3706,
    3705,
    3696,
    3818,
    3733,
    3706,
    3718,
    3710,
    3729,
    3744,
    3758,
    3788,
    3776,
    3792,
    3769,
    3788,
    3769,
    3815,
    3768,
    3732,
    3745,
    3754,
    3782,
    3783,
    3734,
    3690,
    3670,
    3701,
    3677,
    3701,
    3678,
    3710,
    3651,
    3686,
    3644,
    3654,
    3685,
    3769,
    3738,
    3809,
    3768,
    3797,
    3779,
    3844,
    3740,
    3734,
    3786,
    3792,
    3821,
    3818,
    3781,
    3729,
    3750,
    3743,
    3713,
    3770,
    3743,
    3744,
    3677,
    3698,
    3713,
    3715,
    3766,
    3717,
    3774,
    3744,
    3782,
    3778
   ],
   "WindowCenter": [
    800.0,
    799.0,
    799.0,
    801.0,
    801.0,
    801.0,
    800.0,
    800.0,
    800.0,
    800.0,
    802.0,
    803.0,
    804.0,
    803.0,
    802.0,
    802.0,
    802.0,
    801.0,
    801.0,
    801.0,
    801.0,
    800.0,
    800.0,
    800.0,
    799.0,
    800.0,
    800.0,
    800.0,
    800.0,
    800.0,
    801.0,
    801.0,
    801.0,
    800.0,
    800.0,
    799.0,
    799.0,
    799.0,
    801.0,
    801.0,
    800.0,
    798.0,
    799.0,
    800.0,
    800.0,
    799.0,
    798.0,
    798.0,
    798.0,
    799.0,
    798.0,
    799.0,
    799.0,
    800.0,
    799.0,
    799.0,
    799.0,
    799.0,
    799.0,
    799.0,
    800.0,
    800.0,
    800.0,
    799.0,
    799.0,
    800.0,
    801.0,
    800.0,
    799.0,
    798.0,
    798.0,
    798.0,
    799.0,
    799.0,
    800.0,
    801.0,
    800.0,
    799.0,
    799.0,
    799.0,
    800.0,
    799.0,
    799.0,
    799.0,
    800.0,
    801.0,
    801.0,
    801.0,
    801.0,
    800.0,
    801.0,
    801.0,
    801.0,
    801.0,
    801.0,
    801.0,
    801.0,
    801.0,
    801.0,
    800.0,
    800.0,
    799.0,
    799.0,
    799.0,
    800.0,
    799.0,
    799.0,
    800.0,
    800.0,
    801.0,
    800.0,
    799.0,
    798.0,
    798.0,
    799.0,
    801.0,
    800.0,
    799.0,
    798.0,
    798.0,
    799.0,
    800.0,
    801.0,
    800.0,
