{
  "AcquisitionMatrixPE": 100,
  "AcquisitionNumber": 1,
  "AcquisitionTime": "11:59:34.942500",
  "BandwidthPerPixelPhaseEncode": 18.519,
  "BaseResolution": 100,
  "BodyPartExamined": "BRAIN",
  "ConsistencyInfo": "N4_VE11C_LATEST_20160120",
  "ConversionSoftware": "dcm2niix",
  "ConversionSoftwareVersion": "v1.0.20180622 GCC4.9.2",
  "DerivedVendorReportedEchoSpacing": 0.000539986,
  "DeviceSerialNumber": "166078",
  "DwellTime": 2.1e-06,
  "EchoTime": 0.034,
  "EchoTrainLength": 100,
  "EffectiveEchoSpacing": 0.000539986,
  "FlipAngle": 90,
  "ImageOrientationPatientDICOM": [1, 0, 0, 0, 0.971961, -0.235142],
  "ImageType": [
    "ORIGINAL",
    "PRIMARY",
    "M",
    "ND",
    "MOSAIC"
],
  "InPlanePhaseEncodingDirectionDICOM": "COL",
  "InstitutionAddress": "Street_StreetNo_Bei_Jing_District_CN_ZIP",
  "InstitutionName": "BeiJing_Normal_University",
  "InstitutionalDepartmentName": "Department",
  "MRAcquisitionType": "2D",
  "MagneticFieldStrength": 3,
  "Manufacturer": "Siemens",
  "ManufacturersModelName": "Prisma",
  "Modality": "MR",
  "MultibandAccelerationFactor": 3,
  "PartialFourier": 1,
  "PatientPosition": "HFS",
  "PercentPhaseFOV": 100,
  "PhaseEncodingDirection": "j-",
  "PhaseEncodingSteps": 100,
  "PhaseResolution": 1,
  "PixelBandwidth": 2380,
  "ProcedureStepDescription": "BNU_P2018_64CH_Zhen.ZongLei",
  "ProtocolName": "bold_100x100_s3_2x2x2_static_256",
  "PulseSequenceDetails": "%SiemensSeq%_ep2d_bold",
  "ReceiveCoilActiveElements": "HC1-7;NC1",
  "ReceiveCoilName": "HeadNeck_64",
  "ReconMatrixPE": 100,
  "RepetitionTime": 2,
  "SAR": 0.0660291,
  "ScanOptions": "FS",
  "ScanningSequence": "EP",
  "SequenceName": "_epfid2d1_100",
  "SequenceVariant": "SK",
  "SeriesDescription": "bold_100x100_s3_2x2x2_static_256",
  "SeriesNumber": 10,
  "ShimSetting": [-5475, -11487, -1257, 439, -30, -147, -145, 86],
  "SliceThickness": 2,
  "SliceTiming": [1.485, 0, 0.99, 0.0825, 1.0725, 0.165, 1.155, 0.2475, 1.2375, 0.33, 1.32, 0.4125, 1.4025, 0.5775, 1.5675, 0.66, 1.65, 0.7425, 1.7325, 0.825, 1.815, 0.9075, 1.8975, 0.495, 1.485, 0, 0.99, 0.0825, 1.0725, 0.165, 1.155, 0.2475, 1.2375, 0.33, 1.32, 0.4125, 1.4025, 0.5775, 1.5675, 0.66, 1.65, 0.7425, 1.7325, 0.825, 1.815, 0.9075, 1.8975, 0.495, 1.485, 0, 0.99, 0.0825, 1.0725, 0.165, 1.155, 0.2475, 1.2375, 0.33, 1.32, 0.4125, 1.4025, 0.5775, 1.5675, 0.66, 1.65, 0.7425, 1.7325, 0.825, 1.815, 0.9075, 1.8975, 0.495],
  "SoftwareVersions": "syngo_MR_E11",
  "SpacingBetweenSlices": 2,
  "StationName": "AWP166078",
  "TaskName": "naturalvision",
  "TotalReadoutTime": 0.0534586,
  "TxRefAmp": 208.985,
  "dcmmeta_affine": [
    [-2.0, 0.0, 0.0, 100.67469787597656],
    [0.0, 1.9439220428466797, -0.47028419375419617, -78.27275085449219],
    [0.0, 0.47028419375419617, 1.9439219236373901, -86.50135040283203],
    [0.0, 0.0, 0.0, 1.0]
],
  "dcmmeta_reorient_transform": [
    [0.0, -1.0, 0.0, 99.0],
    [1.0, 0.0, 0.0, 0.0],
    [0.0, 0.0, 1.0, 0.0],
    [0.0, 0.0, 0.0, 1.0]
],
  "dcmmeta_shape": [100, 100, 72, 256],
  "dcmmeta_slice_dim": 2,
  "dcmmeta_version": 0.6,
  "global": {
    "const": {
      "AcquisitionMatrix": [100, 0, 0, 100],
      "AngioFlag": "N",
      "BitsAllocated": 16,
      "BitsStored": 12,
      "BodyPartExamined": "BRAIN",
      "Columns": 900,
      "EchoNumbers": 1,
      "EchoTime": 34.0,
      "EchoTrainLength": 100,
      "FlipAngle": 90.0,
      "HighBit": 11,
      "ImageOrientationPatient": [1.0, 0.0, 0.0, 0.0, 0.97196100271939, -0.2351421042534],
      "ImagePositionPatient": [-900.67469877005, -891.7443297851, 148.17046966425],
      "ImageType": [
        "ORIGINAL",
        "PRIMARY",
        "M",
        "ND",
        "MOSAIC"
],
      "ImagedNucleus": "1H",
      "ImagingFrequency": 123.257777,
      "InPlanePhaseEncodingDirection": "COL",
      "MRAcquisitionType": "2D",
      "MagneticFieldStrength": 3.0,
      "Manufacturer": "SIEMENS",
      "ManufacturerModelName": "Prisma",
      "Modality": "MR",
      "NumberOfAverages": 1.0,
      "NumberOfPhaseEncodingSteps": 100,
      "PercentPhaseFieldOfView": 100.0,
      "PercentSampling": 100.0,
      "PerformedProcedureStepStartTime": "110459.350000",
      "PhotometricInterpretation": "MONOCHROME2",
      "PixelBandwidth": 2380.0,
      "PixelRepresentation": 0,
      "PixelSpacing": [2.0, 2.0],
      "ProtocolName": "bold_100x100_s3_2x2x2_static_256",
      "RepetitionTime": 2000.0,
      "Rows": 900,
      "SAR": 0.06602914037193,
      "SamplesPerPixel": 1,
      "ScanOptions": "FS",
      "ScanningSequence": "EP",
      "SequenceName": "*epfid2d1_100",
      "SequenceVariant": "SK",
      "SeriesDescription": "bold_100x100_s3_2x2x2_static_256",
      "SeriesNumber": 10,
      "SeriesTime": "115937.625000",
      "SliceLocation": -65.670719893447,
      "SliceThickness": 2.0,
      "SmallestImagePixelValue": 0,
      "SoftwareVersions": "syngo MR E11",
      "SpacingBetweenSlices": 1.9999999639342,
      "SpecificCharacterSet": "ISO_IR 100",
      "StudyID": "1",
      "StudyTime": "110459.231000",
      "TransmitCoilName": "Body",
      "VariableFlipAngleFlag": "N",
      "WindowCenterWidthExplanation": "Algo1",
      "dBdt": 0.0},
    "slices": {}
  },
  "time": {
    "samples": {
      "AcquisitionNumber": [1, 2, 3, 4, 5, 6, 7, 8, 9, 10, 11, 12, 13, 14, 15, 16, 17, 18, 19, 20, 21, 22, 23, 24, 25, 26, 27, 28, 29, 30, 31, 32, 33, 34, 35, 36, 37, 38, 39, 40, 41, 42, 43, 44, 45, 46, 47, 48, 49, 50, 51, 52, 53, 54, 55, 56, 57, 58, 59, 60, 61, 62, 63, 64, 65, 66, 67, 68, 69, 70, 71, 72, 73, 74, 75, 76, 77, 78, 79, 80, 81, 82, 83, 84, 85, 86, 87, 88, 89, 90, 91, 92, 93, 94, 95, 96, 97, 98, 99, 100, 101, 102, 103, 104, 105, 106, 107, 108, 109, 110, 111, 112, 113, 114, 115, 116, 117, 118, 119, 120, 121, 122, 123, 124, 125, 126, 127, 128, 129, 130, 131, 132, 133, 134, 135, 136, 137, 138, 139, 140, 141, 142, 143, 144, 145, 146, 147, 148, 149, 150, 151, 152, 153, 154, 155, 156, 157, 158, 159, 160, 161, 162, 163, 164, 165, 166, 167, 168, 169, 170, 171, 172, 173, 174, 175, 176, 177, 178, 179, 180, 181, 182, 183, 184, 185, 186, 187, 188, 189, 190, 191, 192, 193, 194, 195, 196, 197, 198, 199, 200, 201, 202, 203, 204, 205, 206, 207, 208, 209, 210, 211, 212, 213, 214, 215, 216, 217, 218, 219, 220, 221, 222, 223, 224, 225, 226, 227, 228, 229, 230, 231, 232, 233, 234, 235, 236, 237, 238, 239, 240, 241, 242, 243, 244, 245, 246, 247, 248, 249, 250, 251, 252, 253, 254, 255, 256],
      "AcquisitionTime": ["115934.942500", "115936.942500", "115938.942500", "115940.942500", "115942.942500", "115944.942500", "115946.942500", "115948.942500", "115950.942500", "115952.942500", "115954.942500", "115956.942500", "115958.942500", "120000.942500", "120002.942500", "120004.942500", "120006.942500", "120008.942500", "120010.942500", "120012.942500", "120014.942500", "120016.942500", "120018.942500", "120020.942500", "120022.942500", "120024.942500", "120026.942500", "120028.942500", "120030.942500", "120032.942500", "120034.942500", "120036.942500", "120038.942500", "120040.942500", "120042.942500", "120044.942500", "120046.942500", "120048.942500", "120050.942500", "120052.942500", "120054.942500", "120056.942500", "120058.942500", "120100.942500", "120102.942500", "120104.942500", "120106.942500", "120108.942500", "120110.942500", "120112.942500", "120114.942500", "120116.942500", "120118.942500", "120120.942500", "120122.942500", "120124.942500", "120126.942500", "120128.942500", "120130.942500", "120132.942500", "120134.942500", "120136.942500", "120138.942500", "120140.942500", "120142.942500", "120144.942500", "120146.942500", "120148.942500", "120150.942500", "120152.942500", "120154.942500", "120156.942500", "120158.942500", "120200.942500", "120202.942500", "120204.942500", "120206.942500", "120208.942500", "120210.942500", "120212.942500", "120214.942500", "120216.942500", "120218.942500", "120220.942500", "120222.942500", "120224.942500", "120226.942500", "120228.942500", "120230.942500", "120232.942500", "120234.942500", "120236.942500", "120238.942500", "120240.942500", "120242.942500", "120244.942500", "120246.942500", "120248.942500", "120250.942500", "120252.942500", "120254.942500", "120256.942500", "120258.942500", "120300.942500", "120302.942500", "120304.942500", "120306.942500", "120308.942500", "120310.942500", "120312.942500", "120314.942500", "120316.942500", "120318.942500", "120320.942500", "120322.942500", "120324.942500", "120326.942500", "120328.942500", "120330.942500", "120332.942500", "120334.942500", "120336.942500", "120338.942500", "120340.942500", "120342.942500", "120344.942500", "120346.942500", "120348.942500", "120350.942500", "120352.942500", "120354.942500", "120356.942500", "120358.942500", "120400.942500", "120402.942500", "120404.942500", "120406.942500", "120408.942500", "120410.942500", "120412.942500", "120414.942500", "120416.942500", "120418.942500", "120420.942500", "120422.942500", "120424.942500", "120426.942500", "120428.942500", "120430.942500", "120432.942500", "120434.942500", "120436.942500", "120438.942500", "120440.942500", "120442.942500", "120444.942500", "120446.942500", "120448.942500", "120450.942500", "120452.942500", "120454.942500", "120456.942500", "120458.942500", "120500.942500", "120502.942500", "120504.942500", "120506.942500", "120508.942500", "120510.942500", "120512.942500", "120514.942500", "120516.942500", "120518.942500", "120520.942500", "120522.942500", "120524.942500", "120526.942500", "120528.942500", "120530.942500", "120532.942500", "120534.942500", "120536.942500", "120538.942500", "120540.942500", "120542.942500", "120544.942500", "120546.942500", "120548.942500", "120550.942500", "120552.942500", "120554.942500", "120556.942500", "120558.942500", "120600.942500", "120602.942500", "120604.942500", "120606.942500", "120608.942500", "120610.942500", "120612.942500", "120614.942500", "120616.942500", "120618.942500", "120620.942500", "120622.942500", "120624.942500", "120626.942500", "120628.942500", "120630.942500", "120632.942500", "120634.942500", "120636.942500", "120638.942500", "120640.942500", "120642.942500", "120644.942500", "120646.942500", "120648.942500", "120650.942500", "120652.942500", "120654.942500", "120656.942500", "120658.942500", "120700.942500", "120702.942500", "120704.942500", "120706.942500", "120708.942500", "120710.942500", "120712.942500", "120714.942500", "120716.942500", "120718.942500", "120720.942500", "120722.942500", "120724.942500", "120726.942500", "120728.942500", "120730.942500", "120732.942500", "120734.942500", "120736.942500", "120738.942500", "120740.942500", "120742.942500", "120744.942500", "120746.942500", "120748.942500", "120750.942500", "120752.942500", "120754.942500", "120756.942500", "120758.942500", "120800.942500", "120802.942500", "120804.942500"],
      "ContentTime": ["115937.629000", "115939.124000", "115941.124000", "115943.124000", "115945.125000", "115947.124000", "115949.124000", "115951.124000", "115953.125000", "115955.124000", "115957.124000", "115959.123000", "120001.124000", "120003.124000", "120005.125000", "120007.124000", "120009.125000", "120011.125000", "120013.124000", "120015.124000", "120017.123000", "120019.124000", "120021.125000", "120023.124000", "120025.124000", "120027.124000", "120029.125000", "120031.124000", "120033.123000", "120035.144000", "120037.124000", "120039.125000", "120041.124000", "120043.125000", "120045.124000", "120047.124000", "120049.124000", "120051.123000", "120053.124000", "120055.124000", "120057.124000", "120059.124000", "120101.124000", "120103.124000", "120105.125000", "120107.125000", "120109.123000", "120111.125000", "120113.124000", "120115.125000", "120117.624000", "120119.124000", "120121.124000", "120123.125000", "120125.124000", "120127.123000", "120129.125000", "120131.125000", "120133.124000", "120135.124000", "120137.124000", "120139.124000", "120141.125000", "120143.123000", "120145.125000", "120147.625000", "120150.124000", "120151.125000", "120153.125000", "120155.124000", "120157.124000", "120159.125000", "120201.124000", "120203.124000", "120205.125000", "120207.124000", "120209.124000", "120211.124000", "120213.125000", "120215.125000", "120217.125000", "120219.123000", "120221.124000", "120223.125000", "120225.125000", "120227.124000", "120229.124000", "120231.124000", "120233.124000", "120235.124000", "120237.123000", "120239.124000", "120241.124000", "120243.124000", "120245.124000", "120247.125000", "120249.124000", "120251.124000", "120253.124000", "120255.125000", "120257.124000", "120259.125000", "120301.125000", "120303.124000", "120305.125000", "120307.124000", "120309.125000", "120311.124000", "120313.124000", "120315.124000", "120317.124000", "120319.125000", "120321.125000", "120323.125000", "120325.124000", "120327.125000", "120329.123000", "120331.124000", "120333.125000", "120335.125000", "120337.124000", "120339.124000", "120341.124000", "120343.124000", "120345.124000", "120347.124000", "120349.124000", "120351.124000", "120353.124000", "120355.124000", "120357.125000", "120359.125000", "120401.124000", "120403.124000", "120405.124000", "120407.125000", "120409.124000", "120411.124000", "120413.125000", "120415.125000", "120417.124000", "120419.124000", "120421.123000", "120423.125000", "120425.124000", "120427.125000", "120429.124000", "120431.125000", "120433.124000", "120435.124000", "120437.125000", "120439.123000", "120441.624000", "120443.125000", "120445.124000", "120447.624000", "120449.124000", "120451.124000", "120453.125000", "120455.124000", "120457.123000", "120459.125000", "120501.124000", "120503.125000", "120505.125000", "120507.124000", "120509.125000", "120511.125000", "120513.124000", "120515.125000", "120517.124000", "120519.124000", "120521.124000", "120523.124000", "120525.626000", "120527.125000", "120529.125000", "120531.123000", "120533.125000", "120535.125000", "120537.124000", "120539.125000", "120541.124000", "120543.124000", "120545.124000", "120547.124000", "120549.123000", "120551.124000", "120553.124000", "120555.125000", "120557.124000", "120559.124000", "120601.124000", "120603.125000", "120605.125000", "120607.625000", "120609.124000", "120611.125000", "120613.125000", "120615.124000", "120617.124000", "120619.124000", "120621.125000", "120623.123000", "120625.125000", "120627.125000", "120629.124000", "120631.124000", "120633.125000", "120635.124000", "120637.125000", "120639.124000", "120641.123000", "120643.125000", "120645.124000", "120647.125000", "120649.124000", "120651.124000", "120653.624000", "120655.124000", "120657.125000", "120659.123000", "120701.124000", "120703.124000", "120705.125000", "120707.125000", "120709.124000", "120711.124000", "120713.125000", "120715.124000", "120717.124000", "120719.125000", "120721.124000", "120723.125000", "120725.124000", "120727.125000", "120729.124000", "120731.124000", "120733.124000", "120735.124000", "120737.124000", "120739.125000", "120741.124000", "120743.125000", "120745.125000", "120747.124000", "120749.125000", "120751.123000", "120753.125000", "120755.124000", "120757.125000", "120759.124000", "120801.124000", "120803.140000", "120805.124000", "120807.031000"],
      "InstanceCreationTime": ["115937.629000", "115939.124000", "115941.124000", "115943.124000", "115945.125000", "115947.124000", "115949.124000", "115951.124000", "115953.125000", "115955.124000", "115957.124000", "115959.123000", "120001.124000", "120003.124000", "120005.125000", "120007.124000", "120009.125000", "120011.125000", "120013.124000", "120015.124000", "120017.123000", "120019.124000", "120021.125000", "120023.124000", "120025.124000", "120027.124000", "120029.125000", "120031.124000", "120033.123000", "120035.144000", "120037.124000", "120039.125000", "120041.124000", "120043.125000", "120045.124000", "120047.124000", "120049.124000", "120051.123000", "120053.124000", "120055.124000", "120057.124000", "120059.124000", "120101.124000", "120103.124000", "120105.125000", "120107.125000", "120109.123000", "120111.125000", "120113.124000", "120115.125000", "120117.624000", "120119.124000", "120121.124000", "120123.125000", "120125.124000", "120127.123000", "120129.125000", "120131.125000", "120133.124000", "120135.124000", "120137.124000", "120139.124000", "120141.125000", "120143.123000", "120145.125000", "120147.625000", "120150.124000", "120151.125000", "120153.125000", "120155.124000", "120157.124000", "120159.125000", "120201.124000", "120203.124000", "120205.125000", "120207.124000", "120209.124000", "120211.124000", "120213.125000", "120215.125000", "120217.125000", "120219.123000", "120221.124000", "120223.125000", "120225.125000", "120227.124000", "120229.124000", "120231.124000", "120233.124000", "120235.124000", "120237.123000", "120239.124000", "120241.124000", "120243.124000", "120245.124000", "120247.125000", "120249.124000", "120251.124000", "120253.124000", "120255.125000", "120257.124000", "120259.125000", "120301.125000", "120303.124000", "120305.125000", "120307.124000", "120309.125000", "120311.124000", "120313.124000", "120315.124000", "120317.124000", "120319.125000", "120321.125000", "120323.125000", "120325.124000", "120327.125000", "120329.123000", "120331.124000", "120333.125000", "120335.125000", "120337.124000", "120339.124000", "120341.124000", "120343.124000", "120345.124000", "120347.124000", "120349.124000", "120351.124000", "120353.124000", "120355.124000", "120357.125000", "120359.125000", "120401.124000", "120403.124000", "120405.124000", "120407.125000", "120409.124000", "120411.124000", "120413.125000", "120415.125000", "120417.124000", "120419.124000", "120421.123000", "120423.125000", "120425.124000", "120427.125000", "120429.124000", "120431.125000", "120433.124000", "120435.124000", "120437.125000", "120439.123000", "120441.624000", "120443.125000", "120445.124000", "120447.624000", "120449.124000", "120451.124000", "120453.125000", "120455.124000", "120457.123000", "120459.125000", "120501.124000", "120503.125000", "120505.125000", "120507.124000", "120509.125000", "120511.125000", "120513.124000", "120515.125000", "120517.124000", "120519.124000", "120521.124000", "120523.124000", "120525.626000", "120527.125000", "120529.125000", "120531.123000", "120533.125000", "120535.125000", "120537.124000", "120539.125000", "120541.124000", "120543.124000", "120545.124000", "120547.124000", "120549.123000", "120551.124000", "120553.124000", "120555.125000", "120557.124000", "120559.124000", "120601.124000", "120603.125000", "120605.125000", "120607.625000", "120609.124000", "120611.125000", "120613.125000", "120615.124000", "120617.124000", "120619.124000", "120621.125000", "120623.123000", "120625.125000", "120627.125000", "120629.124000", "120631.124000", "120633.125000", "120635.124000", "120637.125000", "120639.124000", "120641.123000", "120643.125000", "120645.124000", "120647.125000", "120649.124000", "120651.124000", "120653.624000", "120655.124000", "120657.125000", "120659.123000", "120701.124000", "120703.124000", "120705.125000", "120707.125000", "120709.124000", "120711.124000", "120713.125000", "120715.124000", "120717.124000", "120719.125000", "120721.124000", "120723.125000", "120725.124000", "120727.125000", "120729.124000", "120731.124000", "120733.124000", "120735.124000", "120737.124000", "120739.125000", "120741.124000", "120743.125000", "120745.125000", "120747.124000", "120749.125000", "120751.123000", "120753.125000", "120755.124000", "120757.125000", "120759.124000", "120801.124000", "120803.140000", "120805.124000", "120807.031000"],
      "InstanceNumber": [1, 2, 3, 4, 5, 6, 7, 8, 9, 10, 11, 12, 13, 14, 15, 16, 17, 18, 19, 20, 21, 22, 23, 24, 25, 26, 27, 28, 29, 30, 31, 32, 33, 34, 35, 36, 37, 38, 39, 40, 41, 42, 43, 44, 45, 46, 47, 48, 49, 50, 51, 52, 53, 54, 55, 56, 57, 58, 59, 60, 61, 62, 63, 64, 65, 66, 67, 68, 69, 70, 71, 72, 73, 74, 75, 76, 77, 78, 79, 80, 81, 82, 83, 84, 85, 86, 87, 88, 89, 90, 91, 92, 93, 94, 95, 96, 97, 98, 99, 100, 101, 102, 103, 104, 105, 106, 107, 108, 109, 110, 111, 112, 113, 114, 115, 116, 117, 118, 119, 120, 121, 122, 123, 124, 125, 126, 127, 128, 129, 130, 131, 132, 133, 134, 135, 136, 137, 138, 139, 140, 141, 142, 143, 144, 145, 146, 147, 148, 149, 150, 151, 152, 153, 154, 155, 156, 157, 158, 159, 160, 161, 162, 163, 164, 165, 166, 167, 168, 169, 170, 171, 172, 173, 174, 175, 176, 177, 178, 179, 180, 181, 182, 183, 184, 185, 186, 187, 188, 189, 190, 191, 192, 193, 194, 195, 196, 197, 198, 199, 200, 201, 202, 203, 204, 205, 206, 207, 208, 209, 210, 211, 212, 213, 214, 215, 216, 217, 218, 219, 220, 221, 222, 223, 224, 225, 226, 227, 228, 229, 230, 231, 232, 233, 234, 235, 236, 237, 238, 239, 240, 241, 242, 243, 244, 245, 246, 247, 248, 249, 250, 251, 252, 253, 254, 255, 256],
      "LargestImagePixelValue": [3489, 3437, 3440, 3483, 3601, 3530, 3553, 3493, 3526, 3520, 3646, 3606, 3485, 3511, 3546, 3523, 3634, 3636, 3584, 3462, 3467, 3452, 3469, 3496, 3461, 3461, 3475, 3505, 3506, 3509, 3498, 3496, 3490, 3486, 3494, 3499, 3498, 3523, 3518, 3495, 3535, 3514, 3506, 3564, 3562, 3555, 3519, 3477, 3469, 3512, 3519, 3524, 3522, 3492, 3452, 3399, 3454, 3445, 3461, 3513, 3482, 3436, 3412, 3449, 3456, 3505, 3496, 3488, 3515, 3452, 3532, 3536, 3516, 3522, 3529, 3525, 3521, 3461, 3468, 3445, 3511, 3496, 3517, 3543, 3540, 3522, 3669, 3527, 3505, 3485, 3494, 3485, 3510, 3505, 3534, 3487, 3534, 3533, 3522, 3600, 3504, 3538, 3463, 3480, 3503, 3495, 3441, 3488, 3475, 3543, 3527, 3520, 3493, 3483, 3483, 3526, 3625, 3521, 3513, 3591, 3608, 3605, 3572, 3616, 3549, 3503, 3618, 3561, 3563, 3526, 3538, 3528, 3540, 3532, 3556, 3487, 3485, 3451, 3495, 3518, 3572, 3567, 3509, 3721, 3561, 3509, 3466, 3477, 3507, 3498, 3496, 3446, 3509, 3528, 3531, 3479, 3499, 3604, 3546, 3503, 3499, 3455, 3470, 3563, 3590, 3607, 3593, 3605, 3554, 3567, 3601, 3494, 3459, 3442, 3544, 3575, 3549, 3549, 3559, 3603, 3546, 3527, 3475, 3482, 3509, 3465, 3504, 3517, 3573, 3546, 3514, 3524, 3497, 3530, 3684, 3624, 3598, 3530, 3516, 3483, 3495, 3524, 3505, 3456, 3468, 3490, 3535, 3604, 3695, 3581, 3476, 3464, 3428, 3464, 3512, 3520, 3567, 3515, 3504, 3520, 3525, 3542, 3599, 3584, 3573, 3547, 3610, 3597, 3503, 3555, 3484, 3532, 3488, 3546, 3553, 3514, 3509, 3737, 3622, 3550, 3504, 3476, 3490, 3477, 3533, 3506, 3540, 3531, 3534, 3605, 3569, 3584, 3709, 3585, 3597, 3553],
      "WindowCenter": [798.0, 798.0, 798.0, 800.0, 801.0, 800.0, 800.0, 799.0, 800.0, 799.0, 800.0, 800.0, 800.0, 801.0, 802.0, 803.0, 802.0, 802.0, 801.0, 800.0, 800.0, 799.0, 798.0, 801.0, 801.0, 800.0, 801.0, 802.0, 802.0, 801.0, 801.0, 802.0, 803.0, 802.0, 801.0, 801.0, 801.0, 801.0, 801.0, 800.0, 801.0, 801.0, 801.0, 801.0, 802.0, 802.0, 802.0, 802.0, 804.0, 805.0, 804.0, 802.0, 800.0, 799.0, 799.0, 798.0, 798.0, 797.0, 798.0, 799.0, 799.0, 799.0, 798.0, 799.0, 800.0, 801.0, 801.0, 799.0, 799.0, 797.0, 798.0, 798.0, 799.0, 802.0, 804.0, 803.0, 802.0, 800.0, 799.0, 798.0, 797.0, 797.0, 797.0, 798.0, 801.0, 804.0, 804.0, 802.0, 800.0, 799.0, 798.0, 798.0, 801.0, 801.0, 801.0, 800.0, 801.0, 802.0, 802.0, 801.0, 800.0, 799.0, 798.0, 798.0, 798.0, 799.0, 800.0, 804.0, 805.0, 804.0, 802.0, 801.0, 800.0, 799.0, 800.0, 803.0, 804.0, 802.0, 801.0, 800.0, 799.0, 799.0, 799.0, 801.0, 803.0, 804.0, 805.0, 803.0, 801.0, 800.0, 800.0, 801.0, 802.0, 805.0, 804.0, 802.0, 801.0, 799.0, 799.0, 800.0, 800.0, 801.0, 800.0, 802.0, 802.0, 801.0, 800.0, 799.0, 799.0, 800.0, 800.0, 800.0, 799.0, 799.0, 799.0, 800.0, 801.0, 802.0, 802.0, 801.0, 801.0, 800.0, 800.0, 803.0, 806.0, 806.0, 804.0, 802.0, 800.0, 799.0, 799.0, 799.0, 801.0, 800.0, 800.0, 800.0, 801.0, 802.0, 804.0, 805.0, 803.0, 801.0, 800.0, 800.0, 801.0, 800.0, 800.0, 800.0, 800.0, 801.0, 803.0, 804.0, 802.0, 801.0, 801.0, 800.0, 800.0, 799.0, 799.0, 799.0, 800.0, 800.0, 801.0, 800.0, 798.0, 799.0, 802.0, 804.0, 805.0, 803.0, 800.0, 799.0, 797.0, 797.0, 798.0, 798.0, 800.0, 802.0, 803.0, 803.0, 802.0, 800.0, 799.0, 799.0, 799.0, 801.0, 804.0, 803.0, 802.0, 801.0, 800.0, 801.0, 802.0, 804.0, 803.0, 803.0, 805.0, 807.0, 806.0, 803.0, 801.0, 800.0, 799.0, 799.0, 799.0, 799.0, 800.0, 799.0, 799.0, 799.0, 799.0, 800.0, 801.0, 801.0, 800.0, 800.0],
      "WindowWidth": [1733.0, 1733.0, 1735.0, 1739.0, 1742.0, 1740.0, 1739.0, 1737.0, 1739.0, 1738.0, 1740.0, 1741.0, 1739.0, 1741.0, 1745.0, 1747.0, 1747.0, 1745.0, 1742.0, 1738.0, 1739.0, 1738.0, 1734.0, 1744.0, 1743.0, 1742.0, 1743.0, 1745.0, 1745.0, 1743.0, 1742.0, 1745.0, 1748.0, 1745.0, 1744.0, 1742.0, 1742.0, 1742.0, 1742.0, 1741.0, 1742.0, 1743.0, 1741.0, 1743.0, 1745.0, 1747.0, 1747.0, 1747.0, 1752.0, 1754.0, 1751.0, 1746.0, 1741.0, 1737.0, 1736.0, 1733.0, 1734.0, 1732.0, 1733.0, 1736.0, 1735.0, 1736.0, 1734.0, 1736.0, 1740.0, 1744.0, 1742.0, 1737.0, 1735.0, 1732.0, 1735.0, 1735.0, 1738.0, 1746.0, 1750.0, 1749.0, 1744.0, 1739.0, 1737.0, 1733.0, 1732.0, 1731.0, 1730.0, 1733.0, 1742.0, 1751.0, 1752.0, 1746.0, 1740.0, 1736.0, 1734.0, 1735.0, 1741.0, 1742.0, 1742.0, 1739.0, 1743.0, 1744.0, 1744.0, 1743.0, 1738.0, 1736.0, 1734.0, 1734.0, 1735.0, 1736.0, 1740.0, 1750.0, 1752.0, 1751.0, 1746.0, 1742.0, 1740.0, 1738.0, 1740.0, 1747.0, 1751.0, 1746.0, 1741.0, 1738.0, 1737.0, 1736.0, 1736.0, 1743.0, 1748.0, 1751.0, 1753.0, 1748.0, 1744.0, 1740.0, 1741.0, 1743.0, 1746.0, 1752.0, 1752.0, 1746.0, 1742.0, 1737.0, 1736.0, 1739.0, 1741.0, 1742.0, 1739.0, 1744.0, 1744.0, 1741.0, 1738.0, 1735.0, 1734.0, 1738.0, 1738.0, 1737.0, 1736.0, 1736.0, 1737.0, 1737.0, 1741.0, 1744.0, 1744.0, 1741.0, 1740.0, 1739.0, 1740.0, 1748.0, 1757.0, 1755.0, 1751.0, 1745.0, 1740.0, 1736.0, 1736.0, 1737.0, 1740.0, 1739.0, 1740.0, 1739.0, 1741.0, 1744.0, 1751.0, 1753.0, 1748.0, 1742.0, 1738.0, 1739.0, 1741.0, 1740.0, 1740.0, 1739.0, 1740.0, 1741.0, 1748.0, 1749.0, 1746.0, 1742.0, 1741.0, 1739.0, 1739.0, 1736.0, 1737.0, 1736.0, 1739.0, 1739.0, 1740.0, 1737.0, 1734.0, 1734.0, 1744.0, 1752.0, 1753.0, 1746.0, 1738.0, 1735.0, 1730.0, 1731.0, 1732.0, 1732.0, 1738.0, 1744.0, 1747.0, 1748.0, 1744.0, 1740.0, 1737.0, 1736.0, 1737.0, 1743.0, 1749.0, 1748.0, 1743.0, 1742.0, 1739.0, 1742.0, 1746.0, 1750.0, 1749.0, 1747.0, 1753.0, 1761.0, 1758.0, 1749.0, 1741.0, 1738.0, 1735.0, 1734.0, 1737.0, 1736.0, 1738.0, 1735.0, 1735.0, 1735.0, 1735.0, 1737.0, 1741.0, 1740.0, 1739.0, 1739.0]
    },
    "slices": {}
  }
}