{
  "AcquisitionMatrixPE": 100,
  "AcquisitionNumber": 1,
  "AcquisitionTime": "12:00:2.210000",
  "BandwidthPerPixelPhaseEncode": 18.519,
  "BaseResolution": 100,
  "BodyPartExamined": "BRAIN",
  "ConsistencyInfo": "N4_VE11C_LATEST_20160120",
  "ConversionSoftware": "dcm2niix",
  "ConversionSoftwareVersion": "v1.0.20180622 GCC4.9.2",
  "DerivedVendorReportedEchoSpacing": 0.000539986,
  "DeviceSerialNumber": "166078",
  "DwellTime": 2.1e-06,
  "EchoTime": 0.034,
  "EchoTrainLength": 100,
  "EffectiveEchoSpacing": 0.000539986,
  "FlipAngle": 90,
  "ImageOrientationPatientDICOM": [1, 0, 0, 0, 0.992546, -0.121869],
  "ImageType": [
    "ORIGINAL",
    "PRIMARY",
    "M",
    "ND",
    "MOSAIC"
],
  "InPlanePhaseEncodingDirectionDICOM": "COL",
  "InstitutionAddress": "Street_StreetNo_Bei_Jing_District_CN_ZIP",
  "InstitutionName": "BeiJing_Normal_University",
  "InstitutionalDepartmentName": "Department",
  "MRAcquisitionType": "2D",
  "MagneticFieldStrength": 3,
  "Manufacturer": "Siemens",
  "ManufacturersModelName": "Prisma",
  "Modality": "MR",
  "MultibandAccelerationFactor": 3,
  "PartialFourier": 1,
  "PatientPosition": "HFS",
  "PercentPhaseFOV": 100,
  "PhaseEncodingDirection": "j-",
  "PhaseEncodingSteps": 100,
  "PhaseResolution": 1,
  "PixelBandwidth": 2380,
  "ProcedureStepDescription": "BNU_P2018_64CH_Zhen.ZongLei",
  "ProtocolName": "bold_100x100_s3_2x2x2_static_256",
  "PulseSequenceDetails": "%SiemensSeq%_ep2d_bold",
  "ReceiveCoilActiveElements": "HC1-7;NC1",
  "ReceiveCoilName": "HeadNeck_64",
  "ReconMatrixPE": 100,
  "RepetitionTime": 2,
  "SAR": 0.0683572,
  "ScanOptions": "FS",
  "ScanningSequence": "EP",
  "SequenceName": "_epfid2d1_100",
  "SequenceVariant": "SK",
  "SeriesDescription": "bold_100x100_s3_2x2x2_static_256",
  "SeriesNumber": 10,
  "ShimSetting": [-5462, -11495, -1241, 549, -40, -75, -51, 32],
  "SliceThickness": 2,
  "SliceTiming": [1.485, 0, 0.99, 0.0825, 1.0725, 0.165, 1.155, 0.2475, 1.2375, 0.33, 1.32, 0.4125, 1.4025, 0.5775, 1.5675, 0.66, 1.65, 0.7425, 1.7325, 0.825, 1.815, 0.9075, 1.8975, 0.495, 1.485, 0, 0.99, 0.0825, 1.0725, 0.165, 1.155, 0.2475, 1.2375, 0.33, 1.32, 0.4125, 1.4025, 0.5775, 1.5675, 0.66, 1.65, 0.7425, 1.7325, 0.825, 1.815, 0.9075, 1.8975, 0.495, 1.485, 0, 0.99, 0.0825, 1.0725, 0.165, 1.155, 0.2475, 1.2375, 0.33, 1.32, 0.4125, 1.4025, 0.5775, 1.5675, 0.66, 1.65, 0.7425, 1.7325, 0.825, 1.815, 0.9075, 1.8975, 0.495],
  "SoftwareVersions": "syngo_MR_E11",
  "SpacingBetweenSlices": 2,
  "StationName": "AWP166078",
  "TaskName": "naturalvision",
  "TotalReadoutTime": 0.0534586,
  "TxRefAmp": 211.066,
  "dcmmeta_affine": [
    [-2.0, 0.0, 0.0, 100.67469787597656],
    [0.0, 1.985092282295227, -0.24373869597911835, -77.38306427001953],
    [0.0, 0.24373868107795715, 1.985092282295227, -68.47662353515625],
    [0.0, 0.0, 0.0, 1.0]
],
  "dcmmeta_reorient_transform": [
    [0.0, -1.0, 0.0, 99.0],
    [1.0, 0.0, 0.0, 0.0],
    [0.0, 0.0, 1.0, 0.0],
    [0.0, 0.0, 0.0, 1.0]
],
  "dcmmeta_shape": [100, 100, 72, 256],
  "dcmmeta_slice_dim": 2,
  "dcmmeta_version": 0.6,
  "global": {
    "const": {
      "AcquisitionMatrix": [100, 0, 0, 100],
      "AngioFlag": "N",
      "BitsAllocated": 16,
      "BitsStored": 12,
      "BodyPartExamined": "BRAIN",
      "Columns": 900,
      "EchoNumbers": 1,
      "EchoTime": 34.0,
      "EchoTrainLength": 100,
      "FlipAngle": 90.0,
      "HighBit": 11,
      "ImageOrientationPatient": [1.0, 0.0, 0.0, 0.0, 0.99254615167353, -0.1218693431428],
      "ImagePositionPatient": [-900.67469877005, -913.17799394941, 53.148980636399],
      "ImageType": [
        "ORIGINAL",
        "PRIMARY",
        "M",
        "ND",
        "MOSAIC"
],
      "ImagedNucleus": "1H",
      "ImagingFrequency": 123.257749,
      "InPlanePhaseEncodingDirection": "COL",
      "MRAcquisitionType": "2D",
      "MagneticFieldStrength": 3.0,
      "Manufacturer": "SIEMENS",
      "ManufacturerModelName": "Prisma",
      "Modality": "MR",
      "NumberOfAverages": 1.0,
      "NumberOfPhaseEncodingSteps": 100,
      "PercentPhaseFieldOfView": 100.0,
      "PercentSampling": 100.0,
      "PerformedProcedureStepStartTime": "110253.980000",
      "PhotometricInterpretation": "MONOCHROME2",
      "PixelBandwidth": 2380.0,
      "PixelRepresentation": 0,
      "PixelSpacing": [2.0, 2.0],
      "ProtocolName": "bold_100x100_s3_2x2x2_static_256",
      "RepetitionTime": 2000.0,
      "Rows": 900,
      "SAR": 0.06835720820559,
      "SamplesPerPixel": 1,
      "ScanOptions": "FS",
      "ScanningSequence": "EP",
      "SequenceName": "*epfid2d1_100",
      "SequenceVariant": "SK",
      "SeriesDescription": "bold_100x100_s3_2x2x2_static_256",
      "SeriesNumber": 10,
      "SeriesTime": "120004.717000",
      "SliceLocation": -58.535586099064,
      "SliceThickness": 2.0,
      "SmallestImagePixelValue": 0,
      "SoftwareVersions": "syngo MR E11",
      "SpacingBetweenSlices": 2.0000000193653,
      "SpecificCharacterSet": "ISO_IR 100",
      "StudyID": "1",
      "StudyTime": "110253.893000",
      "TransmitCoilName": "Body",
      "VariableFlipAngleFlag": "N",
      "WindowCenterWidthExplanation": "Algo1",
      "dBdt": 0.0},
    "slices": {}
  },
  "time": {
    "samples": {
      "AcquisitionNumber": [1, 2, 3, 4, 5, 6, 7, 8, 9, 10, 11, 12, 13, 14, 15, 16, 17, 18, 19, 20, 21, 22, 23, 24, 25, 26, 27, 28, 29, 30, 31, 32, 33, 34, 35, 36, 37, 38, 39, 40, 41, 42, 43, 44, 45, 46, 47, 48, 49, 50, 51, 52, 53, 54, 55, 56, 57, 58, 59, 60, 61, 62, 63, 64, 65, 66, 67, 68, 69, 70, 71, 72, 73, 74, 75, 76, 77, 78, 79, 80, 81, 82, 83, 84, 85, 86, 87, 88, 89, 90, 91, 92, 93, 94, 95, 96, 97, 98, 99, 100, 101, 102, 103, 104, 105, 106, 107, 108, 109, 110, 111, 112, 113, 114, 115, 116, 117, 118, 119, 120, 121, 122, 123, 124, 125, 126, 127, 128, 129, 130, 131, 132, 133, 134, 135, 136, 137, 138, 139, 140, 141, 142, 143, 144, 145, 146, 147, 148, 149, 150, 151, 152, 153, 154, 155, 156, 157, 158, 159, 160, 161, 162, 163, 164, 165, 166, 167, 168, 169, 170, 171, 172, 173, 174, 175, 176, 177, 178, 179, 180, 181, 182, 183, 184, 185, 186, 187, 188, 189, 190, 191, 192, 193, 194, 195, 196, 197, 198, 199, 200, 201, 202, 203, 204, 205, 206, 207, 208, 209, 210, 211, 212, 213, 214, 215, 216, 217, 218, 219, 220, 221, 222, 223, 224, 225, 226, 227, 228, 229, 230, 231, 232, 233, 234, 235, 236, 237, 238, 239, 240, 241, 242, 243, 244, 245, 246, 247, 248, 249, 250, 251, 252, 253, 254, 255, 256],
      "AcquisitionTime": ["120002.210000", "120004.210000", "120006.210000", "120008.210000", "120010.210000", "120012.210000", "120014.210000", "120016.210000", "120018.210000", "120020.210000", "120022.210000", "120024.210000", "120026.210000", "120028.210000", "120030.210000", "120032.210000", "120034.210000", "120036.210000", "120038.210000", "120040.210000", "120042.210000", "120044.210000", "120046.210000", "120048.210000", "120050.210000", "120052.210000", "120054.210000", "120056.210000", "120058.210000", "120100.210000", "120102.210000", "120104.210000", "120106.210000", "120108.210000", "120110.210000", "120112.210000", "120114.210000", "120116.210000", "120118.210000", "120120.210000", "120122.210000", "120124.210000", "120126.210000", "120128.210000", "120130.210000", "120132.210000", "120134.210000", "120136.210000", "120138.210000", "120140.210000", "120142.210000", "120144.210000", "120146.210000", "120148.210000", "120150.210000", "120152.210000", "120154.210000", "120156.210000", "120158.210000", "120200.210000", "120202.210000", "120204.210000", "120206.210000", "120208.210000", "120210.210000", "120212.210000", "120214.210000", "120216.210000", "120218.210000", "120220.210000", "120222.210000", "120224.210000", "120226.210000", "120228.210000", "120230.210000", "120232.210000", "120234.210000", "120236.210000", "120238.210000", "120240.210000", "120242.210000", "120244.210000", "120246.210000", "120248.210000", "120250.210000", "120252.210000", "120254.210000", "120256.210000", "120258.210000", "120300.210000", "120302.210000", "120304.210000", "120306.210000", "120308.210000", "120310.210000", "120312.210000", "120314.210000", "120316.210000", "120318.210000", "120320.210000", "120322.210000", "120324.210000", "120326.210000", "120328.210000", "120330.210000", "120332.210000", "120334.210000", "120336.210000", "120338.210000", "120340.210000", "120342.210000", "120344.210000", "120346.210000", "120348.210000", "120350.210000", "120352.210000", "120354.210000", "120356.210000", "120358.210000", "120400.210000", "120402.210000", "120404.210000", "120406.210000", "120408.210000", "120410.210000", "120412.210000", "120414.210000", "120416.210000", "120418.210000", "120420.210000", "120422.210000", "120424.210000", "120426.210000", "120428.210000", "120430.210000", "120432.210000", "120434.210000", "120436.210000", "120438.210000", "120440.210000", "120442.210000", "120444.210000", "120446.210000", "120448.210000", "120450.210000", "120452.210000", "120454.210000", "120456.210000", "120458.210000", "120500.210000", "120502.210000", "120504.210000", "120506.210000", "120508.210000", "120510.210000", "120512.210000", "120514.210000", "120516.210000", "120518.210000", "120520.210000", "120522.210000", "120524.210000", "120526.210000", "120528.210000", "120530.210000", "120532.210000", "120534.210000", "120536.210000", "120538.210000", "120540.210000", "120542.210000", "120544.210000", "120546.210000", "120548.210000", "120550.210000", "120552.210000", "120554.210000", "120556.210000", "120558.210000", "120600.210000", "120602.210000", "120604.210000", "120606.210000", "120608.210000", "120610.210000", "120612.210000", "120614.210000", "120616.210000", "120618.210000", "120620.210000", "120622.210000", "120624.210000", "120626.210000", "120628.210000", "120630.210000", "120632.210000", "120634.210000", "120636.210000", "120638.210000", "120640.210000", "120642.210000", "120644.210000", "120646.210000", "120648.210000", "120650.210000", "120652.210000", "120654.210000", "120656.210000", "120658.210000", "120700.210000", "120702.210000", "120704.210000", "120706.210000", "120708.210000", "120710.210000", "120712.210000", "120714.210000", "120716.210000", "120718.210000", "120720.210000", "120722.210000", "120724.210000", "120726.210000", "120728.210000", "120730.210000", "120732.210000", "120734.210000", "120736.210000", "120738.210000", "120740.210000", "120742.210000", "120744.210000", "120746.210000", "120748.210000", "120750.210000", "120752.210000", "120754.210000", "120756.210000", "120758.210000", "120800.210000", "120802.210000", "120804.210000", "120806.210000", "120808.210000", "120810.210000", "120812.210000", "120814.210000", "120816.210000", "120818.210000", "120820.210000", "120822.210000", "120824.210000", "120826.210000", "120828.210000", "120830.210000", "120832.210000"],
      "ContentTime": ["120004.720000", "120006.216000", "120008.216000", "120010.216000", "120012.215000", "120014.214000", "120016.215000", "120018.216000", "120020.216000", "120022.215000", "120024.216000", "120026.215000", "120028.215000", "120030.215000", "120032.215000", "120034.216000", "120036.216000", "120038.216000", "120040.215000", "120042.216000", "120044.216000", "120046.215000", "120048.214000", "120050.214000", "120052.215000", "120054.215000", "120056.215000", "120058.215000", "120100.215000", "120102.215000", "120104.215000", "120106.214000", "120108.214000", "120110.216000", "120112.216000", "120114.216000", "120116.215000", "120118.215000", "120120.215000", "120122.215000", "120124.215000", "120126.215000", "120128.215000", "120130.216000", "120132.215000", "120134.216000", "120136.215000", "120138.216000", "120140.215000", "120142.214000", "120144.215000", "120146.215000", "120148.215000", "120150.215000", "120152.215000", "120154.215000", "120156.216000", "120158.214000", "120200.215000", "120202.215000", "120204.215000", "120206.216000", "120208.216000", "120210.215000", "120212.216000", "120214.215000", "120216.214000", "120218.714000", "120220.215000", "120222.216000", "120224.215000", "120226.215000", "120228.215000", "120230.215000", "120232.215000", "120234.214000", "120236.215000", "120238.235000", "120240.215000", "120242.215000", "120244.216000", "120246.215000", "120248.215000", "120250.215000", "120252.215000", "120254.216000", "120256.216000", "120258.215000", "120300.215000", "120302.215000", "120304.215000", "120306.215000", "120308.214000", "120310.214000", "120312.215000", "120314.216000", "120316.216000", "120318.216000", "120320.215000", "120322.216000", "120324.216000", "120326.214000", "120328.215000", "120330.216000", "120332.215000", "120334.216000", "120336.216000", "120338.216000", "120340.216000", "120342.215000", "120344.215000", "120346.215000", "120348.215000", "120350.216000", "120352.216000", "120354.216000", "120356.215000", "120358.215000", "120400.215000", "120402.214000", "120404.216000", "120406.215000", "120408.216000", "120410.215000", "120412.216000", "120414.216000", "120416.216000", "120418.215000", "120420.214000", "120422.215000", "120424.216000", "120426.215000", "120428.215000", "120430.215000", "120432.216000", "120434.215000", "120436.215000", "120438.214000", "120440.216000", "120442.216000", "120444.216000", "120446.216000", "120448.215000", "120450.216000", "120452.215000", "120454.214000", "120456.214000", "120458.216000", "120500.216000", "120502.216000", "120504.216000", "120506.216000", "120508.215000", "120510.216000", "120512.214000", "120514.216000", "120516.215000", "120518.216000", "120520.215000", "120522.215000", "120524.216000", "120526.216000", "120528.215000", "120530.214000", "120532.216000", "120534.235000", "120536.215000", "120538.215000", "120540.216000", "120542.215000", "120544.215000", "120546.215000", "120548.215000", "120550.215000", "120552.216000", "120554.215000", "120556.216000", "120558.216000", "120600.215000", "120602.216000", "120604.215000", "120606.214000", "120608.215000", "120610.216000", "120612.216000", "120614.216000", "120616.215000", "120618.216000", "120620.215000", "120622.214000", "120624.216000", "120626.216000", "120628.215000", "120630.216000", "120632.216000", "120634.216000", "120636.216000", "120638.214000", "120640.215000", "120642.215000", "120644.216000", "120646.216000", "120648.216000", "120650.216000", "120652.215000", "120654.215000", "120656.214000", "120658.215000", "120700.215000", "120702.231000", "120704.216000", "120706.216000", "120708.216000", "120710.216000", "120712.216000", "120714.215000", "120716.215000", "120718.216000", "120720.215000", "120722.216000", "120724.216000", "120726.215000", "120728.215000", "120730.216000", "120732.215000", "120734.215000", "120736.216000", "120738.215000", "120740.216000", "120742.215000", "120744.216000", "120746.216000", "120748.215000", "120750.214000", "120752.215000", "120754.215000", "120756.216000", "120758.215000", "120800.216000", "120802.216000", "120804.216000", "120806.215000", "120808.214000", "120810.216000", "120812.216000", "120814.215000", "120816.216000", "120818.215000", "120820.216000", "120822.216000", "120824.214000", "120826.214000", "120828.215000", "120830.216000", "120832.216000", "120833.864000"],
      "InstanceCreationTime": ["120004.720000", "120006.216000", "120008.216000", "120010.216000", "120012.215000", "120014.214000", "120016.215000", "120018.216000", "120020.216000", "120022.215000", "120024.216000", "120026.215000", "120028.215000", "120030.215000", "120032.215000", "120034.216000", "120036.216000", "120038.216000", "120040.215000", "120042.216000", "120044.216000", "120046.215000", "120048.214000", "120050.214000", "120052.215000", "120054.215000", "120056.215000", "120058.215000", "120100.215000", "120102.215000", "120104.215000", "120106.214000", "120108.214000", "120110.216000", "120112.216000", "120114.216000", "120116.215000", "120118.215000", "120120.215000", "120122.215000", "120124.215000", "120126.215000", "120128.215000", "120130.216000", "120132.215000", "120134.216000", "120136.215000", "120138.216000", "120140.215000", "120142.214000", "120144.215000", "120146.215000", "120148.215000", "120150.215000", "120152.215000", "120154.215000", "120156.216000", "120158.214000", "120200.215000", "120202.215000", "120204.215000", "120206.216000", "120208.216000", "120210.215000", "120212.216000", "120214.215000", "120216.214000", "120218.714000", "120220.215000", "120222.216000", "120224.215000", "120226.215000", "120228.215000", "120230.215000", "120232.215000", "120234.214000", "120236.215000", "120238.235000", "120240.215000", "120242.215000", "120244.216000", "120246.215000", "120248.215000", "120250.215000", "120252.215000", "120254.216000", "120256.216000", "120258.215000", "120300.215000", "120302.215000", "120304.215000", "120306.215000", "120308.214000", "120310.214000", "120312.215000", "120314.216000", "120316.216000", "120318.216000", "120320.215000", "120322.216000", "120324.216000", "120326.214000", "120328.215000", "120330.216000", "120332.215000", "120334.216000", "120336.216000", "120338.216000", "120340.216000", "120342.215000", "120344.215000", "120346.215000", "120348.215000", "120350.216000", "120352.216000", "120354.216000", "120356.215000", "120358.215000", "120400.215000", "120402.214000", "120404.216000", "120406.215000", "120408.216000", "120410.215000", "120412.216000", "120414.216000", "120416.216000", "120418.215000", "120420.214000", "120422.215000", "120424.216000", "120426.215000", "120428.215000", "120430.215000", "120432.216000", "120434.215000", "120436.215000", "120438.214000", "120440.216000", "120442.216000", "120444.216000", "120446.216000", "120448.215000", "120450.216000", "120452.215000", "120454.214000", "120456.214000", "120458.216000", "120500.216000", "120502.216000", "120504.216000", "120506.216000", "120508.215000", "120510.216000", "120512.214000", "120514.216000", "120516.215000", "120518.216000", "120520.215000", "120522.215000", "120524.216000", "120526.216000", "120528.215000", "120530.214000", "120532.216000", "120534.235000", "120536.215000", "120538.215000", "120540.216000", "120542.215000", "120544.215000", "120546.215000", "120548.215000", "120550.215000", "120552.216000", "120554.215000", "120556.216000", "120558.216000", "120600.215000", "120602.216000", "120604.215000", "120606.214000", "120608.215000", "120610.216000", "120612.216000", "120614.216000", "120616.215000", "120618.216000", "120620.215000", "120622.214000", "120624.216000", "120626.216000", "120628.215000", "120630.216000", "120632.216000", "120634.216000", "120636.216000", "120638.214000", "120640.215000", "120642.215000", "120644.216000", "120646.216000", "120648.216000", "120650.216000", "120652.215000", "120654.215000", "120656.214000", "120658.215000", "120700.215000", "120702.231000", "120704.216000", "120706.216000", "120708.216000", "120710.216000", "120712.216000", "120714.215000", "120716.215000", "120718.216000", "120720.215000", "120722.216000", "120724.216000", "120726.215000", "120728.215000", "120730.216000", "120732.215000", "120734.215000", "120736.216000", "120738.215000", "120740.216000", "120742.215000", "120744.216000", "120746.216000", "120748.215000", "120750.214000", "120752.215000", "120754.215000", "120756.216000", "120758.215000", "120800.216000", "120802.216000", "120804.216000", "120806.215000", "120808.214000", "120810.216000", "120812.216000", "120814.215000", "120816.216000", "120818.215000", "120820.216000", "120822.216000", "120824.214000", "120826.214000", "120828.215000", "120830.216000", "120832.216000", "120833.864000"],
      "InstanceNumber": [1, 2, 3, 4, 5, 6, 7, 8, 9, 10, 11, 12, 13, 14, 15, 16, 17, 18, 19, 20, 21, 22, 23, 24, 25, 26, 27, 28, 29, 30, 31, 32, 33, 34, 35, 36, 37, 38, 39, 40, 41, 42, 43, 44, 45, 46, 47, 48, 49, 50, 51, 52, 53, 54, 55, 56, 57, 58, 59, 60, 61, 62, 63, 64, 65, 66, 67, 68, 69, 70, 71, 72, 73, 74, 75, 76, 77, 78, 79, 80, 81, 82, 83, 84, 85, 86, 87, 88, 89, 90, 91, 92, 93, 94, 95, 96, 97, 98, 99, 100, 101, 102, 103, 104, 105, 106, 107, 108, 109, 110, 111, 112, 113, 114, 115, 116, 117, 118, 119, 120, 121, 122, 123, 124, 125, 126, 127, 128, 129, 130, 131, 132, 133, 134, 135, 136, 137, 138, 139, 140, 141, 142, 143, 144, 145, 146, 147, 148, 149, 150, 151, 152, 153, 154, 155, 156, 157, 158, 159, 160, 161, 162, 163, 164, 165, 166, 167, 168, 169, 170, 171, 172, 173, 174, 175, 176, 177, 178, 179, 180, 181, 182, 183, 184, 185, 186, 187, 188, 189, 190, 191, 192, 193, 194, 195, 196, 197, 198, 199, 200, 201, 202, 203, 204, 205, 206, 207, 208, 209, 210, 211, 212, 213, 214, 215, 216, 217, 218, 219, 220, 221, 222, 223, 224, 225, 226, 227, 228, 229, 230, 231, 232, 233, 234, 235, 236, 237, 238, 239, 240, 241, 242, 243, 244, 245, 246, 247, 248, 249, 250, 251, 252, 253, 254, 255, 256],
      "LargestImagePixelValue": [3208, 3200, 3173, 3175, 3162, 3191, 3189, 3166, 3171, 3186, 3191, 3203, 3167, 3168, 3233, 3218, 3264, 3310, 3309, 3251, 3279, 3285, 3231, 3290, 3309, 3265, 3265, 3266, 3282, 3264, 3265, 3266, 3284, 3278, 3263, 3265, 3289, 3261, 3254, 3253, 3278, 3263, 3308, 3312, 3290, 3284, 3293, 3323, 3293, 3275, 3275, 3273, 3271, 3292, 3315, 3324, 3279, 3300, 3317, 3297, 3329, 3336, 3284, 3286, 3297, 3255, 3269, 3309, 3278, 3296, 3282, 3254, 3287, 3218, 3202, 3232, 3270, 3270, 3268, 3299, 3281, 3298, 3298, 3232, 3260, 3324, 3292, 3292, 3232, 3236, 3237, 3246, 3246, 3240, 3238, 3258, 3257, 3294, 3297, 3269, 3298, 3310, 3286, 3285, 3300, 3299, 3297, 3302, 3263, 3256, 3239, 3286, 3269, 3290, 3274, 3335, 3330, 3337, 3347, 3273, 3313, 3285, 3255, 3265, 3218, 3242, 3245, 3249, 3223, 3234, 3275, 3285, 3281, 3260, 3266, 3234, 3238, 3230, 3265, 3298, 3335, 3377, 3322, 3298, 3220, 3231, 3249, 3244, 3231, 3203, 3234, 3234, 3287, 3297, 3307, 3339, 3325, 3367, 3305, 3251, 3237, 3232, 3268, 3280, 3329, 3345, 3312, 3317, 3277, 3250, 3294, 3295, 3328, 3313, 3309, 3259, 3280, 3274, 3283, 3293, 3289, 3303, 3291, 3343, 3315, 3282, 3329, 3316, 3328, 3275, 3279, 3295, 3272, 3287, 3277, 3308, 3292, 3302, 3240, 3222, 3250, 3262, 3261, 3224, 3213, 3207, 3259, 3334, 3298, 3271, 3191, 3176, 3144, 3186, 3242, 3218, 3204, 3215, 3234, 3208, 3214, 3226, 3224, 3161, 3211, 3203, 3186, 3209, 3237, 3256, 3268, 3267, 3234, 3169, 3204, 3190, 3213, 3294, 3286, 3290, 3247, 3235, 3262, 3274, 3247, 3212, 3212, 3238, 3215, 3265, 3255, 3265, 3240, 3237, 3243, 3257],
      "WindowCenter": [792.0, 791.0, 792.0, 792.0, 792.0, 792.0, 793.0, 794.0, 795.0, 795.0, 794.0, 794.0, 794.0, 794.0, 794.0, 794.0, 795.0, 796.0, 796.0, 796.0, 797.0, 796.0, 796.0, 796.0, 797.0, 797.0, 797.0, 796.0, 796.0, 798.0, 799.0, 798.0, 797.0, 796.0, 796.0, 797.0, 798.0, 798.0, 797.0, 796.0, 795.0, 795.0, 796.0, 798.0, 798.0, 798.0, 798.0, 797.0, 796.0, 796.0, 796.0, 796.0, 796.0, 797.0, 798.0, 798.0, 797.0, 797.0, 796.0, 797.0, 798.0, 798.0, 797.0, 796.0, 796.0, 796.0, 797.0, 797.0, 797.0, 797.0, 797.0, 797.0, 797.0, 795.0, 794.0, 794.0, 796.0, 797.0, 796.0, 797.0, 797.0, 797.0, 797.0, 798.0, 799.0, 799.0, 798.0, 797.0, 796.0, 795.0, 795.0, 795.0, 794.0, 795.0, 795.0, 795.0, 795.0, 797.0, 800.0, 799.0, 797.0, 796.0, 797.0, 799.0, 800.0, 799.0, 797.0, 795.0, 794.0, 794.0, 794.0, 796.0, 797.0, 797.0, 797.0, 797.0, 796.0, 796.0, 799.0, 800.0, 799.0, 797.0, 796.0, 795.0, 794.0, 794.0, 795.0, 796.0, 795.0, 795.0, 795.0, 796.0, 797.0, 797.0, 797.0, 796.0, 796.0, 797.0, 799.0, 800.0, 799.0, 798.0, 797.0, 795.0, 796.0, 798.0, 797.0, 796.0, 795.0, 795.0, 795.0, 796.0, 799.0, 801.0, 800.0, 798.0, 797.0, 796.0, 795.0, 796.0, 796.0, 795.0, 795.0, 798.0, 799.0, 798.0, 797.0, 796.0, 796.0, 796.0, 797.0, 798.0, 798.0, 798.0, 798.0, 797.0, 797.0, 796.0, 796.0, 797.0, 798.0, 798.0, 797.0, 797.0, 797.0, 797.0, 798.0, 800.0, 800.0, 797.0, 796.0, 796.0, 796.0, 797.0, 798.0, 798.0, 797.0, 796.0, 795.0, 795.0, 796.0, 796.0, 797.0, 797.0, 796.0, 796.0, 799.0, 802.0, 801.0, 798.0, 795.0, 794.0, 792.0, 793.0, 794.0, 794.0, 795.0, 794.0, 794.0, 794.0, 794.0, 794.0, 795.0, 795.0, 796.0, 795.0, 794.0, 795.0, 799.0, 801.0, 799.0, 797.0, 795.0, 794.0, 794.0, 794.0, 798.0, 802.0, 802.0, 800.0, 797.0, 796.0, 796.0, 796.0, 794.0, 793.0, 794.0, 795.0, 795.0, 796.0, 796.0, 795.0, 795.0, 796.0, 797.0, 796.0],
      "WindowWidth": [1720.0, 1720.0, 1720.0, 1722.0, 1722.0, 1722.0, 1724.0, 1728.0, 1730.0, 1730.0, 1728.0, 1727.0, 1726.0, 1727.0, 1727.0, 1728.0, 1731.0, 1734.0, 1734.0, 1733.0, 1735.0, 1734.0, 1733.0, 1734.0, 1735.0, 1736.0, 1735.0, 1734.0, 1735.0, 1738.0, 1740.0, 1739.0, 1735.0, 1732.0, 1733.0, 1736.0, 1738.0, 1738.0, 1736.0, 1732.0, 1730.0, 1730.0, 1733.0, 1737.0, 1739.0, 1739.0, 1737.0, 1735.0, 1733.0, 1733.0, 1733.0, 1733.0, 1732.0, 1735.0, 1737.0, 1738.0, 1735.0, 1734.0, 1734.0, 1736.0, 1739.0, 1739.0, 1736.0, 1734.0, 1733.0, 1734.0, 1734.0, 1734.0, 1734.0, 1735.0, 1734.0, 1735.0, 1734.0, 1729.0, 1725.0, 1727.0, 1732.0, 1734.0, 1733.0, 1734.0, 1735.0, 1736.0, 1736.0, 1737.0, 1740.0, 1742.0, 1739.0, 1736.0, 1732.0, 1730.0, 1730.0, 1729.0, 1727.0, 1729.0, 1730.0, 1729.0, 1730.0, 1736.0, 1742.0, 1740.0, 1736.0, 1733.0, 1734.0, 1741.0, 1744.0, 1740.0, 1735.0, 1730.0, 1727.0, 1726.0, 1728.0, 1731.0, 1735.0, 1736.0, 1734.0, 1734.0, 1732.0, 1734.0, 1741.0, 1744.0, 1741.0, 1735.0, 1732.0, 1728.0, 1726.0, 1726.0, 1728.0, 1731.0, 1729.0, 1729.0, 1730.0, 1733.0, 1734.0, 1734.0, 1734.0, 1732.0, 1732.0, 1735.0, 1740.0, 1743.0, 1742.0, 1738.0, 1734.0, 1730.0, 1731.0, 1736.0, 1734.0, 1731.0, 1729.0, 1728.0, 1728.0, 1733.0, 1740.0, 1744.0, 1743.0, 1738.0, 1734.0, 1731.0, 1730.0, 1730.0, 1730.0, 1729.0, 1729.0, 1736.0, 1740.0, 1738.0, 1735.0, 1732.0, 1731.0, 1731.0, 1734.0, 1737.0, 1738.0, 1737.0, 1736.0, 1734.0, 1734.0, 1731.0, 1731.0, 1734.0, 1737.0, 1737.0, 1735.0, 1735.0, 1733.0, 1733.0, 1738.0, 1744.0, 1741.0, 1735.0, 1732.0, 1730.0, 1730.0, 1734.0, 1737.0, 1739.0, 1735.0, 1732.0, 1728.0, 1728.0, 1730.0, 1731.0, 1734.0, 1734.0, 1731.0, 1731.0, 1741.0, 1749.0, 1744.0, 1735.0, 1727.0, 1723.0, 1720.0, 1723.0, 1725.0, 1726.0, 1727.0, 1726.0, 1724.0, 1724.0, 1724.0, 1725.0, 1727.0, 1729.0, 1730.0, 1728.0, 1726.0, 1729.0, 1740.0, 1744.0, 1739.0, 1733.0, 1728.0, 1725.0, 1724.0, 1726.0, 1736.0, 1748.0, 1749.0, 1743.0, 1734.0, 1730.0, 1730.0, 1730.0, 1726.0, 1723.0, 1724.0, 1727.0, 1729.0, 1730.0, 1730.0, 1728.0, 1729.0, 1731.0, 1732.0, 1731.0]
    },
    "slices": {}
  }
}