{
  "AcquisitionMatrixPE": 100,
  "AcquisitionNumber": 1,
  "AcquisitionTime": "11:06:23.982500",
  "BandwidthPerPixelPhaseEncode": 18.519,
  "BaseResolution": 100,
  "BodyPartExamined": "BRAIN",
  "ConsistencyInfo": "N4_VE11C_LATEST_20160120",
  "ConversionSoftware": "dcm2niix",
  "ConversionSoftwareVersion": "v1.0.20180622 GCC4.9.2",
  "DerivedVendorReportedEchoSpacing": 0.000539986,
  "DeviceSerialNumber": "166078",
  "DwellTime": 2.1e-06,
  "EchoTime": 0.034,
  "EchoTrainLength": 100,
  "EffectiveEchoSpacing": 0.000539986,
  "FlipAngle": 90,
  "ImageOrientationPatientDICOM": [1, 0, 0, 0, 0.992546, -0.121869],
  "ImageType": [
    "ORIGINAL",
    "PRIMARY",
    "M",
    "ND",
    "MOSAIC"
],
  "InPlanePhaseEncodingDirectionDICOM": "COL",
  "InstitutionAddress": "Street_StreetNo_Bei_Jing_District_CN_ZIP",
  "InstitutionName": "BeiJing_Normal_University",
  "InstitutionalDepartmentName": "Department",
  "MRAcquisitionType": "2D",
  "MagneticFieldStrength": 3,
  "Manufacturer": "Siemens",
  "ManufacturersModelName": "Prisma",
  "Modality": "MR",
  "MultibandAccelerationFactor": 3,
  "PartialFourier": 1,
  "PatientPosition": "HFS",
  "PercentPhaseFOV": 100,
  "PhaseEncodingDirection": "j-",
  "PhaseEncodingSteps": 100,
  "PhaseResolution": 1,
  "PixelBandwidth": 2380,
  "ProcedureStepDescription": "BNU_P2018_64CH_Zhen.ZongLei",
  "ProtocolName": "bold_100x100_s3_2x2x2_static_256",
  "PulseSequenceDetails": "%SiemensSeq%_ep2d_bold",
  "ReceiveCoilActiveElements": "HC1-7;NC1",
  "ReceiveCoilName": "HeadNeck_64",
  "ReconMatrixPE": 100,
  "RepetitionTime": 2,
  "SAR": 0.0683572,
  "ScanOptions": "FS",
  "ScanningSequence": "EP",
  "SequenceName": "_epfid2d1_100",
  "SequenceVariant": "SK",
  "SeriesDescription": "bold_100x100_s3_2x2x2_static_256",
  "SeriesNumber": 3,
  "ShimSetting": [-5462, -11495, -1241, 549, -40, -75, -51, 32],
  "SliceThickness": 2,
  "SliceTiming": [1.485, 0, 0.99, 0.0825, 1.0725, 0.165, 1.155, 0.2475, 1.2375, 0.33, 1.32, 0.4125, 1.4025, 0.5775, 1.5675, 0.66, 1.65, 0.7425, 1.7325, 0.825, 1.815, 0.9075, 1.8975, 0.495, 1.485, 0, 0.99, 0.0825, 1.0725, 0.165, 1.155, 0.2475, 1.2375, 0.33, 1.32, 0.4125, 1.4025, 0.5775, 1.5675, 0.66, 1.65, 0.7425, 1.7325, 0.825, 1.815, 0.9075, 1.8975, 0.495, 1.485, 0, 0.99, 0.0825, 1.0725, 0.165, 1.155, 0.2475, 1.2375, 0.33, 1.32, 0.4125, 1.4025, 0.5775, 1.5675, 0.66, 1.65, 0.7425, 1.7325, 0.825, 1.815, 0.9075, 1.8975, 0.495],
  "SoftwareVersions": "syngo_MR_E11",
  "SpacingBetweenSlices": 2,
  "StationName": "AWP166078",
  "TaskName": "naturalvision",
  "TotalReadoutTime": 0.0534586,
  "TxRefAmp": 211.066,
  "dcmmeta_affine": [
    [-2.0, 0.0, 0.0, 100.67469787597656],
    [0.0, 1.985092282295227, -0.24373869597911835, -77.38306427001953],
    [0.0, 0.24373868107795715, 1.985092282295227, -68.47662353515625],
    [0.0, 0.0, 0.0, 1.0]
],
  "dcmmeta_reorient_transform": [
    [0.0, -1.0, 0.0, 99.0],
    [1.0, 0.0, 0.0, 0.0],
    [0.0, 0.0, 1.0, 0.0],
    [0.0, 0.0, 0.0, 1.0]
],
  "dcmmeta_shape": [100, 100, 72, 256],
  "dcmmeta_slice_dim": 2,
  "dcmmeta_version": 0.6,
  "global": {
    "const": {
      "AcquisitionMatrix": [100, 0, 0, 100],
      "AngioFlag": "N",
      "BitsAllocated": 16,
      "BitsStored": 12,
      "BodyPartExamined": "BRAIN",
      "Columns": 900,
      "EchoNumbers": 1,
      "EchoTime": 34.0,
      "EchoTrainLength": 100,
      "FlipAngle": 90.0,
      "HighBit": 11,
      "ImageOrientationPatient": [1.0, 0.0, 0.0, 0.0, 0.99254615167353, -0.1218693431428],
      "ImagePositionPatient": [-900.67469877005, -913.17799394941, 53.148980636399],
      "ImageType": [
        "ORIGINAL",
        "PRIMARY",
        "M",
        "ND",
        "MOSAIC"
],
      "ImagedNucleus": "1H",
      "ImagingFrequency": 123.257754,
      "InPlanePhaseEncodingDirection": "COL",
      "MRAcquisitionType": "2D",
      "MagneticFieldStrength": 3.0,
      "Manufacturer": "SIEMENS",
      "ManufacturerModelName": "Prisma",
      "Modality": "MR",
      "NumberOfAverages": 1.0,
      "NumberOfPhaseEncodingSteps": 100,
      "PercentPhaseFieldOfView": 100.0,
      "PercentSampling": 100.0,
      "PerformedProcedureStepStartTime": "110253.980000",
      "PhotometricInterpretation": "MONOCHROME2",
      "PixelBandwidth": 2380.0,
      "PixelRepresentation": 0,
      "PixelSpacing": [2.0, 2.0],
      "ProtocolName": "bold_100x100_s3_2x2x2_static_256",
      "RepetitionTime": 2000.0,
      "Rows": 900,
      "SAR": 0.06835720820559,
      "SamplesPerPixel": 1,
      "ScanOptions": "FS",
      "ScanningSequence": "EP",
      "SequenceName": "*epfid2d1_100",
      "SequenceVariant": "SK",
      "SeriesDescription": "bold_100x100_s3_2x2x2_static_256",
      "SeriesNumber": 3,
      "SeriesTime": "110626.345000",
      "SliceLocation": -58.535586099064,
      "SliceThickness": 2.0,
      "SmallestImagePixelValue": 0,
      "SoftwareVersions": "syngo MR E11",
      "SpacingBetweenSlices": 2.0000000193653,
      "SpecificCharacterSet": "ISO_IR 100",
      "StudyID": "1",
      "StudyTime": "110253.893000",
      "TransmitCoilName": "Body",
      "VariableFlipAngleFlag": "N",
      "WindowCenterWidthExplanation": "Algo1",
      "dBdt": 0.0},
    "slices": {}
  },
  "time": {
    "samples": {
      "AcquisitionNumber": [1, 2, 3, 4, 5, 6, 7, 8, 9, 10, 11, 12, 13, 14, 15, 16, 17, 18, 19, 20, 21, 22, 23, 24, 25, 26, 27, 28, 29, 30, 31, 32, 33, 34, 35, 36, 37, 38, 39, 40, 41, 42, 43, 44, 45, 46, 47, 48, 49, 50, 51, 52, 53, 54, 55, 56, 57, 58, 59, 60, 61, 62, 63, 64, 65, 66, 67, 68, 69, 70, 71, 72, 73, 74, 75, 76, 77, 78, 79, 80, 81, 82, 83, 84, 85, 86, 87, 88, 89, 90, 91, 92, 93, 94, 95, 96, 97, 98, 99, 100, 101, 102, 103, 104, 105, 106, 107, 108, 109, 110, 111, 112, 113, 114, 115, 116, 117, 118, 119, 120, 121, 122, 123, 124, 125, 126, 127, 128, 129, 130, 131, 132, 133, 134, 135, 136, 137, 138, 139, 140, 141, 142, 143, 144, 145, 146, 147, 148, 149, 150, 151, 152, 153, 154, 155, 156, 157, 158, 159, 160, 161, 162, 163, 164, 165, 166, 167, 168, 169, 170, 171, 172, 173, 174, 175, 176, 177, 178, 179, 180, 181, 182, 183, 184, 185, 186, 187, 188, 189, 190, 191, 192, 193, 194, 195, 196, 197, 198, 199, 200, 201, 202, 203, 204, 205, 206, 207, 208, 209, 210, 211, 212, 213, 214, 215, 216, 217, 218, 219, 220, 221, 222, 223, 224, 225, 226, 227, 228, 229, 230, 231, 232, 233, 234, 235, 236, 237, 238, 239, 240, 241, 242, 243, 244, 245, 246, 247, 248, 249, 250, 251, 252, 253, 254, 255, 256],
      "AcquisitionTime": ["110623.982500", "110625.982500", "110627.982500", "110629.982500", "110631.982500", "110633.982500", "110635.982500", "110637.982500", "110639.982500", "110641.982500", "110643.982500", "110645.982500", "110647.982500", "110649.982500", "110651.982500", "110653.982500", "110655.982500", "110657.982500", "110659.982500", "110701.982500", "110703.982500", "110705.982500", "110707.982500", "110709.982500", "110711.982500", "110713.982500", "110715.982500", "110717.982500", "110719.982500", "110721.982500", "110723.982500", "110725.982500", "110727.982500", "110729.982500", "110731.982500", "110733.982500", "110735.982500", "110737.982500", "110739.982500", "110741.982500", "110743.982500", "110745.982500", "110747.982500", "110749.982500", "110751.982500", "110753.982500", "110755.982500", "110757.982500", "110759.982500", "110801.982500", "110803.982500", "110805.982500", "110807.982500", "110809.982500", "110811.982500", "110813.982500", "110815.982500", "110817.982500", "110819.982500", "110821.982500", "110823.982500", "110825.982500", "110827.982500", "110829.982500", "110831.982500", "110833.982500", "110835.982500", "110837.982500", "110839.982500", "110841.982500", "110843.982500", "110845.982500", "110847.982500", "110849.982500", "110851.982500", "110853.982500", "110855.982500", "110857.982500", "110859.982500", "110901.982500", "110903.982500", "110905.982500", "110907.982500", "110909.982500", "110911.982500", "110913.982500", "110915.982500", "110917.982500", "110919.982500", "110921.982500", "110923.982500", "110925.982500", "110927.982500", "110929.982500", "110931.982500", "110933.982500", "110935.982500", "110937.982500", "110939.982500", "110941.982500", "110943.982500", "110945.982500", "110947.982500", "110949.982500", "110951.982500", "110953.982500", "110955.982500", "110957.982500", "110959.982500", "111001.982500", "111003.982500", "111005.982500", "111007.982500", "111009.982500", "111011.982500", "111013.982500", "111015.982500", "111017.982500", "111019.982500", "111021.982500", "111023.982500", "111025.982500", "111027.982500", "111029.982500", "111031.982500", "111033.982500", "111035.982500", "111037.982500", "111039.982500", "111041.982500", "111043.982500", "111045.982500", "111047.982500", "111049.982500", "111051.982500", "111053.982500", "111055.982500", "111057.982500", "111059.982500", "111101.982500", "111103.982500", "111105.982500", "111107.982500", "111109.982500", "111111.982500", "111113.982500", "111115.982500", "111117.982500", "111119.982500", "111121.982500", "111123.982500", "111125.982500", "111127.982500", "111129.982500", "111131.982500", "111133.982500", "111135.982500", "111137.982500", "111139.982500", "111141.982500", "111143.982500", "111145.982500", "111147.982500", "111149.982500", "111151.982500", "111153.982500", "111155.982500", "111157.982500", "111159.982500", "111201.982500", "111203.982500", "111205.982500", "111207.982500", "111209.982500", "111211.982500", "111213.982500", "111215.982500", "111217.982500", "111219.982500", "111221.982500", "111223.982500", "111225.982500", "111227.982500", "111229.982500", "111231.982500", "111233.982500", "111235.982500", "111237.982500", "111239.982500", "111241.982500", "111243.982500", "111245.982500", "111247.982500", "111249.982500", "111251.982500", "111253.982500", "111255.982500", "111257.982500", "111259.982500", "111301.982500", "111303.982500", "111305.982500", "111307.982500", "111309.982500", "111311.982500", "111313.982500", "111315.982500", "111317.982500", "111319.982500", "111321.982500", "111323.982500", "111325.982500", "111327.982500", "111329.982500", "111331.982500", "111333.982500", "111335.982500", "111337.982500", "111339.982500", "111341.982500", "111343.982500", "111345.982500", "111347.982500", "111349.982500", "111351.982500", "111353.982500", "111355.982500", "111357.982500", "111359.982500", "111401.982500", "111403.982500", "111405.982500", "111407.982500", "111409.982500", "111411.982500", "111413.982500", "111415.982500", "111417.982500", "111419.982500", "111421.982500", "111423.982500", "111425.982500", "111427.982500", "111429.982500", "111431.982500", "111433.982500", "111435.982500", "111437.982500", "111439.982500", "111441.982500", "111443.982500", "111445.982500", "111447.982500", "111449.982500", "111451.982500", "111453.982500"],
      "ContentTime": ["110626.349000", "110627.844000", "110629.344000", "110631.344000", "110633.844000", "110635.844000", "110637.843000", "110639.343000", "110641.344000", "110643.844000", "110645.344000", "110647.844000", "110649.844000", "110651.844000", "110653.343000", "110655.843000", "110657.344000", "110659.345000", "110701.844000", "110703.844000", "110705.344000", "110707.844000", "110709.343000", "110711.844000", "110713.843000", "110715.344000", "110717.844000", "110719.845000", "110721.844000", "110723.344000", "110725.343000", "110727.843000", "110729.344000", "110731.844000", "110733.844000", "110735.844000", "110737.844000", "110739.344000", "110741.344000", "110743.343000", "110745.343000", "110747.343000", "110749.343000", "110751.844000", "110753.344000", "110755.845000", "110757.844000", "110759.844000", "110801.343000", "110803.343000", "110805.343000", "110807.345000", "110809.845000", "110811.344000", "110813.344000", "110815.845000", "110817.843000", "110819.344000", "110821.343000", "110823.344000", "110825.844000", "110827.845000", "110829.345000", "110831.844000", "110833.844000", "110835.343000", "110837.344000", "110839.344000", "110841.844000", "110843.344000", "110845.345000", "110847.344000", "110849.344000", "110851.844000", "110853.844000", "110855.843000", "110857.343000", "110859.344000", "110901.844000", "110903.345000", "110905.344000", "110907.844000", "110909.844000", "110911.343000", "110913.844000", "110915.844000", "110917.845000", "110919.844000", "110921.844000", "110923.845000", "110925.344000", "110927.843000", "110929.343000", "110931.344000", "110933.844000", "110935.844000", "110937.845000", "110939.344000", "110941.845000", "110943.344000", "110945.844000", "110947.843000", "110949.343000", "110951.343000", "110953.844000", "110955.344000", "110957.845000", "110959.344000", "111001.344000", "111003.844000", "111005.843000", "111007.844000", "111009.845000", "111011.845000", "111013.344000", "111015.844000", "111017.844000", "111019.344000", "111021.343000", "111023.344000", "111025.343000", "111027.344000", "111029.844000", "111031.345000", "111033.844000", "111035.344000", "111037.843000", "111039.343000", "111041.343000", "111043.844000", "111045.844000", "111047.344000", "111049.344000", "111051.344000", "111053.844000", "111055.843000", "111057.844000", "111059.343000", "111101.844000", "111103.844000", "111105.844000", "111107.845000", "111109.344000", "111111.844000", "111113.343000", "111115.843000", "111117.344000", "111119.344000", "111121.844000", "111123.845000", "111125.345000", "111127.845000", "111129.344000", "111131.844000", "111133.844000", "111135.343000", "111137.844000", "111139.344000", "111141.845000", "111143.344000", "111145.845000", "111147.345000", "111149.843000", "111151.344000", "111153.344000", "111155.845000", "111157.845000", "111159.845000", "111201.345000", "111203.345000", "111205.844000", "111207.344000", "111209.343000", "111211.344000", "111213.844000", "111215.844000", "111217.844000", "111219.344000", "111221.844000", "111223.843000", "111225.844000", "111227.844000", "111229.343000", "111231.345000", "111233.344000", "111235.346000", "111237.845000", "111239.844000", "111241.843000", "111243.843000", "111245.344000", "111247.845000", "111249.845000", "111251.344000", "111253.345000", "111255.845000", "111257.345000", "111259.843000", "111301.844000", "111303.844000", "111305.344000", "111307.344000", "111309.344000", "111311.345000", "111313.845000", "111315.843000", "111317.844000", "111319.343000", "111321.843000", "111323.845000", "111325.844000", "111327.844000", "111329.344000", "111331.345000", "111333.844000", "111335.844000", "111337.844000", "111339.845000", "111341.844000", "111343.845000", "111345.844000", "111347.845000", "111349.844000", "111351.843000", "111353.344000", "111355.343000", "111357.844000", "111359.845000", "111401.345000", "111403.344000", "111405.345000", "111407.844000", "111409.843000", "111411.844000", "111413.344000", "111415.845000", "111417.845000", "111419.844000", "111421.344000", "111423.844000", "111425.843000", "111427.344000", "111429.343000", "111431.844000", "111433.845000", "111435.845000", "111437.844000", "111439.845000", "111441.345000", "111443.844000", "111445.344000", "111447.844000", "111449.345000", "111451.845000", "111453.344000", "111455.321000"],
      "InstanceCreationTime": ["110626.349000", "110627.844000", "110629.344000", "110631.344000", "110633.844000", "110635.844000", "110637.843000", "110639.343000", "110641.344000", "110643.844000", "110645.344000", "110647.844000", "110649.844000", "110651.844000", "110653.343000", "110655.843000", "110657.344000", "110659.345000", "110701.844000", "110703.844000", "110705.344000", "110707.844000", "110709.343000", "110711.844000", "110713.843000", "110715.344000", "110717.844000", "110719.845000", "110721.844000", "110723.344000", "110725.343000", "110727.843000", "110729.344000", "110731.844000", "110733.844000", "110735.844000", "110737.844000", "110739.344000", "110741.344000", "110743.343000", "110745.343000", "110747.343000", "110749.343000", "110751.844000", "110753.344000", "110755.845000", "110757.844000", "110759.844000", "110801.343000", "110803.343000", "110805.343000", "110807.345000", "110809.845000", "110811.344000", "110813.344000", "110815.845000", "110817.843000", "110819.344000", "110821.343000", "110823.344000", "110825.844000", "110827.845000", "110829.345000", "110831.844000", "110833.844000", "110835.343000", "110837.344000", "110839.344000", "110841.844000", "110843.344000", "110845.345000", "110847.344000", "110849.344000", "110851.844000", "110853.844000", "110855.843000", "110857.343000", "110859.344000", "110901.844000", "110903.345000", "110905.344000", "110907.844000", "110909.844000", "110911.343000", "110913.844000", "110915.844000", "110917.845000", "110919.844000", "110921.844000", "110923.845000", "110925.344000", "110927.843000", "110929.343000", "110931.344000", "110933.844000", "110935.844000", "110937.845000", "110939.344000", "110941.845000", "110943.344000", "110945.844000", "110947.843000", "110949.343000", "110951.343000", "110953.844000", "110955.344000", "110957.845000", "110959.344000", "111001.344000", "111003.844000", "111005.843000", "111007.844000", "111009.845000", "111011.845000", "111013.344000", "111015.844000", "111017.844000", "111019.344000", "111021.343000", "111023.344000", "111025.343000", "111027.344000", "111029.844000", "111031.345000", "111033.844000", "111035.344000", "111037.843000", "111039.343000", "111041.343000", "111043.844000", "111045.844000", "111047.344000", "111049.344000", "111051.344000", "111053.844000", "111055.843000", "111057.844000", "111059.343000", "111101.844000", "111103.844000", "111105.844000", "111107.845000", "111109.344000", "111111.844000", "111113.343000", "111115.843000", "111117.344000", "111119.344000", "111121.844000", "111123.845000", "111125.345000", "111127.845000", "111129.344000", "111131.844000", "111133.844000", "111135.343000", "111137.844000", "111139.344000", "111141.845000", "111143.344000", "111145.845000", "111147.345000", "111149.843000", "111151.344000", "111153.344000", "111155.845000", "111157.845000", "111159.845000", "111201.345000", "111203.345000", "111205.844000", "111207.344000", "111209.343000", "111211.344000", "111213.844000", "111215.844000", "111217.844000", "111219.344000", "111221.844000", "111223.843000", "111225.844000", "111227.844000", "111229.343000", "111231.345000", "111233.344000", "111235.346000", "111237.845000", "111239.844000", "111241.843000", "111243.843000", "111245.344000", "111247.845000", "111249.845000", "111251.344000", "111253.345000", "111255.845000", "111257.345000", "111259.843000", "111301.844000", "111303.844000", "111305.344000", "111307.344000", "111309.344000", "111311.345000", "111313.845000", "111315.843000", "111317.844000", "111319.343000", "111321.843000", "111323.845000", "111325.844000", "111327.844000", "111329.344000", "111331.345000", "111333.844000", "111335.844000", "111337.844000", "111339.845000", "111341.844000", "111343.845000", "111345.844000", "111347.845000", "111349.844000", "111351.843000", "111353.344000", "111355.343000", "111357.844000", "111359.845000", "111401.345000", "111403.344000", "111405.345000", "111407.844000", "111409.843000", "111411.844000", "111413.344000", "111415.845000", "111417.845000", "111419.844000", "111421.344000", "111423.844000", "111425.843000", "111427.344000", "111429.343000", "111431.844000", "111433.845000", "111435.845000", "111437.844000", "111439.845000", "111441.345000", "111443.844000", "111445.344000", "111447.844000", "111449.345000", "111451.845000", "111453.344000", "111455.321000"],
      "InstanceNumber": [1, 2, 3, 4, 5, 6, 7, 8, 9, 10, 11, 12, 13, 14, 15, 16, 17, 18, 19, 20, 21, 22, 23, 24, 25, 26, 27, 28, 29, 30, 31, 32, 33, 34, 35, 36, 37, 38, 39, 40, 41, 42, 43, 44, 45, 46, 47, 48, 49, 50, 51, 52, 53, 54, 55, 56, 57, 58, 59, 60, 61, 62, 63, 64, 65, 66, 67, 68, 69, 70, 71, 72, 73, 74, 75, 76, 77, 78, 79, 80, 81, 82, 83, 84, 85, 86, 87, 88, 89, 90, 91, 92, 93, 94, 95, 96, 97, 98, 99, 100, 101, 102, 103, 104, 105, 106, 107, 108, 109, 110, 111, 112, 113, 114, 115, 116, 117, 118, 119, 120, 121, 122, 123, 124, 125, 126, 127, 128, 129, 130, 131, 132, 133, 134, 135, 136, 137, 138, 139, 140, 141, 142, 143, 144, 145, 146, 147, 148, 149, 150, 151, 152, 153, 154, 155, 156, 157, 158, 159, 160, 161, 162, 163, 164, 165, 166, 167, 168, 169, 170, 171, 172, 173, 174, 175, 176, 177, 178, 179, 180, 181, 182, 183, 184, 185, 186, 187, 188, 189, 190, 191, 192, 193, 194, 195, 196, 197, 198, 199, 200, 201, 202, 203, 204, 205, 206, 207, 208, 209, 210, 211, 212, 213, 214, 215, 216, 217, 218, 219, 220, 221, 222, 223, 224, 225, 226, 227, 228, 229, 230, 231, 232, 233, 234, 235, 236, 237, 238, 239, 240, 241, 242, 243, 244, 245, 246, 247, 248, 249, 250, 251, 252, 253, 254, 255, 256],
      "LargestImagePixelValue": [2708, 2703, 2696, 2793, 2753, 2662, 2653, 2664, 2720, 2680, 2674, 2843, 2841, 2712, 2756, 2742, 2724, 2720, 2699, 2707, 2698, 2728, 2736, 2720, 2705, 2711, 2715, 2736, 2756, 2780, 2739, 2740, 2707, 2690, 2696, 2700, 2716, 2717, 2719, 2726, 2734, 2726, 2724, 2743, 2730, 2730, 2692, 2755, 2810, 2830, 2834, 2716, 2905, 2722, 3040, 2811, 2807, 2693, 2710, 2746, 2719, 2741, 2721, 2723, 2728, 2723, 2763, 2800, 2775, 2860, 2708, 2738, 2706, 2732, 2845, 2766, 2738, 2747, 2744, 2762, 2762, 2751, 2743, 2723, 2731, 2709, 2706, 2807, 2751, 2775, 2753, 2695, 2694, 2732, 2731, 2724, 2714, 2716, 2755, 2758, 2764, 2771, 2855, 2781, 2800, 2770, 2762, 2774, 2823, 2789, 2792, 2769, 2739, 2749, 2774, 2776, 2789, 2777, 2790, 2763, 2742, 2753, 2759, 2746, 2738, 2774, 2771, 2795, 2833, 2777, 2797, 2790, 2796, 2782, 2832, 2788, 2813, 2828, 2835, 2803, 2800, 2797, 2789, 2789, 2822, 2815, 2801, 2790, 2797, 2756, 2775, 2780, 2783, 2814, 2795, 2775, 2802, 2815, 2806, 2847, 2801, 2804, 3168, 2905, 2811, 2778, 2769, 2780, 2849, 2818, 2811, 2833, 2891, 2802, 2789, 2800, 2781, 2811, 2883, 2796, 2768, 2805, 2801, 2820, 2814, 2842, 2887, 2829, 2848, 2824, 3154, 2820, 2856, 2971, 2831, 2961, 2847, 2806, 2814, 2791, 2840, 2861, 2849, 2897, 2839, 2879, 2864, 3007, 2824, 2822, 2874, 2884, 2882, 2880, 2886, 2889, 2888, 2873, 2903, 2855, 2829, 2886, 2907, 2845, 2844, 2865, 2877, 2832, 2847, 2856, 2973, 2823, 2813, 3197, 2857, 2852, 2866, 2876, 2845, 2837, 2850, 2822, 2820, 2829, 2832, 2839, 2838, 2798, 2815, 2774, 2784, 2843, 2851, 2839, 2804, 2849],
      "WindowCenter": [760.0, 760.0, 762.0, 763.0, 762.0, 759.0, 758.0, 758.0, 759.0, 759.0, 760.0, 761.0, 761.0, 760.0, 762.0, 762.0, 762.0, 761.0, 760.0, 759.0, 760.0, 760.0, 761.0, 761.0, 760.0, 760.0, 760.0, 762.0, 762.0, 761.0, 759.0, 759.0, 758.0, 758.0, 758.0, 758.0, 759.0, 760.0, 760.0, 760.0, 760.0, 760.0, 760.0, 760.0, 760.0, 759.0, 759.0, 761.0, 761.0, 761.0, 760.0, 760.0, 762.0, 761.0, 764.0, 761.0, 760.0, 758.0, 759.0, 760.0, 760.0, 760.0, 759.0, 759.0, 759.0, 759.0, 760.0, 762.0, 762.0, 761.0, 758.0, 758.0, 758.0, 759.0, 760.0, 759.0, 759.0, 759.0, 760.0, 761.0, 760.0, 759.0, 759.0, 761.0, 762.0, 761.0, 759.0, 759.0, 760.0, 760.0, 760.0, 758.0, 757.0, 757.0, 757.0, 758.0, 759.0, 760.0, 761.0, 762.0, 762.0, 762.0, 761.0, 760.0, 761.0, 761.0, 761.0, 762.0, 762.0, 762.0, 762.0, 761.0, 760.0, 761.0, 762.0, 761.0, 760.0, 760.0, 760.0, 761.0, 761.0, 760.0, 760.0, 760.0, 760.0, 761.0, 761.0, 763.0, 763.0, 762.0, 763.0, 762.0, 762.0, 760.0, 760.0, 760.0, 761.0, 762.0, 762.0, 762.0, 762.0, 762.0, 761.0, 761.0, 763.0, 763.0, 762.0, 761.0, 761.0, 761.0, 762.0, 762.0, 762.0, 762.0, 763.0, 762.0, 762.0, 762.0, 762.0, 762.0, 761.0, 762.0, 766.0, 764.0, 762.0, 760.0, 760.0, 761.0, 763.0, 762.0, 762.0, 763.0, 763.0, 762.0, 761.0, 762.0, 761.0, 760.0, 760.0, 759.0, 760.0, 761.0, 761.0, 762.0, 762.0, 763.0, 764.0, 763.0, 762.0, 761.0, 764.0, 763.0, 764.0, 765.0, 763.0, 763.0, 762.0, 763.0, 763.0, 763.0, 763.0, 763.0, 764.0, 765.0, 765.0, 766.0, 765.0, 765.0, 763.0, 763.0, 765.0, 765.0, 764.0, 763.0, 763.0, 764.0, 765.0, 766.0, 765.0, 764.0, 762.0, 763.0, 765.0, 765.0, 764.0, 763.0, 762.0, 762.0, 762.0, 763.0, 765.0, 764.0, 764.0, 768.0, 766.0, 765.0, 763.0, 762.0, 762.0, 762.0, 762.0, 762.0, 762.0, 762.0, 763.0, 764.0, 765.0, 763.0, 761.0, 760.0, 761.0, 763.0, 763.0, 762.0, 762.0, 763.0],
      "WindowWidth": [1631.0, 1630.0, 1635.0, 1639.0, 1635.0, 1627.0, 1624.0, 1624.0, 1626.0, 1628.0, 1630.0, 1634.0, 1634.0, 1631.0, 1634.0, 1636.0, 1636.0, 1632.0, 1629.0, 1629.0, 1630.0, 1631.0, 1633.0, 1632.0, 1630.0, 1629.0, 1632.0, 1635.0, 1636.0, 1634.0, 1629.0, 1627.0, 1625.0, 1624.0, 1625.0, 1625.0, 1627.0, 1628.0, 1629.0, 1629.0, 1630.0, 1630.0, 1631.0, 1631.0, 1629.0, 1628.0, 1628.0, 1631.0, 1633.0, 1632.0, 1630.0, 1629.0, 1636.0, 1634.0, 1641.0, 1632.0, 1629.0, 1624.0, 1626.0, 1631.0, 1629.0, 1628.0, 1627.0, 1627.0, 1627.0, 1626.0, 1629.0, 1635.0, 1635.0, 1631.0, 1625.0, 1625.0, 1625.0, 1627.0, 1629.0, 1627.0, 1627.0, 1627.0, 1629.0, 1631.0, 1630.0, 1628.0, 1628.0, 1632.0, 1635.0, 1631.0, 1627.0, 1627.0, 1628.0, 1629.0, 1628.0, 1623.0, 1620.0, 1620.0, 1622.0, 1623.0, 1627.0, 1629.0, 1632.0, 1633.0, 1635.0, 1633.0, 1631.0, 1629.0, 1631.0, 1632.0, 1632.0, 1633.0, 1635.0, 1634.0, 1635.0, 1630.0, 1629.0, 1632.0, 1635.0, 1632.0, 1630.0, 1628.0, 1629.0, 1632.0, 1630.0, 1629.0, 1629.0, 1630.0, 1628.0, 1631.0, 1631.0, 1635.0, 1637.0, 1635.0, 1635.0, 1634.0, 1634.0, 1629.0, 1629.0, 1627.0, 1631.0, 1633.0, 1633.0, 1633.0, 1633.0, 1633.0, 1630.0, 1631.0, 1636.0, 1637.0, 1635.0, 1631.0, 1631.0, 1632.0, 1632.0, 1633.0, 1633.0, 1634.0, 1636.0, 1635.0, 1633.0, 1635.0, 1634.0, 1634.0, 1631.0, 1633.0, 1644.0, 1638.0, 1633.0, 1627.0, 1627.0, 1631.0, 1636.0, 1634.0, 1633.0, 1636.0, 1636.0, 1632.0, 1632.0, 1633.0, 1631.0, 1629.0, 1629.0, 1626.0, 1627.0, 1632.0, 1631.0, 1632.0, 1632.0, 1636.0, 1639.0, 1635.0, 1633.0, 1631.0, 1640.0, 1635.0, 1638.0, 1643.0, 1635.0, 1638.0, 1634.0, 1635.0, 1636.0, 1637.0, 1637.0, 1637.0, 1638.0, 1640.0, 1641.0, 1644.0, 1642.0, 1642.0, 1636.0, 1637.0, 1642.0, 1642.0, 1639.0, 1636.0, 1637.0, 1639.0, 1643.0, 1644.0, 1642.0, 1637.0, 1635.0, 1636.0, 1641.0, 1640.0, 1638.0, 1635.0, 1632.0, 1632.0, 1633.0, 1635.0, 1641.0, 1638.0, 1639.0, 1651.0, 1643.0, 1640.0, 1637.0, 1634.0, 1632.0, 1633.0, 1632.0, 1632.0, 1632.0, 1633.0, 1636.0, 1639.0, 1641.0, 1635.0, 1632.0, 1628.0, 1631.0, 1635.0, 1635.0, 1634.0, 1633.0, 1635.0]
    },
    "slices": {}
  }
}