{
 "AcquisitionMatrixPE": 100,
 "AcquisitionNumber": 1,
 "AcquisitionTime": "09:38:29.970000",
 "BandwidthPerPixelPhaseEncode": 18.519,
 "BaseResolution": 100,
 "BodyPartExamined": "BRAIN",
 "ConsistencyInfo": "N4_VE11C_LATEST_20160120",
 "ConversionSoftware": "dcm2niix",
 "ConversionSoftwareVersion": "v1.0.20180622 GCC4.9.2",
 "DerivedVendorReportedEchoSpacing": 0.000539986,
 "DeviceSerialNumber": "166078",
 "DwellTime": 2.1e-06,
 "EchoTime": 0.034,
 "EchoTrainLength": 100,
 "EffectiveEchoSpacing": 0.000539986,
 "FlipAngle": 90,
 "ImageOrientationPatientDICOM": [
  1,
  0,
  0,
  0,
  1,
  0
 ],
 "ImageType": [
  "ORIGINAL",
  "PRIMARY",
  "M",
  "ND",
  "MOSAIC"
 ],
 "InPlanePhaseEncodingDirectionDICOM": "COL",
 "InstitutionAddress": "Street_StreetNo_Bei_Jing_District_CN_ZIP",
 "InstitutionName": "BeiJing_Normal_University",
 "InstitutionalDepartmentName": "Department",
 "MRAcquisitionType": "2D",
 "MagneticFieldStrength": 3,
 "Manufacturer": "Siemens",
 "ManufacturersModelName": "Prisma",
 "Modality": "MR",
 "MultibandAccelerationFactor": 3,
 "PartialFourier": 1,
 "PatientPosition": "HFS",
 "PercentPhaseFOV": 100,
 "PhaseEncodingDirection": "j-",
 "PhaseEncodingSteps": 100,
 "PhaseResolution": 1,
 "PixelBandwidth": 2380,
 "ProcedureStepDescription": "BNU_P2018_64CH_Zhen.ZongLei",
 "ProtocolName": "bold_100x100_s3_2x2x2_static_256",
 "PulseSequenceDetails": "%SiemensSeq%_ep2d_bold",
 "ReceiveCoilActiveElements": "HC1-7;NC1",
 "ReceiveCoilName": "HeadNeck_64",
 "ReconMatrixPE": 100,
 "RepetitionTime": 2,
 "SAR": 0.063856,
 "ScanOptions": "FS",
 "ScanningSequence": "EP",
 "SequenceName": "_epfid2d1_100",
 "SequenceVariant": "SK",
 "SeriesDescription": "bold_100x100_s3_2x2x2_static_256",
 "SeriesNumber": 7,
 "ShimSetting": [
  -5461,
  -11508,
  -1257,
  359,
  -45,
  -237,
  -153,
  30
 ],
 "SliceThickness": 2,
 "SliceTiming": [
  1.485,
  0,
  0.99,
  0.0825,
  1.0725,
  0.165,
  1.155,
  0.2475,
  1.2375,
  0.33,
  1.32,
  0.4125,
  1.4025,
  0.5775,
  1.5675,
  0.66,
  1.65,
  0.7425,
  1.7325,
  0.825,
  1.815,
  0.9075,
  1.8975,
  0.495,
  1.485,
  0,
  0.99,
  0.0825,
  1.0725,
  0.165,
  1.155,
  0.2475,
  1.2375,
  0.33,
  1.32,
  0.4125,
  1.4025,
  0.5775,
  1.5675,
  0.66,
  1.65,
  0.7425,
  1.7325,
  0.825,
  1.815,
  0.9075,
  1.8975,
  0.495,
  1.485,
  0,
  0.99,
  0.0825,
  1.0725,
  0.165,
  1.155,
  0.2475,
  1.2375,
  0.33,
  1.32,
  0.4125,
  1.4025,
  0.5775,
  1.5675,
  0.66,
  1.65,
  0.7425,
  1.7325,
  0.825,
  1.815,
  0.9075,
  1.8975,
  0.495
 ],
 "SoftwareVersions": "syngo_MR_E11",
 "SpacingBetweenSlices": 2,
 "StationName": "AWP166078",
 "TaskName": "imagenet",
 "TotalReadoutTime": 0.0534586,
 "TxRefAmp": 205.086,
 "dcmmeta_affine": [
  [
   -2.0,
   0.0,
   0.0,
   100.67469787597656
  ],
  [
   0.0,
   2.0,
   0.0,
   -90.81446075439453
  ],
  [
   0.0,
   0.0,
   2.0,
   -56.33012008666992
  ],
  [
   0.0,
   0.0,
   0.0,
   1.0
  ]
 ],
 "dcmmeta_reorient_transform": [
  [
   0.0,
   -1.0,
   0.0,
   99.0
  ],
  [
   1.0,
   0.0,
   0.0,
   0.0
  ],
  [
   0.0,
   0.0,
   1.0,
   0.0
  ],
  [
   0.0,
   0.0,
   0.0,
   1.0
  ]
 ],
 "dcmmeta_shape": [
  100,
  100,
  72,
  256
 ],
 "dcmmeta_slice_dim": 2,
 "dcmmeta_version": 0.6,
 "global": {
  "const": {
   "AcquisitionMatrix": [
    100,
    0,
    0,
    100
   ],
   "AngioFlag": "N",
   "BitsAllocated": 16,
   "BitsStored": 12,
   "BodyPartExamined": "BRAIN",
   "Columns": 900,
   "EchoNumbers": 1,
   "EchoTime": 34.0,
   "EchoTrainLength": 100,
   "FlipAngle": 90.0,
   "HighBit": 11,
   "ImageOrientationPatient": [
    1.0,
    0.0,
    0.0,
    0.0,
    1.0,
    0.0
   ],
   "ImagePositionPatient": [
    -900.67469877005,
    -907.18554210663,
    -56.33012008667
   ],
   "ImageType": [
    "ORIGINAL",
    "PRIMARY",
    "M",
    "ND",
    "MOSAIC"
   ],
   "ImagedNucleus": "1H",
   "ImagingFrequency": 123.257746,
   "InPlanePhaseEncodingDirection": "COL",
   "MRAcquisitionType": "2D",
   "MagneticFieldStrength": 3.0,
   "Manufacturer": "SIEMENS",
   "ManufacturerModelName": "Prisma",
   "Modality": "MR",
   "NumberOfAverages": 1.0,
   "NumberOfPhaseEncodingSteps": 100,
   "PercentPhaseFieldOfView": 100.0,
   "PercentSampling": 100.0,
   "PerformedProcedureStepStartTime": "090416.835000",
   "PhotometricInterpretation": "MONOCHROME2",
   "PixelBandwidth": 2380.0,
   "PixelRepresentation": 0,
   "PixelSpacing": [
    2.0,
    2.0
   ],
   "ProtocolName": "bold_100x100_s3_2x2x2_static_256",
   "RepetitionTime": 2000.0,
   "Rows": 900,
   "SAR": 0.06385601749961,
   "SamplesPerPixel": 1,
   "ScanOptions": "FS",
   "ScanningSequence": "EP",
   "SequenceName": "*epfid2d1_100",
   "SequenceVariant": "SK",
   "SeriesDescription": "bold_100x100_s3_2x2x2_static_256",
   "SeriesNumber": 7,
   "SeriesTime": "093832.466000",
   "SliceLocation": -56.33012008667,
   "SliceThickness": 2.0,
   "SmallestImagePixelValue": 0,
   "SoftwareVersions": "syngo MR E11",
   "SpacingBetweenSlices": 1.9999999462719,
   "SpecificCharacterSet": "ISO_IR 100",
   "StudyID": "1",
   "StudyTime": "090416.742000",
   "TransmitCoilName": "Body",
   "VariableFlipAngleFlag": "N",
   "WindowCenterWidthExplanation": "Algo1",
   "dBdt": 0.0
  },
  "slices": {}
 },
 "time": {
  "samples": {
   "AcquisitionNumber": [
    1,
    2,
    3,
    4,
    5,
    6,
    7,
    8,
    9,
    10,
    11,
    12,
    13,
    14,
    15,
    16,
    17,
    18,
    19,
    20,
    21,
    22,
    23,
    24,
    25,
    26,
    27,
    28,
    29,
    30,
    31,
    32,
    33,
    34,
    35,
    36,
    37,
    38,
    39,
    40,
    41,
    42,
    43,
    44,
    45,
    46,
    47,
    48,
    49,
    50,
    51,
    52,
    53,
    54,
    55,
    56,
    57,
    58,
    59,
    60,
    61,
    62,
    63,
    64,
    65,
    66,
    67,
    68,
    69,
    70,
    71,
    72,
    73,
    74,
    75,
    76,
    77,
    78,
    79,
    80,
    81,
    82,
    83,
    84,
    85,
    86,
    87,
    88,
    89,
    90,
    91,
    92,
    93,
    94,
    95,
    96,
    97,
    98,
    99,
    100,
    101,
    102,
    103,
    104,
    105,
    106,
    107,
    108,
    109,
    110,
    111,
    112,
    113,
    114,
    115,
    116,
    117,
    118,
    119,
    120,
    121,
    122,
    123,
    124,
    125,
    126,
    127,
    128,
    129,
    130,
    131,
    132,
    133,
    134,
    135,
    136,
    137,
    138,
    139,
    140,
    141,
    142,
    143,
    144,
    145,
    146,
    147,
    148,
    149,
    150,
    151,
    152,
    153,
    154,
    155,
    156,
    157,
    158,
    159,
    160,
    161,
    162,
    163,
    164,
    165,
    166,
    167,
    168,
    169,
    170,
    171,
    172,
    173,
    174,
    175,
    176,
    177,
    178,
    179,
    180,
    181,
    182,
    183,
    184,
    185,
    186,
    187,
    188,
    189,
    190,
    191,
    192,
    193,
    194,
    195,
    196,
    197,
    198,
    199,
    200,
    201,
    202,
    203,
    204,
    205,
    206,
    207,
    208,
    209,
    210,
    211,
    212,
    213,
    214,
    215,
    216,
    217,
    218,
    219,
    220,
    221,
    222,
    223,
    224,
    225,
    226,
    227,
    228,
    229,
    230,
    231,
    232,
    233,
    234,
    235,
    236,
    237,
    238,
    239,
    240,
    241,
    242,
    243,
    244,
    245,
    246,
    247,
    248,
    249,
    250,
    251,
    252,
    253,
    254,
    255,
    256
   ],
   "AcquisitionTime": [
    "093829.970000",
    "093831.970000",
    "093833.970000",
    "093835.970000",
    "093837.970000",
    "093839.970000",
    "093841.970000",
    "093843.970000",
    "093845.970000",
    "093847.970000",
    "093849.970000",
    "093851.970000",
    "093853.970000",
    "093855.970000",
    "093857.970000",
    "093859.970000",
    "093901.970000",
    "093903.970000",
    "093905.970000",
    "093907.970000",
    "093909.970000",
    "093911.970000",
    "093913.970000",
    "093915.970000",
    "093917.970000",
    "093919.970000",
    "093921.970000",
    "093923.970000",
    "093925.970000",
    "093927.970000",
    "093929.970000",
    "093931.970000",
    "093933.970000",
    "093935.970000",
    "093937.970000",
    "093939.970000",
    "093941.970000",
    "093943.970000",
    "093945.970000",
    "093947.970000",
    "093949.970000",
    "093951.970000",
    "093953.970000",
    "093955.970000",
    "093957.970000",
    "093959.970000",
    "094001.970000",
    "094003.970000",
    "094005.970000",
    "094007.970000",
    "094009.970000",
    "094011.970000",
    "094013.970000",
    "094015.970000",
    "094017.970000",
    "094019.970000",
    "094021.970000",
    "094023.970000",
    "094025.970000",
    "094027.970000",
    "094029.970000",
    "094031.970000",
    "094033.970000",
    "094035.970000",
    "094037.970000",
    "094039.970000",
    "094041.970000",
    "094043.970000",
    "094045.970000",
    "094047.970000",
    "094049.970000",
    "094051.970000",
    "094053.970000",
    "094055.970000",
    "094057.970000",
    "094059.970000",
    "094101.970000",
    "094103.970000",
    "094105.970000",
    "094107.970000",
    "094109.970000",
    "094111.970000",
    "094113.970000",
    "094115.970000",
    "094117.970000",
    "094119.970000",
    "094121.970000",
    "094123.970000",
    "094125.970000",
    "094127.970000",
    "094129.970000",
    "094131.970000",
    "094133.970000",
    "094135.970000",
    "094137.970000",
    "094139.970000",
    "094141.970000",
    "094143.970000",
    "094145.970000",
    "094147.970000",
    "094149.970000",
    "094151.970000",
    "094153.970000",
    "094155.970000",
    "094157.970000",
    "094159.970000",
    "094201.970000",
    "094203.970000",
    "094205.970000",
    "094207.970000",
    "094209.970000",
    "094211.970000",
    "094213.970000",
    "094215.970000",
    "094217.970000",
    "094219.970000",
    "094221.970000",
    "094223.970000",
    "094225.970000",
    "094227.970000",
    "094229.970000",
    "094231.970000",
    "094233.970000",
    "094235.970000",
    "094237.970000",
    "094239.970000",
    "094241.970000",
    "094243.970000",
    "094245.970000",
    "094247.970000",
    "094249.970000",
    "094251.970000",
    "094253.970000",
    "094255.970000",
    "094257.970000",
    "094259.970000",
    "094301.970000",
    "094303.970000",
    "094305.970000",
    "094307.970000",
    "094309.970000",
    "094311.970000",
    "094313.970000",
    "094315.970000",
    "094317.970000",
    "094319.970000",
    "094321.970000",
    "094323.970000",
    "094325.970000",
    "094327.970000",
    "094329.970000",
    "094331.970000",
    "094333.970000",
    "094335.970000",
    "094337.970000",
    "094339.970000",
    "094341.970000",
    "094343.970000",
    "094345.970000",
    "094347.970000",
    "094349.970000",
    "094351.970000",
    "094353.970000",
    "094355.970000",
    "094357.970000",
    "094359.970000",
    "094401.970000",
    "094403.970000",
    "094405.970000",
    "094407.970000",
    "094409.970000",
    "094411.970000",
    "094413.970000",
    "094415.970000",
    "094417.970000",
    "094419.970000",
    "094421.970000",
    "094423.970000",
    "094425.970000",
    "094427.970000",
    "094429.970000",
    "094431.970000",
    "094433.970000",
    "094435.970000",
    "094437.970000",
    "094439.970000",
    "094441.970000",
    "094443.970000",
    "094445.970000",
    "094447.970000",
    "094449.970000",
    "094451.970000",
    "094453.970000",
    "094455.970000",
    "094457.970000",
    "094459.970000",
    "094501.970000",
    "094503.970000",
    "094505.970000",
    "094507.970000",
    "094509.970000",
    "094511.970000",
    "094513.970000",
    "094515.970000",
    "094517.970000",
    "094519.970000",
    "094521.970000",
    "094523.970000",
    "094525.970000",
    "094527.970000",
    "094529.970000",
    "094531.970000",
    "094533.970000",
    "094535.970000",
    "094537.970000",
    "094539.970000",
    "094541.970000",
    "094543.970000",
    "094545.970000",
    "094547.970000",
    "094549.970000",
    "094551.970000",
    "094553.970000",
    "094555.970000",
    "094557.970000",
    "094559.970000",
    "094601.970000",
    "094603.970000",
    "094605.970000",
    "094607.970000",
    "094609.970000",
    "094611.970000",
    "094613.970000",
    "094615.970000",
    "094617.970000",
    "094619.970000",
    "094621.970000",
    "094623.970000",
    "094625.970000",
    "094627.970000",
    "094629.970000",
    "094631.970000",
    "094633.970000",
    "094635.970000",
    "094637.970000",
    "094639.970000",
    "094641.970000",
    "094643.970000",
    "094645.970000",
    "094647.970000",
    "094649.970000",
    "094651.970000",
    "094653.970000",
    "094655.970000",
    "094657.970000",
    "094659.970000"
   ],
   "ContentTime": [
    "093832.469000",
    "093834.463000",
    "093835.963000",
    "093837.963000",
    "093839.964000",
    "093841.965000",
    "093843.964000",
    "093846.464000",
    "093847.964000",
    "093849.965000",
    "093851.963000",
    "093853.963000",
    "093855.963000",
    "093857.965000",
    "093859.964000",
    "093901.964000",
    "093903.965000",
    "093905.964000",
    "093907.964000",
    "093909.963000",
    "093912.463000",
    "093913.964000",
    "093916.464000",
    "093917.964000",
    "093919.965000",
    "093922.465000",
    "093923.964000",
    "093925.964000",
    "093927.964000",
    "093930.464000",
    "093932.465000",
    "093933.965000",
    "093935.964000",
    "093938.465000",
    "093940.465000",
    "093941.964000",
    "093944.464000",
    "093946.463000",
    "093948.463000",
    "093949.964000",
    "093951.965000",
    "093953.964000",
    "093956.464000",
    "093957.964000",
    "093959.965000",
    "094002.464000",
    "094004.463000",
    "094005.963000",
    "094008.465000",
    "094010.464000",
    "094011.965000",
    "094014.465000",
    "094016.464000",
    "094017.964000",
    "094019.963000",
    "094021.963000",
    "094023.965000",
    "094025.964000",
    "094027.964000",
    "094029.964000",
    "094032.465000",
    "094033.964000",
    "094035.965000",
    "094037.963000",
    "094040.463000",
    "094042.465000",
    "094044.465000",
    "094045.965000",
    "094047.964000",
    "094050.464000",
    "094052.465000",
    "094053.964000",
    "094055.963000",
    "094057.963000",
    "094100.464000",
    "094101.965000",
    "094103.964000",
    "094105.964000",
    "094107.965000",
    "094109.964000",
    "094112.463000",
    "094114.463000",
    "094115.963000",
    "094117.964000",
    "094119.964000",
    "094121.964000",
    "094123.965000",
    "094126.464000",
    "094127.965000",
    "094129.964000",
    "094131.964000",
    "094133.964000",
    "094135.964000",
    "094137.965000",
    "094139.964000",
    "094141.965000",
    "094143.964000",
    "094146.464000",
    "094147.964000",
    "094149.963000",
    "094151.965000",
    "094154.465000",
    "094155.964000",
    "094157.964000",
    "094200.464000",
    "094202.465000",
    "094203.964000",
    "094205.963000",
    "094208.464000",
    "094209.965000",
    "094211.965000",
    "094214.465000",
    "094216.465000",
    "094218.464000",
    "094219.964000",
    "094221.964000",
    "094224.464000",
    "094226.465000",
    "094228.464000",
    "094230.464000",
    "094232.464000",
    "094233.965000",
    "094235.965000",
    "094237.965000",
    "094239.963000",
    "094242.463000",
    "094244.465000",
    "094245.964000",
    "094247.965000",
    "094249.964000",
    "094251.965000",
    "094254.464000",
    "094255.964000",
    "094257.964000",
    "094259.963000",
    "094302.465000",
    "094304.465000",
    "094306.464000",
    "094308.465000",
    "094309.964000",
    "094311.964000",
    "094314.463000",
    "094315.963000",
    "094317.963000",
    "094319.964000",
    "094322.464000",
    "094323.965000",
    "094325.964000",
    "094327.964000",
    "094329.965000",
    "094331.963000",
    "094333.964000",
    "094335.964000",
    "094337.965000",
    "094340.465000",
    "094342.465000",
    "094343.965000",
    "094346.465000",
    "094347.965000",
    "094350.464000",
    "094351.964000",
    "094354.464000",
    "094355.964000",
    "094357.964000",
    "094400.465000",
    "094401.964000",
    "094403.965000",
    "094406.465000",
    "094407.964000",
    "094409.963000",
    "094412.465000",
    "094414.465000",
    "094415.965000",
    "094418.464000",
    "094420.464000",
    "094421.964000",
    "094423.964000",
    "094425.964000",
    "094427.963000",
    "094430.465000",
    "094431.964000",
    "094433.965000",
    "094435.964000",
    "094437.964000",
    "094440.464000",
    "094441.963000",
    "094444.463000",
    "094446.465000",
    "094447.964000",
    "094449.964000",
    "094451.964000",
    "094454.465000",
    "094455.964000",
    "094457.964000",
    "094500.463000",
    "094501.964000",
    "094503.965000",
    "094506.464000",
    "094507.964000",
    "094510.465000",
    "094511.964000",
    "094514.464000",
    "094515.964000",
    "094517.963000",
    "094519.963000",
    "094522.465000",
    "094524.464000",
    "094526.465000",
    "094527.964000",
    "094529.964000",
    "094531.965000",
    "094533.964000",
    "094535.964000",
    "094538.464000",
    "094539.965000",
    "094541.964000",
    "094543.964000",
    "094545.965000",
    "094548.464000",
    "094550.464000",
    "094551.964000",
    "094554.463000",
    "094555.964000",
    "094557.965000",
    "094559.965000",
    "094601.965000",
    "094604.465000",
    "094605.964000",
    "094608.464000",
    "094610.464000",
    "094611.964000",
    "094614.465000",
    "094615.965000",
    "094617.965000",
    "094619.965000",
    "094622.465000",
    "094623.965000",
    "094625.965000",
    "094627.964000",
    "094629.964000",
    "094631.965000",
    "094634.465000",
    "094635.965000",
    "094637.964000",
    "094640.465000",
    "094642.465000",
    "094643.963000",
    "094645.964000",
    "094647.964000",
    "094649.965000",
    "094652.464000",
    "094653.964000",
    "094656.464000",
    "094657.964000",
    "094700.464000",
    "094701.985000"
   ],
   "InstanceCreationTime": [
    "093832.469000",
    "093834.463000",
    "093835.963000",
    "093837.963000",
    "093839.964000",
    "093841.965000",
    "093843.964000",
    "093846.464000",
    "093847.964000",
    "093849.965000",
    "093851.963000",
    "093853.963000",
    "093855.963000",
    "093857.965000",
    "093859.964000",
    "093901.964000",
    "093903.965000",
    "093905.964000",
    "093907.964000",
    "093909.963000",
    "093912.463000",
    "093913.964000",
    "093916.464000",
    "093917.964000",
    "093919.965000",
    "093922.465000",
    "093923.964000",
    "093925.964000",
    "093927.964000",
    "093930.464000",
    "093932.465000",
    "093933.965000",
    "093935.964000",
    "093938.465000",
    "093940.465000",
    "093941.964000",
    "093944.464000",
    "093946.463000",
    "093948.463000",
    "093949.964000",
    "093951.965000",
    "093953.964000",
    "093956.464000",
    "093957.964000",
    "093959.965000",
    "094002.464000",
    "094004.463000",
    "094005.963000",
    "094008.465000",
    "094010.464000",
    "094011.965000",
    "094014.465000",
    "094016.464000",
    "094017.964000",
    "094019.963000",
    "094021.963000",
    "094023.965000",
    "094025.964000",
    "094027.964000",
    "094029.964000",
    "094032.465000",
    "094033.964000",
    "094035.965000",
    "094037.963000",
    "094040.463000",
    "094042.465000",
    "094044.465000",
    "094045.965000",
    "094047.964000",
    "094050.464000",
    "094052.465000",
    "094053.964000",
    "094055.963000",
    "094057.963000",
    "094100.464000",
    "094101.965000",
    "094103.964000",
    "094105.964000",
    "094107.965000",
    "094109.964000",
    "094112.463000",
    "094114.463000",
    "094115.963000",
    "094117.964000",
    "094119.964000",
    "094121.964000",
    "094123.965000",
    "094126.464000",
    "094127.965000",
    "094129.964000",
    "094131.964000",
    "094133.964000",
    "094135.964000",
    "094137.965000",
    "094139.964000",
    "094141.965000",
    "094143.964000",
    "094146.464000",
    "094147.964000",
    "094149.963000",
    "094151.965000",
    "094154.465000",
    "094155.964000",
    "094157.964000",
    "094200.464000",
    "094202.465000",
    "094203.964000",
    "094205.963000",
    "094208.464000",
    "094209.965000",
    "094211.965000",
    "094214.465000",
    "094216.465000",
    "094218.464000",
    "094219.964000",
    "094221.964000",
    "094224.464000",
    "094226.465000",
    "094228.464000",
    "094230.464000",
    "094232.464000",
    "094233.965000",
    "094235.965000",
    "094237.965000",
    "094239.963000",
    "094242.463000",
    "094244.465000",
    "094245.964000",
    "094247.965000",
    "094249.964000",
    "094251.965000",
    "094254.464000",
    "094255.964000",
    "094257.964000",
    "094259.963000",
    "094302.465000",
    "094304.465000",
    "094306.464000",
    "094308.465000",
    "094309.964000",
    "094311.964000",
    "094314.463000",
    "094315.963000",
    "094317.963000",
    "094319.964000",
    "094322.464000",
    "094323.965000",
    "094325.964000",
    "094327.964000",
    "094329.965000",
    "094331.963000",
    "094333.964000",
    "094335.964000",
    "094337.965000",
    "094340.465000",
    "094342.465000",
    "094343.965000",
    "094346.465000",
    "094347.965000",
    "094350.464000",
    "094351.964000",
    "094354.464000",
    "094355.964000",
    "094357.964000",
    "094400.465000",
    "094401.964000",
    "094403.965000",
    "094406.465000",
    "094407.964000",
    "094409.963000",
    "094412.465000",
    "094414.465000",
    "094415.965000",
    "094418.464000",
    "094420.464000",
    "094421.964000",
    "094423.964000",
    "094425.964000",
    "094427.963000",
    "094430.465000",
    "094431.964000",
    "094433.965000",
    "094435.964000",
    "094437.964000",
    "094440.464000",
    "094441.963000",
    "094444.463000",
    "094446.465000",
    "094447.964000",
    "094449.964000",
    "094451.964000",
    "094454.465000",
    "094455.964000",
    "094457.964000",
    "094500.463000",
    "094501.964000",
    "094503.965000",
    "094506.464000",
    "094507.964000",
    "094510.465000",
    "094511.964000",
    "094514.464000",
    "094515.964000",
    "094517.963000",
    "094519.963000",
    "094522.465000",
    "094524.464000",
    "094526.465000",
    "094527.964000",
    "094529.964000",
    "094531.965000",
    "094533.964000",
    "094535.964000",
    "094538.464000",
    "094539.965000",
    "094541.964000",
    "094543.964000",
    "094545.965000",
    "094548.464000",
    "094550.464000",
    "094551.964000",
    "094554.463000",
    "094555.964000",
    "094557.965000",
    "094559.965000",
    "094601.965000",
    "094604.465000",
    "094605.964000",
    "094608.464000",
    "094610.464000",
    "094611.964000",
    "094614.465000",
    "094615.965000",
    "094617.965000",
    "094619.965000",
    "094622.465000",
    "094623.965000",
    "094625.965000",
    "094627.964000",
    "094629.964000",
    "094631.965000",
    "094634.465000",
    "094635.965000",
    "094637.964000",
    "094640.465000",
    "094642.465000",
    "094643.963000",
    "094645.964000",
    "094647.964000",
    "094649.965000",
    "094652.464000",
    "094653.964000",
    "094656.464000",
    "094657.964000",
    "094700.464000",
    "094701.985000"
   ],
   "InstanceNumber": [
    1,
    2,
    3,
    4,
    5,
    6,
    7,
    8,
    9,
    10,
    11,
    12,
    13,
    14,
    15,
    16,
    17,
    18,
    19,
    20,
    21,
    22,
    23,
    24,
    25,
    26,
    27,
    28,
    29,
    30,
    31,
    32,
    33,
    34,
    35,
    36,
    37,
    38,
    39,
    40,
    41,
    42,
    43,
    44,
    45,
    46,
    47,
    48,
    49,
    50,
    51,
    52,
    53,
    54,
    55,
    56,
    57,
    58,
    59,
    60,
    61,
    62,
    63,
    64,
    65,
    66,
    67,
    68,
    69,
    70,
    71,
    72,
    73,
    74,
    75,
    76,
    77,
    78,
    79,
    80,
    81,
    82,
    83,
    84,
    85,
    86,
    87,
    88,
    89,
    90,
    91,
    92,
    93,
    94,
    95,
    96,
    97,
    98,
    99,
    100,
    101,
    102,
    103,
    104,
    105,
    106,
    107,
    108,
    109,
    110,
    111,
    112,
    113,
    114,
    115,
    116,
    117,
    118,
    119,
    120,
    121,
    122,
    123,
    124,
    125,
    126,
    127,
    128,
    129,
    130,
    131,
    132,
    133,
    134,
    135,
    136,
    137,
    138,
    139,
    140,
    141,
    142,
    143,
    144,
    145,
    146,
    147,
    148,
    149,
    150,
    151,
    152,
    153,
    154,
    155,
    156,
    157,
    158,
    159,
    160,
    161,
    162,
    163,
    164,
    165,
    166,
    167,
    168,
    169,
    170,
    171,
    172,
    173,
    174,
    175,
    176,
    177,
    178,
    179,
    180,
    181,
    182,
    183,
    184,
    185,
    186,
    187,
    188,
    189,
    190,
    191,
    192,
    193,
    194,
    195,
    196,
    197,
    198,
    199,
    200,
    201,
    202,
    203,
    204,
    205,
    206,
    207,
    208,
    209,
    210,
    211,
    212,
    213,
    214,
    215,
    216,
    217,
    218,
    219,
    220,
    221,
    222,
    223,
    224,
    225,
    226,
    227,
    228,
    229,
    230,
    231,
    232,
    233,
    234,
    235,
    236,
    237,
    238,
    239,
    240,
    241,
    242,
    243,
    244,
    245,
    246,
    247,
    248,
    249,
    250,
    251,
    252,
    253,
    254,
    255,
    256
   ],
   "LargestImagePixelValue": [
    3399,
    3408,
    3323,
    3355,
    3361,
    3318,
    3329,
    3369,
    3310,
    3302,
    3304,
    3327,
    3332,
    3324,
    3331,
    3305,
    3342,
    3349,
    3339,
    3352,
    3369,
    3370,
    3350,
    3331,
    3332,
    3324,
    3365,
    3374,
    3366,
    3371,
    3396,
    3343,
    3346,
    3341,
    3319,
    3345,
    3337,
    3329,
    3329,
    3319,
    3331,
    3326,
    3327,
    3314,
    3336,
    3337,
    3336,
    3315,
    3347,
    3330,
    3331,
    3350,
    3351,
    3336,
    3287,
    3295,
    3307,
    3320,
    3332,
    3347,
    3332,
    3306,
    3324,
    3312,
    3332,
    3316,
    3301,
    3271,
    3298,
    3277,
    3293,
    3308,
    3347,
    3295,
    3319,
    3300,
    3317,
    3271,
    3297,
    3306,
    3289,
    3244,
    3274,
    3287,
    3264,
    3304,
    3326,
    3305,
    3292,
    3285,
    3314,
    3313,
    3299,
    3288,
    3284,
    3301,
    3295,
    3283,
    3312,
    3270,
    3264,
    3313,
    3255,
    3273,
    3318,
    3277,
    3252,
    3302,
    3323,
    3270,
    3345,
    3344,
    3333,
    3299,
    3311,
    3317,
    3309,
    3303,
    3301,
    3268,
    3283,
    3287,
    3288,
    3296,
    3321,
    3274,
    3242,
    3302,
    3289,
    3285,
    3269,
    3282,
    3259,
    3300,
    3293,
    3289,
    3295,
    3299,
    3278,
    3242,
    3255,
    3269,
    3243,
    3249,
    3267,
    3253,
    3261,
    3278,
    3267,
    3272,
    3254,
    3265,
    3271,
    3269,
    3272,
    3267,
    3292,
    3305,
    3287,
    3268,
    3260,
    3312,
    3288,
    3293,
    3290,
    3256,
    3277,
    3317,
    3295,
    3270,
    3232,
    3268,
    3286,
    3303,
    3278,
    3311,
    3285,
    3233,
    3286,
    3260,
    3261,
    3334,
    3288,
    3268,
    3301,
    3258,
    3222,
    3271,
    3284,
    3308,
    3344,
    3269,
    3252,
    3288,
    3253,
    3278,
    3297,
    3288,
    3298,
    3267,
    3256,
    3292,
    3292,
    3303,
    3272,
    3280,
    3279,
    3240,
    3247,
    3231,
    3255,
    3221,
    3272,
    3243,
    3316,
    3274,
    3255,
    3249,
    3283,
    3223,
    3207,
    3256,
    3240,
    3243,
    3235,
    3232,
    3245,
    3260,
    3347,
    3282,
    3240,
    3386,
    3237,
    3291,
    3293,
    3255,
    3262,
    3327,
    3255,
    3237,
    3333,
    3236,
    3227,
    3260,
    3266,
    3350,
    3272,
    3291,
    3340,
    3264,
    3255,
    3285,
    3247,
    3286,
    3323,
    3346
   ],
   "WindowCenter": [
    786.0,
    784.0,
    784.0,
    785.0,
    785.0,
    785.0,
    785.0,
    784.0,
    785.0,
    786.0,
    788.0,
    788.0,
    788.0,
    786.0,
    787.0,
    786.0,
    787.0,
    788.0,
    788.0,
    788.0,
    788.0,
    787.0,
    788.0,
    788.0,
    788.0,
    788.0,
    789.0,
    789.0,
    790.0,
    789.0,
    789.0,
    789.0,
    789.0,
    789.0,
    789.0,
    789.0,
    789.0,
    789.0,
    789.0,
    790.0,
    790.0,
    789.0,
    789.0,
    790.0,
    789.0,
    789.0,
    788.0,
    789.0,
    790.0,
    790.0,
    789.0,
    789.0,
    790.0,
    791.0,
    791.0,
    790.0,
    789.0,
    788.0,
    789.0,
    790.0,
    790.0,
    789.0,
    789.0,
    789.0,
    789.0,
    789.0,
    788.0,
    788.0,
    788.0,
    788.0,
    788.0,
    788.0,
    789.0,
    788.0,
    788.0,
    789.0,
    789.0,
    789.0,
    789.0,
    788.0,
    788.0,
    787.0,
    788.0,
    789.0,
    788.0,
    788.0,
    788.0,
    788.0,
    789.0,
    790.0,
    790.0,
    790.0,
    788.0,
    788.0,
    787.0,
    788.0,
    787.0,
    787.0,
    788.0,
    788.0,
    789.0,
    789.0,
    789.0,
    789.0,
    789.0,
    788.0,
    788.0,
    788.0,
    788.0,
    789.0,
    791.0,
    790.0,
    789.0,
    788.0,
    788.0,
    789.0,
    788.0,
    788.0,
    788.0,
    788.0,
    788.0,
    789.0,
    789.0,
    789.0,
    788.0,
    788.0,
    787.0,
    788.0,
    787.0,
    787.0,
    787.0,
    788.0,
    788.0,
    789.0,
