{
 "AcquisitionMatrixPE": 100,
 "AcquisitionNumber": 1,
 "AcquisitionTime": "09:28:33.190000",
 "BandwidthPerPixelPhaseEncode": 18.519,
 "BaseResolution": 100,
 "BodyPartExamined": "BRAIN",
 "ConsistencyInfo": "N4_VE11C_LATEST_20160120",
 "ConversionSoftware": "dcm2niix",
 "ConversionSoftwareVersion": "v1.0.20180622 GCC4.9.2",
 "DerivedVendorReportedEchoSpacing": 0.000539986,
 "DeviceSerialNumber": "166078",
 "DwellTime": 2.1e-06,
 "EchoTime": 0.034,
 "EchoTrainLength": 100,
 "EffectiveEchoSpacing": 0.000539986,
 "FlipAngle": 90,
 "ImageOrientationPatientDICOM": [
  1,
  0,
  0,
  0,
  1,
  0
 ],
 "ImageType": [
  "ORIGINAL",
  "PRIMARY",
  "M",
  "ND",
  "MOSAIC"
 ],
 "InPlanePhaseEncodingDirectionDICOM": "COL",
 "InstitutionAddress": "Street_StreetNo_Bei_Jing_District_CN_ZIP",
 "InstitutionName": "BeiJing_Normal_University",
 "InstitutionalDepartmentName": "Department",
 "MRAcquisitionType": "2D",
 "MagneticFieldStrength": 3,
 "Manufacturer": "Siemens",
 "ManufacturersModelName": "Prisma",
 "Modality": "MR",
 "MultibandAccelerationFactor": 3,
 "PartialFourier": 1,
 "PatientPosition": "HFS",
 "PercentPhaseFOV": 100,
 "PhaseEncodingDirection": "j-",
 "PhaseEncodingSteps": 100,
 "PhaseResolution": 1,
 "PixelBandwidth": 2380,
 "ProcedureStepDescription": "BNU_P2018_64CH_Zhen.ZongLei",
 "ProtocolName": "bold_100x100_s3_2x2x2_static_256",
 "PulseSequenceDetails": "%SiemensSeq%_ep2d_bold",
 "ReceiveCoilActiveElements": "HC1-7;NC1",
 "ReceiveCoilName": "HeadNeck_64",
 "ReconMatrixPE": 100,
 "RepetitionTime": 2,
 "SAR": 0.063856,
 "ScanOptions": "FS",
 "ScanningSequence": "EP",
 "SequenceName": "_epfid2d1_100",
 "SequenceVariant": "SK",
 "SeriesDescription": "bold_100x100_s3_2x2x2_static_256",
 "SeriesNumber": 6,
 "ShimSetting": [
  -5461,
  -11508,
  -1257,
  359,
  -45,
  -237,
  -153,
  30
 ],
 "SliceThickness": 2,
 "SliceTiming": [
  1.485,
  0,
  0.99,
  0.0825,
  1.0725,
  0.165,
  1.155,
  0.2475,
  1.2375,
  0.33,
  1.32,
  0.4125,
  1.4025,
  0.5775,
  1.5675,
  0.66,
  1.65,
  0.7425,
  1.7325,
  0.825,
  1.815,
  0.9075,
  1.8975,
  0.495,
  1.485,
  0,
  0.99,
  0.0825,
  1.0725,
  0.165,
  1.155,
  0.2475,
  1.2375,
  0.33,
  1.32,
  0.4125,
  1.4025,
  0.5775,
  1.5675,
  0.66,
  1.65,
  0.7425,
  1.7325,
  0.825,
  1.815,
  0.9075,
  1.8975,
  0.495,
  1.485,
  0,
  0.99,
  0.0825,
  1.0725,
  0.165,
  1.155,
  0.2475,
  1.2375,
  0.33,
  1.32,
  0.4125,
  1.4025,
  0.5775,
  1.5675,
  0.66,
  1.65,
  0.7425,
  1.7325,
  0.825,
  1.815,
  0.9075,
  1.8975,
  0.495
 ],
 "SoftwareVersions": "syngo_MR_E11",
 "SpacingBetweenSlices": 2,
 "StationName": "AWP166078",
 "TaskName": "imagenet",
 "TotalReadoutTime": 0.0534586,
 "TxRefAmp": 205.086,
 "dcmmeta_affine": [
  [
   -2.0,
   0.0,
   0.0,
   100.67469787597656
  ],
  [
   0.0,
   2.0,
   0.0,
   -90.81446075439453
  ],
  [
   0.0,
   0.0,
   2.0,
   -56.33012008666992
  ],
  [
   0.0,
   0.0,
   0.0,
   1.0
  ]
 ],
 "dcmmeta_reorient_transform": [
  [
   0.0,
   -1.0,
   0.0,
   99.0
  ],
  [
   1.0,
   0.0,
   0.0,
   0.0
  ],
  [
   0.0,
   0.0,
   1.0,
   0.0
  ],
  [
   0.0,
   0.0,
   0.0,
   1.0
  ]
 ],
 "dcmmeta_shape": [
  100,
  100,
  72,
  256
 ],
 "dcmmeta_slice_dim": 2,
 "dcmmeta_version": 0.6,
 "global": {
  "const": {
   "AcquisitionMatrix": [
    100,
    0,
    0,
    100
   ],
   "AngioFlag": "N",
   "BitsAllocated": 16,
   "BitsStored": 12,
   "BodyPartExamined": "BRAIN",
   "Columns": 900,
   "EchoNumbers": 1,
   "EchoTime": 34.0,
   "EchoTrainLength": 100,
   "FlipAngle": 90.0,
   "HighBit": 11,
   "ImageOrientationPatient": [
    1.0,
    0.0,
    0.0,
    0.0,
    1.0,
    0.0
   ],
   "ImagePositionPatient": [
    -900.67469877005,
    -907.18554210663,
    -56.33012008667
   ],
   "ImageType": [
    "ORIGINAL",
    "PRIMARY",
    "M",
    "ND",
    "MOSAIC"
   ],
   "ImagedNucleus": "1H",
   "ImagingFrequency": 123.25774,
   "InPlanePhaseEncodingDirection": "COL",
   "MRAcquisitionType": "2D",
   "MagneticFieldStrength": 3.0,
   "Manufacturer": "SIEMENS",
   "ManufacturerModelName": "Prisma",
   "Modality": "MR",
   "NumberOfAverages": 1.0,
   "NumberOfPhaseEncodingSteps": 100,
   "PercentPhaseFieldOfView": 100.0,
   "PercentSampling": 100.0,
   "PerformedProcedureStepStartTime": "090416.835000",
   "PhotometricInterpretation": "MONOCHROME2",
   "PixelBandwidth": 2380.0,
   "PixelRepresentation": 0,
   "PixelSpacing": [
    2.0,
    2.0
   ],
   "ProtocolName": "bold_100x100_s3_2x2x2_static_256",
   "RepetitionTime": 2000.0,
   "Rows": 900,
   "SAR": 0.06385601749961,
   "SamplesPerPixel": 1,
   "ScanOptions": "FS",
   "ScanningSequence": "EP",
   "SequenceName": "*epfid2d1_100",
   "SequenceVariant": "SK",
   "SeriesDescription": "bold_100x100_s3_2x2x2_static_256",
   "SeriesNumber": 6,
   "SeriesTime": "092835.602000",
   "SliceLocation": -56.33012008667,
   "SliceThickness": 2.0,
   "SmallestImagePixelValue": 0,
   "SoftwareVersions": "syngo MR E11",
   "SpacingBetweenSlices": 1.9999999462719,
   "SpecificCharacterSet": "ISO_IR 100",
   "StudyID": "1",
   "StudyTime": "090416.742000",
   "TransmitCoilName": "Body",
   "VariableFlipAngleFlag": "N",
   "WindowCenterWidthExplanation": "Algo1",
   "dBdt": 0.0
  },
  "slices": {}
 },
 "time": {
  "samples": {
   "AcquisitionNumber": [
    1,
    2,
    3,
    4,
    5,
    6,
    7,
    8,
    9,
    10,
    11,
    12,
    13,
    14,
    15,
    16,
    17,
    18,
    19,
    20,
    21,
    22,
    23,
    24,
    25,
    26,
    27,
    28,
    29,
    30,
    31,
    32,
    33,
    34,
    35,
    36,
    37,
    38,
    39,
    40,
    41,
    42,
    43,
    44,
    45,
    46,
    47,
    48,
    49,
    50,
    51,
    52,
    53,
    54,
    55,
    56,
    57,
    58,
    59,
    60,
    61,
    62,
    63,
    64,
    65,
    66,
    67,
    68,
    69,
    70,
    71,
    72,
    73,
    74,
    75,
    76,
    77,
    78,
    79,
    80,
    81,
    82,
    83,
    84,
    85,
    86,
    87,
    88,
    89,
    90,
    91,
    92,
    93,
    94,
    95,
    96,
    97,
    98,
    99,
    100,
    101,
    102,
    103,
    104,
    105,
    106,
    107,
    108,
    109,
    110,
    111,
    112,
    113,
    114,
    115,
    116,
    117,
    118,
    119,
    120,
    121,
    122,
    123,
    124,
    125,
    126,
    127,
    128,
    129,
    130,
    131,
    132,
    133,
    134,
    135,
    136,
    137,
    138,
    139,
    140,
    141,
    142,
    143,
    144,
    145,
    146,
    147,
    148,
    149,
    150,
    151,
    152,
    153,
    154,
    155,
    156,
    157,
    158,
    159,
    160,
    161,
    162,
    163,
    164,
    165,
    166,
    167,
    168,
    169,
    170,
    171,
    172,
    173,
    174,
    175,
    176,
    177,
    178,
    179,
    180,
    181,
    182,
    183,
    184,
    185,
    186,
    187,
    188,
    189,
    190,
    191,
    192,
    193,
    194,
    195,
    196,
    197,
    198,
    199,
    200,
    201,
    202,
    203,
    204,
    205,
    206,
    207,
    208,
    209,
    210,
    211,
    212,
    213,
    214,
    215,
    216,
    217,
    218,
    219,
    220,
    221,
    222,
    223,
    224,
    225,
    226,
    227,
    228,
    229,
    230,
    231,
    232,
    233,
    234,
    235,
    236,
    237,
    238,
    239,
    240,
    241,
    242,
    243,
    244,
    245,
    246,
    247,
    248,
    249,
    250,
    251,
    252,
    253,
    254,
    255,
    256
   ],
   "AcquisitionTime": [
    "092833.190000",
    "092835.190000",
    "092837.190000",
    "092839.190000",
    "092841.190000",
    "092843.190000",
    "092845.190000",
    "092847.190000",
    "092849.190000",
    "092851.190000",
    "092853.190000",
    "092855.190000",
    "092857.190000",
    "092859.190000",
    "092901.190000",
    "092903.190000",
    "092905.190000",
    "092907.190000",
    "092909.190000",
    "092911.190000",
    "092913.190000",
    "092915.190000",
    "092917.190000",
    "092919.190000",
    "092921.190000",
    "092923.190000",
    "092925.190000",
    "092927.190000",
    "092929.190000",
    "092931.190000",
    "092933.190000",
    "092935.190000",
    "092937.190000",
    "092939.190000",
    "092941.190000",
    "092943.190000",
    "092945.190000",
    "092947.190000",
    "092949.190000",
    "092951.190000",
    "092953.190000",
    "092955.190000",
    "092957.190000",
    "092959.190000",
    "093001.190000",
    "093003.190000",
    "093005.190000",
    "093007.190000",
    "093009.190000",
    "093011.190000",
    "093013.190000",
    "093015.190000",
    "093017.190000",
    "093019.190000",
    "093021.190000",
    "093023.190000",
    "093025.190000",
    "093027.190000",
    "093029.190000",
    "093031.190000",
    "093033.190000",
    "093035.190000",
    "093037.190000",
    "093039.190000",
    "093041.190000",
    "093043.190000",
    "093045.190000",
    "093047.190000",
    "093049.190000",
    "093051.190000",
    "093053.190000",
    "093055.190000",
    "093057.190000",
    "093059.190000",
    "093101.190000",
    "093103.190000",
    "093105.190000",
    "093107.190000",
    "093109.190000",
    "093111.190000",
    "093113.190000",
    "093115.190000",
    "093117.190000",
    "093119.190000",
    "093121.190000",
    "093123.190000",
    "093125.190000",
    "093127.190000",
    "093129.190000",
    "093131.190000",
    "093133.190000",
    "093135.190000",
    "093137.190000",
    "093139.190000",
    "093141.190000",
    "093143.190000",
    "093145.190000",
    "093147.190000",
    "093149.190000",
    "093151.190000",
    "093153.190000",
    "093155.190000",
    "093157.190000",
    "093159.190000",
    "093201.190000",
    "093203.190000",
    "093205.190000",
    "093207.190000",
    "093209.190000",
    "093211.190000",
    "093213.190000",
    "093215.190000",
    "093217.190000",
    "093219.190000",
    "093221.190000",
    "093223.190000",
    "093225.190000",
    "093227.190000",
    "093229.190000",
    "093231.190000",
    "093233.190000",
    "093235.190000",
    "093237.190000",
    "093239.190000",
    "093241.190000",
    "093243.190000",
    "093245.190000",
    "093247.190000",
    "093249.190000",
    "093251.190000",
    "093253.190000",
    "093255.190000",
    "093257.190000",
    "093259.190000",
    "093301.190000",
    "093303.190000",
    "093305.190000",
    "093307.190000",
    "093309.190000",
    "093311.190000",
    "093313.190000",
    "093315.190000",
    "093317.190000",
    "093319.190000",
    "093321.190000",
    "093323.190000",
    "093325.190000",
    "093327.190000",
    "093329.190000",
    "093331.190000",
    "093333.190000",
    "093335.190000",
    "093337.190000",
    "093339.190000",
    "093341.190000",
    "093343.190000",
    "093345.190000",
    "093347.190000",
    "093349.190000",
    "093351.190000",
    "093353.190000",
    "093355.190000",
    "093357.190000",
    "093359.190000",
    "093401.190000",
    "093403.190000",
    "093405.190000",
    "093407.190000",
    "093409.190000",
    "093411.190000",
    "093413.190000",
    "093415.190000",
    "093417.190000",
    "093419.190000",
    "093421.190000",
    "093423.190000",
    "093425.190000",
    "093427.190000",
    "093429.190000",
    "093431.190000",
    "093433.190000",
    "093435.190000",
    "093437.190000",
    "093439.190000",
    "093441.190000",
    "093443.190000",
    "093445.190000",
    "093447.190000",
    "093449.190000",
    "093451.190000",
    "093453.190000",
    "093455.190000",
    "093457.190000",
    "093459.190000",
    "093501.190000",
    "093503.190000",
    "093505.190000",
    "093507.190000",
    "093509.190000",
    "093511.190000",
    "093513.190000",
    "093515.190000",
    "093517.190000",
    "093519.190000",
    "093521.190000",
    "093523.190000",
    "093525.190000",
    "093527.190000",
    "093529.190000",
    "093531.190000",
    "093533.190000",
    "093535.190000",
    "093537.190000",
    "093539.190000",
    "093541.190000",
    "093543.190000",
    "093545.190000",
    "093547.190000",
    "093549.190000",
    "093551.190000",
    "093553.190000",
    "093555.190000",
    "093557.190000",
    "093559.190000",
    "093601.190000",
    "093603.190000",
    "093605.190000",
    "093607.190000",
    "093609.190000",
    "093611.190000",
    "093613.190000",
    "093615.190000",
    "093617.190000",
    "093619.190000",
    "093621.190000",
    "093623.190000",
    "093625.190000",
    "093627.190000",
    "093629.190000",
    "093631.190000",
    "093633.190000",
    "093635.190000",
    "093637.190000",
    "093639.190000",
    "093641.190000",
    "093643.190000",
    "093645.190000",
    "093647.190000",
    "093649.190000",
    "093651.190000",
    "093653.190000",
    "093655.190000",
    "093657.190000",
    "093659.190000",
    "093701.190000",
    "093703.190000"
   ],
   "ContentTime": [
    "092835.606000",
    "092837.102000",
    "092839.102000",
    "092841.101000",
    "092843.102000",
    "092845.103000",
    "092847.102000",
    "092849.103000",
    "092851.103000",
    "092853.102000",
    "092855.101000",
    "092857.101000",
    "092859.101000",
    "092901.101000",
    "092903.102000",
    "092905.103000",
    "092907.102000",
    "092909.101000",
    "092911.102000",
    "092913.102000",
    "092915.101000",
    "092917.101000",
    "092919.102000",
    "092921.103000",
    "092923.103000",
    "092925.102000",
    "092927.102000",
    "092929.102000",
    "092931.101000",
    "092933.102000",
    "092935.101000",
    "092937.102000",
    "092939.102000",
    "092941.103000",
    "092943.103000",
    "092945.101000",
    "092947.102000",
    "092949.101000",
    "092951.102000",
    "092953.102000",
    "092955.103000",
    "092957.103000",
    "092959.103000",
    "093001.102000",
    "093003.102000",
    "093005.102000",
    "093007.101000",
    "093009.102000",
    "093011.101000",
    "093013.102000",
    "093015.103000",
    "093017.103000",
    "093019.102000",
    "093021.101000",
    "093023.102000",
    "093025.102000",
    "093027.101000",
    "093029.102000",
    "093031.102000",
    "093033.102000",
    "093035.103000",
    "093037.102000",
    "093039.101000",
    "093041.102000",
    "093043.101000",
    "093045.102000",
    "093047.102000",
    "093049.102000",
    "093051.102000",
    "093053.102000",
    "093055.101000",
    "093057.101000",
    "093059.101000",
    "093101.101000",
    "093103.102000",
    "093105.103000",
    "093107.102000",
    "093109.103000",
    "093111.103000",
    "093113.102000",
    "093115.101000",
    "093117.101000",
    "093119.101000",
    "093121.102000",
    "093123.103000",
    "093125.103000",
    "093127.102000",
    "093129.102000",
    "093131.102000",
    "093133.102000",
    "093135.101000",
    "093137.101000",
    "093139.101000",
    "093141.102000",
    "093143.102000",
    "093145.103000",
    "093147.101000",
    "093149.102000",
    "093151.101000",
    "093153.102000",
    "093155.101000",
    "093157.103000",
    "093159.103000",
    "093201.103000",
    "093203.103000",
    "093205.102000",
    "093207.101000",
    "093209.102000",
    "093211.101000",
    "093213.101000",
    "093215.102000",
    "093217.102000",
    "093219.102000",
    "093221.103000",
    "093223.102000",
    "093225.102000",
    "093227.101000",
    "093229.102000",
    "093231.102000",
    "093233.103000",
    "093235.103000",
    "093237.103000",
    "093239.102000",
    "093241.101000",
    "093243.101000",
    "093245.101000",
    "093247.101000",
    "093249.101000",
    "093251.102000",
    "093253.102000",
    "093255.102000",
    "093257.101000",
    "093259.102000",
    "093301.101000",
    "093303.101000",
    "093305.101000",
    "093307.102000",
    "093309.103000",
    "093311.102000",
    "093313.102000",
    "093315.102000",
    "093317.101000",
    "093319.102000",
    "093321.102000",
    "093323.102000",
    "093325.103000",
    "093327.103000",
    "093329.102000",
    "093331.103000",
    "093333.102000",
    "093335.101000",
    "093337.101000",
    "093339.102000",
    "093341.102000",
    "093343.102000",
    "093345.103000",
    "093347.103000",
    "093349.101000",
    "093351.102000",
    "093353.102000",
    "093355.102000",
    "093357.101000",
    "093359.102000",
    "093401.103000",
    "093403.102000",
    "093405.103000",
    "093407.101000",
    "093409.101000",
    "093411.102000",
    "093413.101000",
    "093415.101000",
    "093417.103000",
    "093419.103000",
    "093421.103000",
    "093423.103000",
    "093425.101000",
    "093427.101000",
    "093429.101000",
    "093431.101000",
    "093433.101000",
    "093435.102000",
    "093437.103000",
    "093439.103000",
    "093441.102000",
    "093443.102000",
    "093445.101000",
    "093447.102000",
    "093449.102000",
    "093451.102000",
    "093453.102000",
    "093455.102000",
    "093457.103000",
    "093459.102000",
    "093501.102000",
    "093503.102000",
    "093505.102000",
    "093507.101000",
    "093509.102000",
    "093511.103000",
    "093513.103000",
    "093515.103000",
    "093517.101000",
    "093519.102000",
    "093521.101000",
    "093523.102000",
    "093525.102000",
    "093527.103000",
    "093529.103000",
    "093531.102000",
    "093533.102000",
    "093535.102000",
    "093537.102000",
    "093539.102000",
    "093541.102000",
    "093543.102000",
    "093545.103000",
    "093547.102000",
    "093549.103000",
    "093551.103000",
    "093553.102000",
    "093555.102000",
    "093557.102000",
    "093559.102000",
    "093601.102000",
    "093603.103000",
    "093605.103000",
    "093607.102000",
    "093609.102000",
    "093611.102000",
    "093613.101000",
    "093615.102000",
    "093617.111000",
    "093619.101000",
    "093621.102000",
    "093623.102000",
    "093625.103000",
    "093627.101000",
    "093629.102000",
    "093631.102000",
    "093633.101000",
    "093635.101000",
    "093637.103000",
    "093639.102000",
    "093641.102000",
    "093643.102000",
    "093645.101000",
    "093647.101000",
    "093649.102000",
    "093651.102000",
    "093653.102000",
    "093655.102000",
    "093657.103000",
    "093659.102000",
    "093701.102000",
    "093703.102000",
    "093704.734000"
   ],
   "InstanceCreationTime": [
    "092835.606000",
    "092837.102000",
    "092839.102000",
    "092841.101000",
    "092843.102000",
    "092845.103000",
    "092847.102000",
    "092849.103000",
    "092851.103000",
    "092853.102000",
    "092855.101000",
    "092857.101000",
    "092859.101000",
    "092901.101000",
    "092903.102000",
    "092905.103000",
    "092907.102000",
    "092909.101000",
    "092911.102000",
    "092913.102000",
    "092915.101000",
    "092917.101000",
    "092919.102000",
    "092921.103000",
    "092923.103000",
    "092925.102000",
    "092927.102000",
    "092929.102000",
    "092931.101000",
    "092933.102000",
    "092935.101000",
    "092937.102000",
    "092939.102000",
    "092941.103000",
    "092943.103000",
    "092945.101000",
    "092947.102000",
    "092949.101000",
    "092951.102000",
    "092953.102000",
    "092955.103000",
    "092957.103000",
    "092959.103000",
    "093001.102000",
    "093003.102000",
    "093005.102000",
    "093007.101000",
    "093009.102000",
    "093011.101000",
    "093013.102000",
    "093015.103000",
    "093017.103000",
    "093019.102000",
    "093021.101000",
    "093023.102000",
    "093025.102000",
    "093027.101000",
    "093029.102000",
    "093031.102000",
    "093033.102000",
    "093035.103000",
    "093037.102000",
    "093039.101000",
    "093041.102000",
    "093043.101000",
    "093045.102000",
    "093047.102000",
    "093049.102000",
    "093051.102000",
    "093053.102000",
    "093055.101000",
    "093057.101000",
    "093059.101000",
    "093101.101000",
    "093103.102000",
    "093105.103000",
    "093107.102000",
    "093109.103000",
    "093111.103000",
    "093113.102000",
    "093115.101000",
    "093117.101000",
    "093119.101000",
    "093121.102000",
    "093123.103000",
    "093125.103000",
    "093127.102000",
    "093129.102000",
    "093131.102000",
    "093133.102000",
    "093135.101000",
    "093137.101000",
    "093139.101000",
    "093141.102000",
    "093143.102000",
    "093145.103000",
    "093147.101000",
    "093149.102000",
    "093151.101000",
    "093153.102000",
    "093155.101000",
    "093157.103000",
    "093159.103000",
    "093201.103000",
    "093203.103000",
    "093205.102000",
    "093207.101000",
    "093209.102000",
    "093211.101000",
    "093213.101000",
    "093215.102000",
    "093217.102000",
    "093219.102000",
    "093221.103000",
    "093223.102000",
    "093225.102000",
    "093227.101000",
    "093229.102000",
    "093231.102000",
    "093233.103000",
    "093235.103000",
    "093237.103000",
    "093239.102000",
    "093241.101000",
    "093243.101000",
    "093245.101000",
    "093247.101000",
    "093249.101000",
    "093251.102000",
    "093253.102000",
    "093255.102000",
    "093257.101000",
    "093259.102000",
    "093301.101000",
    "093303.101000",
    "093305.101000",
    "093307.102000",
    "093309.103000",
    "093311.102000",
    "093313.102000",
    "093315.102000",
    "093317.101000",
    "093319.102000",
    "093321.102000",
    "093323.102000",
    "093325.103000",
    "093327.103000",
    "093329.102000",
    "093331.103000",
    "093333.102000",
    "093335.101000",
    "093337.101000",
    "093339.102000",
    "093341.102000",
    "093343.102000",
    "093345.103000",
    "093347.103000",
    "093349.101000",
    "093351.102000",
    "093353.102000",
    "093355.102000",
    "093357.101000",
    "093359.102000",
    "093401.103000",
    "093403.102000",
    "093405.103000",
    "093407.101000",
    "093409.101000",
    "093411.102000",
    "093413.101000",
    "093415.101000",
    "093417.103000",
    "093419.103000",
    "093421.103000",
    "093423.103000",
    "093425.101000",
    "093427.101000",
    "093429.101000",
    "093431.101000",
    "093433.101000",
    "093435.102000",
    "093437.103000",
    "093439.103000",
    "093441.102000",
    "093443.102000",
    "093445.101000",
    "093447.102000",
    "093449.102000",
    "093451.102000",
    "093453.102000",
    "093455.102000",
    "093457.103000",
    "093459.102000",
    "093501.102000",
    "093503.102000",
    "093505.102000",
    "093507.101000",
    "093509.102000",
    "093511.103000",
    "093513.103000",
    "093515.103000",
    "093517.101000",
    "093519.102000",
    "093521.101000",
    "093523.102000",
    "093525.102000",
    "093527.103000",
    "093529.103000",
    "093531.102000",
    "093533.102000",
    "093535.102000",
    "093537.102000",
    "093539.102000",
    "093541.102000",
    "093543.102000",
    "093545.103000",
    "093547.102000",
    "093549.103000",
    "093551.103000",
    "093553.102000",
    "093555.102000",
    "093557.102000",
    "093559.102000",
    "093601.102000",
    "093603.103000",
    "093605.103000",
    "093607.102000",
    "093609.102000",
    "093611.102000",
    "093613.101000",
    "093615.102000",
    "093617.111000",
    "093619.101000",
    "093621.102000",
    "093623.102000",
    "093625.103000",
    "093627.101000",
    "093629.102000",
    "093631.102000",
    "093633.101000",
    "093635.101000",
    "093637.103000",
    "093639.102000",
    "093641.102000",
    "093643.102000",
    "093645.101000",
    "093647.101000",
    "093649.102000",
    "093651.102000",
    "093653.102000",
    "093655.102000",
    "093657.103000",
    "093659.102000",
    "093701.102000",
    "093703.102000",
    "093704.734000"
   ],
   "InstanceNumber": [
    1,
    2,
    3,
    4,
    5,
    6,
    7,
    8,
    9,
    10,
    11,
    12,
    13,
    14,
    15,
    16,
    17,
    18,
    19,
    20,
    21,
    22,
    23,
    24,
    25,
    26,
    27,
    28,
    29,
    30,
    31,
    32,
    33,
    34,
    35,
    36,
    37,
    38,
    39,
    40,
    41,
    42,
    43,
    44,
    45,
    46,
    47,
    48,
    49,
    50,
    51,
    52,
    53,
    54,
    55,
    56,
    57,
    58,
    59,
    60,
    61,
    62,
    63,
    64,
    65,
    66,
    67,
    68,
    69,
    70,
    71,
    72,
    73,
    74,
    75,
    76,
    77,
    78,
    79,
    80,
    81,
    82,
    83,
    84,
    85,
    86,
    87,
    88,
    89,
    90,
    91,
    92,
    93,
    94,
    95,
    96,
    97,
    98,
    99,
    100,
    101,
    102,
    103,
    104,
    105,
    106,
    107,
    108,
    109,
    110,
    111,
    112,
    113,
    114,
    115,
    116,
    117,
    118,
    119,
    120,
    121,
    122,
    123,
    124,
    125,
    126,
    127,
    128,
    129,
    130,
    131,
    132,
    133,
    134,
    135,
    136,
    137,
    138,
    139,
    140,
    141,
    142,
    143,
    144,
    145,
    146,
    147,
    148,
    149,
    150,
    151,
    152,
    153,
    154,
    155,
    156,
    157,
    158,
    159,
    160,
    161,
    162,
    163,
    164,
    165,
    166,
    167,
    168,
    169,
    170,
    171,
    172,
    173,
    174,
    175,
    176,
    177,
    178,
    179,
    180,
    181,
    182,
    183,
    184,
    185,
    186,
    187,
    188,
    189,
    190,
    191,
    192,
    193,
    194,
    195,
    196,
    197,
    198,
    199,
    200,
    201,
    202,
    203,
    204,
    205,
    206,
    207,
    208,
    209,
    210,
    211,
    212,
    213,
    214,
    215,
    216,
    217,
    218,
    219,
    220,
    221,
    222,
    223,
    224,
    225,
    226,
    227,
    228,
    229,
    230,
    231,
    232,
    233,
    234,
    235,
    236,
    237,
    238,
    239,
    240,
    241,
    242,
    243,
    244,
    245,
    246,
    247,
    248,
    249,
    250,
    251,
    252,
    253,
    254,
    255,
    256
   ],
   "LargestImagePixelValue": [
    3310,
    3322,
    3324,
    3287,
    3282,
    3249,
    3240,
    3272,
    3266,
    3300,
    3321,
    3309,
    3332,
    3320,
    3303,
    3292,
    3293,
    3311,
    3338,
    3384,
    3372,
    3282,
    3243,
    3304,
    3295,
    3308,
    3362,
    3311,
    3380,
    3327,
    3297,
    3276,
    3278,
    3288,
    3292,
    3430,
    3394,
    3382,
    3273,
    3239,
    3202,
    3244,
    3225,
    3276,
    3323,
    3324,
    3308,
    3293,
    3260,
    3271,
    3250,
    3274,
    3252,
    3261,
    3260,
    3292,
    3292,
    3273,
    3234,
    3286,
    3297,
    3322,
    3273,
    3303,
    3280,
    3347,
    3300,
    3330,
    3319,
    3281,
    3285,
    3282,
    3247,
    3270,
    3239,
    3258,
    3208,
    3238,
    3199,
    3237,
    3253,
    3221,
    3263,
    3255,
    3235,
    3248,
    3231,
    3248,
    3260,
    3199,
    3238,
    3242,
    3194,
    3257,
    3256,
    3284,
    3220,
    3259,
    3228,
    3273,
    3299,
    3269,
    3243,
    3210,
    3243,
    3257,
    3180,
    3235,
    3188,
    3291,
    3289,
    3349,
    3289,
    3254,
    3256,
    3231,
    3215,
    3240,
    3215,
    3235,
    3237,
    3228,
    3251,
    3255,
    3214,
    3246,
    3243,
    3221,
    3221,
    3261,
    3267,
    3281,
    3248,
    3284,
    3268,
    3293,
    3229,
    3308,
    3220,
    3270,
    3257,
    3253,
    3246,
    3268,
    3276,
    3251,
    3269,
    3297,
    3249,
    3256,
    3247,
    3285,
    3267,
    3256,
    3264,
    3259,
    3265,
    3285,
    3237,
    3276,
    3204,
    3291,
    3287,
    3295,
    3274,
    3212,
    3258,
    3282,
    3254,
    3207,
    3254,
    3265,
    3235,
    3294,
    3280,
    3254,
    3266,
    3315,
    3282,
    3269,
    3314,
    3307,
    3320,
    3267,
    3290,
    3288,
    3259,
    3293,
    3324,
    3295,
    3286,
    3278,
    3292,
    3326,
    3269,
    3273,
    3239,
    3289,
    3274,
    3345,
    3309,
    3302,
    3290,
    3321,
    3291,
    3318,
    3305,
    3297,
    3280,
    3304,
    3263,
    3317,
    3314,
    3334,
    3259,
    3297,
    3282,
    3289,
    3311,
    3309,
    3251,
    3306,
    3290,
    3313,
    3280,
    3316,
    3268,
    3307,
    3314,
    3297,
    3243,
    3280,
    3242,
    3295,
    3246,
    3281,
    3303,
    3280,
    3313,
    3321,
    3290,
    3298,
    3298,
    3320,
    3283,
    3285,
    3262,
    3318,
    3342,
    3316,
    3298,
    3320,
    3261,
    3320,
    3281,
    3319
   ],
   "WindowCenter": [
    786.0,
    787.0,
    788.0,
    788.0,
    786.0,
    785.0,
    785.0,
    786.0,
    786.0,
    787.0,
    788.0,
    789.0,
    789.0,
    788.0,
    788.0,
    788.0,
    787.0,
    788.0,
    789.0,
    790.0,
    791.0,
    789.0,
    788.0,
    787.0,
    788.0,
    788.0,
    788.0,
    788.0,
    789.0,
    789.0,
    789.0,
    787.0,
    787.0,
    787.0,
    789.0,
    791.0,
    791.0,
    790.0,
    789.0,
    788.0,
    787.0,
    788.0,
    788.0,
    789.0,
    790.0,
    790.0,
    790.0,
    789.0,
    788.0,
    789.0,
    789.0,
    789.0,
    789.0,
    789.0,
    789.0,
    789.0,
    788.0,
    787.0,
    787.0,
    787.0,
    787.0,
    789.0,
    789.0,
    789.0,
    789.0,
    788.0,
    788.0,
    789.0,
    789.0,
    788.0,
    787.0,
    788.0,
    788.0,
    788.0,
    787.0,
    788.0,
    788.0,
    787.0,
    787.0,
    788.0,
    788.0,
    788.0,
    788.0,
    788.0,
    788.0,
    789.0,
    789.0,
    789.0,
    788.0,
    787.0,
    787.0,
    786.0,
    786.0,
    787.0,
    788.0,
    788.0,
    788.0,
    788.0,
    788.0,
    788.0,
    789.0,
    789.0,
    788.0,
    788.0,
    788.0,
    788.0,
    788.0,
    788.0,
    788.0,
    789.0,
    790.0,
    790.0,
    789.0,
    788.0,
    787.0,
    786.0,
    786.0,
    786.0,
    786.0,
    787.0,
    787.0,
    787.0,
    787.0,
    786.0,
    786.0,
    787.0,
    788.0,
    787.0,
    786.0,
    788.0,
    788.0,
    788.0,
    786.0,
    787.0,
