{
 "AcquisitionMatrixPE": 100,
 "AcquisitionNumber": 1,
 "AcquisitionTime": "15:49:10.855000",
 "BandwidthPerPixelPhaseEncode": 18.519,
 "BaseResolution": 100,
 "BodyPartExamined": "BRAIN",
 "ConsistencyInfo": "N4_VE11C_LATEST_20160120",
 "ConversionSoftware": "dcm2niix",
 "ConversionSoftwareVersion": "v1.0.20180622 GCC4.9.2",
 "DerivedVendorReportedEchoSpacing": 0.000539986,
 "DeviceSerialNumber": "166078",
 "DwellTime": 2.1e-06,
 "EchoTime": 0.034,
 "EchoTrainLength": 100,
 "EffectiveEchoSpacing": 0.000539986,
 "FlipAngle": 90,
 "ImageOrientationPatientDICOM": [
  0.999224,
  0.0130177,
  0.0371696,
  -0.00872005,
  0.993497,
  -0.113527
 ],
 "ImageType": [
  "ORIGINAL",
  "PRIMARY",
  "M",
  "ND",
  "MOSAIC"
 ],
 "InPlanePhaseEncodingDirectionDICOM": "COL",
 "InstitutionAddress": "Street_StreetNo_Bei_Jing_District_CN_ZIP",
 "InstitutionName": "BeiJing_Normal_University",
 "InstitutionalDepartmentName": "Department",
 "MRAcquisitionType": "2D",
 "MagneticFieldStrength": 3,
 "Manufacturer": "Siemens",
 "ManufacturersModelName": "Prisma",
 "Modality": "MR",
 "MultibandAccelerationFactor": 3,
 "PartialFourier": 1,
 "PatientPosition": "HFS",
 "PercentPhaseFOV": 100,
 "PhaseEncodingDirection": "j-",
 "PhaseEncodingSteps": 100,
 "PhaseResolution": 1,
 "PixelBandwidth": 2380,
 "ProcedureStepDescription": "BNU_P2018_64CH_Zhen.ZongLei",
 "ProtocolName": "bold_100x100_s3_2x2x2_static_256",
 "PulseSequenceDetails": "%SiemensSeq%_ep2d_bold",
 "ReceiveCoilActiveElements": "HC1-7;NC1",
 "ReceiveCoilName": "HeadNeck_64",
 "ReconMatrixPE": 100,
 "RepetitionTime": 2,
 "SAR": 0.0811982,
 "ScanOptions": "FS",
 "ScanningSequence": "EP",
 "SequenceName": "_epfid2d1_100",
 "SequenceVariant": "SK",
 "SeriesDescription": "bold_100x100_s3_2x2x2_static_256",
 "SeriesNumber": 6,
 "ShimSetting": [
  -5467,
  -11516,
  -1288,
  566,
  3,
  -137,
  -139,
  4
 ],
 "SliceThickness": 2,
 "SliceTiming": [
  1.485,
  0,
  0.99,
  0.0825,
  1.0725,
  0.165,
  1.155,
  0.2475,
  1.2375,
  0.33,
  1.32,
  0.4125,
  1.4025,
  0.5775,
  1.5675,
  0.66,
  1.65,
  0.7425,
  1.7325,
  0.825,
  1.815,
  0.9075,
  1.8975,
  0.495,
  1.485,
  0,
  0.99,
  0.0825,
  1.0725,
  0.165,
  1.155,
  0.2475,
  1.2375,
  0.33,
  1.32,
  0.4125,
  1.4025,
  0.5775,
  1.5675,
  0.66,
  1.65,
  0.7425,
  1.7325,
  0.825,
  1.815,
  0.9075,
  1.8975,
  0.495,
  1.485,
  0,
  0.99,
  0.0825,
  1.0725,
  0.165,
  1.155,
  0.2475,
  1.2375,
  0.33,
  1.32,
  0.4125,
  1.4025,
  0.5775,
  1.5675,
  0.66,
  1.65,
  0.7425,
  1.7325,
  0.825,
  1.815,
  0.9075,
  1.8975,
  0.495
 ],
 "SoftwareVersions": "syngo_MR_E11",
 "SpacingBetweenSlices": 2,
 "StationName": "AWP166078",
 "TaskName": "imagenet",
 "TotalReadoutTime": 0.0534586,
 "TxRefAmp": 214.423,
 "dcmmeta_affine": [
  [
   -1.998448371887207,
   -0.017440106719732285,
   0.07681138813495636,
   98.10401153564453
  ],
  [
   -0.026035424321889877,
   1.9869931936264038,
   -0.22623048722743988,
   -89.13327026367188
  ],
  [
   0.0743391141295433,
   0.2270548790693283,
   1.9856786727905273,
   -82.25032806396484
  ],
  [
   0.0,
   0.0,
   0.0,
   1.0
  ]
 ],
 "dcmmeta_reorient_transform": [
  [
   0.0,
   -1.0,
   0.0,
   99.0
  ],
  [
   1.0,
   0.0,
   0.0,
   0.0
  ],
  [
   0.0,
   0.0,
   1.0,
   0.0
  ],
  [
   0.0,
   0.0,
   0.0,
   1.0
  ]
 ],
 "dcmmeta_shape": [
  100,
  100,
  72,
  256
 ],
 "dcmmeta_slice_dim": 2,
 "dcmmeta_version": 0.6,
 "global": {
  "const": {
   "AcquisitionMatrix": [
    100,
    0,
    0,
    100
   ],
   "AngioFlag": "N",
   "BitsAllocated": 16,
   "BitsStored": 12,
   "BodyPartExamined": "BRAIN",
   "Columns": 900,
   "EchoNumbers": 1,
   "EchoTime": 34.0,
   "EchoTrainLength": 100,
   "FlipAngle": 90.0,
   "HighBit": 11,
   "ImageOrientationPatient": [
    0.99922418069525,
    0.01301771177709,
    0.03716955601025,
    -0.0087200529301,
    0.99349659331527,
    -0.1135274405061
   ],
   "ImagePositionPatient": [
    -888.78074040214,
    -912.79050119293,
    1.3144117200598
   ],
   "ImageType": [
    "ORIGINAL",
    "PRIMARY",
    "M",
    "ND",
    "MOSAIC"
   ],
   "ImagedNucleus": "1H",
   "ImagingFrequency": 123.257773,
   "InPlanePhaseEncodingDirection": "COL",
   "MRAcquisitionType": "2D",
   "MagneticFieldStrength": 3.0,
   "Manufacturer": "SIEMENS",
   "ManufacturerModelName": "Prisma",
   "Modality": "MR",
   "NumberOfAverages": 1.0,
   "NumberOfPhaseEncodingSteps": 100,
   "PercentPhaseFieldOfView": 100.0,
   "PercentSampling": 100.0,
   "PerformedProcedureStepStartTime": "151530.281000",
   "PhotometricInterpretation": "MONOCHROME2",
   "PixelBandwidth": 2380.0,
   "PixelRepresentation": 0,
   "PixelSpacing": [
    2.0,
    2.0
   ],
   "ProtocolName": "bold_100x100_s3_2x2x2_static_256",
   "RepetitionTime": 2000.0,
   "Rows": 900,
   "SAR": 0.08119818773296,
   "SamplesPerPixel": 1,
   "ScanOptions": "FS",
   "ScanningSequence": "EP",
   "SequenceName": "*epfid2d1_100",
   "SequenceVariant": "SK",
   "SeriesDescription": "bold_100x100_s3_2x2x2_static_256",
   "SeriesNumber": 6,
   "SeriesTime": "154912.952000",
   "SliceLocation": -67.811278069388,
   "SliceThickness": 2.0,
   "SmallestImagePixelValue": 0,
   "SoftwareVersions": "syngo MR E11",
   "SpacingBetweenSlices": 1.9999999903136,
   "SpecificCharacterSet": "ISO_IR 100",
   "StudyID": "1",
   "StudyTime": "151530.195000",
   "TransmitCoilName": "Body",
   "VariableFlipAngleFlag": "N",
   "WindowCenterWidthExplanation": "Algo1",
   "dBdt": 0.0
  },
  "slices": {}
 },
 "time": {
  "samples": {
   "AcquisitionNumber": [
    1,
    2,
    3,
    4,
    5,
    6,
    7,
    8,
    9,
    10,
    11,
    12,
    13,
    14,
    15,
    16,
    17,
    18,
    19,
    20,
    21,
    22,
    23,
    24,
    25,
    26,
    27,
    28,
    29,
    30,
    31,
    32,
    33,
    34,
    35,
    36,
    37,
    38,
    39,
    40,
    41,
    42,
    43,
    44,
    45,
    46,
    47,
    48,
    49,
    50,
    51,
    52,
    53,
    54,
    55,
    56,
    57,
    58,
    59,
    60,
    61,
    62,
    63,
    64,
    65,
    66,
    67,
    68,
    69,
    70,
    71,
    72,
    73,
    74,
    75,
    76,
    77,
    78,
    79,
    80,
    81,
    82,
    83,
    84,
    85,
    86,
    87,
    88,
    89,
    90,
    91,
    92,
    93,
    94,
    95,
    96,
    97,
    98,
    99,
    100,
    101,
    102,
    103,
    104,
    105,
    106,
    107,
    108,
    109,
    110,
    111,
    112,
    113,
    114,
    115,
    116,
    117,
    118,
    119,
    120,
    121,
    122,
    123,
    124,
    125,
    126,
    127,
    128,
    129,
    130,
    131,
    132,
    133,
    134,
    135,
    136,
    137,
    138,
    139,
    140,
    141,
    142,
    143,
    144,
    145,
    146,
    147,
    148,
    149,
    150,
    151,
    152,
    153,
    154,
    155,
    156,
    157,
    158,
    159,
    160,
    161,
    162,
    163,
    164,
    165,
    166,
    167,
    168,
    169,
    170,
    171,
    172,
    173,
    174,
    175,
    176,
    177,
    178,
    179,
    180,
    181,
    182,
    183,
    184,
    185,
    186,
    187,
    188,
    189,
    190,
    191,
    192,
    193,
    194,
    195,
    196,
    197,
    198,
    199,
    200,
    201,
    202,
    203,
    204,
    205,
    206,
    207,
    208,
    209,
    210,
    211,
    212,
    213,
    214,
    215,
    216,
    217,
    218,
    219,
    220,
    221,
    222,
    223,
    224,
    225,
    226,
    227,
    228,
    229,
    230,
    231,
    232,
    233,
    234,
    235,
    236,
    237,
    238,
    239,
    240,
    241,
    242,
    243,
    244,
    245,
    246,
    247,
    248,
    249,
    250,
    251,
    252,
    253,
    254,
    255,
    256
   ],
   "AcquisitionTime": [
    "154910.855000",
    "154912.855000",
    "154914.855000",
    "154916.855000",
    "154918.855000",
    "154920.855000",
    "154922.855000",
    "154924.855000",
    "154926.855000",
    "154928.855000",
    "154930.855000",
    "154932.855000",
    "154934.855000",
    "154936.855000",
    "154938.855000",
    "154940.855000",
    "154942.855000",
    "154944.855000",
    "154946.855000",
    "154948.855000",
    "154950.855000",
    "154952.855000",
    "154954.855000",
    "154956.855000",
    "154958.855000",
    "155000.855000",
    "155002.855000",
    "155004.855000",
    "155006.855000",
    "155008.855000",
    "155010.855000",
    "155012.855000",
    "155014.855000",
    "155016.855000",
    "155018.855000",
    "155020.855000",
    "155022.855000",
    "155024.855000",
    "155026.855000",
    "155028.855000",
    "155030.855000",
    "155032.855000",
    "155034.855000",
    "155036.855000",
    "155038.855000",
    "155040.855000",
    "155042.855000",
    "155044.855000",
    "155046.855000",
    "155048.855000",
    "155050.855000",
    "155052.855000",
    "155054.855000",
    "155056.855000",
    "155058.855000",
    "155100.855000",
    "155102.855000",
    "155104.855000",
    "155106.855000",
    "155108.855000",
    "155110.855000",
    "155112.855000",
    "155114.855000",
    "155116.855000",
    "155118.855000",
    "155120.855000",
    "155122.855000",
    "155124.855000",
    "155126.855000",
    "155128.855000",
    "155130.855000",
    "155132.855000",
    "155134.855000",
    "155136.855000",
    "155138.855000",
    "155140.855000",
    "155142.855000",
    "155144.855000",
    "155146.855000",
    "155148.855000",
    "155150.855000",
    "155152.855000",
    "155154.855000",
    "155156.855000",
    "155158.855000",
    "155200.855000",
    "155202.855000",
    "155204.855000",
    "155206.855000",
    "155208.855000",
    "155210.855000",
    "155212.855000",
    "155214.855000",
    "155216.855000",
    "155218.855000",
    "155220.855000",
    "155222.855000",
    "155224.855000",
    "155226.855000",
    "155228.855000",
    "155230.855000",
    "155232.855000",
    "155234.855000",
    "155236.855000",
    "155238.855000",
    "155240.855000",
    "155242.855000",
    "155244.855000",
    "155246.855000",
    "155248.855000",
    "155250.855000",
    "155252.855000",
    "155254.855000",
    "155256.855000",
    "155258.855000",
    "155300.855000",
    "155302.855000",
    "155304.855000",
    "155306.855000",
    "155308.855000",
    "155310.855000",
    "155312.855000",
    "155314.855000",
    "155316.855000",
    "155318.855000",
    "155320.855000",
    "155322.855000",
    "155324.855000",
    "155326.855000",
    "155328.855000",
    "155330.855000",
    "155332.855000",
    "155334.855000",
    "155336.855000",
    "155338.855000",
    "155340.855000",
    "155342.855000",
    "155344.855000",
    "155346.855000",
    "155348.855000",
    "155350.855000",
    "155352.855000",
    "155354.855000",
    "155356.855000",
    "155358.855000",
    "155400.855000",
    "155402.855000",
    "155404.855000",
    "155406.855000",
    "155408.855000",
    "155410.855000",
    "155412.855000",
    "155414.855000",
    "155416.855000",
    "155418.855000",
    "155420.855000",
    "155422.855000",
    "155424.855000",
    "155426.855000",
    "155428.855000",
    "155430.855000",
    "155432.855000",
    "155434.855000",
    "155436.855000",
    "155438.855000",
    "155440.855000",
    "155442.855000",
    "155444.855000",
    "155446.855000",
    "155448.855000",
    "155450.855000",
    "155452.855000",
    "155454.855000",
    "155456.855000",
    "155458.855000",
    "155500.855000",
    "155502.855000",
    "155504.855000",
    "155506.855000",
    "155508.855000",
    "155510.855000",
    "155512.855000",
    "155514.855000",
    "155516.855000",
    "155518.855000",
    "155520.855000",
    "155522.855000",
    "155524.855000",
    "155526.855000",
    "155528.855000",
    "155530.855000",
    "155532.855000",
    "155534.855000",
    "155536.855000",
    "155538.855000",
    "155540.855000",
    "155542.855000",
    "155544.855000",
    "155546.855000",
    "155548.855000",
    "155550.855000",
    "155552.855000",
    "155554.855000",
    "155556.855000",
    "155558.855000",
    "155600.855000",
    "155602.855000",
    "155604.855000",
    "155606.855000",
    "155608.855000",
    "155610.855000",
    "155612.855000",
    "155614.855000",
    "155616.855000",
    "155618.855000",
    "155620.855000",
    "155622.855000",
    "155624.855000",
    "155626.855000",
    "155628.855000",
    "155630.855000",
    "155632.855000",
    "155634.855000",
    "155636.855000",
    "155638.855000",
    "155640.855000",
    "155642.855000",
    "155644.855000",
    "155646.855000",
    "155648.855000",
    "155650.855000",
    "155652.855000",
    "155654.855000",
    "155656.855000",
    "155658.855000",
    "155700.855000",
    "155702.855000",
    "155704.855000",
    "155706.855000",
    "155708.855000",
    "155710.855000",
    "155712.855000",
    "155714.855000",
    "155716.855000",
    "155718.855000",
    "155720.855000",
    "155722.855000",
    "155724.855000",
    "155726.855000",
    "155728.855000",
    "155730.855000",
    "155732.855000",
    "155734.855000",
    "155736.855000",
    "155738.855000",
    "155740.855000"
   ],
   "ContentTime": [
    "154912.955000",
    "154914.451000",
    "154916.451000",
    "154918.451000",
    "154920.450000",
    "154922.450000",
    "154924.451000",
    "154926.453000",
    "154928.452000",
    "154930.450000",
    "154932.451000",
    "154934.450000",
    "154936.451000",
    "154938.450000",
    "154940.450000",
    "154942.451000",
    "154944.452000",
    "154946.452000",
    "154948.451000",
    "154950.451000",
    "154952.451000",
    "154954.451000",
    "154956.450000",
    "154958.450000",
    "155000.451000",
    "155002.451000",
    "155004.452000",
    "155006.450000",
    "155008.451000",
    "155010.451000",
    "155012.451000",
    "155014.451000",
    "155016.450000",
    "155018.451000",
    "155020.451000",
    "155022.451000",
    "155024.450000",
    "155026.451000",
    "155028.451000",
    "155030.450000",
    "155032.450000",
    "155034.450000",
    "155036.452000",
    "155038.452000",
    "155040.451000",
    "155042.451000",
    "155044.451000",
    "155046.451000",
    "155048.450000",
    "155050.451000",
    "155052.451000",
    "155054.452000",
    "155056.451000",
    "155058.451000",
    "155100.451000",
    "155102.451000",
    "155104.451000",
    "155106.450000",
    "155108.451000",
    "155110.451000",
    "155112.451000",
    "155114.451000",
    "155116.451000",
    "155118.451000",
    "155120.450000",
    "155122.450000",
    "155124.451000",
    "155126.451000",
    "155128.452000",
    "155130.452000",
    "155132.452000",
    "155134.451000",
    "155136.451000",
    "155138.451000",
    "155140.451000",
    "155142.450000",
    "155144.450000",
    "155146.452000",
    "155148.452000",
    "155150.451000",
    "155152.451000",
    "155154.450000",
    "155156.451000",
    "155158.451000",
    "155200.450000",
    "155202.452000",
    "155204.452000",
    "155206.452000",
    "155208.451000",
    "155210.451000",
    "155212.451000",
    "155214.451000",
    "155216.451000",
    "155218.451000",
    "155220.452000",
    "155222.451000",
    "155224.451000",
    "155226.450000",
    "155228.450000",
    "155230.450000",
    "155232.451000",
    "155234.450000",
    "155236.451000",
    "155238.451000",
    "155240.451000",
    "155242.451000",
    "155244.450000",
    "155246.450000",
    "155248.451000",
    "155250.451000",
    "155252.451000",
    "155254.451000",
    "155256.452000",
    "155258.452000",
    "155300.450000",
    "155302.450000",
    "155304.451000",
    "155306.451000",
    "155308.451000",
    "155310.451000",
    "155312.452000",
    "155314.452000",
    "155316.452000",
    "155318.451000",
    "155320.451000",
    "155322.451000",
    "155324.451000",
    "155326.451000",
    "155328.450000",
    "155330.452000",
    "155332.452000",
    "155334.452000",
    "155336.451000",
    "155338.451000",
    "155340.451000",
    "155342.451000",
    "155344.451000",
    "155346.451000",
    "155348.451000",
    "155350.452000",
    "155352.452000",
    "155354.451000",
    "155356.451000",
    "155358.451000",
    "155400.450000",
    "155402.451000",
    "155404.452000",
    "155406.452000",
    "155408.451000",
    "155410.451000",
    "155412.451000",
    "155414.451000",
    "155416.451000",
    "155418.451000",
    "155420.451000",
    "155422.452000",
    "155424.452000",
    "155426.452000",
    "155428.451000",
    "155430.451000",
    "155432.451000",
    "155434.451000",
    "155436.451000",
    "155438.451000",
    "155440.452000",
    "155442.463000",
    "155444.452000",
    "155446.451000",
    "155448.450000",
    "155450.451000",
    "155452.450000",
    "155454.451000",
    "155456.451000",
    "155458.452000",
    "155500.452000",
    "155502.451000",
    "155504.450000",
    "155506.450000",
    "155508.451000",
    "155510.451000",
    "155512.451000",
    "155514.452000",
    "155516.451000",
    "155518.451000",
    "155520.450000",
    "155522.451000",
    "155524.450000",
    "155526.451000",
    "155528.451000",
    "155530.450000",
    "155532.451000",
    "155534.451000",
    "155536.452000",
    "155538.450000",
    "155540.450000",
    "155542.451000",
    "155544.451000",
    "155546.451000",
    "155548.451000",
    "155550.452000",
    "155552.451000",
    "155554.452000",
    "155556.451000",
    "155558.450000",
    "155600.451000",
    "155602.450000",
    "155604.451000",
    "155606.451000",
    "155608.451000",
    "155610.452000",
    "155612.452000",
    "155614.450000",
    "155616.451000",
    "155618.451000",
    "155620.450000",
    "155622.450000",
    "155624.452000",
    "155626.452000",
    "155628.452000",
    "155630.451000",
    "155632.451000",
    "155634.451000",
    "155636.451000",
    "155638.450000",
    "155640.451000",
    "155642.452000",
    "155644.452000",
    "155646.451000",
    "155648.451000",
    "155650.450000",
    "155652.451000",
    "155654.451000",
    "155656.451000",
    "155658.451000",
    "155700.452000",
    "155702.451000",
    "155704.452000",
    "155706.450000",
    "155708.451000",
    "155710.451000",
    "155712.451000",
    "155714.451000",
    "155716.450000",
    "155718.452000",
    "155720.451000",
    "155722.451000",
    "155724.451000",
    "155726.450000",
    "155728.450000",
    "155730.450000",
    "155732.450000",
    "155734.452000",
    "155736.452000",
    "155738.451000",
    "155740.450000",
    "155742.356000"
   ],
   "InstanceCreationTime": [
    "154912.955000",
    "154914.451000",
    "154916.451000",
    "154918.451000",
    "154920.450000",
    "154922.450000",
    "154924.451000",
    "154926.453000",
    "154928.452000",
    "154930.450000",
    "154932.451000",
    "154934.450000",
    "154936.451000",
    "154938.450000",
    "154940.450000",
    "154942.451000",
    "154944.452000",
    "154946.452000",
    "154948.451000",
    "154950.451000",
    "154952.451000",
    "154954.451000",
    "154956.450000",
    "154958.450000",
    "155000.451000",
    "155002.451000",
    "155004.452000",
    "155006.450000",
    "155008.451000",
    "155010.451000",
    "155012.451000",
    "155014.451000",
    "155016.450000",
    "155018.451000",
    "155020.451000",
    "155022.451000",
    "155024.450000",
    "155026.451000",
    "155028.451000",
    "155030.450000",
    "155032.450000",
    "155034.450000",
    "155036.452000",
    "155038.452000",
    "155040.451000",
    "155042.451000",
    "155044.451000",
    "155046.451000",
    "155048.450000",
    "155050.451000",
    "155052.451000",
    "155054.452000",
    "155056.451000",
    "155058.451000",
    "155100.451000",
    "155102.451000",
    "155104.451000",
    "155106.450000",
    "155108.451000",
    "155110.451000",
    "155112.451000",
    "155114.451000",
    "155116.451000",
    "155118.451000",
    "155120.450000",
    "155122.450000",
    "155124.451000",
    "155126.451000",
    "155128.452000",
    "155130.452000",
    "155132.452000",
    "155134.451000",
    "155136.451000",
    "155138.451000",
    "155140.451000",
    "155142.450000",
    "155144.450000",
    "155146.452000",
    "155148.452000",
    "155150.451000",
    "155152.451000",
    "155154.450000",
    "155156.451000",
    "155158.451000",
    "155200.450000",
    "155202.452000",
    "155204.452000",
    "155206.452000",
    "155208.451000",
    "155210.451000",
    "155212.451000",
    "155214.451000",
    "155216.451000",
    "155218.451000",
    "155220.452000",
    "155222.451000",
    "155224.451000",
    "155226.450000",
    "155228.450000",
    "155230.450000",
    "155232.451000",
    "155234.450000",
    "155236.451000",
    "155238.451000",
    "155240.451000",
    "155242.451000",
    "155244.450000",
    "155246.450000",
    "155248.451000",
    "155250.451000",
    "155252.451000",
    "155254.451000",
    "155256.452000",
    "155258.452000",
    "155300.450000",
    "155302.450000",
    "155304.451000",
    "155306.451000",
    "155308.451000",
    "155310.451000",
    "155312.452000",
    "155314.452000",
    "155316.452000",
    "155318.451000",
    "155320.451000",
    "155322.451000",
    "155324.451000",
    "155326.451000",
    "155328.450000",
    "155330.452000",
    "155332.452000",
    "155334.452000",
    "155336.451000",
    "155338.451000",
    "155340.451000",
    "155342.451000",
    "155344.451000",
    "155346.451000",
    "155348.451000",
    "155350.452000",
    "155352.452000",
    "155354.451000",
    "155356.451000",
    "155358.451000",
    "155400.450000",
    "155402.451000",
    "155404.452000",
    "155406.452000",
    "155408.451000",
    "155410.451000",
    "155412.451000",
    "155414.451000",
    "155416.451000",
    "155418.451000",
    "155420.451000",
    "155422.452000",
    "155424.452000",
    "155426.452000",
    "155428.451000",
    "155430.451000",
    "155432.451000",
    "155434.451000",
    "155436.451000",
    "155438.451000",
    "155440.452000",
    "155442.463000",
    "155444.452000",
    "155446.451000",
    "155448.450000",
    "155450.451000",
    "155452.450000",
    "155454.451000",
    "155456.451000",
    "155458.452000",
    "155500.452000",
    "155502.451000",
    "155504.450000",
    "155506.450000",
    "155508.451000",
    "155510.451000",
    "155512.451000",
    "155514.452000",
    "155516.451000",
    "155518.451000",
    "155520.450000",
    "155522.451000",
    "155524.450000",
    "155526.451000",
    "155528.451000",
    "155530.450000",
    "155532.451000",
    "155534.451000",
    "155536.452000",
    "155538.450000",
    "155540.450000",
    "155542.451000",
    "155544.451000",
    "155546.451000",
    "155548.451000",
    "155550.452000",
    "155552.451000",
    "155554.452000",
    "155556.451000",
    "155558.450000",
    "155600.451000",
    "155602.450000",
    "155604.451000",
    "155606.451000",
    "155608.451000",
    "155610.452000",
    "155612.452000",
    "155614.450000",
    "155616.451000",
    "155618.451000",
    "155620.450000",
    "155622.450000",
    "155624.452000",
    "155626.452000",
    "155628.452000",
    "155630.451000",
    "155632.451000",
    "155634.451000",
    "155636.451000",
    "155638.450000",
    "155640.451000",
    "155642.452000",
    "155644.452000",
    "155646.451000",
    "155648.451000",
    "155650.450000",
    "155652.451000",
    "155654.451000",
    "155656.451000",
    "155658.451000",
    "155700.452000",
    "155702.451000",
    "155704.452000",
    "155706.450000",
    "155708.451000",
    "155710.451000",
    "155712.451000",
    "155714.451000",
    "155716.450000",
    "155718.452000",
    "155720.451000",
    "155722.451000",
    "155724.451000",
    "155726.450000",
    "155728.450000",
    "155730.450000",
    "155732.450000",
    "155734.452000",
    "155736.452000",
    "155738.451000",
    "155740.450000",
    "155742.356000"
   ],
   "InstanceNumber": [
    1,
    2,
    3,
    4,
    5,
    6,
    7,
    8,
    9,
    10,
    11,
    12,
    13,
    14,
    15,
    16,
    17,
    18,
    19,
    20,
    21,
    22,
    23,
    24,
    25,
    26,
    27,
    28,
    29,
    30,
    31,
    32,
    33,
    34,
    35,
    36,
    37,
    38,
    39,
    40,
    41,
    42,
    43,
    44,
    45,
    46,
    47,
    48,
    49,
    50,
    51,
    52,
    53,
    54,
    55,
    56,
    57,
    58,
    59,
    60,
    61,
    62,
    63,
    64,
    65,
    66,
    67,
    68,
    69,
    70,
    71,
    72,
    73,
    74,
    75,
    76,
    77,
    78,
    79,
    80,
    81,
    82,
    83,
    84,
    85,
    86,
    87,
    88,
    89,
    90,
    91,
    92,
    93,
    94,
    95,
    96,
    97,
    98,
    99,
    100,
    101,
    102,
    103,
    104,
    105,
    106,
    107,
    108,
    109,
    110,
    111,
    112,
    113,
    114,
    115,
    116,
    117,
    118,
    119,
    120,
    121,
    122,
    123,
    124,
    125,
    126,
    127,
    128,
    129,
    130,
    131,
    132,
    133,
    134,
    135,
    136,
    137,
    138,
    139,
    140,
    141,
    142,
    143,
    144,
    145,
    146,
    147,
    148,
    149,
    150,
    151,
    152,
    153,
    154,
    155,
    156,
    157,
    158,
    159,
    160,
    161,
    162,
    163,
    164,
    165,
    166,
    167,
    168,
    169,
    170,
    171,
    172,
    173,
    174,
    175,
    176,
    177,
    178,
    179,
    180,
    181,
    182,
    183,
    184,
    185,
    186,
    187,
    188,
    189,
    190,
    191,
    192,
    193,
    194,
    195,
    196,
    197,
    198,
    199,
    200,
    201,
    202,
    203,
    204,
    205,
    206,
    207,
    208,
    209,
    210,
    211,
    212,
    213,
    214,
    215,
    216,
    217,
    218,
    219,
    220,
    221,
    222,
    223,
    224,
    225,
    226,
    227,
    228,
    229,
    230,
    231,
    232,
    233,
    234,
    235,
    236,
    237,
    238,
    239,
    240,
    241,
    242,
    243,
    244,
    245,
    246,
    247,
    248,
    249,
    250,
    251,
    252,
    253,
    254,
    255,
    256
   ],
   "LargestImagePixelValue": [
    2823,
    2734,
    2754,
    2738,
    2761,
    2720,
    2736,
    2748,
    2763,
    2756,
    2725,
    2718,
    2719,
    2721,
    2735,
    2721,
    2732,
    2753,
    2751,
    2737,
    2739,
    2732,
    2750,
    2729,
    2745,
    2748,
    2738,
    2740,
    2740,
    2727,
    2745,
    2748,
    2714,
    2746,
    2726,
    2717,
    2732,
    2738,
    2716,
    2715,
    2708,
    2727,
    2718,
    2701,
    2693,
    2700,
    2717,
    2708,
    2721,
    2731,
    2740,
    2715,
    2709,
    2710,
    2724,
    2720,
    2700,
    2704,
    2715,
    2732,
    2770,
    2742,
    2714,
    2727,
    2727,
    2765,
    2758,
    2805,
    2718,
    2745,
    2728,
    2729,
    2742,
    2727,
    2735,
    2718,
    2721,
    2733,
    2722,
    2745,
    2704,
    2736,
    2749,
    2747,
    2723,
    2714,
    2716,
    2751,
    2775,
    2727,
    2720,
    2718,
    2708,
    2683,
    2730,
    2679,
    2715,
    2763,
    2758,
    2718,
    2738,
    2737,
    2781,
    2708,
    2722,
    2690,
    2768,
    2744,
    2741,
    2742,
    2733,
    2716,
    2723,
    2751,
    2760,
    2699,
    2689,
    2721,
    2751,
    2776,
    2779,
    2748,
    2761,
    2702,
    2740,
    2730,
    2748,
    2709,
    2711,
    2712,
    2736,
    2698,
    2719,
    2731,
    2756,
    2767,
    2767,
    2739,
    2741,
    2733,
    2708,
    2731,
    2750,
    2704,
    2728,
    2704,
    2741,
    2720,
    2739,
    2711,
    2762,
    2738,
    2704,
    2700,
    2743,
    2719,
    2757,
    2726,
    2732,
    2732,
    2721,
    2733,
    2782,
    2729,
    2707,
    2693,
    2743,
    2760,
    2767,
    2702,
    2711,
    2746,
    2781,
    2743,
    2721,
    2706,
    2679,
    2691,
    2697,
    2732,
    2736,
    2727,
    2732,
    2700,
    2724,
    2728,
    2705,
    2690,
    2678,
    2709,
    2715,
    2729,
    2721,
    2739,
    2724,
    2746,
    2761,
    2710,
    2673,
    2710,
    2697,
    2722,
    2713,
    2725,
    2734,
    2723,
    2718,
    2684,
    2709,
    2707,
    2737,
    2714,
    2668,
    2691,
    2704,
    2741,
    2705,
    2680,
    2713,
    2753,
    2737,
    2680,
    2706,
    2689,
    2678,
    2710,
    2729,
    2737,
    2736,
    2713,
    2744,
    2716,
    2711,
    2704,
    2715,
    2731,
    2701,
    2724,
    2733,
    2742,
    2748,
    2737,
    2738,
    2747,
    2717,
    2677,
    2709,
    2684,
    2675,
    2674,
    2690,
    2683,
    2707,
    2691,
    2689,
    2696
   ],
   "WindowCenter": [
    733.0,
    731.0,
    731.0,
    731.0,
    731.0,
    730.0,
    731.0,
    731.0,
    730.0,
    729.0,
    730.0,
    730.0,
    730.0,
    729.0,
    728.0,
    729.0,
    728.0,
    728.0,
    728.0,
    727.0,
    726.0,
    726.0,
    727.0,
    727.0,
    728.0,
    728.0,
    728.0,
    728.0,
    729.0,
    728.0,
    728.0,
    727.0,
    727.0,
    728.0,
    729.0,
    729.0,
    728.0,
    728.0,
    727.0,
    728.0,
    728.0,
    728.0,
    728.0,
    728.0,
    728.0,
    727.0,
    728.0,
    728.0,
    728.0,
    728.0,
    729.0,
    728.0,
    728.0,
    727.0,
    728.0,
    728.0,
    728.0,
    729.0,
    729.0,
    729.0,
    731.0,
    730.0,
    728.0,
    727.0,
    727.0,
    729.0,
    729.0,
    730.0,
    729.0,
    728.0,
    728.0,
    728.0,
    729.0,
    728.0,
    729.0,
    729.0,
    729.0,
    730.0,
    729.0,
    730.0,
    729.0,
    729.0,
    729.0,
    728.0,
    729.0,
    728.0,
    729.0,
    729.0,
    729.0,
    729.0,
    728.0,
    729.0,
    728.0,
    727.0,
    729.0,
    728.0,
    728.0,
    729.0,
    730.0,
    728.0,
    728.0,
    729.0,
    729.0,
    728.0,
    728.0,
    728.0,
    730.0,
    728.0,
    727.0,
    728.0,
