{
  "AcquisitionMatrixPE": 100,
  "AcquisitionNumber": 1,
  "AcquisitionTime": "15:18:27.780000",
  "BandwidthPerPixelPhaseEncode": 18.519,
  "BaseResolution": 100,
  "BodyPartExamined": "BRAIN",
  "ConsistencyInfo": "N4_VE11C_LATEST_20160120",
  "ConversionSoftware": "dcm2niix",
  "ConversionSoftwareVersion": "v1.0.20180622 GCC4.9.2",
  "DerivedVendorReportedEchoSpacing": 0.000539986,
  "DeviceSerialNumber": "166078",
  "DwellTime": 2.1e-06,
  "EchoTime": 0.034,
  "EchoTrainLength": 100,
  "EffectiveEchoSpacing": 0.000539986,
  "FlipAngle": 90,
  "ImageOrientationPatientDICOM": [0.999224, 0.0130177, 0.0371696, -0.00872005, 0.993497, -0.113527],
  "ImageType": [
    "ORIGINAL",
    "PRIMARY",
    "M",
    "ND",
    "MOSAIC"
],
  "InPlanePhaseEncodingDirectionDICOM": "COL",
  "InstitutionAddress": "Street_StreetNo_Bei_Jing_District_CN_ZIP",
  "InstitutionName": "BeiJing_Normal_University",
  "InstitutionalDepartmentName": "Department",
  "MRAcquisitionType": "2D",
  "MagneticFieldStrength": 3,
  "Manufacturer": "Siemens",
  "ManufacturersModelName": "Prisma",
  "Modality": "MR",
  "MultibandAccelerationFactor": 3,
  "PartialFourier": 1,
  "PatientPosition": "HFS",
  "PercentPhaseFOV": 100,
  "PhaseEncodingDirection": "j-",
  "PhaseEncodingSteps": 100,
  "PhaseResolution": 1,
  "PixelBandwidth": 2380,
  "ProcedureStepDescription": "BNU_P2018_64CH_Zhen.ZongLei",
  "ProtocolName": "bold_100x100_s3_2x2x2_static_256",
  "PulseSequenceDetails": "%SiemensSeq%_ep2d_bold",
  "ReceiveCoilActiveElements": "HC1-7;NC1",
  "ReceiveCoilName": "HeadNeck_64",
  "ReconMatrixPE": 100,
  "RepetitionTime": 2,
  "SAR": 0.0811982,
  "ScanOptions": "FS",
  "ScanningSequence": "EP",
  "SequenceName": "_epfid2d1_100",
  "SequenceVariant": "SK",
  "SeriesDescription": "bold_100x100_s3_2x2x2_static_256",
  "SeriesNumber": 3,
  "ShimSetting": [-5467, -11516, -1288, 566, 3, -137, -139, 4],
  "SliceThickness": 2,
  "SliceTiming": [1.485, 0, 0.99, 0.0825, 1.0725, 0.165, 1.155, 0.2475, 1.2375, 0.33, 1.32, 0.4125, 1.4025, 0.5775, 1.5675, 0.66, 1.65, 0.7425, 1.7325, 0.825, 1.815, 0.9075, 1.8975, 0.495, 1.485, 0, 0.99, 0.0825, 1.0725, 0.165, 1.155, 0.2475, 1.2375, 0.33, 1.32, 0.4125, 1.4025, 0.5775, 1.5675, 0.66, 1.65, 0.7425, 1.7325, 0.825, 1.815, 0.9075, 1.8975, 0.495, 1.485, 0, 0.99, 0.0825, 1.0725, 0.165, 1.155, 0.2475, 1.2375, 0.33, 1.32, 0.4125, 1.4025, 0.5775, 1.5675, 0.66, 1.65, 0.7425, 1.7325, 0.825, 1.815, 0.9075, 1.8975, 0.495],
  "SoftwareVersions": "syngo_MR_E11",
  "SpacingBetweenSlices": 2,
  "StationName": "AWP166078",
  "TaskName": "naturalvision",
  "TotalReadoutTime": 0.0534586,
  "TxRefAmp": 214.423,
  "dcmmeta_affine": [
    [-1.998448371887207, -0.017440106719732285, 0.07681138813495636, 98.10401153564453],
    [-0.026035424321889877, 1.9869931936264038, -0.22623048722743988, -89.13327026367188],
    [0.0743391141295433, 0.2270548790693283, 1.9856786727905273, -82.25032806396484],
    [0.0, 0.0, 0.0, 1.0]
],
  "dcmmeta_reorient_transform": [
    [0.0, -1.0, 0.0, 99.0],
    [1.0, 0.0, 0.0, 0.0],
    [0.0, 0.0, 1.0, 0.0],
    [0.0, 0.0, 0.0, 1.0]
],
  "dcmmeta_shape": [100, 100, 72, 256],
  "dcmmeta_slice_dim": 2,
  "dcmmeta_version": 0.6,
  "global": {
    "const": {
      "AcquisitionMatrix": [100, 0, 0, 100],
      "AngioFlag": "N",
      "BitsAllocated": 16,
      "BitsStored": 12,
      "BodyPartExamined": "BRAIN",
      "Columns": 900,
      "EchoNumbers": 1,
      "EchoTime": 34.0,
      "EchoTrainLength": 100,
      "FlipAngle": 90.0,
      "HighBit": 11,
      "ImageOrientationPatient": [0.99922418069525, 0.01301771177709, 0.03716955601025, -0.0087200529301, 0.99349659331527, -0.1135274405061],
      "ImagePositionPatient": [-888.78074040214, -912.79050119293, 1.3144117200598],
      "ImageType": [
        "ORIGINAL",
        "PRIMARY",
        "M",
        "ND",
        "MOSAIC"
],
      "ImagedNucleus": "1H",
      "ImagingFrequency": 123.257757,
      "InPlanePhaseEncodingDirection": "COL",
      "MRAcquisitionType": "2D",
      "MagneticFieldStrength": 3.0,
      "Manufacturer": "SIEMENS",
      "ManufacturerModelName": "Prisma",
      "Modality": "MR",
      "NumberOfAverages": 1.0,
      "NumberOfPhaseEncodingSteps": 100,
      "PercentPhaseFieldOfView": 100.0,
      "PercentSampling": 100.0,
      "PerformedProcedureStepStartTime": "151530.281000",
      "PhotometricInterpretation": "MONOCHROME2",
      "PixelBandwidth": 2380.0,
      "PixelRepresentation": 0,
      "PixelSpacing": [2.0, 2.0],
      "ProtocolName": "bold_100x100_s3_2x2x2_static_256",
      "RepetitionTime": 2000.0,
      "Rows": 900,
      "SAR": 0.08119818773296,
      "SamplesPerPixel": 1,
      "ScanOptions": "FS",
      "ScanningSequence": "EP",
      "SequenceName": "*epfid2d1_100",
      "SequenceVariant": "SK",
      "SeriesDescription": "bold_100x100_s3_2x2x2_static_256",
      "SeriesNumber": 3,
      "SeriesTime": "151830.176000",
      "SliceLocation": -67.811278069388,
      "SliceThickness": 2.0,
      "SmallestImagePixelValue": 0,
      "SoftwareVersions": "syngo MR E11",
      "SpacingBetweenSlices": 1.9999999903136,
      "SpecificCharacterSet": "ISO_IR 100",
      "StudyID": "1",
      "StudyTime": "151530.195000",
      "TransmitCoilName": "Body",
      "VariableFlipAngleFlag": "N",
      "WindowCenterWidthExplanation": "Algo1",
      "dBdt": 0.0},
    "slices": {}
  },
  "time": {
    "samples": {
      "AcquisitionNumber": [1, 2, 3, 4, 5, 6, 7, 8, 9, 10, 11, 12, 13, 14, 15, 16, 17, 18, 19, 20, 21, 22, 23, 24, 25, 26, 27, 28, 29, 30, 31, 32, 33, 34, 35, 36, 37, 38, 39, 40, 41, 42, 43, 44, 45, 46, 47, 48, 49, 50, 51, 52, 53, 54, 55, 56, 57, 58, 59, 60, 61, 62, 63, 64, 65, 66, 67, 68, 69, 70, 71, 72, 73, 74, 75, 76, 77, 78, 79, 80, 81, 82, 83, 84, 85, 86, 87, 88, 89, 90, 91, 92, 93, 94, 95, 96, 97, 98, 99, 100, 101, 102, 103, 104, 105, 106, 107, 108, 109, 110, 111, 112, 113, 114, 115, 116, 117, 118, 119, 120, 121, 122, 123, 124, 125, 126, 127, 128, 129, 130, 131, 132, 133, 134, 135, 136, 137, 138, 139, 140, 141, 142, 143, 144, 145, 146, 147, 148, 149, 150, 151, 152, 153, 154, 155, 156, 157, 158, 159, 160, 161, 162, 163, 164, 165, 166, 167, 168, 169, 170, 171, 172, 173, 174, 175, 176, 177, 178, 179, 180, 181, 182, 183, 184, 185, 186, 187, 188, 189, 190, 191, 192, 193, 194, 195, 196, 197, 198, 199, 200, 201, 202, 203, 204, 205, 206, 207, 208, 209, 210, 211, 212, 213, 214, 215, 216, 217, 218, 219, 220, 221, 222, 223, 224, 225, 226, 227, 228, 229, 230, 231, 232, 233, 234, 235, 236, 237, 238, 239, 240, 241, 242, 243, 244, 245, 246, 247, 248, 249, 250, 251, 252, 253, 254, 255, 256],
      "AcquisitionTime": ["151827.780000", "151829.780000", "151831.780000", "151833.780000", "151835.780000", "151837.780000", "151839.780000", "151841.780000", "151843.780000", "151845.780000", "151847.780000", "151849.780000", "151851.780000", "151853.780000", "151855.780000", "151857.780000", "151859.780000", "151901.780000", "151903.780000", "151905.780000", "151907.780000", "151909.780000", "151911.780000", "151913.780000", "151915.780000", "151917.780000", "151919.780000", "151921.780000", "151923.780000", "151925.780000", "151927.780000", "151929.780000", "151931.780000", "151933.780000", "151935.780000", "151937.780000", "151939.780000", "151941.780000", "151943.780000", "151945.780000", "151947.780000", "151949.780000", "151951.780000", "151953.780000", "151955.780000", "151957.780000", "151959.780000", "152001.780000", "152003.780000", "152005.780000", "152007.780000", "152009.780000", "152011.780000", "152013.780000", "152015.780000", "152017.780000", "152019.780000", "152021.780000", "152023.780000", "152025.780000", "152027.780000", "152029.780000", "152031.780000", "152033.780000", "152035.780000", "152037.780000", "152039.780000", "152041.780000", "152043.780000", "152045.780000", "152047.780000", "152049.780000", "152051.780000", "152053.780000", "152055.780000", "152057.780000", "152059.780000", "152101.780000", "152103.780000", "152105.780000", "152107.780000", "152109.780000", "152111.780000", "152113.780000", "152115.780000", "152117.780000", "152119.780000", "152121.780000", "152123.780000", "152125.780000", "152127.780000", "152129.780000", "152131.780000", "152133.780000", "152135.780000", "152137.780000", "152139.780000", "152141.780000", "152143.780000", "152145.780000", "152147.780000", "152149.780000", "152151.780000", "152153.780000", "152155.780000", "152157.780000", "152159.780000", "152201.780000", "152203.780000", "152205.780000", "152207.780000", "152209.780000", "152211.780000", "152213.780000", "152215.780000", "152217.780000", "152219.780000", "152221.780000", "152223.780000", "152225.780000", "152227.780000", "152229.780000", "152231.780000", "152233.780000", "152235.780000", "152237.780000", "152239.780000", "152241.780000", "152243.780000", "152245.780000", "152247.780000", "152249.780000", "152251.780000", "152253.780000", "152255.780000", "152257.780000", "152259.780000", "152301.780000", "152303.780000", "152305.780000", "152307.780000", "152309.780000", "152311.780000", "152313.780000", "152315.780000", "152317.780000", "152319.780000", "152321.780000", "152323.780000", "152325.780000", "152327.780000", "152329.780000", "152331.780000", "152333.780000", "152335.780000", "152337.780000", "152339.780000", "152341.780000", "152343.780000", "152345.780000", "152347.780000", "152349.780000", "152351.780000", "152353.780000", "152355.780000", "152357.780000", "152359.780000", "152401.780000", "152403.780000", "152405.780000", "152407.780000", "152409.780000", "152411.780000", "152413.780000", "152415.780000", "152417.780000", "152419.780000", "152421.780000", "152423.780000", "152425.780000", "152427.780000", "152429.780000", "152431.780000", "152433.780000", "152435.780000", "152437.780000", "152439.780000", "152441.780000", "152443.780000", "152445.780000", "152447.780000", "152449.780000", "152451.780000", "152453.780000", "152455.780000", "152457.780000", "152459.780000", "152501.780000", "152503.780000", "152505.780000", "152507.780000", "152509.780000", "152511.780000", "152513.780000", "152515.780000", "152517.780000", "152519.780000", "152521.780000", "152523.780000", "152525.780000", "152527.780000", "152529.780000", "152531.780000", "152533.780000", "152535.780000", "152537.780000", "152539.780000", "152541.780000", "152543.780000", "152545.780000", "152547.780000", "152549.780000", "152551.780000", "152553.780000", "152555.780000", "152557.780000", "152559.780000", "152601.780000", "152603.780000", "152605.780000", "152607.780000", "152609.780000", "152611.780000", "152613.780000", "152615.780000", "152617.780000", "152619.780000", "152621.780000", "152623.780000", "152625.780000", "152627.780000", "152629.780000", "152631.780000", "152633.780000", "152635.780000", "152637.780000", "152639.780000", "152641.780000", "152643.780000", "152645.780000", "152647.780000", "152649.780000", "152651.780000", "152653.780000", "152655.780000", "152657.780000"],
      "ContentTime": ["151830.180000", "151831.676000", "151833.677000", "151835.677000", "151837.676000", "151839.676000", "151841.675000", "151843.676000", "151845.676000", "151847.675000", "151849.677000", "151851.677000", "151853.677000", "151855.676000", "151857.675000", "151859.676000", "151901.676000", "151903.676000", "151905.676000", "151907.676000", "151909.677000", "151911.677000", "151913.677000", "151915.676000", "151917.675000", "151919.676000", "151921.675000", "151923.675000", "151925.677000", "151927.676000", "151929.676000", "151931.677000", "151933.676000", "151935.675000", "151937.675000", "151939.676000", "151941.676000", "151943.676000", "151945.677000", "151947.677000", "151949.676000", "151951.676000", "151953.675000", "151955.676000", "151957.675000", "151959.677000", "152001.677000", "152003.676000", "152005.677000", "152007.676000", "152009.676000", "152011.675000", "152013.676000", "152015.675000", "152017.677000", "152019.677000", "152021.676000", "152023.677000", "152025.676000", "152027.676000", "152029.676000", "152031.676000", "152033.676000", "152035.677000", "152037.677000", "152039.677000", "152041.676000", "152043.675000", "152045.676000", "152047.675000", "152049.675000", "152051.676000", "152053.677000", "152055.677000", "152057.677000", "152059.676000", "152101.675000", "152103.676000", "152105.676000", "152107.675000", "152109.677000", "152111.676000", "152113.677000", "152115.676000", "152117.676000", "152119.676000", "152121.676000", "152123.676000", "152125.676000", "152127.676000", "152129.676000", "152131.677000", "152133.677000", "152135.676000", "152137.675000", "152139.675000", "152141.676000", "152143.676000", "152145.677000", "152147.676000", "152149.676000", "152151.677000", "152153.675000", "152155.676000", "152157.676000", "152159.675000", "152201.677000", "152203.677000", "152205.676000", "152207.676000", "152209.675000", "152211.676000", "152213.676000", "152215.675000", "152217.676000", "152219.677000", "152221.677000", "152223.677000", "152225.677000", "152227.676000", "152229.675000", "152231.675000", "152233.675000", "152235.676000", "152237.676000", "152239.677000", "152241.677000", "152243.677000", "152245.676000", "152247.676000", "152249.676000", "152251.675000", "152253.676000", "152255.677000", "152257.677000", "152259.676000", "152301.677000", "152303.676000", "152305.675000", "152307.676000", "152309.676000", "152311.677000", "152313.676000", "152315.677000", "152317.677000", "152319.676000", "152321.676000", "152323.676000", "152325.676000", "152327.676000", "152329.677000", "152331.677000", "152333.676000", "152335.677000", "152337.676000", "152339.676000", "152341.676000", "152343.676000", "152345.676000", "152347.676000", "152349.677000", "152351.677000", "152353.677000", "152355.676000", "152357.676000", "152359.676000", "152401.675000", "152403.676000", "152405.677000", "152407.676000", "152409.677000", "152411.676000", "152413.676000", "152415.676000", "152417.676000", "152419.676000", "152421.677000", "152423.677000", "152425.677000", "152427.677000", "152429.676000", "152431.675000", "152433.675000", "152435.675000", "152437.676000", "152439.677000", "152441.677000", "152443.677000", "152445.676000", "152447.676000", "152449.676000", "152451.676000", "152453.676000", "152455.675000", "152457.676000", "152459.676000", "152501.677000", "152503.677000", "152505.676000", "152507.676000", "152509.676000", "152511.676000", "152513.676000", "152515.677000", "152517.677000", "152519.677000", "152521.677000", "152523.676000", "152525.675000", "152527.675000", "152529.676000", "152531.677000", "152533.677000", "152535.677000", "152537.677000", "152539.676000", "152541.676000", "152543.676000", "152545.676000", "152547.675000", "152549.677000", "152551.677000", "152553.677000", "152555.677000", "152557.676000", "152559.676000", "152601.675000", "152603.676000", "152605.676000", "152607.677000", "152609.677000", "152611.677000", "152613.677000", "152615.676000", "152617.675000", "152619.676000", "152621.676000", "152623.677000", "152625.677000", "152627.677000", "152629.677000", "152631.677000", "152633.676000", "152635.676000", "152637.676000", "152639.676000", "152641.677000", "152643.677000", "152645.677000", "152647.677000", "152649.676000", "152651.676000", "152653.676000", "152655.676000", "152657.676000", "152659.337000"],
      "InstanceCreationTime": ["151830.180000", "151831.676000", "151833.677000", "151835.677000", "151837.676000", "151839.676000", "151841.675000", "151843.676000", "151845.676000", "151847.675000", "151849.677000", "151851.677000", "151853.677000", "151855.676000", "151857.675000", "151859.676000", "151901.676000", "151903.676000", "151905.676000", "151907.676000", "151909.677000", "151911.677000", "151913.677000", "151915.676000", "151917.675000", "151919.676000", "151921.675000", "151923.675000", "151925.677000", "151927.676000", "151929.676000", "151931.677000", "151933.676000", "151935.675000", "151937.675000", "151939.676000", "151941.676000", "151943.676000", "151945.677000", "151947.677000", "151949.676000", "151951.676000", "151953.675000", "151955.676000", "151957.675000", "151959.677000", "152001.677000", "152003.676000", "152005.677000", "152007.676000", "152009.676000", "152011.675000", "152013.676000", "152015.675000", "152017.677000", "152019.677000", "152021.676000", "152023.677000", "152025.676000", "152027.676000", "152029.676000", "152031.676000", "152033.676000", "152035.677000", "152037.677000", "152039.677000", "152041.676000", "152043.675000", "152045.676000", "152047.675000", "152049.675000", "152051.676000", "152053.677000", "152055.677000", "152057.677000", "152059.676000", "152101.675000", "152103.676000", "152105.676000", "152107.675000", "152109.677000", "152111.676000", "152113.677000", "152115.676000", "152117.676000", "152119.676000", "152121.676000", "152123.676000", "152125.676000", "152127.676000", "152129.676000", "152131.677000", "152133.677000", "152135.676000", "152137.675000", "152139.675000", "152141.676000", "152143.676000", "152145.677000", "152147.676000", "152149.676000", "152151.677000", "152153.675000", "152155.676000", "152157.676000", "152159.675000", "152201.677000", "152203.677000", "152205.676000", "152207.676000", "152209.675000", "152211.676000", "152213.676000", "152215.675000", "152217.676000", "152219.677000", "152221.677000", "152223.677000", "152225.677000", "152227.676000", "152229.675000", "152231.675000", "152233.675000", "152235.676000", "152237.676000", "152239.677000", "152241.677000", "152243.677000", "152245.676000", "152247.676000", "152249.676000", "152251.675000", "152253.676000", "152255.677000", "152257.677000", "152259.676000", "152301.677000", "152303.676000", "152305.675000", "152307.676000", "152309.676000", "152311.677000", "152313.676000", "152315.677000", "152317.677000", "152319.676000", "152321.676000", "152323.676000", "152325.676000", "152327.676000", "152329.677000", "152331.677000", "152333.676000", "152335.677000", "152337.676000", "152339.676000", "152341.676000", "152343.676000", "152345.676000", "152347.676000", "152349.677000", "152351.677000", "152353.677000", "152355.676000", "152357.676000", "152359.676000", "152401.675000", "152403.676000", "152405.677000", "152407.676000", "152409.677000", "152411.676000", "152413.676000", "152415.676000", "152417.676000", "152419.676000", "152421.677000", "152423.677000", "152425.677000", "152427.677000", "152429.676000", "152431.675000", "152433.675000", "152435.675000", "152437.676000", "152439.677000", "152441.677000", "152443.677000", "152445.676000", "152447.676000", "152449.676000", "152451.676000", "152453.676000", "152455.675000", "152457.676000", "152459.676000", "152501.677000", "152503.677000", "152505.676000", "152507.676000", "152509.676000", "152511.676000", "152513.676000", "152515.677000", "152517.677000", "152519.677000", "152521.677000", "152523.676000", "152525.675000", "152527.675000", "152529.676000", "152531.677000", "152533.677000", "152535.677000", "152537.677000", "152539.676000", "152541.676000", "152543.676000", "152545.676000", "152547.675000", "152549.677000", "152551.677000", "152553.677000", "152555.677000", "152557.676000", "152559.676000", "152601.675000", "152603.676000", "152605.676000", "152607.677000", "152609.677000", "152611.677000", "152613.677000", "152615.676000", "152617.675000", "152619.676000", "152621.676000", "152623.677000", "152625.677000", "152627.677000", "152629.677000", "152631.677000", "152633.676000", "152635.676000", "152637.676000", "152639.676000", "152641.677000", "152643.677000", "152645.677000", "152647.677000", "152649.676000", "152651.676000", "152653.676000", "152655.676000", "152657.676000", "152659.337000"],
      "InstanceNumber": [1, 2, 3, 4, 5, 6, 7, 8, 9, 10, 11, 12, 13, 14, 15, 16, 17, 18, 19, 20, 21, 22, 23, 24, 25, 26, 27, 28, 29, 30, 31, 32, 33, 34, 35, 36, 37, 38, 39, 40, 41, 42, 43, 44, 45, 46, 47, 48, 49, 50, 51, 52, 53, 54, 55, 56, 57, 58, 59, 60, 61, 62, 63, 64, 65, 66, 67, 68, 69, 70, 71, 72, 73, 74, 75, 76, 77, 78, 79, 80, 81, 82, 83, 84, 85, 86, 87, 88, 89, 90, 91, 92, 93, 94, 95, 96, 97, 98, 99, 100, 101, 102, 103, 104, 105, 106, 107, 108, 109, 110, 111, 112, 113, 114, 115, 116, 117, 118, 119, 120, 121, 122, 123, 124, 125, 126, 127, 128, 129, 130, 131, 132, 133, 134, 135, 136, 137, 138, 139, 140, 141, 142, 143, 144, 145, 146, 147, 148, 149, 150, 151, 152, 153, 154, 155, 156, 157, 158, 159, 160, 161, 162, 163, 164, 165, 166, 167, 168, 169, 170, 171, 172, 173, 174, 175, 176, 177, 178, 179, 180, 181, 182, 183, 184, 185, 186, 187, 188, 189, 190, 191, 192, 193, 194, 195, 196, 197, 198, 199, 200, 201, 202, 203, 204, 205, 206, 207, 208, 209, 210, 211, 212, 213, 214, 215, 216, 217, 218, 219, 220, 221, 222, 223, 224, 225, 226, 227, 228, 229, 230, 231, 232, 233, 234, 235, 236, 237, 238, 239, 240, 241, 242, 243, 244, 245, 246, 247, 248, 249, 250, 251, 252, 253, 254, 255, 256],
      "LargestImagePixelValue": [2886, 2840, 2800, 2799, 2745, 2770, 2748, 2783, 2753, 2793, 2802, 2786, 2813, 2791, 2878, 2864, 2836, 2818, 2847, 2825, 2851, 2825, 2793, 2842, 2853, 2870, 2840, 2838, 2859, 2829, 2785, 2789, 2796, 2796, 2806, 2839, 2796, 2809, 2787, 2833, 2810, 2753, 2782, 2793, 2784, 2786, 2824, 2791, 2798, 2805, 2782, 2788, 2795, 2786, 2761, 2767, 2773, 2795, 2804, 2758, 2774, 2766, 2776, 2789, 2772, 2780, 2779, 2779, 2781, 2775, 2788, 2843, 2802, 2816, 2787, 2772, 2832, 2801, 2788, 2755, 2785, 2759, 2803, 2782, 2775, 2765, 2756, 2770, 2792, 2814, 2778, 2767, 2787, 2795, 2780, 2754, 2784, 2773, 2788, 2788, 2784, 2775, 2794, 2781, 2769, 2762, 2755, 2768, 2787, 2757, 2791, 2795, 2812, 2795, 2808, 2811, 2797, 2795, 2799, 2816, 2793, 2819, 2794, 2790, 2791, 2770, 2794, 2804, 2849, 2806, 2807, 2824, 2800, 2813, 2804, 2810, 2795, 2785, 2831, 2857, 2807, 2842, 2809, 2827, 2815, 2779, 2784, 2818, 2798, 2800, 2814, 2809, 2782, 2808, 2811, 2821, 2817, 2835, 2811, 2840, 2806, 2851, 2842, 2805, 2789, 2796, 2800, 2797, 2823, 2807, 2802, 2788, 2815, 2804, 2789, 2814, 2814, 2799, 2794, 2801, 2777, 2800, 2787, 2805, 2774, 2790, 2856, 2820, 2824, 2785, 2825, 2837, 2831, 2788, 2800, 2794, 2816, 2804, 2831, 2824, 2826, 2815, 2801, 2786, 2823, 2816, 2833, 2790, 2794, 2791, 2800, 2782, 2790, 2789, 2815, 2807, 2786, 2808, 2793, 2799, 2802, 2790, 2780, 2814, 2803, 2796, 2805, 2808, 2800, 2780, 2805, 2797, 2813, 2800, 2779, 2813, 2793, 2786, 2770, 2778, 2795, 2799, 2832, 2786, 2794, 2794, 2779, 2796, 2820, 2815, 2826, 2825, 2811, 2818, 2804, 2802],
      "WindowCenter": [735.0, 732.0, 731.0, 731.0, 731.0, 731.0, 732.0, 733.0, 731.0, 732.0, 731.0, 731.0, 728.0, 731.0, 734.0, 732.0, 732.0, 732.0, 732.0, 732.0, 732.0, 733.0, 734.0, 736.0, 737.0, 736.0, 736.0, 735.0, 735.0, 735.0, 734.0, 734.0, 733.0, 734.0, 735.0, 734.0, 733.0, 733.0, 733.0, 735.0, 735.0, 732.0, 732.0, 733.0, 732.0, 731.0, 733.0, 733.0, 733.0, 732.0, 732.0, 733.0, 733.0, 733.0, 732.0, 732.0, 732.0, 733.0, 734.0, 733.0, 733.0, 733.0, 733.0, 732.0, 732.0, 732.0, 733.0, 732.0, 731.0, 732.0, 733.0, 734.0, 734.0, 734.0, 733.0, 733.0, 735.0, 734.0, 733.0, 733.0, 733.0, 733.0, 734.0, 734.0, 734.0, 733.0, 732.0, 732.0, 734.0, 734.0, 733.0, 732.0, 731.0, 733.0, 733.0, 732.0, 732.0, 733.0, 734.0, 735.0, 734.0, 733.0, 734.0, 733.0, 733.0, 733.0, 734.0, 734.0, 734.0, 733.0, 734.0, 734.0, 735.0, 734.0, 734.0, 734.0, 733.0, 733.0, 734.0, 735.0, 734.0, 733.0, 734.0, 733.0, 734.0, 734.0, 735.0, 734.0, 735.0, 735.0, 735.0, 735.0, 735.0, 735.0, 734.0, 735.0, 735.0, 734.0, 734.0, 734.0, 733.0, 734.0, 735.0, 735.0, 735.0, 734.0, 735.0, 736.0, 736.0, 734.0, 734.0, 734.0, 734.0, 735.0, 735.0, 735.0, 735.0, 735.0, 734.0, 735.0, 735.0, 734.0, 734.0, 735.0, 735.0, 735.0, 734.0, 734.0, 735.0, 735.0, 735.0, 734.0, 734.0, 735.0, 735.0, 735.0, 734.0, 735.0, 735.0, 734.0, 735.0, 736.0, 736.0, 735.0, 735.0, 736.0, 737.0, 736.0, 735.0, 734.0, 736.0, 737.0, 737.0, 736.0, 736.0, 735.0, 735.0, 734.0, 734.0, 734.0, 734.0, 734.0, 735.0, 735.0, 735.0, 735.0, 735.0, 734.0, 734.0, 734.0, 734.0, 734.0, 735.0, 734.0, 734.0, 735.0, 734.0, 734.0, 733.0, 734.0, 735.0, 734.0, 733.0, 733.0, 732.0, 733.0, 735.0, 734.0, 734.0, 733.0, 734.0, 733.0, 733.0, 734.0, 734.0, 734.0, 733.0, 733.0, 734.0, 734.0, 733.0, 733.0, 734.0, 733.0, 734.0, 734.0, 734.0, 733.0, 732.0, 734.0, 734.0, 734.0, 733.0, 733.0, 734.0, 735.0],
      "WindowWidth": [1587.0, 1580.0, 1577.0, 1578.0, 1576.0, 1576.0, 1579.0, 1580.0, 1576.0, 1578.0, 1575.0, 1576.0, 1570.0, 1576.0, 1586.0, 1579.0, 1580.0, 1579.0, 1579.0, 1578.0, 1578.0, 1582.0, 1585.0, 1589.0, 1592.0, 1591.0, 1589.0, 1587.0, 1588.0, 1587.0, 1586.0, 1584.0, 1582.0, 1584.0, 1587.0, 1585.0, 1583.0, 1581.0, 1582.0, 1588.0, 1587.0, 1579.0, 1580.0, 1582.0, 1578.0, 1577.0, 1581.0, 1583.0, 1583.0, 1580.0, 1581.0, 1583.0, 1582.0, 1582.0, 1580.0, 1578.0, 1579.0, 1582.0, 1585.0, 1583.0, 1582.0, 1582.0, 1581.0, 1579.0, 1580.0, 1580.0, 1581.0, 1580.0, 1578.0, 1580.0, 1582.0, 1586.0, 1586.0, 1585.0, 1581.0, 1583.0, 1587.0, 1584.0, 1582.0, 1581.0, 1582.0, 1582.0, 1585.0, 1586.0, 1584.0, 1582.0, 1579.0, 1580.0, 1584.0, 1586.0, 1583.0, 1578.0, 1577.0, 1581.0, 1582.0, 1579.0, 1578.0, 1581.0, 1585.0, 1587.0, 1585.0, 1583.0, 1583.0, 1583.0, 1582.0, 1581.0, 1584.0, 1583.0, 1585.0, 1583.0, 1585.0, 1585.0, 1588.0, 1586.0, 1585.0, 1584.0, 1582.0, 1583.0, 1583.0, 1585.0, 1583.0, 1582.0, 1583.0, 1583.0, 1585.0, 1585.0, 1586.0, 1584.0, 1586.0, 1588.0, 1588.0, 1586.0, 1586.0, 1586.0, 1585.0, 1586.0, 1587.0, 1585.0, 1585.0, 1583.0, 1581.0, 1584.0, 1586.0, 1586.0, 1586.0, 1583.0, 1586.0, 1589.0, 1589.0, 1584.0, 1584.0, 1585.0, 1584.0, 1585.0, 1585.0, 1586.0, 1586.0, 1586.0, 1585.0, 1585.0, 1585.0, 1584.0, 1585.0, 1587.0, 1588.0, 1586.0, 1585.0, 1584.0, 1587.0, 1586.0, 1586.0, 1585.0, 1584.0, 1587.0, 1587.0, 1587.0, 1583.0, 1585.0, 1586.0, 1584.0, 1587.0, 1590.0, 1588.0, 1586.0, 1586.0, 1588.0, 1592.0, 1588.0, 1586.0, 1583.0, 1588.0, 1591.0, 1592.0, 1590.0, 1590.0, 1586.0, 1586.0, 1582.0, 1584.0, 1585.0, 1583.0, 1584.0, 1586.0, 1586.0, 1587.0, 1587.0, 1587.0, 1584.0, 1583.0, 1582.0, 1584.0, 1585.0, 1585.0, 1584.0, 1584.0, 1585.0, 1583.0, 1583.0, 1581.0, 1585.0, 1586.0, 1585.0, 1582.0, 1580.0, 1578.0, 1581.0, 1586.0, 1583.0, 1583.0, 1581.0, 1583.0, 1580.0, 1582.0, 1584.0, 1584.0, 1583.0, 1580.0, 1582.0, 1585.0, 1583.0, 1582.0, 1582.0, 1583.0, 1582.0, 1583.0, 1584.0, 1583.0, 1581.0, 1578.0, 1582.0, 1584.0, 1583.0, 1582.0, 1581.0, 1584.0, 1585.0]
    },
    "slices": {}
  }
}