{"AcquisitionMatrixPE": 100, "AcquisitionNumber": 1, "AcquisitionTime": "16:23:27.515000", "BaseResolution": 100, "BodyPartExamined": "BRAIN", "CoilCombinationMethod": "Sum of Squares", "ConsistencyInfo": "N4_VE11C_LATEST_20160120", "ConversionSoftware": "dcm2niix", "ConversionSoftwareVersion": "v1.0.20211006", "DeviceSerialNumber": "166078", "DwellTime": 8.8e-06, "EchoNumber": 2, "EchoTime": 0.00738, "EchoTime1": 0.00492, "EchoTime2": 0.00738, "FlipAngle": 60, "ImageOrientationPatientDICOM": [0.999976, 0.000681252, 0.00694794, -1.5656e-11, 0.995227, -0.0975829], "ImageOrientationText": "Tra>Cor(-5.6)>Sag(0.4)", "ImageType": ["ORIGINAL", "PRIMARY", "P", "ND", "PHASE"], "ImagingFrequency": 123.258, "InPlanePhaseEncodingDirectionDICOM": "ROW", "InstitutionAddress": "Street StreetNo,Bei Jing,District,CN,ZIP", "InstitutionName": "BeiJing Normal University", "InstitutionalDepartmentName": "Department", "MRAcquisitionType": "2D", "MagneticFieldStrength": 3, "Manufacturer": "Siemens", "ManufacturersModelName": "Prisma", "MatrixCoilMode": "SENSE", "Modality": "MR", "PartialFourier": 1, "PatientPosition": "HFS", "PercentPhaseFOV": 100, "PercentSampling": 100, "PhaseEncodingDirection": "i", "PhaseEncodingSteps": 100, "PhaseResolution": 1, "PixelBandwidth": 570, "ProcedureStepDescription": "BNU_P2018_64CH^Zhen.ZongLei", "ProtocolName": "field_mapping_2x2x2", "PulseSequenceDetails": "%SiemensSeq%\\gre_field_mapping", "ReceiveCoilActiveElements": "HC1-7;NC1", "ReceiveCoilName": "HeadNeck_64", "ReconMatrixPE": 100, "RepetitionTime": 0.72, "SAR": 0.124129, "ScanningSequence": "GR", "SequenceName": "*fm2d2r", "SequenceVariant": "SP", "SeriesDescription": "field_mapping_2x2x2", "SeriesNumber": 18, "ShimSetting": [-5464, -11514, -1242, 324, -30, -182, -134, 114], "SliceThickness": 2, "SliceTiming": [0.35938, 0, 0.375, 0.01562, 0.375, 0.01562, 0.39062, 0.03125, 0.40625, 0.03125, 0.40625, 0.04688, 0.42188, 0.0625, 0.42188, 0.0625, 0.4375, 0.07812, 0.45312, 0.09375, 0.45312, 0.09375, 0.46875, 0.10938, 0.48438, 0.125, 0.48438, 0.125, 0.5, 0.14062, 0.51562, 0.15625, 0.51562, 0.15625, 0.53125, 0.17188, 0.53125, 0.17188, 0.54688, 0.1875, 0.5625, 0.20312, 0.5625, 0.20312, 0.57812, 0.21875, 0.59375, 0.23438, 0.59375, 0.23438, 0.60938, 0.25, 0.625, 0.26562, 0.625, 0.26562, 0.64062, 0.28125, 0.65625, 0.28125, 0.65625, 0.29688, 0.67188, 0.3125, 0.67188, 0.3125, 0.6875, 0.32812, 0.70312, 0.34375, 0.70312, 0.34375], "SoftwareVersions": "syngo MR E11", "SpacingBetweenSlices": 2, "StationName": "AWP166078", "TxRefAmp": 206.066, "dcmmeta_affine": [[-1.9999512434005737, -3.1312001602668005e-11, 0.013962537050247192, 99.50189208984375], [-0.0013625032734125853, 1.9904547929763794, -0.1951618194580078, -92.39060974121094], [0.013895883224904537, 0.19516579806804657, 1.9904022216796875, -67.82262420654297], [0.0, 0.0, 0.0, 1.0]], "dcmmeta_reorient_transform": [[0.0, -1.0, 0.0, 99.0], [1.0, 0.0, 0.0, 0.0], [0.0, 0.0, -1.0, 71.0], [0.0, 0.0, 0.0, 1.0]], "dcmmeta_shape": [100, 100, 72], "dcmmeta_slice_dim": 2, "dcmmeta_version": 0.6, "global": {"const": {"AcquisitionMatrix": [0, 100, 100, 0], "AcquisitionNumber": 1, "AngioFlag": "N", "BitsAllocated": 16, "BitsStored": 12, "BodyPartExamined": "BRAIN", "Columns": 100, "EchoNumbers": 2, "EchoTime": 7.38, "EchoTrainLength": 0, "FlipAngle": 60.0, "HighBit": 11, "ImageOrientationPatient": [0.99997563070476, 0.00068125163941, 0.00694794162433, -1.5656e-11, 0.99522740010616, -0.0975828984912], "ImageType": ["ORIGINAL", "PRIMARY", "P", "ND"], "ImagedNucleus": "1H", "ImagingFrequency": 123.257736, "InPlanePhaseEncodingDirection": "ROW", "MRAcquisitionType": "2D", "MagneticFieldStrength": 3.0, "Manufacturer": "SIEMENS", "ManufacturerModelName": "Prisma", "Modality": "MR", "NumberOfAverages": 1.0, "NumberOfPhaseEncodingSteps": 100, "PercentPhaseFieldOfView": 100.0, "PercentSampling": 100.0, "PerformedProcedureStepStartTime": "143130.298000", "PhotometricInterpretation": "MONOCHROME2", "PixelBandwidth": 570.0, "PixelRepresentation": 0, "PixelSpacing": [2.0, 2.0], "ProtocolName": "field_mapping_2x2x2", "RepetitionTime": 720.0, "RescaleIntercept": -4096.0, "RescaleSlope": 2.0, "RescaleType": "US", "Rows": 100, "SAR": 0.12412894711347, "SamplesPerPixel": 1, "ScanningSequence": "GR", "SequenceName": "*fm2d2r", "SequenceVariant": "SP", "SeriesDescription": "field_mapping_2x2x2", "SeriesNumber": 18, "SeriesTime": "162552.082000", "SliceThickness": 2.0, "SoftwareVersions": "syngo MR E11", "SpacingBetweenSlices": 2.0, "SpecificCharacterSet": "ISO_IR 100", "StudyID": "1", "StudyTime": "143130.205000", "TransmitCoilName": "Body", "VariableFlipAngleFlag": "N", "WindowCenterWidthExplanation": "Algo1", "dBdt": 0.0}, "slices": {"AcquisitionTime": ["162327.515000", "162327.155000", "162327.525000", "162327.165000", "162327.535000", "162327.175000", "162327.545000", "162327.185000", "162327.555000", "162327.195000", "162327.565000", "162327.205000", "162327.575000", "162327.215000", "162327.585000", "162327.225000", "162327.595000", "162327.235000", "162327.605000", "162327.245000", "162327.615000", "162327.255000", "162327.625000", "162327.265000", "162327.635000", "162327.275000", "162327.645000", "162327.285000", "162327.655000", "162327.295000", "162327.665000", "162327.305000", "162327.675000", "162327.315000", "162327.685000", "162327.325000", "162327.695000", "162327.335000", "162327.705000", "162327.345000", "162327.715000", "162327.355000", "162327.725000", "162327.365000", "162327.735000", "162327.375000", "162327.745000", "162327.385000", "162327.755000", "162327.395000", "162327.765000", "162327.405000", "162327.775000", "162327.415000", "162327.785000", "162327.425000", "162327.795000", "162327.435000", "162327.805000", "162327.445000", "162327.815000", "162327.455000", "162327.825000", "162327.465000", "162327.835000", "162327.475000", "162327.845000", "162327.485000", "162327.855000", "162327.495000", "162327.865000", "162327.505000"], "ContentTime": ["162552.169000", "162552.084000", "162552.171000", "162552.086000", "162552.173000", "162552.088000", "162552.176000", "162552.090000", "162552.178000", "162552.092000", "162552.180000", "162552.094000", "162552.182000", "162552.095000", "162552.184000", "162552.097000", "162552.185000", "162552.099000", "162552.187000", "162552.101000", "162552.189000", "162552.103000", "162552.191000", "162552.105000", "162552.193000", "162552.107000", "162552.195000", "162552.108000", "162552.197000", "162552.110000", "162552.199000", "162552.112000", "162552.200000", "162552.114000", "162552.202000", "162552.116000", "162552.204000", "162552.118000", "162552.206000", "162552.121000", "162552.208000", "162552.123000", "162552.210000", "162552.125000", "162552.212000", "162552.127000", "162552.213000", "162552.139000", "162552.215000", "162552.142000", "162552.217000", "162552.144000", "162552.219000", "162552.146000", "162552.221000", "162552.148000", "162552.223000", "162552.150000", "162552.225000", "162552.152000", "162552.227000", "162552.154000", "162552.228000", "162552.156000", "162552.230000", "162552.159000", "162552.232000", "162552.161000", "162552.234000", "162552.164000", "162552.236000", "162552.166000"], "CsaImage.GSWDDataType": ["measured", "predicted", "measured", "predicted", "measured", "predicted", "measured", "predicted", "measured", "predicted", "measured", "predicted", "measured", "predicted", "measured", "predicted", "measured", "predicted", "measured", "predicted", "measured", "predicted", "measured", "predicted", "measured", "predicted", "measured", "predicted", "measured", "predicted", "measured", "predicted", "measured", "predicted", "measured", "predicted", "measured", "predicted", "measured", "predicted", "measured", "predicted", "measured", "predicted", "measured", "predicted", "measured", "predicted", "measured", "predicted", "measured", "predicted", "measured", "predicted", "measured", "predicted", "measured", "predicted", "measured", "predicted", "measured", "predicted", "measured", "predicted", "measured", "predicted", "measured", "measured", "measured", "measured", "measured", "measured"], "CsaImage.ICE_Dims": ["X_2_1_1_1_1_1_37_1_1_1_1_192", "X_2_1_1_1_1_1_1_1_1_2_1_192", "X_2_1_1_1_1_1_38_1_1_3_1_192", "X_2_1_1_1_1_1_2_1_1_4_1_192", "X_2_1_1_1_1_1_39_1_1_5_1_192", "X_2_1_1_1_1_1_3_1_1_6_1_192", "X_2_1_1_1_1_1_40_1_1_7_1_192", "X_2_1_1_1_1_1_4_1_1_8_1_192", "X_2_1_1_1_1_1_41_1_1_9_1_192", "X_2_1_1_1_1_1_5_1_1_10_1_192", "X_2_1_1_1_1_1_42_1_1_11_1_192", "X_2_1_1_1_1_1_6_1_1_12_1_192", "X_2_1_1_1_1_1_43_1_1_13_1_192", "X_2_1_1_1_1_1_7_1_1_14_1_192", "X_2_1_1_1_1_1_44_1_1_15_1_192", "X_2_1_1_1_1_1_8_1_1_16_1_192", "X_2_1_1_1_1_1_45_1_1_17_1_192", "X_2_1_1_1_1_1_9_1_1_18_1_192", "X_2_1_1_1_1_1_46_1_1_19_1_192", "X_2_1_1_1_1_1_10_1_1_20_1_192", "X_2_1_1_1_1_1_47_1_1_21_1_192", "X_2_1_1_1_1_1_11_1_1_22_1_192", "X_2_1_1_1_1_1_48_1_1_23_1_192", "X_2_1_1_1_1_1_12_1_1_24_1_192", "X_2_1_1_1_1_1_49_1_1_25_1_192", "X_2_1_1_1_1_1_13_1_1_26_1_192", "X_2_1_1_1_1_1_50_1_1_27_1_192", "X_2_1_1_1_1_1_14_1_1_28_1_192", "X_2_1_1_1_1_1_51_1_1_29_1_192", "X_2_1_1_1_1_1_15_1_1_30_1_192", "X_2_1_1_1_1_1_52_1_1_31_1_192", "X_2_1_1_1_1_1_16_1_1_32_1_192", "X_2_1_1_1_1_1_53_1_1_33_1_192", "X_2_1_1_1_1_1_17_1_1_34_1_192", "X_2_1_1_1_1_1_54_1_1_35_1_192", "X_2_1_1_1_1_1_18_1_1_36_1_192", "X_2_1_1_1_1_1_55_1_1_37_1_192", "X_2_1_1_1_1_1_19_1_1_38_1_192", "X_2_1_1_1_1_1_56_1_1_39_1_192", "X_2_1_1_1_1_1_20_1_1_40_1_192", "X_2_1_1_1_1_1_57_1_1_41_1_192", "X_2_1_1_1_1_1_21_1_1_42_1_192", "X_2_1_1_1_1_1_58_1_1_43_1_192", "X_2_1_1_1_1_1_22_1_1_44_1_192", "X_2_1_1_1_1_1_59_1_1_45_1_192", "X_2_1_1_1_1_1_23_1_1_46_1_192", "X_2_1_1_1_1_1_60_1_1_47_1_192", "X_2_1_1_1_1_1_24_1_1_48_1_192", "X_2_1_1_1_1_1_61_1_1_49_1_192", "X_2_1_1_1_1_1_25_1_1_50_1_192", "X_2_1_1_1_1_1_62_1_1_51_1_192", "X_2_1_1_1_1_1_26_1_1_52_1_192", "X_2_1_1_1_1_1_63_1_1_53_1_192", "X_2_1_1_1_1_1_27_1_1_54_1_192", "X_2_1_1_1_1_1_64_1_1_55_1_192", "X_2_1_1_1_1_1_28_1_1_56_1_192", "X_2_1_1_1_1_1_65_1_1_57_1_192", "X_2_1_1_1_1_1_29_1_1_58_1_192", "X_2_1_1_1_1_1_66_1_1_59_1_192", "X_2_1_1_1_1_1_30_1_1_60_1_192", "X_2_1_1_1_1_1_67_1_1_61_1_192", "X_2_1_1_1_1_1_31_1_1_62_1_192", "X_2_1_1_1_1_1_68_1_1_63_1_192", "X_2_1_1_1_1_1_32_1_1_64_1_192", "X_2_1_1_1_1_1_69_1_1_65_1_192", "X_2_1_1_1_1_1_33_1_1_66_1_192", "X_2_1_1_1_1_1_70_1_1_67_1_192", "X_2_1_1_1_1_1_34_1_1_68_1_192", "X_2_1_1_1_1_1_71_1_1_69_1_192", "X_2_1_1_1_1_1_35_1_1_70_1_192", "X_2_1_1_1_1_1_72_1_1_71_1_192", "X_2_1_1_1_1_1_36_1_1_72_1_192"], "CsaImage.ProtocolSliceNumber": [0, 1, 2, 3, 4, 5, 6, 7, 8, 9, 10, 11, 12, 13, 14, 15, 16, 17, 18, 19, 20, 21, 22, 23, 24, 25, 26, 27, 28, 29, 30, 31, 32, 33, 34, 35, 36, 37, 38, 39, 40, 41, 42, 43, 44, 45, 46, 47, 48, 49, 50, 51, 52, 53, 54, 55, 56, 57, 58, 59, 60, 61, 62, 63, 64, 65, 66, 67, 68, 69, 70, 71], "CsaImage.RFSWDDataType": ["measured", "predicted", "measured", "predicted", "measured", "predicted", "measured", "predicted", "measured", "predicted", "measured", "predicted", "measured", "predicted", "measured", "predicted", "measured", "predicted", "measured", "predicted", "measured", "predicted", "measured", "predicted", "measured", "predicted", "measured", "predicted", "measured", "predicted", "measured", "predicted", "measured", "predicted", "measured", "predicted", "measured", "predicted", "measured", "predicted", "measured", "predicted", "measured", "predicted", "measured", "predicted", "measured", "predicted", "measured", "predicted", "measured", "predicted", "measured", "predicted", "measured", "predicted", "measured", "predicted", "measured", "predicted", "measured", "predicted", "measured", "measured", "measured", "measured", "measured", "measured", "measured", "measured", "measured", "measured"], "CsaImage.SlicePosition_PCS": [[-99.50189358, -104.66436056, -48.50149531], [-99.51585612, -104.4691997, -46.51108927], [-99.52981863, -104.27403835, -44.52068324], [-99.54378114, -104.07887749, -42.5302772], [-99.55774367, -103.88371662, -40.53987117], [-99.57170618, -103.68855528, -38.54946513], [-99.58566872, -103.49339441, -36.55905909], [-99.59963122, -103.29823331, -34.56865306], [-99.61359376, -103.10307221, -32.57824702], [-99.62755627, -102.90791134, -30.58784098], [-99.64151881, -102.71275024, -28.59743495], [-99.65548131, -102.51758913, -26.60702891], [-99.66944382, -102.32242803, -24.61662287], [-99.68340636, -102.12726716, -22.62621493], [-99.69736887, -101.93210606, -20.63580889], [-99.7113314, -101.73694495, -18.64540286], [-99.72529391, -101.54178397, -16.65499682], [-99.73925645, -101.34662298, -14.66458888], [-99.75321895, -101.15146188, -12.67418284], [-99.76718148, -100.95630089, -10.6837768], [-99.781144, -100.76113979, -8.69337077], [-99.79510652, -100.56597875, -6.70296473], [-99.80906904, -100.3708177, -4.7125587], [-99.82303156, -100.17565666, -2.72215171], [-99.83699409, -99.98049561, -0.73174567], [-99.85095661, -99.78533458, 1.25866037], [-99.86491912, -99.59017354, 3.24906688], [-99.87888165, -99.39501249, 5.23947316], [-99.89284417, -99.19985146, 7.22987943], [-99.90680668, -99.00469039, 9.22028576], [-99.9207692, -98.80952934, 11.21069198], [-99.93473173, -98.6143683, 13.20109849], [-99.94869425, -98.41920725, 15.19150453], [-99.96265677, -98.22404627, 17.18191057], [-99.97661929, -98.02888517, 19.17231756], [-99.99058181, -97.83372418, 21.16272359], [-100.00454433, -97.63856308, 23.15312963], [-100.01850685, -97.44340209, 25.14353566], [-100.03246937, -97.24824099, 27.1339417], [-100.04643189, -97.05307988, 29.12434964], [-100.06039441, -96.85791902, 31.11475568], [-100.07435693, -96.66275791, 33.10516172], [-100.08831946, -96.46759681, 35.09556775], [-100.10228197, -96.2724357, 37.08597379], [-100.11624449, -96.07727484, 39.07637983], [-100.13020702, -95.88211373, 41.06678777], [-100.14416953, -95.68695263, 43.05719381], [-100.15813205, -95.49179176, 45.04759984], [-100.17209457, -95.29663042, 47.03800588], [-100.1860571, -95.10146956, 49.02841192], [-100.20001962, -94.90630869, 51.01881795], [-100.21398214, -94.71114735, 53.00922399], [-100.22794466, -94.51598648, 54.99963003], [-100.24190718, -94.32082514, 56.99003606], [-100.25586969, -94.12566427, 58.9804421], [-100.26983223, -93.93050341, 60.97084813], [-100.28379474, -93.73534207, 62.96125417], [-100.29775727, -93.5401812, 64.95166021], [-100.31171978, -93.34502033, 66.94207006], [-100.32568232, -93.14985899, 68.93247609], [-100.33964482, -92.95469813, 70.92288213], [-100.35360733, -92.75953678, 72.91328817], [-100.36756987, -92.56437592, 74.90369039], [-100.38153238, -92.36921505, 76.89410024], [-100.39549491, -92.17405371, 78.88450246], [-100.40945742, -91.97889284, 80.87491231], [-100.42341996, -91.78373198, 82.86532216], [-100.43738246, -91.58857063, 84.85572439], [-100.451345, -91.39340977, 86.84613424], [-100.46530751, -91.1982489, 88.83653646], [-100.47927002, -91.00308804, 90.82694631], [-100.49323255, -90.80792622, 92.81734853]], "CsaImage.TimeAfterStart": [1.0825, 0.7225, 1.0925, 0.7325, 1.1025, 0.7425, 1.1125, 0.7525, 1.1225, 0.7625, 1.1325, 0.7725, 1.1425, 0.7825, 1.1525, 0.7925, 1.1625, 0.8025, 1.1725, 0.8125, 1.1825, 0.8225, 1.1925, 0.8325, 1.2025, 0.8425, 1.2125, 0.8525, 1.2225, 0.8625, 1.2325, 0.8725, 1.2425, 0.8825, 1.2525, 0.8925, 1.2625, 0.9025, 1.2725, 0.9125, 1.2825, 0.9225, 1.2925, 0.9325, 1.3025, 0.9425, 1.3125, 0.9525, 1.3225, 0.9625, 1.3325, 0.9725, 1.3425, 0.9825, 1.3525, 0.9925, 1.3625, 1.0025, 1.3725, 1.0125, 1.3825, 1.0225, 1.3925, 1.0325, 1.4025, 1.0425, 1.4125, 1.0525, 1.4225, 1.0625, 1.4325, 1.0725], "ImagePositionPatient": [[-99.501893584772, -104.66436056259, -48.501495310627], [-99.515856121822, -104.4691996968, -46.51108927425], [-99.52981862907, -104.27403835418, -44.520683237873], [-99.543781136318, -104.0788774884, -42.530277201496], [-99.557743673368, -103.88371662262, -40.539871165119], [-99.571706180616, -103.68855527999, -38.549465128742], [-99.585668717666, -103.49339441421, -36.559059092365], [-99.599631224914, -103.29823331001, -34.568653055988], [-99.613593761965, -103.10307220581, -32.578247019612], [-99.627556269213, -102.90791134002, -30.587840983235], [-99.641518806263, -102.71275023582, -28.597434946858], [-99.655481313511, -102.51758913162, -26.607028910481], [-99.669443820759, -102.32242802742, -24.616622874104], [-99.683406357809, -102.12726716163, -22.626214930378], [-99.697368865057, -101.93210605743, -20.635808894001], [-99.711331402107, -101.73694495323, -18.645402857624], [-99.725293909355, -101.54178396823, -16.654996821247], [-99.739256446405, -101.34662298324, -14.664588877522], [-99.753218953653, -101.15146187904, -12.674182841145], [-99.767181475802, -100.95630089405, -10.683776804768], [-99.781143997951, -100.76113978984, -8.6933707683908], [-99.7951065201, -100.56597874525, -6.7029647320139], [-99.809069042249, -100.37081770065, -4.7125586956369], [-99.823031564399, -100.17565665605, -2.7221517055856], [-99.836994086548, -99.980495611454, -0.7317456692087], [-99.850956608697, -99.785334581757, 1.2586603671683], [-99.864919115945, -99.5901735378, 3.2490668803824], [-99.878881645544, -99.395012492562, 5.2394731551779], [-99.892844167693, -99.199851462866, 7.2298794299734], [-99.906806682392, -99.004690388466, 9.2202857643736], [-99.920769204541, -98.809529343868, 11.210691979564], [-99.93473172669, -98.614368299271, 13.201098492779], [-99.948694245114, -98.419207254673, 15.191504529156], [-99.962656767263, -98.22404626968, 17.181910565533], [-99.976619287549, -98.028885165478, 19.172317555584], [-99.990581808767, -97.833724180485, 21.162723591961], [-100.00454432905, -97.638563076282, 23.153129628338], [-100.01850685027, -97.443402091289, 25.143535664715], [-100.03246937056, -97.248240987087, 27.133941701092], [-100.04643189271, -97.053079882885, 29.124349644817], [-100.06039441113, -96.857919017101, 31.114755681194], [-100.07435693328, -96.662757912899, 33.105161717571], [-100.08831945543, -96.467596808697, 35.095567753948], [-100.10228197013, -96.272435704494, 37.085973790325], [-100.11624449228, -96.077274838711, 39.076379826702], [-100.13020702188, -95.882113734508, 41.066787770428], [-100.14416952912, -95.686952630306, 43.057193806804], [-100.15813205127, -95.491791764523, 45.047599843181], [-100.17209457342, -95.296630421902, 47.038005879558], [-100.18605709557, -95.101469556118, 49.028411915935], [-100.20001961772, -94.906308690334, 51.018817952312], [-100.21398213987, -94.711147347713, 53.009223988689], [-100.22794466202, -94.51598648193, 54.999630025066], [-100.24190718417, -94.320825139309, 56.990036061443], [-100.25586969142, -94.125664273525, 58.98044209782], [-100.26983222847, -93.930503407742, 60.970848134197], [-100.28379473571, -93.735342065121, 62.961254170574], [-100.29775727276, -93.540181199337, 64.951660206951], [-100.31171978001, -93.345020333553, 66.942070058025], [-100.32568231706, -93.149858990932, 68.932476094402], [-100.33964482431, -92.954698125149, 70.922882130779], [-100.35360733156, -92.759536782528, 72.913288167156], [-100.36756986861, -92.564375916744, 74.903690388836], [-100.38153237586, -92.369215050961, 76.89410023991], [-100.39549491291, -92.17405370834, 78.88450246159], [-100.40945742015, -91.978892842556, 80.874912312664], [-100.4234199572, -91.783731976772, 82.865322163738], [-100.43738246445, -91.588570634151, 84.855724385418], [-100.4513450015, -91.393409768368, 86.846134236492], [-100.46530750875, -91.198248902584, 88.836536458172], [-100.479270016, -91.0030880368, 90.826946309246], [-100.49323255305, -90.807926217342, 92.817348530926]], "InstanceCreationTime": ["162552.169000", "162552.084000", "162552.171000", "162552.086000", "162552.173000", "162552.088000", "162552.176000", "162552.090000", "162552.178000", "162552.092000", "162552.180000", "162552.094000", "162552.182000", "162552.095000", "162552.184000", "162552.097000", "162552.185000", "162552.099000", "162552.187000", "162552.101000", "162552.189000", "162552.103000", "162552.191000", "162552.105000", "162552.193000", "162552.107000", "162552.195000", "162552.108000", "162552.197000", "162552.110000", "162552.199000", "162552.112000", "162552.200000", "162552.114000", "162552.202000", "162552.116000", "162552.204000", "162552.118000", "162552.206000", "162552.121000", "162552.208000", "162552.123000", "162552.210000", "162552.125000", "162552.212000", "162552.127000", "162552.213000", "162552.139000", "162552.215000", "162552.142000", "162552.217000", "162552.144000", "162552.219000", "162552.146000", "162552.221000", "162552.148000", "162552.223000", "162552.150000", "162552.225000", "162552.152000", "162552.227000", "162552.154000", "162552.228000", "162552.156000", "162552.230000", "162552.159000", "162552.232000", "162552.161000", "162552.234000", "162552.164000", "162552.236000", "162552.166000"], "InstanceNumber": [1, 2, 3, 4, 5, 6, 7, 8, 9, 10, 11, 12, 13, 14, 15, 16, 17, 18, 19, 20, 21, 22, 23, 24, 25, 26, 27, 28, 29, 30, 31, 32, 33, 34, 35, 36, 37, 38, 39, 40, 41, 42, 43, 44, 45, 46, 47, 48, 49, 50, 51, 52, 53, 54, 55, 56, 57, 58, 59, 60, 61, 62, 63, 64, 65, 66, 67, 68, 69, 70, 71, 72], "LargestImagePixelValue": [4095, 4094, 4094, 4095, 4095, 4092, 4095, 4095, 4095, 4095, 4094, 4095, 4094, 4095, 4095, 4095, 4094, 4095, 4093, 4095, 4094, 4095, 4094, 4095, 4095, 4093, 4095, 4095, 4095, 4095, 4094, 4094, 4094, 4093, 4092, 4094, 4092, 4092, 4089, 4094, 4093, 4094, 4095, 4095, 4089, 4095, 4094, 4092, 4095, 4094, 4092, 4086, 4091, 4095, 4094, 4095, 4091, 4094, 4091, 4091, 4094, 4095, 4093, 4095, 4094, 4095, 4094, 4095, 4094, 4094, 4094, 4093], "SliceLocation": [-57.787394922496, -55.787395196091, -53.787395423364, -51.787395697167, -49.787395970762, -47.787396198035, -45.78739647163, -43.787396722168, -41.787396972498, -39.787397246301, -37.787397496631, -35.787397747169, -33.787397997707, -31.787396373103, -29.787396623641, -27.787396873971, -25.787397136141, -23.787395499904, -21.787395750442, -19.787396012509, -17.787396262943, -15.787396519193, -13.787396775443, -11.787396082594, -9.7873963388442, -7.7873965965486, -5.7873963784155, -3.7873963972764, -1.7873964177058, 0.21260362549374, 2.2126035471997, 4.2126037654992, 6.212603509223, 8.2126032471565, 10.212603945809, 12.212603683736, 14.212603433289, 16.212603171216, 18.212602920769, 20.212604568534, 22.212604294809, 24.212604044375, 26.212603793941, 28.212603543455, 30.212603269756, 32.212604917574, 34.212604667036, 36.212604393337, 38.212604166168, 40.212603892469, 42.21260361877, 44.212603391601, 46.212603117902, 48.212602890733, 50.21260261693, 52.212602343335, 54.212602116061, 56.212601842466, 58.212605365062, 60.212605137997, 62.212604864194, 64.212604636921, 66.212600566927, 68.212604089523, 70.212600066059, 72.212603588655, 74.212607111459, 76.212603087787, 78.212606610591, 80.212602540389, 82.212606062985, 84.212602086051], "SmallestImagePixelValue": [0, 2, 0, 1, 1, 0, 0, 0, 0, 1, 0, 0, 0, 0, 0, 3, 0, 0, 0, 0, 0, 2, 0, 0, 0, 2, 0, 0, 4, 0, 0, 0, 2, 3, 1, 0, 1, 0, 0, 0, 1, 1, 3, 2, 0, 1, 0, 1, 0, 2, 1, 1, 0, 1, 0, 0, 0, 0, 1, 0, 0, 0, 0, 0, 0, 0, 0, 0, 0, 0, 0, 0], "WindowCenter": [-246.0, -230.0, -194.0, -216.0, -246.0, -230.0, -232.0, -230.0, -230.0, -254.0, -224.0, -166.0, -152.0, -106.0, -122.0, -208.0, -222.0, -214.0, -222.0, -254.0, -244.0, -262.0, -416.0, -268.0, -264.0, -240.0, -246.0, -258.0, -282.0, -254.0, -214.0, -168.0, -136.0, -104.0, -136.0, -178.0, -266.0, -254.0, -244.0, -224.0, -216.0, -204.0, -176.0, -158.0, -152.0, -164.0, -162.0, -156.0, -156.0, -180.0, -174.0, -188.0, -178.0, -208.0, -206.0, -128.0, -102.0, -60.0, -94.0, -80.0, -124.0, -92.0, -120.0, -114.0, -146.0, -198.0, -254.0, -280.0, -334.0, -312.0, -366.0, -310.0], "WindowWidth": [6488.0, 6476.0, 6520.0, 6554.0, 6524.0, 6428.0, 6480.0, 6490.0, 6468.0, 6468.0, 6422.0, 6392.0, 6428.0, 6426.0, 6378.0, 6238.0, 6182.0, 6048.0, 5922.0, 5828.0, 5674.0, 5546.0, 4856.0, 5516.0, 5584.0, 5636.0, 5544.0, 5532.0, 5502.0, 5456.0, 5360.0, 5484.0, 5458.0, 5476.0, 5316.0, 5004.0, 4634.0, 4616.0, 4610.0, 4596.0, 4590.0, 4574.0, 4558.0, 4548.0, 4550.0, 4562.0, 4556.0, 4570.0, 4566.0, 4592.0, 4604.0, 4608.0, 4622.0, 4664.0, 4670.0, 5210.0, 5406.0, 5656.0, 5610.0, 5730.0, 5770.0, 5878.0, 5928.0, 5962.0, 6094.0, 6102.0, 6088.0, 6184.0, 6208.0, 6278.0, 6182.0, 6272.0]}}, "IntendedFor": ["ses-imagenet01/func/sub-29_ses-imagenet01_task-imagenet_run-10_bold.nii.gz", "ses-imagenet01/func/sub-29_ses-imagenet01_task-imagenet_run-02_bold.nii.gz", "ses-imagenet01/func/sub-29_ses-imagenet01_task-imagenet_run-04_bold.nii.gz", "ses-imagenet01/func/sub-29_ses-imagenet01_task-imagenet_run-09_bold.nii.gz", "ses-imagenet01/func/sub-29_ses-imagenet01_task-imagenet_run-06_bold.nii.gz", "ses-imagenet01/func/sub-29_ses-imagenet01_task-imagenet_run-05_bold.nii.gz", "ses-imagenet01/func/sub-29_ses-imagenet01_task-imagenet_run-07_bold.nii.gz", "ses-imagenet01/func/sub-29_ses-imagenet01_task-imagenet_run-08_bold.nii.gz", "ses-imagenet01/func/sub-29_ses-imagenet01_task-imagenet_run-01_bold.nii.gz", "ses-imagenet01/func/sub-29_ses-imagenet01_task-imagenet_run-03_bold.nii.gz"]}