{"AcquisitionMatrixPE": 100, "AcquisitionNumber": 1, "AcquisitionTime": "15:36:26.592500", "BaseResolution": 100, "BodyPartExamined": "BRAIN", "CoilCombinationMethod": "Sum of Squares", "ConsistencyInfo": "N4_VE11C_LATEST_20160120", "ConversionSoftware": "dcm2niix", "ConversionSoftwareVersion": "v1.0.20211006", "DeviceSerialNumber": "166078", "DwellTime": 8.8e-06, "EchoNumber": 2, "EchoTime": 0.00738, "EchoTime1": 0.00492, "EchoTime2": 0.00738, "FlipAngle": 60, "ImageOrientationPatientDICOM": [0.999877, 0.000901368, 0.0156322, -1.9465e-11, 0.998342, -0.0575655], "ImageOrientationText": "Tra>Cor(-3.3)>Sag(0.9)", "ImageType": ["ORIGINAL", "PRIMARY", "P", "ND", "PHASE"], "ImagingFrequency": 123.258, "InPlanePhaseEncodingDirectionDICOM": "ROW", "InstitutionAddress": "Street StreetNo,Bei Jing,District,CN,ZIP", "InstitutionName": "BeiJing Normal University", "InstitutionalDepartmentName": "Department", "MRAcquisitionType": "2D", "MagneticFieldStrength": 3, "Manufacturer": "Siemens", "ManufacturersModelName": "Prisma", "MatrixCoilMode": "SENSE", "Modality": "MR", "PartialFourier": 1, "PatientPosition": "HFS", "PercentPhaseFOV": 100, "PercentSampling": 100, "PhaseEncodingDirection": "i", "PhaseEncodingSteps": 100, "PhaseResolution": 1, "PixelBandwidth": 570, "ProcedureStepDescription": "BNU_P2018_64CH^Zhen.ZongLei", "ProtocolName": "field_mapping_2x2x2", "PulseSequenceDetails": "%SiemensSeq%\\gre_field_mapping", "ReceiveCoilActiveElements": "HC1-7;NC1", "ReceiveCoilName": "HeadNeck_64", "ReconMatrixPE": 100, "RepetitionTime": 0.72, "SAR": 0.120034, "ScanningSequence": "GR", "SequenceName": "*fm2d2r", "SequenceVariant": "SP", "SeriesDescription": "field_mapping_2x2x2", "SeriesNumber": 9, "ShimSetting": [-5445, -11514, -1240, 285, -7, -231, -154, 83], "SliceThickness": 2, "SliceTiming": [0.35938, 0, 0.375, 0.01562, 0.375, 0.01562, 0.39062, 0.03125, 0.39062, 0.03125, 0.40625, 0.04688, 0.42188, 0.0625, 0.42188, 0.0625, 0.4375, 0.07812, 0.45312, 0.09375, 0.45312, 0.09375, 0.46875, 0.10938, 0.48438, 0.125, 0.48438, 0.125, 0.5, 0.14062, 0.51562, 0.14062, 0.51562, 0.15625, 0.53125, 0.17188, 0.53125, 0.17188, 0.54688, 0.1875, 0.5625, 0.20312, 0.5625, 0.20312, 0.57812, 0.21875, 0.59375, 0.23438, 0.59375, 0.23438, 0.60938, 0.25, 0.625, 0.26562, 0.625, 0.26562, 0.64062, 0.28125, 0.64062, 0.28125, 0.65625, 0.29688, 0.67188, 0.3125, 0.67188, 0.3125, 0.6875, 0.32812, 0.70312, 0.34375, 0.70312, 0.34375], "SoftwareVersions": "syngo MR E11", "SpacingBetweenSlices": 2, "StationName": "AWP166078", "TxRefAmp": 202.73, "dcmmeta_affine": [[-1.999754786491394, -3.893000158350368e-11, 0.031316280364990234, 98.41870880126953], [-0.0018027352634817362, 1.9966834783554077, -0.11511659622192383, -94.7787094116211], [0.031264327466487885, 0.1151309460401535, 1.9964370727539062, -59.1176643371582], [0.0, 0.0, 0.0, 1.0]], "dcmmeta_reorient_transform": [[0.0, -1.0, 0.0, 99.0], [1.0, 0.0, 0.0, 0.0], [0.0, 0.0, -1.0, 71.0], [0.0, 0.0, 0.0, 1.0]], "dcmmeta_shape": [100, 100, 72], "dcmmeta_slice_dim": 2, "dcmmeta_version": 0.6, "global": {"const": {"AcquisitionMatrix": [0, 100, 100, 0], "AcquisitionNumber": 1, "AngioFlag": "N", "BitsAllocated": 16, "BitsStored": 12, "BodyPartExamined": "BRAIN", "Columns": 100, "EchoNumbers": 2, "EchoTime": 7.38, "EchoTrainLength": 0, "FlipAngle": 60.0, "HighBit": 11, "ImageOrientationPatient": [0.99987740397368, 0.00090136765386, 0.01563216425189, -1.9465e-11, 0.99834173324512, -0.0575654728213], "ImageType": ["ORIGINAL", "PRIMARY", "P", "ND"], "ImagedNucleus": "1H", "ImagingFrequency": 123.257732, "InPlanePhaseEncodingDirection": "ROW", "MRAcquisitionType": "2D", "MagneticFieldStrength": 3.0, "Manufacturer": "SIEMENS", "ManufacturerModelName": "Prisma", "Modality": "MR", "NumberOfAverages": 1.0, "NumberOfPhaseEncodingSteps": 100, "PercentPhaseFieldOfView": 100.0, "PercentSampling": 100.0, "PerformedProcedureStepStartTime": "143130.298000", "PhotometricInterpretation": "MONOCHROME2", "PixelBandwidth": 570.0, "PixelRepresentation": 0, "PixelSpacing": [2.0, 2.0], "ProtocolName": "field_mapping_2x2x2", "RepetitionTime": 720.0, "RescaleIntercept": -4096.0, "RescaleSlope": 2.0, "RescaleType": "US", "Rows": 100, "SAR": 0.12003383153627, "SamplesPerPixel": 1, "ScanningSequence": "GR", "SequenceName": "*fm2d2r", "SequenceVariant": "SP", "SeriesDescription": "field_mapping_2x2x2", "SeriesNumber": 9, "SeriesTime": "153851.827000", "SliceThickness": 2.0, "SoftwareVersions": "syngo MR E11", "SpacingBetweenSlices": 2.0, "SpecificCharacterSet": "ISO_IR 100", "StudyID": "1", "StudyTime": "143130.205000", "TransmitCoilName": "Body", "VariableFlipAngleFlag": "N", "WindowCenterWidthExplanation": "Algo1", "dBdt": 0.0}, "slices": {"AcquisitionTime": ["153626.592500", "153626.232500", "153626.602500", "153626.242500", "153626.612500", "153626.252500", "153626.622500", "153626.262500", "153626.632500", "153626.272500", "153626.642500", "153626.282500", "153626.652500", "153626.292500", "153626.662500", "153626.302500", "153626.672500", "153626.312500", "153626.682500", "153626.322500", "153626.692500", "153626.332500", "153626.702500", "153626.342500", "153626.712500", "153626.352500", "153626.722500", "153626.362500", "153626.732500", "153626.372500", "153626.742500", "153626.382500", "153626.752500", "153626.392500", "153626.762500", "153626.402500", "153626.772500", "153626.412500", "153626.782500", "153626.422500", "153626.792500", "153626.432500", "153626.802500", "153626.442500", "153626.812500", "153626.452500", "153626.822500", "153626.462500", "153626.832500", "153626.472500", "153626.842500", "153626.482500", "153626.852500", "153626.492500", "153626.862500", "153626.502500", "153626.872500", "153626.512500", "153626.882500", "153626.522500", "153626.892500", "153626.532500", "153626.902500", "153626.542500", "153626.912500", "153626.552500", "153626.922500", "153626.562500", "153626.932500", "153626.572500", "153626.942500", "153626.582500"], "ContentTime": ["153851.897000", "153851.829000", "153851.899000", "153851.831000", "153851.901000", "153851.833000", "153851.902000", "153851.835000", "153851.904000", "153851.837000", "153851.906000", "153851.838000", "153851.908000", "153851.840000", "153851.910000", "153851.842000", "153851.912000", "153851.844000", "153851.914000", "153851.846000", "153851.916000", "153851.848000", "153851.918000", "153851.849000", "153851.920000", "153851.851000", "153851.922000", "153851.853000", "153851.924000", "153851.855000", "153851.926000", "153851.857000", "153851.928000", "153851.859000", "153851.930000", "153851.860000", "153851.932000", "153851.862000", "153851.933000", "153851.864000", "153851.935000", "153851.866000", "153851.937000", "153851.868000", "153851.939000", "153851.870000", "153851.941000", "153851.873000", "153851.943000", "153851.875000", "153851.945000", "153851.876000", "153851.946000", "153851.878000", "153851.948000", "153851.880000", "153851.950000", "153851.882000", "153851.952000", "153851.884000", "153851.954000", "153851.886000", "153851.956000", "153851.888000", "153851.957000", "153851.890000", "153851.959000", "153851.891000", "153851.961000", "153851.893000", "153851.963000", "153851.895000"], "CsaImage.GSWDDataType": ["measured", "predicted", "measured", "predicted", "measured", "predicted", "measured", "predicted", "measured", "predicted", "measured", "predicted", "measured", "predicted", "measured", "predicted", "measured", "predicted", "measured", "predicted", "measured", "predicted", "measured", "predicted", "measured", "predicted", "measured", "predicted", "measured", "predicted", "measured", "predicted", "measured", "predicted", "measured", "predicted", "measured", "predicted", "measured", "predicted", "measured", "predicted", "measured", "predicted", "measured", "predicted", "measured", "predicted", "measured", "predicted", "measured", "predicted", "measured", "predicted", "measured", "predicted", "measured", "predicted", "measured", "predicted", "measured", "predicted", "measured", "predicted", "measured", "measured", "measured", "measured", "measured", "measured", "measured", "measured"], "CsaImage.ICE_Dims": ["X_2_1_1_1_1_1_37_1_1_1_1_169", "X_2_1_1_1_1_1_1_1_1_2_1_169", "X_2_1_1_1_1_1_38_1_1_3_1_169", "X_2_1_1_1_1_1_2_1_1_4_1_169", "X_2_1_1_1_1_1_39_1_1_5_1_169", "X_2_1_1_1_1_1_3_1_1_6_1_169", "X_2_1_1_1_1_1_40_1_1_7_1_169", "X_2_1_1_1_1_1_4_1_1_8_1_169", "X_2_1_1_1_1_1_41_1_1_9_1_169", "X_2_1_1_1_1_1_5_1_1_10_1_169", "X_2_1_1_1_1_1_42_1_1_11_1_169", "X_2_1_1_1_1_1_6_1_1_12_1_169", "X_2_1_1_1_1_1_43_1_1_13_1_169", "X_2_1_1_1_1_1_7_1_1_14_1_169", "X_2_1_1_1_1_1_44_1_1_15_1_169", "X_2_1_1_1_1_1_8_1_1_16_1_169", "X_2_1_1_1_1_1_45_1_1_17_1_169", "X_2_1_1_1_1_1_9_1_1_18_1_169", "X_2_1_1_1_1_1_46_1_1_19_1_169", "X_2_1_1_1_1_1_10_1_1_20_1_169", "X_2_1_1_1_1_1_47_1_1_21_1_169", "X_2_1_1_1_1_1_11_1_1_22_1_169", "X_2_1_1_1_1_1_48_1_1_23_1_169", "X_2_1_1_1_1_1_12_1_1_24_1_169", "X_2_1_1_1_1_1_49_1_1_25_1_169", "X_2_1_1_1_1_1_13_1_1_26_1_169", "X_2_1_1_1_1_1_50_1_1_27_1_169", "X_2_1_1_1_1_1_14_1_1_28_1_169", "X_2_1_1_1_1_1_51_1_1_29_1_169", "X_2_1_1_1_1_1_15_1_1_30_1_169", "X_2_1_1_1_1_1_52_1_1_31_1_169", "X_2_1_1_1_1_1_16_1_1_32_1_169", "X_2_1_1_1_1_1_53_1_1_33_1_169", "X_2_1_1_1_1_1_17_1_1_34_1_169", "X_2_1_1_1_1_1_54_1_1_35_1_169", "X_2_1_1_1_1_1_18_1_1_36_1_169", "X_2_1_1_1_1_1_55_1_1_37_1_169", "X_2_1_1_1_1_1_19_1_1_38_1_169", "X_2_1_1_1_1_1_56_1_1_39_1_169", "X_2_1_1_1_1_1_20_1_1_40_1_169", "X_2_1_1_1_1_1_57_1_1_41_1_169", "X_2_1_1_1_1_1_21_1_1_42_1_169", "X_2_1_1_1_1_1_58_1_1_43_1_169", "X_2_1_1_1_1_1_22_1_1_44_1_169", "X_2_1_1_1_1_1_59_1_1_45_1_169", "X_2_1_1_1_1_1_23_1_1_46_1_169", "X_2_1_1_1_1_1_60_1_1_47_1_169", "X_2_1_1_1_1_1_24_1_1_48_1_169", "X_2_1_1_1_1_1_61_1_1_49_1_169", "X_2_1_1_1_1_1_25_1_1_50_1_169", "X_2_1_1_1_1_1_62_1_1_51_1_169", "X_2_1_1_1_1_1_26_1_1_52_1_169", "X_2_1_1_1_1_1_63_1_1_53_1_169", "X_2_1_1_1_1_1_27_1_1_54_1_169", "X_2_1_1_1_1_1_64_1_1_55_1_169", "X_2_1_1_1_1_1_28_1_1_56_1_169", "X_2_1_1_1_1_1_65_1_1_57_1_169", "X_2_1_1_1_1_1_29_1_1_58_1_169", "X_2_1_1_1_1_1_66_1_1_59_1_169", "X_2_1_1_1_1_1_30_1_1_60_1_169", "X_2_1_1_1_1_1_67_1_1_61_1_169", "X_2_1_1_1_1_1_31_1_1_62_1_169", "X_2_1_1_1_1_1_68_1_1_63_1_169", "X_2_1_1_1_1_1_32_1_1_64_1_169", "X_2_1_1_1_1_1_69_1_1_65_1_169", "X_2_1_1_1_1_1_33_1_1_66_1_169", "X_2_1_1_1_1_1_70_1_1_67_1_169", "X_2_1_1_1_1_1_34_1_1_68_1_169", "X_2_1_1_1_1_1_71_1_1_69_1_169", "X_2_1_1_1_1_1_35_1_1_70_1_169", "X_2_1_1_1_1_1_72_1_1_71_1_169", "X_2_1_1_1_1_1_36_1_1_72_1_169"], "CsaImage.ProtocolSliceNumber": [0, 1, 2, 3, 4, 5, 6, 7, 8, 9, 10, 11, 12, 13, 14, 15, 16, 17, 18, 19, 20, 21, 22, 23, 24, 25, 26, 27, 28, 29, 30, 31, 32, 33, 34, 35, 36, 37, 38, 39, 40, 41, 42, 43, 44, 45, 46, 47, 48, 49, 50, 51, 52, 53, 54, 55, 56, 57, 58, 59, 60, 61, 62, 63, 64, 65, 66, 67, 68, 69, 70, 71], "CsaImage.RFSWDDataType": ["measured", "predicted", "measured", "predicted", "measured", "predicted", "measured", "predicted", "measured", "predicted", "measured", "predicted", "measured", "predicted", "measured", "predicted", "measured", "predicted", "measured", "predicted", "measured", "predicted", "measured", "predicted", "measured", "predicted", "measured", "predicted", "measured", "predicted", "measured", "predicted", "measured", "predicted", "measured", "predicted", "measured", "predicted", "measured", "predicted", "measured", "predicted", "measured", "predicted", "measured", "predicted", "measured", "predicted", "measured", "predicted", "measured", "predicted", "measured", "predicted", "measured", "predicted", "measured", "predicted", "measured", "predicted", "measured", "predicted", "measured", "measured", "measured", "measured", "measured", "measured", "measured", "measured", "measured", "measured"], "CsaImage.SlicePosition_PCS": [[-98.41871285, -102.8929714, -47.71981612], [-98.45002913, -102.77785456, -45.72337904], [-98.48134541, -102.66273773, -43.72693816], [-98.51266169, -102.54762089, -41.73050108], [-98.54397785, -102.43250406, -39.73406401], [-98.57529413, -102.31738722, -37.73762312], [-98.60661042, -102.20227039, -35.74118605], [-98.6379267, -102.08715356, -33.74474516], [-98.66924298, -101.97203672, -31.74830809], [-98.70055926, -101.85691989, -29.7518672], [-98.73187542, -101.74180305, -27.75543013], [-98.7631917, -101.62668622, -25.75899115], [-98.79450798, -101.51156938, -23.76255217], [-98.82582426, -101.39645267, -21.76611319], [-98.85714054, -101.28133583, -19.76967612], [-98.88845682, -101.166219, -17.77323714], [-98.91977298, -101.05110216, -15.77679816], [-98.95108926, -100.93598533, -13.78035918], [-98.98240554, -100.82086843, -11.7839202], [-99.01372182, -100.7057516, -9.78748217], [-99.04503804, -100.59063476, -7.79104319], [-99.07635432, -100.47551793, -5.79460421], [-99.1076706, -100.36040113, -3.79816571], [-99.13898682, -100.24528429, -1.8017272], [-99.1703031, -100.13016746, 0.19471154], [-99.20161938, -100.01505063, 2.19115004], [-99.23293561, -99.8999338, 4.18758884], [-99.26425189, -99.78481697, 6.18402753], [-99.29556817, -99.66970015, 8.18046627], [-99.32688439, -99.55458331, 10.17690477], [-99.35820067, -99.43946648, 12.17334375], [-99.38951695, -99.32434964, 14.16978178], [-99.42083317, -99.20923281, 16.16622076], [-99.45214945, -99.09411597, 18.16265974], [-99.48346573, -98.97899914, 20.15909872], [-99.51478198, -98.8638823, 22.15553674], [-99.54609823, -98.74876547, 24.15197572], [-99.57741448, -98.63364864, 26.1484147], [-99.60873076, -98.5185318, 28.14485368], [-99.64004701, -98.40341497, 30.14129076], [-99.67136326, -98.28829813, 32.13772974], [-99.70267951, -98.1731813, 34.13416872], [-99.73399579, -98.05806446, 36.1306077], [-99.76531204, -97.94294763, 38.12704668], [-99.79662831, -97.82783091, 40.12348375], [-99.82794457, -97.71271408, 42.11992464], [-99.85926083, -97.59759724, 44.11636171], [-99.89057709, -97.48248041, 46.1128026], [-99.92189335, -97.36736357, 48.10923967], [-99.95320961, -97.25224674, 50.10567674], [-99.98452587, -97.1371299, 52.10211763], [-100.01584213, -97.02201307, 54.0985547], [-100.04715839, -96.90689624, 56.09499559], [-100.07847465, -96.7917794, 58.09143266], [-100.1097909, -96.67666257, 60.08787355], [-100.14110717, -96.56154573, 62.08431062], [-100.17242344, -96.4464289, 64.0807477], [-100.20373969, -96.33131206, 66.07718858], [-100.23505595, -96.21619523, 68.07362566], [-100.2663722, -96.10107839, 70.07006273], [-100.29768848, -95.98596156, 72.06650743], [-100.32900473, -95.87084472, 74.0629445], [-100.36032098, -95.75572765, 76.05938158], [-100.39163723, -95.64061105, 78.05581865], [-100.42295351, -95.52549398, 80.05225572], [-100.45426976, -95.41037738, 82.04870042], [-100.48558602, -95.29526031, 84.0451375], [-100.51690227, -95.18014372, 86.04157457], [-100.54821855, -95.06502664, 88.03801164], [-100.57953483, -94.94991005, 90.03444872], [-100.61085105, -94.83479297, 92.03089342], [-100.64216733, -94.71967638, 94.02733049]], "CsaImage.TimeAfterStart": [1.0825, 0.7225, 1.0925, 0.7325, 1.1025, 0.7425, 1.1125, 0.7525, 1.1225, 0.7625, 1.1325, 0.7725, 1.1425, 0.7825, 1.1525, 0.7925, 1.1625, 0.8025, 1.1725, 0.8125, 1.1825, 0.8225, 1.1925, 0.8325, 1.2025, 0.8425, 1.2125, 0.8525, 1.2225, 0.8625, 1.2325, 0.8725, 1.2425, 0.8825, 1.2525, 0.8925, 1.2625, 0.9025, 1.2725, 0.9125, 1.2825, 0.9225, 1.2925, 0.9325, 1.3025, 0.9425, 1.3125, 0.9525, 1.3225, 0.9625, 1.3325, 0.9725, 1.3425, 0.9825, 1.3525, 0.9925, 1.3625, 1.0025, 1.3725, 1.0125, 1.3825, 1.0225, 1.3925, 1.0325, 1.4025, 1.0425, 1.4125, 1.0525, 1.4225, 1.0625, 1.4325, 1.0725], "ImagePositionPatient": [[-98.418712852354, -102.89297139819, -47.71981611572], [-98.450029132719, -102.77785456355, -45.723379042966], [-98.481345413084, -102.66273772891, -43.726938155515], [-98.512661693449, -102.54762089426, -41.730501082761], [-98.543977854604, -102.43250405962, -39.734064010007], [-98.575294134969, -102.31738722498, -37.737623122556], [-98.606610415334, -102.20227039034, -35.741186049802], [-98.637926695699, -102.0871535557, -33.744745162351], [-98.669242976064, -101.97203672106, -31.748308089597], [-98.700559256429, -101.85691988642, -29.751867202146], [-98.731875417585, -101.74180305178, -27.755430129392], [-98.76319169795, -101.62668621714, -25.75899114929], [-98.794507978315, -101.5115693825, -23.762552169187], [-98.82582425868, -101.39645266707, -21.766113189085], [-98.857140539045, -101.28133583243, -19.769676116331], [-98.88845681941, -101.16621899779, -17.773237136228], [-98.919772980566, -101.05110216315, -15.776798156126], [-98.951089260931, -100.93598532851, -13.780359176023], [-98.982405541296, -100.82086843426, -11.78392019592], [-99.013721821661, -100.70575159962, -9.7874821694922], [-99.045038042421, -100.59063476498, -7.7910431893897], [-99.076354322786, -100.47551793034, -5.7946042092871], [-99.107670603151, -100.3604011255, -3.7981657060218], [-99.138986823911, -100.24528429086, -1.8017272027564], [-99.170303104276, -100.13016745622, 0.19471153892758], [-99.201619384641, -100.01505062903, 2.191150042193], [-99.232935605402, -99.899933798116, 4.1875888406876], [-99.264251885766, -99.784816967201, 6.1840275255609], [-99.295568166131, -99.669700147461, 8.1804662672448], [-99.326884386892, -99.554583312821, 10.17690477051], [-99.358200667257, -99.43946647818, 12.173343750613], [-99.389516947622, -99.32434964354, 14.169781777041], [-99.420833168382, -99.209232808899, 16.166220757144], [-99.452149448747, -99.094115974259, 18.162659737246], [-99.483465729112, -98.978999139618, 20.159098717349], [-99.514781979675, -98.863882304978, 22.155536743777], [-99.546098230237, -98.748765470337, 24.151975723879], [-99.5774144808, -98.633648635697, 26.148414703982], [-99.608730761165, -98.518531801056, 28.144853684084], [-99.640047011728, -98.403414966416, 30.141290756838], [-99.67136326229, -98.288298131775, 32.137729736941], [-99.702679512853, -98.173181297135, 34.134168717043], [-99.733995793218, -98.058064462494, 36.130607697146], [-99.765312043781, -97.942947627854, 38.127046677249], [-99.796628309245, -97.827830912423, 40.123483750002], [-99.827944574708, -97.712714077782, 42.119924637454], [-99.859260825271, -97.597597243142, 44.116361710207], [-99.890577090735, -97.482480408501, 46.112802597659], [-99.921893348748, -97.367363573861, 48.109239670413], [-99.953209606761, -97.25224673922, 50.105676743166], [-99.984525867569, -97.13712990458, 52.102117630618], [-100.01584212838, -97.022013069939, 54.098554703372], [-100.04715838825, -96.906896235299, 56.094995590823], [-100.07847464627, -96.791779400658, 58.091432663577], [-100.10979090428, -96.676662566018, 60.087873551028], [-100.14110716974, -96.561545731377, 62.084310623782], [-100.17242343521, -96.446428896737, 64.080747696536], [-100.20373968577, -96.331312062096, 66.077188583987], [-100.23505595123, -96.216195227456, 68.073625656741], [-100.2663722018, -96.101078392815, 70.070062729495], [-100.29768848216, -95.985961558175, 72.066507431643], [-100.32900473272, -95.870844723534, 74.062944504397], [-100.36032098329, -95.755727650475, 76.059381577151], [-100.39163723385, -95.640611054253, 78.055818649905], [-100.42295351421, -95.525493981194, 80.052255722659], [-100.45426976478, -95.410377384972, 82.048700424807], [-100.48558601534, -95.295260311913, 84.045137497561], [-100.5169022659, -95.180143715691, 86.041574570315], [-100.54821854627, -95.065026642632, 88.038011643069], [-100.57953482663, -94.94991004641, 90.034448715823], [-100.61085104739, -94.834792973351, 92.030893417971], [-100.64216732776, -94.719676377129, 94.027330490725]], "InstanceCreationTime": ["153851.897000", "153851.829000", "153851.899000", "153851.831000", "153851.901000", "153851.833000", "153851.902000", "153851.835000", "153851.904000", "153851.837000", "153851.906000", "153851.838000", "153851.908000", "153851.840000", "153851.910000", "153851.842000", "153851.912000", "153851.844000", "153851.914000", "153851.846000", "153851.916000", "153851.848000", "153851.918000", "153851.849000", "153851.920000", "153851.851000", "153851.922000", "153851.853000", "153851.924000", "153851.855000", "153851.926000", "153851.857000", "153851.928000", "153851.859000", "153851.930000", "153851.860000", "153851.932000", "153851.862000", "153851.933000", "153851.864000", "153851.935000", "153851.866000", "153851.937000", "153851.868000", "153851.939000", "153851.870000", "153851.941000", "153851.873000", "153851.943000", "153851.875000", "153851.945000", "153851.876000", "153851.946000", "153851.878000", "153851.948000", "153851.880000", "153851.950000", "153851.882000", "153851.952000", "153851.884000", "153851.954000", "153851.886000", "153851.956000", "153851.888000", "153851.957000", "153851.890000", "153851.959000", "153851.891000", "153851.961000", "153851.893000", "153851.963000", "153851.895000"], "InstanceNumber": [1, 2, 3, 4, 5, 6, 7, 8, 9, 10, 11, 12, 13, 14, 15, 16, 17, 18, 19, 20, 21, 22, 23, 24, 25, 26, 27, 28, 29, 30, 31, 32, 33, 34, 35, 36, 37, 38, 39, 40, 41, 42, 43, 44, 45, 46, 47, 48, 49, 50, 51, 52, 53, 54, 55, 56, 57, 58, 59, 60, 61, 62, 63, 64, 65, 66, 67, 68, 69, 70, 71, 72], "LargestImagePixelValue": [4095, 4093, 4092, 4094, 4094, 4095, 4095, 4095, 4095, 4094, 4095, 4095, 4094, 4094, 4095, 4095, 4095, 4094, 4093, 4093, 4094, 4095, 4093, 4095, 4094, 4095, 4095, 4095, 4087, 4095, 4086, 4095, 4093, 4094, 4093, 4093, 4094, 4094, 4092, 4094, 4094, 4087, 4094, 4093, 4093, 4091, 4094, 4094, 4084, 4090, 4094, 4092, 4095, 4093, 4092, 4094, 4094, 4095, 4094, 4094, 4094, 4094, 4095, 4095, 4094, 4095, 4094, 4095, 4095, 4095, 4095, 4095], "SliceLocation": [-52.016146812899, -50.016148417775, -48.016146214746, -46.016147819622, -44.016149426364, -42.016147223335, -40.016148828211, -38.016146625182, -36.016148230058, -34.016146027029, -32.016147633771, -30.016147334695, -28.016147035618, -26.016146743403, -24.016148348279, -22.016148049202, -20.016147751992, -18.016147452915, -16.016147150408, -14.016147803308, -12.016147505164, -10.016147206088, -8.0161473847147, -6.0161475625595, -4.0161475014769, -2.0161476788172, -0.0161475621729, 1.9838524419857, 3.9838525022106, 5.9838523243658, 7.9838526234423, 9.9838519705428, 11.983852268686, 13.983852567763, 15.983852866839, 17.983852213473, 19.983852512083, 21.983852810693, 23.983853109769, 25.983851504427, 27.983851803037, 29.983852101647, 31.983852400724, 33.983852699333, 35.983851087363, 37.983853290158, 39.983851684816, 41.983853887612, 43.983852282386, 45.98385067716, 47.983852879883, 49.983851274701, 51.983853477409, 53.983851872183, 55.983854074862, 57.983852469753, 59.983850864644, 61.983853067206, 63.983851462097, 65.983849856755, 67.983855867688, 69.983854262346, 71.983852670727, 73.983851051661, 75.983849460509, 77.983855457252, 79.983853865633, 81.983852246568, 83.983850655415, 85.983849036816, 87.983855060539, 89.983853441941], "SmallestImagePixelValue": [0, 0, 0, 0, 0, 1, 2, 0, 0, 2, 0, 0, 0, 0, 0, 0, 2, 0, 0, 0, 0, 0, 0, 0, 3, 0, 0, 0, 0, 1, 0, 0, 2, 0, 0, 1, 0, 5, 0, 0, 1, 0, 0, 0, 3, 0, 2, 0, 2, 2, 0, 0, 0, 0, 0, 0, 2, 0, 2, 1, 0, 0, 0, 0, 0, 0, 0, 0, 0, 0, 0, 0], "WindowCenter": [-310.0, -220.0, -286.0, -256.0, -284.0, -244.0, -204.0, -202.0, -172.0, -158.0, -136.0, -130.0, -126.0, -106.0, -100.0, -152.0, -196.0, -258.0, -262.0, -274.0, -236.0, -236.0, -216.0, -222.0, -254.0, -246.0, -170.0, -208.0, -172.0, -190.0, -186.0, -194.0, -206.0, -208.0, -160.0, -146.0, -154.0, -168.0, -254.0, -246.0, -236.0, -218.0, -218.0, -204.0, -202.0, -206.0, -214.0, -214.0, -246.0, -252.0, -254.0, -210.0, -130.0, -98.0, -92.0, -70.0, -72.0, -106.0, -70.0, -92.0, -70.0, -88.0, -106.0, -156.0, -196.0, -244.0, -292.0, -266.0, -332.0, -344.0, -364.0, -364.0], "WindowWidth": [6450.0, 6408.0, 6492.0, 6418.0, 6380.0, 6330.0, 6348.0, 6396.0, 6424.0, 6368.0, 6356.0, 6312.0, 6346.0, 6346.0, 6366.0, 6290.0, 6148.0, 6078.0, 6014.0, 5896.0, 5834.0, 5738.0, 5672.0, 5622.0, 5554.0, 5634.0, 5786.0, 5678.0, 5648.0, 5634.0, 5612.0, 5554.0, 5410.0, 5358.0, 5354.0, 5376.0, 5172.0, 5018.0, 4618.0, 4612.0, 4598.0, 4578.0, 4586.0, 4574.0, 4578.0, 4584.0, 4592.0, 4598.0, 4620.0, 4632.0, 4648.0, 4650.0, 5218.0, 5144.0, 5214.0, 5362.0, 5450.0, 5332.0, 5582.0, 5654.0, 5818.0, 5844.0, 5926.0, 5940.0, 6058.0, 6088.0, 6140.0, 6220.0, 6230.0, 6328.0, 6336.0, 6294.0]}}, "IntendedFor": ["ses-imagenet01/func/sub-29_ses-imagenet01_task-imagenet_run-10_bold.nii.gz", "ses-imagenet01/func/sub-29_ses-imagenet01_task-imagenet_run-02_bold.nii.gz", "ses-imagenet01/func/sub-29_ses-imagenet01_task-imagenet_run-04_bold.nii.gz", "ses-imagenet01/func/sub-29_ses-imagenet01_task-imagenet_run-09_bold.nii.gz", "ses-imagenet01/func/sub-29_ses-imagenet01_task-imagenet_run-06_bold.nii.gz", "ses-imagenet01/func/sub-29_ses-imagenet01_task-imagenet_run-05_bold.nii.gz", "ses-imagenet01/func/sub-29_ses-imagenet01_task-imagenet_run-07_bold.nii.gz", "ses-imagenet01/func/sub-29_ses-imagenet01_task-imagenet_run-08_bold.nii.gz", "ses-imagenet01/func/sub-29_ses-imagenet01_task-imagenet_run-01_bold.nii.gz", "ses-imagenet01/func/sub-29_ses-imagenet01_task-imagenet_run-03_bold.nii.gz"]}