{
 "AcquisitionMatrixPE": 100,
 "AcquisitionNumber": 1,
 "AcquisitionTime": "11:27:47.545000",
 "BandwidthPerPixelPhaseEncode": 18.519,
 "BaseResolution": 100,
 "BodyPartExamined": "BRAIN",
 "ConsistencyInfo": "N4_VE11C_LATEST_20160120",
 "ConversionSoftware": "dcm2niix",
 "ConversionSoftwareVersion": "v1.0.20180622 GCC4.9.2",
 "DerivedVendorReportedEchoSpacing": 0.000539986,
 "DeviceSerialNumber": "166078",
 "DwellTime": 2.1e-06,
 "EchoTime": 0.034,
 "EchoTrainLength": 100,
 "EffectiveEchoSpacing": 0.000539986,
 "FlipAngle": 90,
 "ImageOrientationPatientDICOM": [
  1,
  0,
  0,
  0,
  0.964557,
  -0.263873
 ],
 "ImageType": [
  "ORIGINAL",
  "PRIMARY",
  "M",
  "ND",
  "MOSAIC"
 ],
 "InPlanePhaseEncodingDirectionDICOM": "COL",
 "InstitutionAddress": "Street_StreetNo_Bei_Jing_District_CN_ZIP",
 "InstitutionName": "BeiJing_Normal_University",
 "InstitutionalDepartmentName": "Department",
 "MRAcquisitionType": "2D",
 "MagneticFieldStrength": 3,
 "Manufacturer": "Siemens",
 "ManufacturersModelName": "Prisma",
 "Modality": "MR",
 "MultibandAccelerationFactor": 3,
 "PartialFourier": 1,
 "PatientPosition": "HFS",
 "PercentPhaseFOV": 100,
 "PhaseEncodingDirection": "j-",
 "PhaseEncodingSteps": 100,
 "PhaseResolution": 1,
 "PixelBandwidth": 2380,
 "ProcedureStepDescription": "BNU_P2018_64CH_Zhen.ZongLei",
 "ProtocolName": "bold_100x100_s3_2x2x2_static_256",
 "PulseSequenceDetails": "%SiemensSeq%_ep2d_bold",
 "ReceiveCoilActiveElements": "HC1-7;NC1",
 "ReceiveCoilName": "HeadNeck_64",
 "ReconMatrixPE": 100,
 "RepetitionTime": 2,
 "SAR": 0.0869097,
 "ScanOptions": "FS",
 "ScanningSequence": "EP",
 "SequenceName": "_epfid2d1_100",
 "SequenceVariant": "SK",
 "SeriesDescription": "bold_100x100_s3_2x2x2_static_256",
 "SeriesNumber": 5,
 "ShimSetting": [
  -5458,
  -11476,
  -1285,
  418,
  -8,
  -101,
  -131,
  76
 ],
 "SliceThickness": 2,
 "SliceTiming": [
  1.485,
  0,
  0.99,
  0.0825,
  1.0725,
  0.165,
  1.155,
  0.2475,
  1.2375,
  0.33,
  1.32,
  0.4125,
  1.4025,
  0.5775,
  1.5675,
  0.66,
  1.65,
  0.7425,
  1.7325,
  0.825,
  1.815,
  0.9075,
  1.8975,
  0.495,
  1.485,
  0,
  0.99,
  0.0825,
  1.0725,
  0.165,
  1.155,
  0.2475,
  1.2375,
  0.33,
  1.32,
  0.4125,
  1.4025,
  0.5775,
  1.5675,
  0.66,
  1.65,
  0.7425,
  1.7325,
  0.825,
  1.815,
  0.9075,
  1.8975,
  0.495,
  1.485,
  0,
  0.99,
  0.0825,
  1.0725,
  0.165,
  1.155,
  0.2475,
  1.2375,
  0.33,
  1.32,
  0.4125,
  1.4025,
  0.5775,
  1.5675,
  0.66,
  1.65,
  0.7425,
  1.7325,
  0.825,
  1.815,
  0.9075,
  1.8975,
  0.495
 ],
 "SoftwareVersions": "syngo_MR_E11",
 "SpacingBetweenSlices": 2,
 "StationName": "AWP166078",
 "TaskName": "imagenet",
 "TotalReadoutTime": 0.0534586,
 "TxRefAmp": 233.897,
 "dcmmeta_affine": [
  [
   -2.0,
   0.0,
   0.0,
   100.0
  ],
  [
   0.0,
   1.929114818572998,
   -0.5277460813522339,
   -75.0446548461914
  ],
  [
   0.0,
   0.5277460813522339,
   1.929114818572998,
   -104.2130126953125
  ],
  [
   0.0,
   0.0,
   0.0,
   1.0
  ]
 ],
 "dcmmeta_reorient_transform": [
  [
   0.0,
   -1.0,
   0.0,
   99.0
  ],
  [
   1.0,
   0.0,
   0.0,
   0.0
  ],
  [
   0.0,
   0.0,
   1.0,
   0.0
  ],
  [
   0.0,
   0.0,
   0.0,
   1.0
  ]
 ],
 "dcmmeta_shape": [
  100,
  100,
  72,
  256
 ],
 "dcmmeta_slice_dim": 2,
 "dcmmeta_version": 0.6,
 "global": {
  "const": {
   "AcquisitionMatrix": [
    100,
    0,
    0,
    100
   ],
   "AngioFlag": "N",
   "BitsAllocated": 16,
   "BitsStored": 12,
   "BodyPartExamined": "BRAIN",
   "Columns": 900,
   "EchoNumbers": 1,
   "EchoTime": 34.0,
   "EchoTrainLength": 100,
   "FlipAngle": 90.0,
   "HighBit": 11,
   "ImageOrientationPatient": [
    1.0,
    0.0,
    0.0,
    0.0,
    0.96455741917473,
    -0.2638730473447
   ],
   "ImagePositionPatient": [
    -900.0,
    -887.58365090533,
    159.1322880204
   ],
   "ImageType": [
    "ORIGINAL",
    "PRIMARY",
    "M",
    "ND",
    "MOSAIC"
   ],
   "ImagedNucleus": "1H",
   "ImagingFrequency": 123.257782,
   "InPlanePhaseEncodingDirection": "COL",
   "MRAcquisitionType": "2D",
   "MagneticFieldStrength": 3.0,
   "Manufacturer": "SIEMENS",
   "ManufacturerModelName": "Prisma",
   "Modality": "MR",
   "NumberOfAverages": 1.0,
   "NumberOfPhaseEncodingSteps": 100,
   "PercentPhaseFieldOfView": 100.0,
   "PercentSampling": 100.0,
   "PerformedProcedureStepStartTime": "110550.613000",
   "PhotometricInterpretation": "MONOCHROME2",
   "PixelBandwidth": 2380.0,
   "PixelRepresentation": 0,
   "PixelSpacing": [
    2.0,
    2.0
   ],
   "ProtocolName": "bold_100x100_s3_2x2x2_static_256",
   "RepetitionTime": 2000.0,
   "Rows": 900,
   "SAR": 0.08690972422199,
   "SamplesPerPixel": 1,
   "ScanOptions": "FS",
   "ScanningSequence": "EP",
   "SequenceName": "*epfid2d1_100",
   "SequenceVariant": "SK",
   "SeriesDescription": "bold_100x100_s3_2x2x2_static_256",
   "SeriesNumber": 5,
   "SeriesTime": "112749.362000",
   "SliceLocation": -80.71717369741,
   "SliceThickness": 2.0,
   "SmallestImagePixelValue": 0,
   "SoftwareVersions": "syngo MR E11",
   "SpacingBetweenSlices": 1.9999999740285,
   "SpecificCharacterSet": "ISO_IR 100",
   "StudyID": "1",
   "StudyTime": "110550.541000",
   "TransmitCoilName": "Body",
   "VariableFlipAngleFlag": "N",
   "WindowCenterWidthExplanation": "Algo1",
   "dBdt": 0.0
  },
  "slices": {}
 },
 "time": {
  "samples": {
   "AcquisitionNumber": [
    1,
    2,
    3,
    4,
    5,
    6,
    7,
    8,
    9,
    10,
    11,
    12,
    13,
    14,
    15,
    16,
    17,
    18,
    19,
    20,
    21,
    22,
    23,
    24,
    25,
    26,
    27,
    28,
    29,
    30,
    31,
    32,
    33,
    34,
    35,
    36,
    37,
    38,
    39,
    40,
    41,
    42,
    43,
    44,
    45,
    46,
    47,
    48,
    49,
    50,
    51,
    52,
    53,
    54,
    55,
    56,
    57,
    58,
    59,
    60,
    61,
    62,
    63,
    64,
    65,
    66,
    67,
    68,
    69,
    70,
    71,
    72,
    73,
    74,
    75,
    76,
    77,
    78,
    79,
    80,
    81,
    82,
    83,
    84,
    85,
    86,
    87,
    88,
    89,
    90,
    91,
    92,
    93,
    94,
    95,
    96,
    97,
    98,
    99,
    100,
    101,
    102,
    103,
    104,
    105,
    106,
    107,
    108,
    109,
    110,
    111,
    112,
    113,
    114,
    115,
    116,
    117,
    118,
    119,
    120,
    121,
    122,
    123,
    124,
    125,
    126,
    127,
    128,
    129,
    130,
    131,
    132,
    133,
    134,
    135,
    136,
    137,
    138,
    139,
    140,
    141,
    142,
    143,
    144,
    145,
    146,
    147,
    148,
    149,
    150,
    151,
    152,
    153,
    154,
    155,
    156,
    157,
    158,
    159,
    160,
    161,
    162,
    163,
    164,
    165,
    166,
    167,
    168,
    169,
    170,
    171,
    172,
    173,
    174,
    175,
    176,
    177,
    178,
    179,
    180,
    181,
    182,
    183,
    184,
    185,
    186,
    187,
    188,
    189,
    190,
    191,
    192,
    193,
    194,
    195,
    196,
    197,
    198,
    199,
    200,
    201,
    202,
    203,
    204,
    205,
    206,
    207,
    208,
    209,
    210,
    211,
    212,
    213,
    214,
    215,
    216,
    217,
    218,
    219,
    220,
    221,
    222,
    223,
    224,
    225,
    226,
    227,
    228,
    229,
    230,
    231,
    232,
    233,
    234,
    235,
    236,
    237,
    238,
    239,
    240,
    241,
    242,
    243,
    244,
    245,
    246,
    247,
    248,
    249,
    250,
    251,
    252,
    253,
    254,
    255,
    256
   ],
   "AcquisitionTime": [
    "112747.545000",
    "112749.545000",
    "112751.545000",
    "112753.545000",
    "112755.545000",
    "112757.545000",
    "112759.545000",
    "112801.545000",
    "112803.545000",
    "112805.545000",
    "112807.545000",
    "112809.545000",
    "112811.545000",
    "112813.545000",
    "112815.545000",
    "112817.545000",
    "112819.545000",
    "112821.545000",
    "112823.545000",
    "112825.545000",
    "112827.545000",
    "112829.545000",
    "112831.545000",
    "112833.545000",
    "112835.545000",
    "112837.545000",
    "112839.545000",
    "112841.545000",
    "112843.545000",
    "112845.545000",
    "112847.545000",
    "112849.545000",
    "112851.545000",
    "112853.545000",
    "112855.545000",
    "112857.545000",
    "112859.545000",
    "112901.545000",
    "112903.545000",
    "112905.545000",
    "112907.545000",
    "112909.545000",
    "112911.545000",
    "112913.545000",
    "112915.545000",
    "112917.545000",
    "112919.545000",
    "112921.545000",
    "112923.545000",
    "112925.545000",
    "112927.545000",
    "112929.545000",
    "112931.545000",
    "112933.545000",
    "112935.545000",
    "112937.545000",
    "112939.545000",
    "112941.545000",
    "112943.545000",
    "112945.545000",
    "112947.545000",
    "112949.545000",
    "112951.545000",
    "112953.545000",
    "112955.545000",
    "112957.545000",
    "112959.545000",
    "113001.545000",
    "113003.545000",
    "113005.545000",
    "113007.545000",
    "113009.545000",
    "113011.545000",
    "113013.545000",
    "113015.545000",
    "113017.545000",
    "113019.545000",
    "113021.545000",
    "113023.545000",
    "113025.545000",
    "113027.545000",
    "113029.545000",
    "113031.545000",
    "113033.545000",
    "113035.545000",
    "113037.545000",
    "113039.545000",
    "113041.545000",
    "113043.545000",
    "113045.545000",
    "113047.545000",
    "113049.545000",
    "113051.545000",
    "113053.545000",
    "113055.545000",
    "113057.545000",
    "113059.545000",
    "113101.545000",
    "113103.545000",
    "113105.545000",
    "113107.545000",
    "113109.545000",
    "113111.545000",
    "113113.545000",
    "113115.545000",
    "113117.545000",
    "113119.545000",
    "113121.545000",
    "113123.545000",
    "113125.545000",
    "113127.545000",
    "113129.545000",
    "113131.545000",
    "113133.545000",
    "113135.545000",
    "113137.545000",
    "113139.545000",
    "113141.545000",
    "113143.545000",
    "113145.545000",
    "113147.545000",
    "113149.545000",
    "113151.545000",
    "113153.545000",
    "113155.545000",
    "113157.545000",
    "113159.545000",
    "113201.545000",
    "113203.545000",
    "113205.545000",
    "113207.545000",
    "113209.545000",
    "113211.545000",
    "113213.545000",
    "113215.545000",
    "113217.545000",
    "113219.545000",
    "113221.545000",
    "113223.545000",
    "113225.545000",
    "113227.545000",
    "113229.545000",
    "113231.545000",
    "113233.545000",
    "113235.545000",
    "113237.545000",
    "113239.545000",
    "113241.545000",
    "113243.545000",
    "113245.545000",
    "113247.545000",
    "113249.545000",
    "113251.545000",
    "113253.545000",
    "113255.545000",
    "113257.545000",
    "113259.545000",
    "113301.545000",
    "113303.545000",
    "113305.545000",
    "113307.545000",
    "113309.545000",
    "113311.545000",
    "113313.545000",
    "113315.545000",
    "113317.545000",
    "113319.545000",
    "113321.545000",
    "113323.545000",
    "113325.545000",
    "113327.545000",
    "113329.545000",
    "113331.545000",
    "113333.545000",
    "113335.545000",
    "113337.545000",
    "113339.545000",
    "113341.545000",
    "113343.545000",
    "113345.545000",
    "113347.545000",
    "113349.545000",
    "113351.545000",
    "113353.545000",
    "113355.545000",
    "113357.545000",
    "113359.545000",
    "113401.545000",
    "113403.545000",
    "113405.545000",
    "113407.545000",
    "113409.545000",
    "113411.545000",
    "113413.545000",
    "113415.545000",
    "113417.545000",
    "113419.545000",
    "113421.545000",
    "113423.545000",
    "113425.545000",
    "113427.545000",
    "113429.545000",
    "113431.545000",
    "113433.545000",
    "113435.545000",
    "113437.545000",
    "113439.545000",
    "113441.545000",
    "113443.545000",
    "113445.545000",
    "113447.545000",
    "113449.545000",
    "113451.545000",
    "113453.545000",
    "113455.545000",
    "113457.545000",
    "113459.545000",
    "113501.545000",
    "113503.545000",
    "113505.545000",
    "113507.545000",
    "113509.545000",
    "113511.545000",
    "113513.545000",
    "113515.545000",
    "113517.545000",
    "113519.545000",
    "113521.545000",
    "113523.545000",
    "113525.545000",
    "113527.545000",
    "113529.545000",
    "113531.545000",
    "113533.545000",
    "113535.545000",
    "113537.545000",
    "113539.545000",
    "113541.545000",
    "113543.545000",
    "113545.545000",
    "113547.545000",
    "113549.545000",
    "113551.545000",
    "113553.545000",
    "113555.545000",
    "113557.545000",
    "113559.545000",
    "113601.545000",
    "113603.545000",
    "113605.545000",
    "113607.545000",
    "113609.545000",
    "113611.545000",
    "113613.545000",
    "113615.545000",
    "113617.545000"
   ],
   "ContentTime": [
    "112749.366000",
    "112750.862000",
    "112753.363000",
    "112755.362000",
    "112756.862000",
    "112759.362000",
    "112801.363000",
    "112803.362000",
    "112805.362000",
    "112807.362000",
    "112808.861000",
    "112811.363000",
    "112813.362000",
    "112815.363000",
    "112817.362000",
    "112818.863000",
    "112820.862000",
    "112822.862000",
    "112825.361000",
    "112827.362000",
    "112829.363000",
    "112830.862000",
    "112832.862000",
    "112834.863000",
    "112837.363000",
    "112839.362000",
    "112841.362000",
    "112843.362000",
    "112845.363000",
    "112847.363000",
    "112849.363000",
    "112851.362000",
    "112853.363000",
    "112855.362000",
    "112857.362000",
    "112859.362000",
    "112901.362000",
    "112903.362000",
    "112905.363000",
    "112907.363000",
    "112909.362000",
    "112911.363000",
    "112913.362000",
    "112915.361000",
    "112917.362000",
    "112919.362000",
    "112921.363000",
    "112922.862000",
    "112925.363000",
    "112927.363000",
    "112929.363000",
    "112930.862000",
    "112933.361000",
    "112935.361000",
    "112937.363000",
    "112939.362000",
    "112940.862000",
    "112943.363000",
    "112945.363000",
    "112947.363000",
    "112949.361000",
    "112951.362000",
    "112952.862000",
    "112955.362000",
    "112957.362000",
    "112959.363000",
    "113000.863000",
    "113003.363000",
    "113005.363000",
    "113007.362000",
    "113009.362000",
    "113010.862000",
    "113013.362000",
    "113015.362000",
    "113016.863000",
    "113019.362000",
    "113020.863000",
    "113023.362000",
    "113025.362000",
    "113027.362000",
    "113029.363000",
    "113031.362000",
    "113032.863000",
    "113034.862000",
    "113037.363000",
    "113038.863000",
    "113041.361000",
    "113043.362000",
    "113045.362000",
    "113047.363000",
    "113049.362000",
    "113051.362000",
    "113053.363000",
    "113055.362000",
    "113057.362000",
    "113058.862000",
    "113101.362000",
    "113103.362000",
    "113105.363000",
    "113106.863000",
    "113109.363000",
    "113111.363000",
    "113113.363000",
    "113115.363000",
    "113117.362000",
    "113119.362000",
    "113121.362000",
    "113123.363000",
    "113124.863000",
    "113127.362000",
    "113129.363000",
    "113131.363000",
    "113133.361000",
    "113135.361000",
    "113137.362000",
    "113139.363000",
    "113141.362000",
    "113143.363000",
    "113145.363000",
    "113147.363000",
    "113149.363000",
    "113151.362000",
    "113152.862000",
    "113155.362000",
    "113157.363000",
    "113159.362000",
    "113201.362000",
    "113203.363000",
    "113205.362000",
    "113206.863000",
    "113209.362000",
    "113210.862000",
    "113213.362000",
    "113215.363000",
    "113217.363000",
    "113219.362000",
    "113220.863000",
    "113222.862000",
    "113225.363000",
    "113227.362000",
    "113229.362000",
    "113230.862000",
    "113233.362000",
    "113234.863000",
    "113237.363000",
    "113239.362000",
    "113241.363000",
    "113243.362000",
    "113245.362000",
    "113246.862000",
    "113249.363000",
    "113251.363000",
    "113253.363000",
    "113254.862000",
    "113257.363000",
    "113259.363000",
    "113301.362000",
    "113302.862000",
    "113304.862000",
    "113307.363000",
    "113309.363000",
    "113311.363000",
    "113312.863000",
    "113315.363000",
    "113317.363000",
    "113319.362000",
    "113321.362000",
    "113323.362000",
    "113325.362000",
    "113327.363000",
    "113329.363000",
    "113330.862000",
    "113333.363000",
    "113335.363000",
    "113337.362000",
    "113339.362000",
    "113340.862000",
    "113343.362000",
    "113345.362000",
    "113347.363000",
    "113349.363000",
    "113350.863000",
    "113353.362000",
    "113355.361000",
    "113357.362000",
    "113358.862000",
    "113401.363000",
    "113403.363000",
    "113404.863000",
    "113406.862000",
    "113409.363000",
    "113411.362000",
    "113413.361000",
    "113415.362000",
    "113416.863000",
    "113419.363000",
    "113420.863000",
    "113423.363000",
    "113425.363000",
    "113427.363000",
    "113428.862000",
    "113431.362000",
    "113433.362000",
    "113435.363000",
    "113437.363000",
    "113438.862000",
    "113441.362000",
    "113443.363000",
    "113445.363000",
    "113447.362000",
    "113449.361000",
    "113451.362000",
    "113453.363000",
    "113455.363000",
    "113457.363000",
    "113459.363000",
    "113501.363000",
    "113502.863000",
    "113505.362000",
    "113507.362000",
    "113508.862000",
    "113511.363000",
    "113512.862000",
    "113515.363000",
    "113517.363000",
    "113519.363000",
    "113521.362000",
    "113523.362000",
    "113525.362000",
    "113527.363000",
    "113528.862000",
    "113531.362000",
    "113533.363000",
    "113535.363000",
    "113537.363000",
    "113538.862000",
    "113541.361000",
    "113543.362000",
    "113544.863000",
    "113547.363000",
    "113549.363000",
    "113551.363000",
    "113553.374000",
    "113555.362000",
    "113556.862000",
    "113559.361000",
    "113601.362000",
    "113603.363000",
    "113604.863000",
    "113607.363000",
    "113609.363000",
    "113611.362000",
    "113613.362000",
    "113615.362000",
    "113617.362000",
    "113618.818000"
   ],
   "InstanceCreationTime": [
    "112749.366000",
    "112750.862000",
    "112753.363000",
    "112755.362000",
    "112756.862000",
    "112759.362000",
    "112801.363000",
    "112803.362000",
    "112805.362000",
    "112807.362000",
    "112808.861000",
    "112811.363000",
    "112813.362000",
    "112815.363000",
    "112817.362000",
    "112818.863000",
    "112820.862000",
    "112822.862000",
    "112825.361000",
    "112827.362000",
    "112829.363000",
    "112830.862000",
    "112832.862000",
    "112834.863000",
    "112837.363000",
    "112839.362000",
    "112841.362000",
    "112843.362000",
    "112845.363000",
    "112847.363000",
    "112849.363000",
    "112851.362000",
    "112853.363000",
    "112855.362000",
    "112857.362000",
    "112859.362000",
    "112901.362000",
    "112903.362000",
    "112905.363000",
    "112907.363000",
    "112909.362000",
    "112911.363000",
    "112913.362000",
    "112915.361000",
    "112917.362000",
    "112919.362000",
    "112921.363000",
    "112922.862000",
    "112925.363000",
    "112927.363000",
    "112929.363000",
    "112930.862000",
    "112933.361000",
    "112935.361000",
    "112937.363000",
    "112939.362000",
    "112940.862000",
    "112943.363000",
    "112945.363000",
    "112947.363000",
    "112949.361000",
    "112951.362000",
    "112952.862000",
    "112955.362000",
    "112957.362000",
    "112959.363000",
    "113000.863000",
    "113003.363000",
    "113005.363000",
    "113007.362000",
    "113009.362000",
    "113010.862000",
    "113013.362000",
    "113015.362000",
    "113016.863000",
    "113019.362000",
    "113020.863000",
    "113023.362000",
    "113025.362000",
    "113027.362000",
    "113029.363000",
    "113031.362000",
    "113032.863000",
    "113034.862000",
    "113037.363000",
    "113038.863000",
    "113041.361000",
    "113043.362000",
    "113045.362000",
    "113047.363000",
    "113049.362000",
    "113051.362000",
    "113053.363000",
    "113055.362000",
    "113057.362000",
    "113058.862000",
    "113101.362000",
    "113103.362000",
    "113105.363000",
    "113106.863000",
    "113109.363000",
    "113111.363000",
    "113113.363000",
    "113115.363000",
    "113117.362000",
    "113119.362000",
    "113121.362000",
    "113123.363000",
    "113124.863000",
    "113127.362000",
    "113129.363000",
    "113131.363000",
    "113133.361000",
    "113135.361000",
    "113137.362000",
    "113139.363000",
    "113141.362000",
    "113143.363000",
    "113145.363000",
    "113147.363000",
    "113149.363000",
    "113151.362000",
    "113152.862000",
    "113155.362000",
    "113157.363000",
    "113159.362000",
    "113201.362000",
    "113203.363000",
    "113205.362000",
    "113206.863000",
    "113209.362000",
    "113210.862000",
    "113213.362000",
    "113215.363000",
    "113217.363000",
    "113219.362000",
    "113220.863000",
    "113222.862000",
    "113225.363000",
    "113227.362000",
    "113229.362000",
    "113230.862000",
    "113233.362000",
    "113234.863000",
    "113237.363000",
    "113239.362000",
    "113241.363000",
    "113243.362000",
    "113245.362000",
    "113246.862000",
    "113249.363000",
    "113251.363000",
    "113253.363000",
    "113254.862000",
    "113257.363000",
    "113259.363000",
    "113301.362000",
    "113302.862000",
    "113304.862000",
    "113307.363000",
    "113309.363000",
    "113311.363000",
    "113312.863000",
    "113315.363000",
    "113317.363000",
    "113319.362000",
    "113321.362000",
    "113323.362000",
    "113325.362000",
    "113327.363000",
    "113329.363000",
    "113330.862000",
    "113333.363000",
    "113335.363000",
    "113337.362000",
    "113339.362000",
    "113340.862000",
    "113343.362000",
    "113345.362000",
    "113347.363000",
    "113349.363000",
    "113350.863000",
    "113353.362000",
    "113355.361000",
    "113357.362000",
    "113358.862000",
    "113401.363000",
    "113403.363000",
    "113404.863000",
    "113406.862000",
    "113409.363000",
    "113411.362000",
    "113413.361000",
    "113415.362000",
    "113416.863000",
    "113419.363000",
    "113420.863000",
    "113423.363000",
    "113425.363000",
    "113427.363000",
    "113428.862000",
    "113431.362000",
    "113433.362000",
    "113435.363000",
    "113437.363000",
    "113438.862000",
    "113441.362000",
    "113443.363000",
    "113445.363000",
    "113447.362000",
    "113449.361000",
    "113451.362000",
    "113453.363000",
    "113455.363000",
    "113457.363000",
    "113459.363000",
    "113501.363000",
    "113502.863000",
    "113505.362000",
    "113507.362000",
    "113508.862000",
    "113511.363000",
    "113512.862000",
    "113515.363000",
    "113517.363000",
    "113519.363000",
    "113521.362000",
    "113523.362000",
    "113525.362000",
    "113527.363000",
    "113528.862000",
    "113531.362000",
    "113533.363000",
    "113535.363000",
    "113537.363000",
    "113538.862000",
    "113541.361000",
    "113543.362000",
    "113544.863000",
    "113547.363000",
    "113549.363000",
    "113551.363000",
    "113553.374000",
    "113555.362000",
    "113556.862000",
    "113559.361000",
    "113601.362000",
    "113603.363000",
    "113604.863000",
    "113607.363000",
    "113609.363000",
    "113611.362000",
    "113613.362000",
    "113615.362000",
    "113617.362000",
    "113618.818000"
   ],
   "InstanceNumber": [
    1,
    2,
    3,
    4,
    5,
    6,
    7,
    8,
    9,
    10,
    11,
    12,
    13,
    14,
    15,
    16,
    17,
    18,
    19,
    20,
    21,
    22,
    23,
    24,
    25,
    26,
    27,
    28,
    29,
    30,
    31,
    32,
    33,
    34,
    35,
    36,
    37,
    38,
    39,
    40,
    41,
    42,
    43,
    44,
    45,
    46,
    47,
    48,
    49,
    50,
    51,
    52,
    53,
    54,
    55,
    56,
    57,
    58,
    59,
    60,
    61,
    62,
    63,
    64,
    65,
    66,
    67,
    68,
    69,
    70,
    71,
    72,
    73,
    74,
    75,
    76,
    77,
    78,
    79,
    80,
    81,
    82,
    83,
    84,
    85,
    86,
    87,
    88,
    89,
    90,
    91,
    92,
    93,
    94,
    95,
    96,
    97,
    98,
    99,
    100,
    101,
    102,
    103,
    104,
    105,
    106,
    107,
    108,
    109,
    110,
    111,
    112,
    113,
    114,
    115,
    116,
    117,
    118,
    119,
    120,
    121,
    122,
    123,
    124,
    125,
    126,
    127,
    128,
    129,
    130,
    131,
    132,
    133,
    134,
    135,
    136,
    137,
    138,
    139,
    140,
    141,
    142,
    143,
    144,
    145,
    146,
    147,
    148,
    149,
    150,
    151,
    152,
    153,
    154,
    155,
    156,
    157,
    158,
    159,
    160,
    161,
    162,
    163,
    164,
    165,
    166,
    167,
    168,
    169,
    170,
    171,
    172,
    173,
    174,
    175,
    176,
    177,
    178,
    179,
    180,
    181,
    182,
    183,
    184,
    185,
    186,
    187,
    188,
    189,
    190,
    191,
    192,
    193,
    194,
    195,
    196,
    197,
    198,
    199,
    200,
    201,
    202,
    203,
    204,
    205,
    206,
    207,
    208,
    209,
    210,
    211,
    212,
    213,
    214,
    215,
    216,
    217,
    218,
    219,
    220,
    221,
    222,
    223,
    224,
    225,
    226,
    227,
    228,
    229,
    230,
    231,
    232,
    233,
    234,
    235,
    236,
    237,
    238,
    239,
    240,
    241,
    242,
    243,
    244,
    245,
    246,
    247,
    248,
    249,
    250,
    251,
    252,
    253,
    254,
    255,
    256
   ],
   "LargestImagePixelValue": [
    3798,
    3729,
    3674,
    3666,
    3655,
    3614,
    3628,
    3623,
    3666,
    3601,
    3630,
    3635,
    3659,
    3663,
    3601,
    3630,
    3679,
    3702,
    3709,
    3679,
    3682,
    3710,
    3700,
    3670,
    3660,
    3655,
    3609,
    3649,
    3659,
    3668,
    3635,
    3654,
    3606,
    3635,
    3682,
    3667,
    3638,
    3617,
    3627,
    3618,
    3607,
    3599,
    3610,
    3612,
    3650,
    3690,
    3708,
    3686,
    3647,
    3660,
    3656,
    3669,
    3653,
    3594,
    3617,
    3668,
    3656,
    3653,
    3651,
    3633,
    3648,
    3635,
    3601,
    3636,
    3646,
    3608,
    3637,
    3640,
    3624,
    3653,
    3630,
    3697,
    3687,
    3638,
    3647,
    3648,
    3679,
    3649,
    3655,
    3655,
    3662,
    3712,
    3653,
    3618,
    3610,
    3635,
    3640,
    3580,
    3618,
    3602,
    3652,
    3624,
    3597,
    3721,
    3643,
    3649,
    3615,
    3634,
    3641,
    3641,
    3662,
    3670,
    3662,
    3657,
    3667,
    3670,
    3661,
    3661,
    3693,
    3698,
    3682,
    3656,
    3673,
    3668,
    3663,
    3664,
    3629,
    3661,
    3635,
    3630,
    3669,
    3607,
    3629,
    3620,
    3646,
    3643,
    3622,
    3649,
    3664,
    3670,
    3675,
    3642,
    3640,
    3625,
    3603,
    3629,
    3636,
    3657,
    3640,
    3648,
    3660,
    3669,
    3625,
    3632,
    3658,
    3676,
    3642,
    3671,
    3644,
    3607,
    3609,
    3594,
    3581,
    3591,
    3648,
    3657,
    3642,
    3641,
    3618,
    3606,
    3657,
    3596,
    3634,
    3624,
    3628,
    3656,
    3624,
    3609,
    3614,
    3618,
    3621,
    3622,
    3648,
    3630,
    3587,
    3554,
    3558,
    3568,
    3572,
    3569,
    3570,
    3522,
    3514,
    3537,
    3606,
    3606,
    3615,
    3639,
    3642,
    3590,
    3566,
    3536,
    3556,
    3613,
    3567,
    3621,
    3568,
    3581,
    3588,
    3598,
    3597,
    3576,
    3584,
    3546,
    3510,
    3561,
    3525,
    3520,
    3550,
    3556,
    3628,
    3627,
    3616,
    3619,
    3581,
    3548,
    3531,
    3549,
    3584,
    3515,
    3529,
    3570,
    3576,
    3593,
    3558,
    3591,
    3552,
    3598,
    3619,
    3601,
    3625,
    3558,
    3550,
    3550,
    3532,
    3591,
    3565,
    3560,
    3569,
    3551,
    3547,
    3581,
    3613,
    3555,
    3544,
    3561,
    3533,
    3537,
    3487,
    3501,
    3513,
    3566,
    3524,
    3540,
    3539,
    3530
   ],
   "WindowCenter": [
    844.0,
    843.0,
    845.0,
    846.0,
    846.0,
    844.0,
    843.0,
    843.0,
    843.0,
    844.0,
    845.0,
    845.0,
    844.0,
    843.0,
    842.0,
    841.0,
    841.0,
    841.0,
    842.0,
    842.0,
    842.0,
    841.0,
    842.0,
    843.0,
    844.0,
    844.0,
    843.0,
    842.0,
    841.0,
    841.0,
    842.0,
    843.0,
    843.0,
    843.0,
    842.0,
    841.0,
    841.0,
    841.0,
    841.0,
    842.0,
    841.0,
    839.0,
    839.0,
    839.0,
    841.0,
    841.0,
    842.0,
    842.0,
    843.0,
    844.0,
    843.0,
    841.0,
    840.0,
    840.0,
    840.0,
    842.0,
    842.0,
    843.0,
    843.0,
    843.0,
    842.0,
    842.0,
    843.0,
    843.0,
    842.0,
    842.0,
    842.0,
    843.0,
    843.0,
    843.0,
    842.0,
    841.0,
    842.0,
    844.0,
    845.0,
    843.0,
    841.0,
    842.0,
    843.0,
    843.0,
    842.0,
    842.0,
    842.0,
    844.0,
    843.0,
    842.0,
    841.0,
    842.0,
    842.0,
    841.0,
    841.0,
    841.0,
    841.0,
    842.0,
    842.0,
    841.0,
    842.0,
    842.0,
    842.0,
    842.0,
    842.0,
    842.0,
    842.0,
    842.0,
    841.0,
    841.0,
    842.0,
    843.0,
    843.0,
    843.0,
    843.0,
    843.0,
    843.0,
    843.0,
    842.0,
    841.0,
    840.0,
    842.0,
    843.0,
    843.0,
    843.0,
    841.0,
    840.0,
    840.0,
    841.0,
    842.0,
    841.0,
