{
 "AcquisitionMatrixPE": 100,
 "AcquisitionNumber": 1,
 "AcquisitionTime": "11:38:45.417500",
 "BandwidthPerPixelPhaseEncode": 18.519,
 "BaseResolution": 100,
 "BodyPartExamined": "BRAIN",
 "ConsistencyInfo": "N4_VE11C_LATEST_20160120",
 "ConversionSoftware": "dcm2niix",
 "ConversionSoftwareVersion": "v1.0.20180622 GCC4.9.2",
 "DerivedVendorReportedEchoSpacing": 0.000539986,
 "DeviceSerialNumber": "166078",
 "DwellTime": 2.1e-06,
 "EchoTime": 0.034,
 "EchoTrainLength": 100,
 "EffectiveEchoSpacing": 0.000539986,
 "FlipAngle": 90,
 "ImageOrientationPatientDICOM": [
  1,
  0,
  0,
  0,
  0.964557,
  -0.263873
 ],
 "ImageType": [
  "ORIGINAL",
  "PRIMARY",
  "M",
  "ND",
  "MOSAIC"
 ],
 "InPlanePhaseEncodingDirectionDICOM": "COL",
 "InstitutionAddress": "Street_StreetNo_Bei_Jing_District_CN_ZIP",
 "InstitutionName": "BeiJing_Normal_University",
 "InstitutionalDepartmentName": "Department",
 "MRAcquisitionType": "2D",
 "MagneticFieldStrength": 3,
 "Manufacturer": "Siemens",
 "ManufacturersModelName": "Prisma",
 "Modality": "MR",
 "MultibandAccelerationFactor": 3,
 "PartialFourier": 1,
 "PatientPosition": "HFS",
 "PercentPhaseFOV": 100,
 "PhaseEncodingDirection": "j-",
 "PhaseEncodingSteps": 100,
 "PhaseResolution": 1,
 "PixelBandwidth": 2380,
 "ProcedureStepDescription": "BNU_P2018_64CH_Zhen.ZongLei",
 "ProtocolName": "bold_100x100_s3_2x2x2_static_256",
 "PulseSequenceDetails": "%SiemensSeq%_ep2d_bold",
 "ReceiveCoilActiveElements": "HC1-7;NC1",
 "ReceiveCoilName": "HeadNeck_64",
 "ReconMatrixPE": 100,
 "RepetitionTime": 2,
 "SAR": 0.0869097,
 "ScanOptions": "FS",
 "ScanningSequence": "EP",
 "SequenceName": "_epfid2d1_100",
 "SequenceVariant": "SK",
 "SeriesDescription": "bold_100x100_s3_2x2x2_static_256",
 "SeriesNumber": 6,
 "ShimSetting": [
  -5458,
  -11476,
  -1285,
  418,
  -8,
  -101,
  -131,
  76
 ],
 "SliceThickness": 2,
 "SliceTiming": [
  1.485,
  0,
  0.99,
  0.0825,
  1.0725,
  0.165,
  1.155,
  0.2475,
  1.2375,
  0.33,
  1.32,
  0.4125,
  1.4025,
  0.5775,
  1.5675,
  0.66,
  1.65,
  0.7425,
  1.7325,
  0.825,
  1.815,
  0.9075,
  1.8975,
  0.495,
  1.485,
  0,
  0.99,
  0.0825,
  1.0725,
  0.165,
  1.155,
  0.2475,
  1.2375,
  0.33,
  1.32,
  0.4125,
  1.4025,
  0.5775,
  1.5675,
  0.66,
  1.65,
  0.7425,
  1.7325,
  0.825,
  1.815,
  0.9075,
  1.8975,
  0.495,
  1.485,
  0,
  0.99,
  0.0825,
  1.0725,
  0.165,
  1.155,
  0.2475,
  1.2375,
  0.33,
  1.32,
  0.4125,
  1.4025,
  0.5775,
  1.5675,
  0.66,
  1.65,
  0.7425,
  1.7325,
  0.825,
  1.815,
  0.9075,
  1.8975,
  0.495
 ],
 "SoftwareVersions": "syngo_MR_E11",
 "SpacingBetweenSlices": 2,
 "StationName": "AWP166078",
 "TaskName": "imagenet",
 "TotalReadoutTime": 0.0534586,
 "TxRefAmp": 233.897,
 "dcmmeta_affine": [
  [
   -2.0,
   0.0,
   0.0,
   100.0
  ],
  [
   0.0,
   1.929114818572998,
   -0.5277460813522339,
   -75.0446548461914
  ],
  [
   0.0,
   0.5277460813522339,
   1.929114818572998,
   -104.2130126953125
  ],
  [
   0.0,
   0.0,
   0.0,
   1.0
  ]
 ],
 "dcmmeta_reorient_transform": [
  [
   0.0,
   -1.0,
   0.0,
   99.0
  ],
  [
   1.0,
   0.0,
   0.0,
   0.0
  ],
  [
   0.0,
   0.0,
   1.0,
   0.0
  ],
  [
   0.0,
   0.0,
   0.0,
   1.0
  ]
 ],
 "dcmmeta_shape": [
  100,
  100,
  72,
  256
 ],
 "dcmmeta_slice_dim": 2,
 "dcmmeta_version": 0.6,
 "global": {
  "const": {
   "AcquisitionMatrix": [
    100,
    0,
    0,
    100
   ],
   "AngioFlag": "N",
   "BitsAllocated": 16,
   "BitsStored": 12,
   "BodyPartExamined": "BRAIN",
   "Columns": 900,
   "EchoNumbers": 1,
   "EchoTime": 34.0,
   "EchoTrainLength": 100,
   "FlipAngle": 90.0,
   "HighBit": 11,
   "ImageOrientationPatient": [
    1.0,
    0.0,
    0.0,
    0.0,
    0.96455741917473,
    -0.2638730473447
   ],
   "ImagePositionPatient": [
    -900.0,
    -887.58365090533,
    159.1322880204
   ],
   "ImageType": [
    "ORIGINAL",
    "PRIMARY",
    "M",
    "ND",
    "MOSAIC"
   ],
   "ImagedNucleus": "1H",
   "ImagingFrequency": 123.257784,
   "InPlanePhaseEncodingDirection": "COL",
   "MRAcquisitionType": "2D",
   "MagneticFieldStrength": 3.0,
   "Manufacturer": "SIEMENS",
   "ManufacturerModelName": "Prisma",
   "Modality": "MR",
   "NumberOfAverages": 1.0,
   "NumberOfPhaseEncodingSteps": 100,
   "PercentPhaseFieldOfView": 100.0,
   "PercentSampling": 100.0,
   "PerformedProcedureStepStartTime": "110550.613000",
   "PhotometricInterpretation": "MONOCHROME2",
   "PixelBandwidth": 2380.0,
   "PixelRepresentation": 0,
   "PixelSpacing": [
    2.0,
    2.0
   ],
   "ProtocolName": "bold_100x100_s3_2x2x2_static_256",
   "RepetitionTime": 2000.0,
   "Rows": 900,
   "SAR": 0.08690972422199,
   "SamplesPerPixel": 1,
   "ScanOptions": "FS",
   "ScanningSequence": "EP",
   "SequenceName": "*epfid2d1_100",
   "SequenceVariant": "SK",
   "SeriesDescription": "bold_100x100_s3_2x2x2_static_256",
   "SeriesNumber": 6,
   "SeriesTime": "113848.074000",
   "SliceLocation": -80.71717369741,
   "SliceThickness": 2.0,
   "SmallestImagePixelValue": 0,
   "SoftwareVersions": "syngo MR E11",
   "SpacingBetweenSlices": 1.9999999740285,
   "SpecificCharacterSet": "ISO_IR 100",
   "StudyID": "1",
   "StudyTime": "110550.541000",
   "TransmitCoilName": "Body",
   "VariableFlipAngleFlag": "N",
   "WindowCenterWidthExplanation": "Algo1",
   "dBdt": 0.0
  },
  "slices": {}
 },
 "time": {
  "samples": {
   "AcquisitionNumber": [
    1,
    2,
    3,
    4,
    5,
    6,
    7,
    8,
    9,
    10,
    11,
    12,
    13,
    14,
    15,
    16,
    17,
    18,
    19,
    20,
    21,
    22,
    23,
    24,
    25,
    26,
    27,
    28,
    29,
    30,
    31,
    32,
    33,
    34,
    35,
    36,
    37,
    38,
    39,
    40,
    41,
    42,
    43,
    44,
    45,
    46,
    47,
    48,
    49,
    50,
    51,
    52,
    53,
    54,
    55,
    56,
    57,
    58,
    59,
    60,
    61,
    62,
    63,
    64,
    65,
    66,
    67,
    68,
    69,
    70,
    71,
    72,
    73,
    74,
    75,
    76,
    77,
    78,
    79,
    80,
    81,
    82,
    83,
    84,
    85,
    86,
    87,
    88,
    89,
    90,
    91,
    92,
    93,
    94,
    95,
    96,
    97,
    98,
    99,
    100,
    101,
    102,
    103,
    104,
    105,
    106,
    107,
    108,
    109,
    110,
    111,
    112,
    113,
    114,
    115,
    116,
    117,
    118,
    119,
    120,
    121,
    122,
    123,
    124,
    125,
    126,
    127,
    128,
    129,
    130,
    131,
    132,
    133,
    134,
    135,
    136,
    137,
    138,
    139,
    140,
    141,
    142,
    143,
    144,
    145,
    146,
    147,
    148,
    149,
    150,
    151,
    152,
    153,
    154,
    155,
    156,
    157,
    158,
    159,
    160,
    161,
    162,
    163,
    164,
    165,
    166,
    167,
    168,
    169,
    170,
    171,
    172,
    173,
    174,
    175,
    176,
    177,
    178,
    179,
    180,
    181,
    182,
    183,
    184,
    185,
    186,
    187,
    188,
    189,
    190,
    191,
    192,
    193,
    194,
    195,
    196,
    197,
    198,
    199,
    200,
    201,
    202,
    203,
    204,
    205,
    206,
    207,
    208,
    209,
    210,
    211,
    212,
    213,
    214,
    215,
    216,
    217,
    218,
    219,
    220,
    221,
    222,
    223,
    224,
    225,
    226,
    227,
    228,
    229,
    230,
    231,
    232,
    233,
    234,
    235,
    236,
    237,
    238,
    239,
    240,
    241,
    242,
    243,
    244,
    245,
    246,
    247,
    248,
    249,
    250,
    251,
    252,
    253,
    254,
    255,
    256
   ],
   "AcquisitionTime": [
    "113845.417500",
    "113847.417500",
    "113849.417500",
    "113851.417500",
    "113853.417500",
    "113855.417500",
    "113857.417500",
    "113859.417500",
    "113901.417500",
    "113903.417500",
    "113905.417500",
    "113907.417500",
    "113909.417500",
    "113911.417500",
    "113913.417500",
    "113915.417500",
    "113917.417500",
    "113919.417500",
    "113921.417500",
    "113923.417500",
    "113925.417500",
    "113927.417500",
    "113929.417500",
    "113931.417500",
    "113933.417500",
    "113935.417500",
    "113937.417500",
    "113939.417500",
    "113941.417500",
    "113943.417500",
    "113945.417500",
    "113947.417500",
    "113949.417500",
    "113951.417500",
    "113953.417500",
    "113955.417500",
    "113957.417500",
    "113959.417500",
    "114001.417500",
    "114003.417500",
    "114005.417500",
    "114007.417500",
    "114009.417500",
    "114011.417500",
    "114013.417500",
    "114015.417500",
    "114017.417500",
    "114019.417500",
    "114021.417500",
    "114023.417500",
    "114025.417500",
    "114027.417500",
    "114029.417500",
    "114031.417500",
    "114033.417500",
    "114035.417500",
    "114037.417500",
    "114039.417500",
    "114041.417500",
    "114043.417500",
    "114045.417500",
    "114047.417500",
    "114049.417500",
    "114051.417500",
    "114053.417500",
    "114055.417500",
    "114057.417500",
    "114059.417500",
    "114101.417500",
    "114103.417500",
    "114105.417500",
    "114107.417500",
    "114109.417500",
    "114111.417500",
    "114113.417500",
    "114115.417500",
    "114117.417500",
    "114119.417500",
    "114121.417500",
    "114123.417500",
    "114125.417500",
    "114127.417500",
    "114129.417500",
    "114131.417500",
    "114133.417500",
    "114135.417500",
    "114137.417500",
    "114139.417500",
    "114141.417500",
    "114143.417500",
    "114145.417500",
    "114147.417500",
    "114149.417500",
    "114151.417500",
    "114153.417500",
    "114155.417500",
    "114157.417500",
    "114159.417500",
    "114201.417500",
    "114203.417500",
    "114205.417500",
    "114207.417500",
    "114209.417500",
    "114211.417500",
    "114213.417500",
    "114215.417500",
    "114217.417500",
    "114219.417500",
    "114221.417500",
    "114223.417500",
    "114225.417500",
    "114227.417500",
    "114229.417500",
    "114231.417500",
    "114233.417500",
    "114235.417500",
    "114237.417500",
    "114239.417500",
    "114241.417500",
    "114243.417500",
    "114245.417500",
    "114247.417500",
    "114249.417500",
    "114251.417500",
    "114253.417500",
    "114255.417500",
    "114257.417500",
    "114259.417500",
    "114301.417500",
    "114303.417500",
    "114305.417500",
    "114307.417500",
    "114309.417500",
    "114311.417500",
    "114313.417500",
    "114315.417500",
    "114317.417500",
    "114319.417500",
    "114321.417500",
    "114323.417500",
    "114325.417500",
    "114327.417500",
    "114329.417500",
    "114331.417500",
    "114333.417500",
    "114335.417500",
    "114337.417500",
    "114339.417500",
    "114341.417500",
    "114343.417500",
    "114345.417500",
    "114347.417500",
    "114349.417500",
    "114351.417500",
    "114353.417500",
    "114355.417500",
    "114357.417500",
    "114359.417500",
    "114401.417500",
    "114403.417500",
    "114405.417500",
    "114407.417500",
    "114409.417500",
    "114411.417500",
    "114413.417500",
    "114415.417500",
    "114417.417500",
    "114419.417500",
    "114421.417500",
    "114423.417500",
    "114425.417500",
    "114427.417500",
    "114429.417500",
    "114431.417500",
    "114433.417500",
    "114435.417500",
    "114437.417500",
    "114439.417500",
    "114441.417500",
    "114443.417500",
    "114445.417500",
    "114447.417500",
    "114449.417500",
    "114451.417500",
    "114453.417500",
    "114455.417500",
    "114457.417500",
    "114459.417500",
    "114501.417500",
    "114503.417500",
    "114505.417500",
    "114507.417500",
    "114509.417500",
    "114511.417500",
    "114513.417500",
    "114515.417500",
    "114517.417500",
    "114519.417500",
    "114521.417500",
    "114523.417500",
    "114525.417500",
    "114527.417500",
    "114529.417500",
    "114531.417500",
    "114533.417500",
    "114535.417500",
    "114537.417500",
    "114539.417500",
    "114541.417500",
    "114543.417500",
    "114545.417500",
    "114547.417500",
    "114549.417500",
    "114551.417500",
    "114553.417500",
    "114555.417500",
    "114557.417500",
    "114559.417500",
    "114601.417500",
    "114603.417500",
    "114605.417500",
    "114607.417500",
    "114609.417500",
    "114611.417500",
    "114613.417500",
    "114615.417500",
    "114617.417500",
    "114619.417500",
    "114621.417500",
    "114623.417500",
    "114625.417500",
    "114627.417500",
    "114629.417500",
    "114631.417500",
    "114633.417500",
    "114635.417500",
    "114637.417500",
    "114639.417500",
    "114641.417500",
    "114643.417500",
    "114645.417500",
    "114647.417500",
    "114649.417500",
    "114651.417500",
    "114653.417500",
    "114655.417500",
    "114657.417500",
    "114659.417500",
    "114701.417500",
    "114703.417500",
    "114705.417500",
    "114707.417500",
    "114709.417500",
    "114711.417500",
    "114713.417500",
    "114715.417500"
   ],
   "ContentTime": [
    "113848.077000",
    "113849.573000",
    "113851.572000",
    "113853.572000",
    "113855.572000",
    "113857.573000",
    "113859.572000",
    "113901.572000",
    "113903.572000",
    "113905.573000",
    "113907.572000",
    "113909.573000",
    "113911.572000",
    "113913.572000",
    "113916.072000",
    "113917.572000",
    "113919.573000",
    "113921.572000",
    "113923.573000",
    "113925.572000",
    "113927.573000",
    "113929.573000",
    "113931.573000",
    "113933.573000",
    "113935.573000",
    "113937.573000",
    "113939.572000",
    "113941.572000",
    "113943.572000",
    "113945.573000",
    "113947.572000",
    "113949.573000",
    "113951.573000",
    "113953.573000",
    "113955.573000",
    "113957.572000",
    "113959.573000",
    "114002.073000",
    "114003.573000",
    "114005.572000",
    "114007.573000",
    "114009.573000",
    "114011.573000",
    "114013.573000",
    "114015.572000",
    "114017.572000",
    "114019.572000",
    "114021.573000",
    "114023.572000",
    "114025.574000",
    "114027.573000",
    "114029.573000",
    "114031.573000",
    "114033.573000",
    "114035.572000",
    "114037.573000",
    "114039.573000",
    "114041.573000",
    "114043.572000",
    "114045.573000",
    "114047.572000",
    "114049.573000",
    "114051.573000",
    "114053.573000",
    "114055.572000",
    "114057.572000",
    "114059.574000",
    "114101.573000",
    "114103.573000",
    "114105.572000",
    "114107.573000",
    "114109.573000",
    "114111.572000",
    "114113.572000",
    "114115.572000",
    "114117.574000",
    "114119.572000",
    "114121.573000",
    "114123.572000",
    "114125.572000",
    "114127.572000",
    "114129.572000",
    "114131.573000",
    "114133.575000",
    "114135.574000",
    "114137.573000",
    "114139.573000",
    "114141.573000",
    "114143.572000",
    "114145.573000",
    "114147.573000",
    "114149.573000",
    "114151.574000",
    "114153.572000",
    "114155.572000",
    "114157.572000",
    "114159.572000",
    "114201.573000",
    "114203.572000",
    "114205.572000",
    "114207.573000",
    "114209.574000",
    "114211.572000",
    "114213.573000",
    "114215.573000",
    "114218.073000",
    "114219.573000",
    "114221.573000",
    "114223.573000",
    "114225.573000",
    "114227.574000",
    "114229.572000",
    "114231.573000",
    "114233.573000",
    "114236.072000",
    "114237.573000",
    "114239.573000",
    "114241.573000",
    "114243.574000",
    "114245.573000",
    "114247.573000",
    "114249.573000",
    "114251.573000",
    "114254.073000",
    "114255.572000",
    "114257.573000",
    "114259.573000",
    "114301.574000",
    "114303.572000",
    "114305.573000",
    "114307.573000",
    "114309.572000",
    "114311.572000",
    "114313.572000",
    "114315.572000",
    "114317.572000",
    "114319.574000",
    "114321.573000",
    "114323.573000",
    "114325.573000",
    "114327.573000",
    "114329.572000",
    "114331.572000",
    "114333.573000",
    "114335.573000",
    "114337.574000",
    "114339.573000",
    "114341.572000",
    "114343.573000",
    "114345.573000",
    "114347.572000",
    "114349.573000",
    "114352.072000",
    "114353.573000",
    "114355.573000",
    "114357.572000",
    "114359.573000",
    "114401.573000",
    "114403.572000",
    "114405.573000",
    "114407.572000",
    "114409.572000",
    "114411.574000",
    "114413.572000",
    "114416.073000",
    "114417.573000",
    "114419.572000",
    "114421.573000",
    "114423.573000",
    "114425.573000",
    "114427.573000",
    "114429.573000",
    "114431.572000",
    "114433.572000",
    "114435.573000",
    "114437.573000",
    "114439.573000",
    "114441.573000",
    "114443.572000",
    "114445.572000",
    "114447.574000",
    "114449.573000",
    "114451.572000",
    "114453.573000",
    "114455.573000",
    "114457.573000",
    "114459.573000",
    "114501.573000",
    "114503.573000",
    "114505.574000",
    "114507.572000",
    "114509.573000",
    "114511.573000",
    "114513.573000",
    "114515.573000",
    "114517.573000",
    "114519.572000",
    "114521.574000",
    "114523.572000",
    "114525.573000",
    "114527.573000",
    "114529.573000",
    "114531.573000",
    "114533.572000",
    "114535.572000",
    "114537.573000",
    "114539.574000",
    "114541.572000",
    "114543.572000",
    "114545.572000",
    "114547.573000",
    "114549.573000",
    "114551.573000",
    "114553.573000",
    "114555.573000",
    "114557.574000",
    "114559.573000",
    "114601.573000",
    "114603.572000",
    "114605.573000",
    "114607.573000",
    "114609.573000",
    "114611.573000",
    "114613.574000",
    "114615.573000",
    "114617.572000",
    "114619.572000",
    "114621.573000",
    "114623.573000",
    "114625.573000",
    "114627.573000",
    "114629.573000",
    "114631.574000",
    "114633.573000",
    "114635.573000",
    "114637.573000",
    "114639.573000",
    "114641.573000",
    "114643.573000",
    "114645.572000",
    "114647.573000",
    "114649.574000",
    "114651.573000",
    "114653.573000",
    "114655.573000",
    "114657.573000",
    "114659.573000",
    "114701.573000",
    "114703.572000",
    "114705.572000",
    "114707.574000",
    "114709.573000",
    "114711.573000",
    "114713.573000",
    "114715.573000",
    "114717.411000"
   ],
   "InstanceCreationTime": [
    "113848.077000",
    "113849.573000",
    "113851.572000",
    "113853.572000",
    "113855.572000",
    "113857.573000",
    "113859.572000",
    "113901.572000",
    "113903.572000",
    "113905.573000",
    "113907.572000",
    "113909.573000",
    "113911.572000",
    "113913.572000",
    "113916.072000",
    "113917.572000",
    "113919.573000",
    "113921.572000",
    "113923.573000",
    "113925.572000",
    "113927.573000",
    "113929.573000",
    "113931.573000",
    "113933.573000",
    "113935.573000",
    "113937.573000",
    "113939.572000",
    "113941.572000",
    "113943.572000",
    "113945.573000",
    "113947.572000",
    "113949.573000",
    "113951.573000",
    "113953.573000",
    "113955.573000",
    "113957.572000",
    "113959.573000",
    "114002.073000",
    "114003.573000",
    "114005.572000",
    "114007.573000",
    "114009.573000",
    "114011.573000",
    "114013.573000",
    "114015.572000",
    "114017.572000",
    "114019.572000",
    "114021.573000",
    "114023.572000",
    "114025.574000",
    "114027.573000",
    "114029.573000",
    "114031.573000",
    "114033.573000",
    "114035.572000",
    "114037.573000",
    "114039.573000",
    "114041.573000",
    "114043.572000",
    "114045.573000",
    "114047.572000",
    "114049.573000",
    "114051.573000",
    "114053.573000",
    "114055.572000",
    "114057.572000",
    "114059.574000",
    "114101.573000",
    "114103.573000",
    "114105.572000",
    "114107.573000",
    "114109.573000",
    "114111.572000",
    "114113.572000",
    "114115.572000",
    "114117.574000",
    "114119.572000",
    "114121.573000",
    "114123.572000",
    "114125.572000",
    "114127.572000",
    "114129.572000",
    "114131.573000",
    "114133.575000",
    "114135.574000",
    "114137.573000",
    "114139.573000",
    "114141.573000",
    "114143.572000",
    "114145.573000",
    "114147.573000",
    "114149.573000",
    "114151.574000",
    "114153.572000",
    "114155.572000",
    "114157.572000",
    "114159.572000",
    "114201.573000",
    "114203.572000",
    "114205.572000",
    "114207.573000",
    "114209.574000",
    "114211.572000",
    "114213.573000",
    "114215.573000",
    "114218.073000",
    "114219.573000",
    "114221.573000",
    "114223.573000",
    "114225.573000",
    "114227.574000",
    "114229.572000",
    "114231.573000",
    "114233.573000",
    "114236.072000",
    "114237.573000",
    "114239.573000",
    "114241.573000",
    "114243.574000",
    "114245.573000",
    "114247.573000",
    "114249.573000",
    "114251.573000",
    "114254.073000",
    "114255.572000",
    "114257.573000",
    "114259.573000",
    "114301.574000",
    "114303.572000",
    "114305.573000",
    "114307.573000",
    "114309.572000",
    "114311.572000",
    "114313.572000",
    "114315.572000",
    "114317.572000",
    "114319.574000",
    "114321.573000",
    "114323.573000",
    "114325.573000",
    "114327.573000",
    "114329.572000",
    "114331.572000",
    "114333.573000",
    "114335.573000",
    "114337.574000",
    "114339.573000",
    "114341.572000",
    "114343.573000",
    "114345.573000",
    "114347.572000",
    "114349.573000",
    "114352.072000",
    "114353.573000",
    "114355.573000",
    "114357.572000",
    "114359.573000",
    "114401.573000",
    "114403.572000",
    "114405.573000",
    "114407.572000",
    "114409.572000",
    "114411.574000",
    "114413.572000",
    "114416.073000",
    "114417.573000",
    "114419.572000",
    "114421.573000",
    "114423.573000",
    "114425.573000",
    "114427.573000",
    "114429.573000",
    "114431.572000",
    "114433.572000",
    "114435.573000",
    "114437.573000",
    "114439.573000",
    "114441.573000",
    "114443.572000",
    "114445.572000",
    "114447.574000",
    "114449.573000",
    "114451.572000",
    "114453.573000",
    "114455.573000",
    "114457.573000",
    "114459.573000",
    "114501.573000",
    "114503.573000",
    "114505.574000",
    "114507.572000",
    "114509.573000",
    "114511.573000",
    "114513.573000",
    "114515.573000",
    "114517.573000",
    "114519.572000",
    "114521.574000",
    "114523.572000",
    "114525.573000",
    "114527.573000",
    "114529.573000",
    "114531.573000",
    "114533.572000",
    "114535.572000",
    "114537.573000",
    "114539.574000",
    "114541.572000",
    "114543.572000",
    "114545.572000",
    "114547.573000",
    "114549.573000",
    "114551.573000",
    "114553.573000",
    "114555.573000",
    "114557.574000",
    "114559.573000",
    "114601.573000",
    "114603.572000",
    "114605.573000",
    "114607.573000",
    "114609.573000",
    "114611.573000",
    "114613.574000",
    "114615.573000",
    "114617.572000",
    "114619.572000",
    "114621.573000",
    "114623.573000",
    "114625.573000",
    "114627.573000",
    "114629.573000",
    "114631.574000",
    "114633.573000",
    "114635.573000",
    "114637.573000",
    "114639.573000",
    "114641.573000",
    "114643.573000",
    "114645.572000",
    "114647.573000",
    "114649.574000",
    "114651.573000",
    "114653.573000",
    "114655.573000",
    "114657.573000",
    "114659.573000",
    "114701.573000",
    "114703.572000",
    "114705.572000",
    "114707.574000",
    "114709.573000",
    "114711.573000",
    "114713.573000",
    "114715.573000",
    "114717.411000"
   ],
   "InstanceNumber": [
    1,
    2,
    3,
    4,
    5,
    6,
    7,
    8,
    9,
    10,
    11,
    12,
    13,
    14,
    15,
    16,
    17,
    18,
    19,
    20,
    21,
    22,
    23,
    24,
    25,
    26,
    27,
    28,
    29,
    30,
    31,
    32,
    33,
    34,
    35,
    36,
    37,
    38,
    39,
    40,
    41,
    42,
    43,
    44,
    45,
    46,
    47,
    48,
    49,
    50,
    51,
    52,
    53,
    54,
    55,
    56,
    57,
    58,
    59,
    60,
    61,
    62,
    63,
    64,
    65,
    66,
    67,
    68,
    69,
    70,
    71,
    72,
    73,
    74,
    75,
    76,
    77,
    78,
    79,
    80,
    81,
    82,
    83,
    84,
    85,
    86,
    87,
    88,
    89,
    90,
    91,
    92,
    93,
    94,
    95,
    96,
    97,
    98,
    99,
    100,
    101,
    102,
    103,
    104,
    105,
    106,
    107,
    108,
    109,
    110,
    111,
    112,
    113,
    114,
    115,
    116,
    117,
    118,
    119,
    120,
    121,
    122,
    123,
    124,
    125,
    126,
    127,
    128,
    129,
    130,
    131,
    132,
    133,
    134,
    135,
    136,
    137,
    138,
    139,
    140,
    141,
    142,
    143,
    144,
    145,
    146,
    147,
    148,
    149,
    150,
    151,
    152,
    153,
    154,
    155,
    156,
    157,
    158,
    159,
    160,
    161,
    162,
    163,
    164,
    165,
    166,
    167,
    168,
    169,
    170,
    171,
    172,
    173,
    174,
    175,
    176,
    177,
    178,
    179,
    180,
    181,
    182,
    183,
    184,
    185,
    186,
    187,
    188,
    189,
    190,
    191,
    192,
    193,
    194,
    195,
    196,
    197,
    198,
    199,
    200,
    201,
    202,
    203,
    204,
    205,
    206,
    207,
    208,
    209,
    210,
    211,
    212,
    213,
    214,
    215,
    216,
    217,
    218,
    219,
    220,
    221,
    222,
    223,
    224,
    225,
    226,
    227,
    228,
    229,
    230,
    231,
    232,
    233,
    234,
    235,
    236,
    237,
    238,
    239,
    240,
    241,
    242,
    243,
    244,
    245,
    246,
    247,
    248,
    249,
    250,
    251,
    252,
    253,
    254,
    255,
    256
   ],
   "LargestImagePixelValue": [
    3745,
    3707,
    3641,
    3645,
    3613,
    3601,
    3601,
    3577,
    3550,
    3550,
    3551,
    3521,
    3572,
    3592,
    3648,
    3643,
    3601,
    3606,
    3677,
    3659,
    3644,
    3649,
    3626,
    3610,
    3630,
    3627,
    3595,
    3603,
    3638,
    3653,
    3691,
    3652,
    3631,
    3579,
    3616,
    3611,
    3608,
    3637,
    3641,
    3663,
    3653,
    3658,
    3665,
    3645,
    3630,
    3655,
    3602,
    3599,
    3586,
    3611,
    3639,
    3619,
    3643,
    3588,
    3601,
    3628,
    3650,
    3655,
    3666,
    3663,
    3636,
    3617,
    3621,
    3654,
    3646,
    3633,
    3628,
    3596,
    3632,
    3639,
    3619,
    3636,
    3595,
    3619,
    3630,
    3638,
    3607,
    3648,
    3657,
    3662,
    3634,
    3609,
    3633,
    3610,
    3605,
    3615,
    3630,
    3612,
    3611,
    3633,
    3638,
    3675,
    3669,
    3632,
    3655,
    3646,
    3620,
    3668,
    3660,
    3626,
    3654,
    3614,
    3582,
    3611,
    3646,
    3661,
    3654,
    3637,
    3641,
    3626,
    3631,
    3588,
    3621,
    3622,
    3615,
    3613,
    3644,
    3636,
    3581,
    3575,
    3561,
    3528,
    3574,
    3584,
    3584,
    3551,
    3569,
    3580,
    3568,
    3592,
    3528,
    3531,
    3524,
    3459,
    3552,
    3575,
    3596,
    3559,
    3554,
    3594,
    3602,
    3580,
    3565,
    3573,
    3540,
    3520,
    3571,
    3543,
    3545,
    3558,
    3551,
    3581,
    3597,
    3580,
    3556,
    3583,
    3604,
    3561,
    3581,
    3554,
    3645,
    3591,
    3556,
    3633,
    3649,
    3612,
    3593,
    3553,
    3562,
    3568,
    3572,
    3603,
    3597,
    3570,
    3613,
    3553,
    3563,
    3568,
    3542,
    3574,
    3583,
    3562,
    3557,
    3525,
    3528,
    3523,
    3539,
    3560,
    3587,
    3569,
    3541,
    3474,
    3516,
    3546,
    3583,
    3563,
    3540,
    3504,
    3526,
    3494,
    3579,
    3487,
    3509,
    3527,
    3488,
    3536,
    3498,
    3506,
    3519,
    3532,
    3543,
    3533,
    3505,
    3505,
    3516,
    3508,
    3528,
    3496,
    3469,
    3538,
    3533,
    3503,
    3512,
    3517,
    3511,
    3548,
    3596,
    3545,
    3523,
    3569,
    3566,
    3537,
    3609,
    3533,
    3524,
    3513,
    3481,
    3490,
    3494,
    3469,
    3521,
    3491,
    3471,
    3484,
    3437,
    3459,
    3451,
    3452,
    3482,
    3504,
    3514,
    3504,
    3482,
    3460,
    3466,
    3486
   ],
   "WindowCenter": [
    843.0,
    842.0,
    842.0,
    840.0,
    839.0,
    839.0,
    839.0,
    839.0,
    839.0,
    840.0,
    842.0,
    842.0,
    841.0,
    840.0,
    840.0,
    840.0,
    841.0,
    842.0,
    842.0,
    842.0,
    840.0,
    840.0,
    841.0,
    841.0,
    842.0,
    842.0,
    841.0,
    840.0,
    840.0,
    840.0,
    841.0,
    842.0,
    842.0,
    841.0,
    842.0,
    841.0,
    841.0,
    842.0,
    842.0,
    842.0,
    841.0,
    840.0,
    840.0,
    840.0,
    840.0,
    840.0,
    841.0,
    842.0,
    842.0,
    841.0,
    841.0,
    841.0,
    841.0,
    840.0,
    840.0,
    840.0,
    840.0,
    840.0,
    841.0,
    841.0,
    841.0,
    841.0,
    841.0,
    841.0,
    842.0,
    841.0,
    841.0,
    841.0,
    841.0,
    841.0,
    841.0,
    842.0,
    842.0,
    841.0,
    841.0,
    840.0,
    841.0,
    840.0,
    841.0,
    840.0,
    839.0,
    839.0,
    839.0,
    840.0,
    840.0,
    841.0,
    841.0,
    841.0,
    842.0,
    842.0,
    842.0,
    842.0,
    842.0,
    842.0,
    841.0,
    840.0,
    841.0,
    842.0,
    842.0,
    841.0,
    841.0,
    842.0,
    842.0,
    840.0,
    839.0,
    840.0,
    841.0,
    841.0,
    841.0,
    842.0,
    842.0,
    841.0,
    840.0,
    839.0,
    838.0,
    839.0,
    839.0,
    840.0,
    841.0,
    842.0,
    842.0,
    842.0,
    841.0,
    840.0,
    841.0,
    841.0,
    841.0,
