{
 "AcquisitionMatrixPE": 100,
 "AcquisitionNumber": 1,
 "AcquisitionTime": "12:00:16.495000",
 "BandwidthPerPixelPhaseEncode": 18.519,
 "BaseResolution": 100,
 "BodyPartExamined": "BRAIN",
 "ConsistencyInfo": "N4_VE11C_LATEST_20160120",
 "ConversionSoftware": "dcm2niix",
 "ConversionSoftwareVersion": "v1.0.20180622 GCC4.9.2",
 "DerivedVendorReportedEchoSpacing": 0.000539986,
 "DeviceSerialNumber": "166078",
 "DwellTime": 2.1e-06,
 "EchoTime": 0.034,
 "EchoTrainLength": 100,
 "EffectiveEchoSpacing": 0.000539986,
 "FlipAngle": 90,
 "ImageOrientationPatientDICOM": [
  1,
  0,
  0,
  0,
  0.964557,
  -0.263873
 ],
 "ImageType": [
  "ORIGINAL",
  "PRIMARY",
  "M",
  "ND",
  "MOSAIC"
 ],
 "InPlanePhaseEncodingDirectionDICOM": "COL",
 "InstitutionAddress": "Street_StreetNo_Bei_Jing_District_CN_ZIP",
 "InstitutionName": "BeiJing_Normal_University",
 "InstitutionalDepartmentName": "Department",
 "MRAcquisitionType": "2D",
 "MagneticFieldStrength": 3,
 "Manufacturer": "Siemens",
 "ManufacturersModelName": "Prisma",
 "Modality": "MR",
 "MultibandAccelerationFactor": 3,
 "PartialFourier": 1,
 "PatientPosition": "HFS",
 "PercentPhaseFOV": 100,
 "PhaseEncodingDirection": "j-",
 "PhaseEncodingSteps": 100,
 "PhaseResolution": 1,
 "PixelBandwidth": 2380,
 "ProcedureStepDescription": "BNU_P2018_64CH_Zhen.ZongLei",
 "ProtocolName": "bold_100x100_s3_2x2x2_static_256",
 "PulseSequenceDetails": "%SiemensSeq%_ep2d_bold",
 "ReceiveCoilActiveElements": "HC1-7;NC1",
 "ReceiveCoilName": "HeadNeck_64",
 "ReconMatrixPE": 100,
 "RepetitionTime": 2,
 "SAR": 0.0869097,
 "ScanOptions": "FS",
 "ScanningSequence": "EP",
 "SequenceName": "_epfid2d1_100",
 "SequenceVariant": "SK",
 "SeriesDescription": "bold_100x100_s3_2x2x2_static_256",
 "SeriesNumber": 10,
 "ShimSetting": [
  -5458,
  -11476,
  -1285,
  418,
  -8,
  -101,
  -131,
  76
 ],
 "SliceThickness": 2,
 "SliceTiming": [
  1.485,
  0,
  0.99,
  0.0825,
  1.0725,
  0.165,
  1.155,
  0.2475,
  1.2375,
  0.33,
  1.32,
  0.4125,
  1.4025,
  0.5775,
  1.5675,
  0.66,
  1.65,
  0.7425,
  1.7325,
  0.825,
  1.815,
  0.9075,
  1.8975,
  0.495,
  1.485,
  0,
  0.99,
  0.0825,
  1.0725,
  0.165,
  1.155,
  0.2475,
  1.2375,
  0.33,
  1.32,
  0.4125,
  1.4025,
  0.5775,
  1.5675,
  0.66,
  1.65,
  0.7425,
  1.7325,
  0.825,
  1.815,
  0.9075,
  1.8975,
  0.495,
  1.485,
  0,
  0.99,
  0.0825,
  1.0725,
  0.165,
  1.155,
  0.2475,
  1.2375,
  0.33,
  1.32,
  0.4125,
  1.4025,
  0.5775,
  1.5675,
  0.66,
  1.65,
  0.7425,
  1.7325,
  0.825,
  1.815,
  0.9075,
  1.8975,
  0.495
 ],
 "SoftwareVersions": "syngo_MR_E11",
 "SpacingBetweenSlices": 2,
 "StationName": "AWP166078",
 "TaskName": "imagenet",
 "TotalReadoutTime": 0.0534586,
 "TxRefAmp": 233.897,
 "dcmmeta_affine": [
  [
   -2.0,
   0.0,
   0.0,
   100.0
  ],
  [
   0.0,
   1.929114818572998,
   -0.5277460813522339,
   -75.0446548461914
  ],
  [
   0.0,
   0.5277460813522339,
   1.929114818572998,
   -104.2130126953125
  ],
  [
   0.0,
   0.0,
   0.0,
   1.0
  ]
 ],
 "dcmmeta_reorient_transform": [
  [
   0.0,
   -1.0,
   0.0,
   99.0
  ],
  [
   1.0,
   0.0,
   0.0,
   0.0
  ],
  [
   0.0,
   0.0,
   1.0,
   0.0
  ],
  [
   0.0,
   0.0,
   0.0,
   1.0
  ]
 ],
 "dcmmeta_shape": [
  100,
  100,
  72,
  256
 ],
 "dcmmeta_slice_dim": 2,
 "dcmmeta_version": 0.6,
 "global": {
  "const": {
   "AcquisitionMatrix": [
    100,
    0,
    0,
    100
   ],
   "AngioFlag": "N",
   "BitsAllocated": 16,
   "BitsStored": 12,
   "BodyPartExamined": "BRAIN",
   "Columns": 900,
   "EchoNumbers": 1,
   "EchoTime": 34.0,
   "EchoTrainLength": 100,
   "FlipAngle": 90.0,
   "HighBit": 11,
   "ImageOrientationPatient": [
    1.0,
    0.0,
    0.0,
    0.0,
    0.96455741917473,
    -0.2638730473447
   ],
   "ImagePositionPatient": [
    -900.0,
    -887.58365090533,
    159.1322880204
   ],
   "ImageType": [
    "ORIGINAL",
    "PRIMARY",
    "M",
    "ND",
    "MOSAIC"
   ],
   "ImagedNucleus": "1H",
   "ImagingFrequency": 123.257778,
   "InPlanePhaseEncodingDirection": "COL",
   "MRAcquisitionType": "2D",
   "MagneticFieldStrength": 3.0,
   "Manufacturer": "SIEMENS",
   "ManufacturerModelName": "Prisma",
   "Modality": "MR",
   "NumberOfAverages": 1.0,
   "NumberOfPhaseEncodingSteps": 100,
   "PercentPhaseFieldOfView": 100.0,
   "PercentSampling": 100.0,
   "PerformedProcedureStepStartTime": "110550.613000",
   "PhotometricInterpretation": "MONOCHROME2",
   "PixelBandwidth": 2380.0,
   "PixelRepresentation": 0,
   "PixelSpacing": [
    2.0,
    2.0
   ],
   "ProtocolName": "bold_100x100_s3_2x2x2_static_256",
   "RepetitionTime": 2000.0,
   "Rows": 900,
   "SAR": 0.08690972422199,
   "SamplesPerPixel": 1,
   "ScanOptions": "FS",
   "ScanningSequence": "EP",
   "SequenceName": "*epfid2d1_100",
   "SequenceVariant": "SK",
   "SeriesDescription": "bold_100x100_s3_2x2x2_static_256",
   "SeriesNumber": 10,
   "SeriesTime": "120019.735000",
   "SliceLocation": -80.71717369741,
   "SliceThickness": 2.0,
   "SmallestImagePixelValue": 0,
   "SoftwareVersions": "syngo MR E11",
   "SpacingBetweenSlices": 1.9999999740285,
   "SpecificCharacterSet": "ISO_IR 100",
   "StudyID": "1",
   "StudyTime": "110550.541000",
   "TransmitCoilName": "Body",
   "VariableFlipAngleFlag": "N",
   "WindowCenterWidthExplanation": "Algo1",
   "dBdt": 0.0
  },
  "slices": {}
 },
 "time": {
  "samples": {
   "AcquisitionNumber": [
    1,
    2,
    3,
    4,
    5,
    6,
    7,
    8,
    9,
    10,
    11,
    12,
    13,
    14,
    15,
    16,
    17,
    18,
    19,
    20,
    21,
    22,
    23,
    24,
    25,
    26,
    27,
    28,
    29,
    30,
    31,
    32,
    33,
    34,
    35,
    36,
    37,
    38,
    39,
    40,
    41,
    42,
    43,
    44,
    45,
    46,
    47,
    48,
    49,
    50,
    51,
    52,
    53,
    54,
    55,
    56,
    57,
    58,
    59,
    60,
    61,
    62,
    63,
    64,
    65,
    66,
    67,
    68,
    69,
    70,
    71,
    72,
    73,
    74,
    75,
    76,
    77,
    78,
    79,
    80,
    81,
    82,
    83,
    84,
    85,
    86,
    87,
    88,
    89,
    90,
    91,
    92,
    93,
    94,
    95,
    96,
    97,
    98,
    99,
    100,
    101,
    102,
    103,
    104,
    105,
    106,
    107,
    108,
    109,
    110,
    111,
    112,
    113,
    114,
    115,
    116,
    117,
    118,
    119,
    120,
    121,
    122,
    123,
    124,
    125,
    126,
    127,
    128,
    129,
    130,
    131,
    132,
    133,
    134,
    135,
    136,
    137,
    138,
    139,
    140,
    141,
    142,
    143,
    144,
    145,
    146,
    147,
    148,
    149,
    150,
    151,
    152,
    153,
    154,
    155,
    156,
    157,
    158,
    159,
    160,
    161,
    162,
    163,
    164,
    165,
    166,
    167,
    168,
    169,
    170,
    171,
    172,
    173,
    174,
    175,
    176,
    177,
    178,
    179,
    180,
    181,
    182,
    183,
    184,
    185,
    186,
    187,
    188,
    189,
    190,
    191,
    192,
    193,
    194,
    195,
    196,
    197,
    198,
    199,
    200,
    201,
    202,
    203,
    204,
    205,
    206,
    207,
    208,
    209,
    210,
    211,
    212,
    213,
    214,
    215,
    216,
    217,
    218,
    219,
    220,
    221,
    222,
    223,
    224,
    225,
    226,
    227,
    228,
    229,
    230,
    231,
    232,
    233,
    234,
    235,
    236,
    237,
    238,
    239,
    240,
    241,
    242,
    243,
    244,
    245,
    246,
    247,
    248,
    249,
    250,
    251,
    252,
    253,
    254,
    255,
    256
   ],
   "AcquisitionTime": [
    "120016.495000",
    "120018.495000",
    "120020.495000",
    "120022.495000",
    "120024.495000",
    "120026.495000",
    "120028.495000",
    "120030.495000",
    "120032.495000",
    "120034.495000",
    "120036.495000",
    "120038.495000",
    "120040.495000",
    "120042.495000",
    "120044.495000",
    "120046.495000",
    "120048.495000",
    "120050.495000",
    "120052.495000",
    "120054.495000",
    "120056.495000",
    "120058.495000",
    "120100.495000",
    "120102.495000",
    "120104.495000",
    "120106.495000",
    "120108.495000",
    "120110.495000",
    "120112.495000",
    "120114.495000",
    "120116.495000",
    "120118.495000",
    "120120.495000",
    "120122.495000",
    "120124.495000",
    "120126.495000",
    "120128.495000",
    "120130.495000",
    "120132.495000",
    "120134.495000",
    "120136.495000",
    "120138.495000",
    "120140.495000",
    "120142.495000",
    "120144.495000",
    "120146.495000",
    "120148.495000",
    "120150.495000",
    "120152.495000",
    "120154.495000",
    "120156.495000",
    "120158.495000",
    "120200.495000",
    "120202.495000",
    "120204.495000",
    "120206.495000",
    "120208.495000",
    "120210.495000",
    "120212.495000",
    "120214.495000",
    "120216.495000",
    "120218.495000",
    "120220.495000",
    "120222.495000",
    "120224.495000",
    "120226.495000",
    "120228.495000",
    "120230.495000",
    "120232.495000",
    "120234.495000",
    "120236.495000",
    "120238.495000",
    "120240.495000",
    "120242.495000",
    "120244.495000",
    "120246.495000",
    "120248.495000",
    "120250.495000",
    "120252.495000",
    "120254.495000",
    "120256.495000",
    "120258.495000",
    "120300.495000",
    "120302.495000",
    "120304.495000",
    "120306.495000",
    "120308.495000",
    "120310.495000",
    "120312.495000",
    "120314.495000",
    "120316.495000",
    "120318.495000",
    "120320.495000",
    "120322.495000",
    "120324.495000",
    "120326.495000",
    "120328.495000",
    "120330.495000",
    "120332.495000",
    "120334.495000",
    "120336.495000",
    "120338.495000",
    "120340.495000",
    "120342.495000",
    "120344.495000",
    "120346.495000",
    "120348.495000",
    "120350.495000",
    "120352.495000",
    "120354.495000",
    "120356.495000",
    "120358.495000",
    "120400.495000",
    "120402.495000",
    "120404.495000",
    "120406.495000",
    "120408.495000",
    "120410.495000",
    "120412.495000",
    "120414.495000",
    "120416.495000",
    "120418.495000",
    "120420.495000",
    "120422.495000",
    "120424.495000",
    "120426.495000",
    "120428.495000",
    "120430.495000",
    "120432.495000",
    "120434.495000",
    "120436.495000",
    "120438.495000",
    "120440.495000",
    "120442.495000",
    "120444.495000",
    "120446.495000",
    "120448.495000",
    "120450.495000",
    "120452.495000",
    "120454.495000",
    "120456.495000",
    "120458.495000",
    "120500.495000",
    "120502.495000",
    "120504.495000",
    "120506.495000",
    "120508.495000",
    "120510.495000",
    "120512.495000",
    "120514.495000",
    "120516.495000",
    "120518.495000",
    "120520.495000",
    "120522.495000",
    "120524.495000",
    "120526.495000",
    "120528.495000",
    "120530.495000",
    "120532.495000",
    "120534.495000",
    "120536.495000",
    "120538.495000",
    "120540.495000",
    "120542.495000",
    "120544.495000",
    "120546.495000",
    "120548.495000",
    "120550.495000",
    "120552.495000",
    "120554.495000",
    "120556.495000",
    "120558.495000",
    "120600.495000",
    "120602.495000",
    "120604.495000",
    "120606.495000",
    "120608.495000",
    "120610.495000",
    "120612.495000",
    "120614.495000",
    "120616.495000",
    "120618.495000",
    "120620.495000",
    "120622.495000",
    "120624.495000",
    "120626.495000",
    "120628.495000",
    "120630.495000",
    "120632.495000",
    "120634.495000",
    "120636.495000",
    "120638.495000",
    "120640.495000",
    "120642.495000",
    "120644.495000",
    "120646.495000",
    "120648.495000",
    "120650.495000",
    "120652.495000",
    "120654.495000",
    "120656.495000",
    "120658.495000",
    "120700.495000",
    "120702.495000",
    "120704.495000",
    "120706.495000",
    "120708.495000",
    "120710.495000",
    "120712.495000",
    "120714.495000",
    "120716.495000",
    "120718.495000",
    "120720.495000",
    "120722.495000",
    "120724.495000",
    "120726.495000",
    "120728.495000",
    "120730.495000",
    "120732.495000",
    "120734.495000",
    "120736.495000",
    "120738.495000",
    "120740.495000",
    "120742.495000",
    "120744.495000",
    "120746.495000",
    "120748.495000",
    "120750.495000",
    "120752.495000",
    "120754.495000",
    "120756.495000",
    "120758.495000",
    "120800.495000",
    "120802.495000",
    "120804.495000",
    "120806.495000",
    "120808.495000",
    "120810.495000",
    "120812.495000",
    "120814.495000",
    "120816.495000",
    "120818.495000",
    "120820.495000",
    "120822.495000",
    "120824.495000",
    "120826.495000",
    "120828.495000",
    "120830.495000",
    "120832.495000",
    "120834.495000",
    "120836.495000",
    "120838.495000",
    "120840.495000",
    "120842.495000",
    "120844.495000",
    "120846.495000"
   ],
   "ContentTime": [
    "120019.739000",
    "120021.235000",
    "120022.735000",
    "120025.234000",
    "120026.734000",
    "120028.734000",
    "120031.235000",
    "120033.235000",
    "120034.735000",
    "120036.735000",
    "120038.734000",
    "120040.735000",
    "120042.734000",
    "120045.235000",
    "120046.734000",
    "120048.736000",
    "120050.735000",
    "120052.735000",
    "120054.734000",
    "120056.734000",
    "120059.234000",
    "120100.735000",
    "120102.734000",
    "120104.734000",
    "120106.736000",
    "120109.235000",
    "120110.736000",
    "120112.734000",
    "120114.735000",
    "120116.735000",
    "120118.734000",
    "120120.734000",
    "120122.736000",
    "120124.735000",
    "120126.736000",
    "120128.736000",
    "120131.235000",
    "120132.735000",
    "120134.734000",
    "120136.735000",
    "120138.735000",
    "120140.736000",
    "120142.735000",
    "120145.235000",
    "120147.235000",
    "120148.734000",
    "120150.734000",
    "120153.234000",
    "120154.734000",
    "120156.734000",
    "120158.736000",
    "120200.736000",
    "120204.236000",
    "120205.234000",
    "120206.734000",
    "120208.735000",
    "120210.734000",
    "120212.735000",
    "120215.236000",
    "120216.736000",
    "120218.736000",
    "120220.736000",
    "120222.735000",
    "120224.735000",
    "120226.735000",
    "120229.235000",
    "120230.735000",
    "120232.736000",
    "120234.735000",
    "120237.235000",
    "120238.736000",
    "120240.735000",
    "120242.734000",
    "120244.734000",
    "120247.235000",
    "120248.734000",
    "120250.735000",
    "120252.735000",
    "120254.735000",
    "120257.234000",
    "120259.234000",
    "120300.734000",
    "120302.735000",
    "120304.734000",
    "120306.735000",
    "120308.736000",
    "120310.735000",
    "120312.736000",
    "120314.735000",
    "120316.735000",
    "120318.735000",
    "120321.235000",
    "120322.735000",
    "120324.734000",
    "120326.735000",
    "120328.736000",
    "120330.736000",
    "120332.735000",
    "120334.734000",
    "120336.735000",
    "120339.235000",
    "120341.234000",
    "120343.236000",
    "120344.736000",
    "120346.736000",
    "120349.236000",
    "120350.735000",
    "120352.735000",
    "120355.235000",
    "120356.734000",
    "120358.735000",
    "120401.235000",
    "120402.736000",
    "120404.735000",
    "120406.736000",
    "120408.735000",
    "120410.735000",
    "120412.734000",
    "120414.735000",
    "120416.735000",
    "120418.735000",
    "120420.736000",
    "120423.235000",
    "120424.735000",
    "120426.735000",
    "120428.734000",
    "120431.234000",
    "120432.735000",
    "120434.735000",
    "120436.736000",
    "120438.736000",
    "120441.236000",
    "120442.735000",
    "120444.735000",
    "120446.735000",
    "120448.735000",
    "120450.734000",
    "120452.736000",
    "120454.736000",
    "120456.735000",
    "120458.736000",
    "120500.735000",
    "120502.735000",
    "120504.735000",
    "120506.734000",
    "120509.234000",
    "120510.735000",
    "120512.735000",
    "120514.736000",
    "120516.736000",
    "120518.734000",
    "120521.234000",
    "120523.234000",
    "120524.734000",
    "120526.735000",
    "120529.236000",
    "120530.736000",
    "120533.236000",
    "120534.734000",
    "120536.735000",
    "120538.735000",
    "120541.234000",
    "120543.235000",
    "120545.236000",
    "120546.735000",
    "120548.736000",
    "120550.736000",
    "120552.735000",
    "120554.735000",
    "120557.235000",
    "120558.735000",
    "120601.234000",
    "120602.736000",
    "120604.735000",
    "120607.236000",
    "120609.236000",
    "120610.735000",
    "120612.735000",
    "120614.735000",
    "120616.735000",
    "120619.234000",
    "120620.736000",
    "120622.736000",
    "120624.736000",
    "120626.736000",
    "120628.735000",
    "120630.735000",
    "120632.735000",
    "120634.735000",
    "120636.735000",
    "120638.736000",
    "120641.236000",
    "120642.736000",
    "120645.235000",
    "120646.734000",
    "120649.235000",
    "120650.734000",
    "120652.735000",
    "120655.244000",
    "120656.736000",
    "120658.736000",
    "120700.735000",
    "120702.735000",
    "120705.235000",
    "120707.235000",
    "120709.235000",
    "120711.235000",
    "120713.235000",
    "120714.736000",
    "120717.236000",
    "120719.236000",
    "120721.234000",
    "120722.735000",
    "120724.735000",
    "120726.735000",
    "120728.735000",
    "120731.236000",
    "120732.735000",
    "120734.736000",
    "120736.736000",
    "120738.734000",
    "120741.235000",
    "120742.735000",
    "120745.234000",
    "120746.735000",
    "120749.235000",
    "120750.736000",
    "120752.735000",
    "120755.235000",
    "120757.235000",
    "120758.734000",
    "120800.735000",
    "120803.235000",
    "120805.236000",
    "120806.736000",
    "120808.736000",
    "120810.736000",
    "120813.234000",
    "120815.234000",
    "120817.235000",
    "120818.735000",
    "120821.235000",
    "120823.235000",
    "120825.235000",
    "120826.736000",
    "120828.736000",
    "120830.734000",
    "120832.735000",
    "120834.735000",
    "120836.735000",
    "120839.235000",
    "120841.235000",
    "120842.736000",
    "120844.736000",
    "120846.736000",
    "120848.729000"
   ],
   "InstanceCreationTime": [
    "120019.739000",
    "120021.235000",
    "120022.735000",
    "120025.234000",
    "120026.734000",
    "120028.734000",
    "120031.235000",
    "120033.235000",
    "120034.735000",
    "120036.735000",
    "120038.734000",
    "120040.735000",
    "120042.734000",
    "120045.235000",
    "120046.734000",
    "120048.736000",
    "120050.735000",
    "120052.735000",
    "120054.734000",
    "120056.734000",
    "120059.234000",
    "120100.735000",
    "120102.734000",
    "120104.734000",
    "120106.736000",
    "120109.235000",
    "120110.736000",
    "120112.734000",
    "120114.735000",
    "120116.735000",
    "120118.734000",
    "120120.734000",
    "120122.736000",
    "120124.735000",
    "120126.736000",
    "120128.736000",
    "120131.235000",
    "120132.735000",
    "120134.734000",
    "120136.735000",
    "120138.735000",
    "120140.736000",
    "120142.735000",
    "120145.235000",
    "120147.235000",
    "120148.734000",
    "120150.734000",
    "120153.234000",
    "120154.734000",
    "120156.734000",
    "120158.736000",
    "120200.736000",
    "120204.236000",
    "120205.234000",
    "120206.734000",
    "120208.735000",
    "120210.734000",
    "120212.735000",
    "120215.236000",
    "120216.736000",
    "120218.736000",
    "120220.736000",
    "120222.735000",
    "120224.735000",
    "120226.735000",
    "120229.235000",
    "120230.735000",
    "120232.736000",
    "120234.735000",
    "120237.235000",
    "120238.736000",
    "120240.735000",
    "120242.734000",
    "120244.734000",
    "120247.235000",
    "120248.734000",
    "120250.735000",
    "120252.735000",
    "120254.735000",
    "120257.234000",
    "120259.234000",
    "120300.734000",
    "120302.735000",
    "120304.734000",
    "120306.735000",
    "120308.736000",
    "120310.735000",
    "120312.736000",
    "120314.735000",
    "120316.735000",
    "120318.735000",
    "120321.235000",
    "120322.735000",
    "120324.734000",
    "120326.735000",
    "120328.736000",
    "120330.736000",
    "120332.735000",
    "120334.734000",
    "120336.735000",
    "120339.235000",
    "120341.234000",
    "120343.236000",
    "120344.736000",
    "120346.736000",
    "120349.236000",
    "120350.735000",
    "120352.735000",
    "120355.235000",
    "120356.734000",
    "120358.735000",
    "120401.235000",
    "120402.736000",
    "120404.735000",
    "120406.736000",
    "120408.735000",
    "120410.735000",
    "120412.734000",
    "120414.735000",
    "120416.735000",
    "120418.735000",
    "120420.736000",
    "120423.235000",
    "120424.735000",
    "120426.735000",
    "120428.734000",
    "120431.234000",
    "120432.735000",
    "120434.735000",
    "120436.736000",
    "120438.736000",
    "120441.236000",
    "120442.735000",
    "120444.735000",
    "120446.735000",
    "120448.735000",
    "120450.734000",
    "120452.736000",
    "120454.736000",
    "120456.735000",
    "120458.736000",
    "120500.735000",
    "120502.735000",
    "120504.735000",
    "120506.734000",
    "120509.234000",
    "120510.735000",
    "120512.735000",
    "120514.736000",
    "120516.736000",
    "120518.734000",
    "120521.234000",
    "120523.234000",
    "120524.734000",
    "120526.735000",
    "120529.236000",
    "120530.736000",
    "120533.236000",
    "120534.734000",
    "120536.735000",
    "120538.735000",
    "120541.234000",
    "120543.235000",
    "120545.236000",
    "120546.735000",
    "120548.736000",
    "120550.736000",
    "120552.735000",
    "120554.735000",
    "120557.235000",
    "120558.735000",
    "120601.234000",
    "120602.736000",
    "120604.735000",
    "120607.236000",
    "120609.236000",
    "120610.735000",
    "120612.735000",
    "120614.735000",
    "120616.735000",
    "120619.234000",
    "120620.736000",
    "120622.736000",
    "120624.736000",
    "120626.736000",
    "120628.735000",
    "120630.735000",
    "120632.735000",
    "120634.735000",
    "120636.735000",
    "120638.736000",
    "120641.236000",
    "120642.736000",
    "120645.235000",
    "120646.734000",
    "120649.235000",
    "120650.734000",
    "120652.735000",
    "120655.244000",
    "120656.736000",
    "120658.736000",
    "120700.735000",
    "120702.735000",
    "120705.235000",
    "120707.235000",
    "120709.235000",
    "120711.235000",
    "120713.235000",
    "120714.736000",
    "120717.236000",
    "120719.236000",
    "120721.234000",
    "120722.735000",
    "120724.735000",
    "120726.735000",
    "120728.735000",
    "120731.236000",
    "120732.735000",
    "120734.736000",
    "120736.736000",
    "120738.734000",
    "120741.235000",
    "120742.735000",
    "120745.234000",
    "120746.735000",
    "120749.235000",
    "120750.736000",
    "120752.735000",
    "120755.235000",
    "120757.235000",
    "120758.734000",
    "120800.735000",
    "120803.235000",
    "120805.236000",
    "120806.736000",
    "120808.736000",
    "120810.736000",
    "120813.234000",
    "120815.234000",
    "120817.235000",
    "120818.735000",
    "120821.235000",
    "120823.235000",
    "120825.235000",
    "120826.736000",
    "120828.736000",
    "120830.734000",
    "120832.735000",
    "120834.735000",
    "120836.735000",
    "120839.235000",
    "120841.235000",
    "120842.736000",
    "120844.736000",
    "120846.736000",
    "120848.729000"
   ],
   "InstanceNumber": [
    1,
    2,
    3,
    4,
    5,
    6,
    7,
    8,
    9,
    10,
    11,
    12,
    13,
    14,
    15,
    16,
    17,
    18,
    19,
    20,
    21,
    22,
    23,
    24,
    25,
    26,
    27,
    28,
    29,
    30,
    31,
    32,
    33,
    34,
    35,
    36,
    37,
    38,
    39,
    40,
    41,
    42,
    43,
    44,
    45,
    46,
    47,
    48,
    49,
    50,
    51,
    52,
    53,
    54,
    55,
    56,
    57,
    58,
    59,
    60,
    61,
    62,
    63,
    64,
    65,
    66,
    67,
    68,
    69,
    70,
    71,
    72,
    73,
    74,
    75,
    76,
    77,
    78,
    79,
    80,
    81,
    82,
    83,
    84,
    85,
    86,
    87,
    88,
    89,
    90,
    91,
    92,
    93,
    94,
    95,
    96,
    97,
    98,
    99,
    100,
    101,
    102,
    103,
    104,
    105,
    106,
    107,
    108,
    109,
    110,
    111,
    112,
    113,
    114,
    115,
    116,
    117,
    118,
    119,
    120,
    121,
    122,
    123,
    124,
    125,
    126,
    127,
    128,
    129,
    130,
    131,
    132,
    133,
    134,
    135,
    136,
    137,
    138,
    139,
    140,
    141,
    142,
    143,
    144,
    145,
    146,
    147,
    148,
    149,
    150,
    151,
    152,
    153,
    154,
    155,
    156,
    157,
    158,
    159,
    160,
    161,
    162,
    163,
    164,
    165,
    166,
    167,
    168,
    169,
    170,
    171,
    172,
    173,
    174,
    175,
    176,
    177,
    178,
    179,
    180,
    181,
    182,
    183,
    184,
    185,
    186,
    187,
    188,
    189,
    190,
    191,
    192,
    193,
    194,
    195,
    196,
    197,
    198,
    199,
    200,
    201,
    202,
    203,
    204,
    205,
    206,
    207,
    208,
    209,
    210,
    211,
    212,
    213,
    214,
    215,
    216,
    217,
    218,
    219,
    220,
    221,
    222,
    223,
    224,
    225,
    226,
    227,
    228,
    229,
    230,
    231,
    232,
    233,
    234,
    235,
    236,
    237,
    238,
    239,
    240,
    241,
    242,
    243,
    244,
    245,
    246,
    247,
    248,
    249,
    250,
    251,
    252,
    253,
    254,
    255,
    256
   ],
   "LargestImagePixelValue": [
    3619,
    3493,
    3476,
    3450,
    3421,
    3473,
    3438,
    3431,
    3438,
    3441,
    3457,
    3457,
    3498,
    3490,
    3472,
    3444,
    3444,
    3431,
    3464,
    3469,
    3478,
    3450,
    3485,
    3493,
    3437,
    3459,
    3427,
    3432,
    3432,
    3445,
    3433,
    3432,
    3449,
    3435,
    3430,
    3451,
    3456,
    3440,
    3434,
    3449,
    3445,
    3426,
    3422,
    3443,
    3437,
    3438,
    3454,
    3447,
    3419,
    3430,
    3449,
    3425,
    3432,
    3389,
    3436,
    3417,
    3429,
    3436,
    3400,
    3436,
    3406,
    3430,
    3440,
    3403,
    3442,
    3459,
    3449,
    3456,
    3446,
    3419,
    3438,
    3414,
    3440,
    3467,
    3457,
    3431,
    3444,
    3435,
    3432,
    3426,
    3419,
    3417,
    3488,
    3457,
    3455,
    3455,
    3441,
    3459,
    3435,
    3450,
    3457,
    3469,
    3493,
    3397,
    3417,
    3442,
    3445,
    3446,
    3437,
    3424,
    3425,
    3491,
    3486,
    3459,
    3402,
    3365,
    3386,
    3427,
    3448,
    3450,
    3473,
    3423,
    3460,
    3451,
    3459,
    3456,
    3422,
    3429,
    3436,
    3402,
    3449,
    3472,
    3467,
    3446,
    3473,
    3433,
    3455,
    3459,
    3490,
    3419,
    3456,
    3455,
    3462,
    3512,
    3482,
    3473,
    3484,
    3458,
    3475,
    3466,
    3473,
    3446,
    3498,
    3441,
    3462,
    3427,
    3417,
    3448,
    3422,
    3446,
    3489,
    3494,
    3444,
    3473,
    3457,
    3466,
    3476,
    3513,
    3498,
    3460,
    3435,
    3420,
    3416,
    3432,
    3409,
    3449,
    3496,
    3543,
    3467,
    3468,
    3403,
    3423,
    3389,
    3368,
    3417,
    3399,
    3395,
    3407,
    3424,
    3393,
    3410,
    3455,
    3483,
    3478,
    3438,
    3438,
    3415,
    3425,
    3457,
    3494,
    3482,
    3475,
    3405,
    3399,
    3407,
    3410,
    3450,
    3445,
    3439,
    3398,
    3382,
    3381,
    3402,
    3447,
    3461,
    3461,
    3461,
    3414,
    3385,
    3407,
    3424,
    3459,
    3441,
    3428,
    3435,
    3460,
    3440,
    3393,
    3361,
    3386,
    3386,
    3409,
    3358,
    3370,
    3381,
    3381,
    3400,
    3436,
    3434,
    3403,
    3353,
    3376,
    3417,
    3453,
    3462,
    3464,
    3413,
    3386,
    3367,
    3360,
    3400,
    3372,
    3398,
    3450,
    3465,
    3448,
    3459,
    3470,
    3464,
    3431,
    3412,
    3370,
    3342,
    3350,
    3361,
    3334
   ],
   "WindowCenter": [
    845.0,
    842.0,
    842.0,
    843.0,
    842.0,
    841.0,
    839.0,
    840.0,
    840.0,
    843.0,
    844.0,
    844.0,
    843.0,
    842.0,
    840.0,
    840.0,
    840.0,
    842.0,
    843.0,
    842.0,
    841.0,
    841.0,
    842.0,
    842.0,
    842.0,
    842.0,
    842.0,
    841.0,
    839.0,
    839.0,
    840.0,
    840.0,
    841.0,
    841.0,
    841.0,
    842.0,
    842.0,
    842.0,
    842.0,
    842.0,
    842.0,
    842.0,
    843.0,
    842.0,
    842.0,
    842.0,
    844.0,
    844.0,
    845.0,
    844.0,
    843.0,
    842.0,
    842.0,
    843.0,
    844.0,
    844.0,
    843.0,
    842.0,
    842.0,
    842.0,
    842.0,
    842.0,
    842.0,
    842.0,
    842.0,
    841.0,
    842.0,
    842.0,
    842.0,
    841.0,
    841.0,
    841.0,
    842.0,
    842.0,
    841.0,
    841.0,
    842.0,
    843.0,
    843.0,
    844.0,
    844.0,
    842.0,
    842.0,
    844.0,
    844.0,
    843.0,
    841.0,
    840.0,
    840.0,
    842.0,
    843.0,
    843.0,
    842.0,
    841.0,
    842.0,
    843.0,
    843.0,
    842.0,
    840.0,
    840.0,
    841.0,
    842.0,
    841.0,
    839.0,
    838.0,
    838.0,
    839.0,
    840.0,
    840.0,
    841.0,
    842.0,
    843.0,
    843.0,
    842.0,
    842.0,
    842.0,
    841.0,
    840.0,
    839.0,
    839.0,
    841.0,
    841.0,
    841.0,
    841.0,
    841.0,
    842.0,
    843.0,
