{
 "AcquisitionMatrixPE": 100,
 "AcquisitionNumber": 1,
 "AcquisitionTime": "15:18:20.082500",
 "BandwidthPerPixelPhaseEncode": 18.519,
 "BaseResolution": 100,
 "BodyPartExamined": "BRAIN",
 "ConsistencyInfo": "N4_VE11C_LATEST_20160120",
 "ConversionSoftware": "dcm2niix",
 "ConversionSoftwareVersion": "v1.0.20180622 GCC4.9.2",
 "DerivedVendorReportedEchoSpacing": 0.000539986,
 "DeviceSerialNumber": "166078",
 "DwellTime": 2.1e-06,
 "EchoTime": 0.034,
 "EchoTrainLength": 100,
 "EffectiveEchoSpacing": 0.000539986,
 "FlipAngle": 90,
 "ImageOrientationPatientDICOM": [
  1,
  0,
  0,
  0,
  0.981627,
  -0.190809
 ],
 "ImageType": [
  "ORIGINAL",
  "PRIMARY",
  "M",
  "ND",
  "MOSAIC"
 ],
 "InPlanePhaseEncodingDirectionDICOM": "COL",
 "InstitutionAddress": "Street_StreetNo_Bei_Jing_District_CN_ZIP",
 "InstitutionName": "BeiJing_Normal_University",
 "InstitutionalDepartmentName": "Department",
 "MRAcquisitionType": "2D",
 "MagneticFieldStrength": 3,
 "Manufacturer": "Siemens",
 "ManufacturersModelName": "Prisma",
 "Modality": "MR",
 "MultibandAccelerationFactor": 3,
 "PartialFourier": 1,
 "PatientPosition": "HFS",
 "PercentPhaseFOV": 100,
 "PhaseEncodingDirection": "j-",
 "PhaseEncodingSteps": 100,
 "PhaseResolution": 1,
 "PixelBandwidth": 2380,
 "ProcedureStepDescription": "BNU_P2018_64CH_Zhen.ZongLei",
 "ProtocolName": "bold_100x100_s3_2x2x2_static_256",
 "PulseSequenceDetails": "%SiemensSeq%_ep2d_bold",
 "ReceiveCoilActiveElements": "HC1-7;NC1",
 "ReceiveCoilName": "HeadNeck_64",
 "ReconMatrixPE": 100,
 "RepetitionTime": 2,
 "SAR": 0.0884212,
 "ScanOptions": "FS",
 "ScanningSequence": "EP",
 "SequenceName": "_epfid2d1_100",
 "SequenceVariant": "SK",
 "SeriesDescription": "bold_100x100_s3_2x2x2_static_256",
 "SeriesNumber": 17,
 "ShimSetting": [
  -5458,
  -11480,
  -1240,
  394,
  -13,
  -172,
  -191,
  72
 ],
 "SliceThickness": 2,
 "SliceTiming": [
  1.485,
  0,
  0.99,
  0.0825,
  1.0725,
  0.165,
  1.155,
  0.2475,
  1.2375,
  0.33,
  1.32,
  0.4125,
  1.4025,
  0.5775,
  1.5675,
  0.66,
  1.65,
  0.7425,
  1.7325,
  0.825,
  1.815,
  0.9075,
  1.8975,
  0.495,
  1.485,
  0,
  0.99,
  0.0825,
  1.0725,
  0.165,
  1.155,
  0.2475,
  1.2375,
  0.33,
  1.32,
  0.4125,
  1.4025,
  0.5775,
  1.5675,
  0.66,
  1.65,
  0.7425,
  1.7325,
  0.825,
  1.815,
  0.9075,
  1.8975,
  0.495,
  1.485,
  0,
  0.99,
  0.0825,
  1.0725,
  0.165,
  1.155,
  0.2475,
  1.2375,
  0.33,
  1.32,
  0.4125,
  1.4025,
  0.5775,
  1.5675,
  0.66,
  1.65,
  0.7425,
  1.7325,
  0.825,
  1.815,
  0.9075,
  1.8975,
  0.495
 ],
 "SoftwareVersions": "syngo_MR_E11",
 "SpacingBetweenSlices": 2,
 "StationName": "AWP166078",
 "TaskName": "imagenet",
 "TotalReadoutTime": 0.0534586,
 "TxRefAmp": 231.76,
 "dcmmeta_affine": [
  [
   -2.0,
   0.0,
   0.0,
   101.34939575195312
  ],
  [
   0.0,
   1.9632543325424194,
   -0.3816179931163788,
   -83.92913055419922
  ],
  [
   0.0,
   0.3816179633140564,
   1.963254451751709,
   -76.1924057006836
  ],
  [
   0.0,
   0.0,
   0.0,
   1.0
  ]
 ],
 "dcmmeta_reorient_transform": [
  [
   0.0,
   -1.0,
   0.0,
   99.0
  ],
  [
   1.0,
   0.0,
   0.0,
   0.0
  ],
  [
   0.0,
   0.0,
   1.0,
   0.0
  ],
  [
   0.0,
   0.0,
   0.0,
   1.0
  ]
 ],
 "dcmmeta_shape": [
  100,
  100,
  72,
  256
 ],
 "dcmmeta_slice_dim": 2,
 "dcmmeta_version": 0.6,
 "global": {
  "const": {
   "AcquisitionMatrix": [
    100,
    0,
    0,
    100
   ],
   "AngioFlag": "N",
   "BitsAllocated": 16,
   "BitsStored": 12,
   "BodyPartExamined": "BRAIN",
   "Columns": 900,
   "EchoNumbers": 1,
   "EchoTime": 34.0,
   "EchoTrainLength": 100,
   "FlipAngle": 90.0,
   "HighBit": 11,
   "ImageOrientationPatient": [
    1.0,
    0.0,
    0.0,
    0.0,
    0.98162718523795,
    -0.1908089861663
   ],
   "ImagePositionPatient": [
    -901.34939754009,
    -895.73479714323,
    114.23496544886
   ],
   "ImageType": [
    "ORIGINAL",
    "PRIMARY",
    "M",
    "ND",
    "MOSAIC"
   ],
   "ImagedNucleus": "1H",
   "ImagingFrequency": 123.25776,
   "InPlanePhaseEncodingDirection": "COL",
   "MRAcquisitionType": "2D",
   "MagneticFieldStrength": 3.0,
   "Manufacturer": "SIEMENS",
   "ManufacturerModelName": "Prisma",
   "Modality": "MR",
   "NumberOfAverages": 1.0,
   "NumberOfPhaseEncodingSteps": 100,
   "PercentPhaseFieldOfView": 100.0,
   "PercentSampling": 100.0,
   "PerformedProcedureStepStartTime": "135813.353000",
   "PhotometricInterpretation": "MONOCHROME2",
   "PixelBandwidth": 2380.0,
   "PixelRepresentation": 0,
   "PixelSpacing": [
    2.0,
    2.0
   ],
   "ProtocolName": "bold_100x100_s3_2x2x2_static_256",
   "RepetitionTime": 2000.0,
   "Rows": 900,
   "SAR": 0.08842116980773,
   "SamplesPerPixel": 1,
   "ScanOptions": "FS",
   "ScanningSequence": "EP",
   "SequenceName": "*epfid2d1_100",
   "SequenceVariant": "SK",
   "SeriesDescription": "bold_100x100_s3_2x2x2_static_256",
   "SeriesNumber": 17,
   "SeriesTime": "151822.840000",
   "SliceLocation": -58.778100927478,
   "SliceThickness": 2.0,
   "SmallestImagePixelValue": 0,
   "SoftwareVersions": "syngo MR E11",
   "SpacingBetweenSlices": 2.0000000500643,
   "SpecificCharacterSet": "ISO_IR 100",
   "StudyID": "1",
   "StudyTime": "135813.261000",
   "TransmitCoilName": "Body",
   "VariableFlipAngleFlag": "N",
   "WindowCenterWidthExplanation": "Algo1",
   "dBdt": 0.0
  },
  "slices": {}
 },
 "time": {
  "samples": {
   "AcquisitionNumber": [
    1,
    2,
    3,
    4,
    5,
    6,
    7,
    8,
    9,
    10,
    11,
    12,
    13,
    14,
    15,
    16,
    17,
    18,
    19,
    20,
    21,
    22,
    23,
    24,
    25,
    26,
    27,
    28,
    29,
    30,
    31,
    32,
    33,
    34,
    35,
    36,
    37,
    38,
    39,
    40,
    41,
    42,
    43,
    44,
    45,
    46,
    47,
    48,
    49,
    50,
    51,
    52,
    53,
    54,
    55,
    56,
    57,
    58,
    59,
    60,
    61,
    62,
    63,
    64,
    65,
    66,
    67,
    68,
    69,
    70,
    71,
    72,
    73,
    74,
    75,
    76,
    77,
    78,
    79,
    80,
    81,
    82,
    83,
    84,
    85,
    86,
    87,
    88,
    89,
    90,
    91,
    92,
    93,
    94,
    95,
    96,
    97,
    98,
    99,
    100,
    101,
    102,
    103,
    104,
    105,
    106,
    107,
    108,
    109,
    110,
    111,
    112,
    113,
    114,
    115,
    116,
    117,
    118,
    119,
    120,
    121,
    122,
    123,
    124,
    125,
    126,
    127,
    128,
    129,
    130,
    131,
    132,
    133,
    134,
    135,
    136,
    137,
    138,
    139,
    140,
    141,
    142,
    143,
    144,
    145,
    146,
    147,
    148,
    149,
    150,
    151,
    152,
    153,
    154,
    155,
    156,
    157,
    158,
    159,
    160,
    161,
    162,
    163,
    164,
    165,
    166,
    167,
    168,
    169,
    170,
    171,
    172,
    173,
    174,
    175,
    176,
    177,
    178,
    179,
    180,
    181,
    182,
    183,
    184,
    185,
    186,
    187,
    188,
    189,
    190,
    191,
    192,
    193,
    194,
    195,
    196,
    197,
    198,
    199,
    200,
    201,
    202,
    203,
    204,
    205,
    206,
    207,
    208,
    209,
    210,
    211,
    212,
    213,
    214,
    215,
    216,
    217,
    218,
    219,
    220,
    221,
    222,
    223,
    224,
    225,
    226,
    227,
    228,
    229,
    230,
    231,
    232,
    233,
    234,
    235,
    236,
    237,
    238,
    239,
    240,
    241,
    242,
    243,
    244,
    245,
    246,
    247,
    248,
    249,
    250,
    251,
    252,
    253,
    254,
    255,
    256
   ],
   "AcquisitionTime": [
    "151820.082500",
    "151822.082500",
    "151824.082500",
    "151826.082500",
    "151828.082500",
    "151830.082500",
    "151832.082500",
    "151834.082500",
    "151836.082500",
    "151838.082500",
    "151840.082500",
    "151842.082500",
    "151844.082500",
    "151846.082500",
    "151848.082500",
    "151850.082500",
    "151852.082500",
    "151854.082500",
    "151856.082500",
    "151858.082500",
    "151900.082500",
    "151902.082500",
    "151904.082500",
    "151906.082500",
    "151908.082500",
    "151910.082500",
    "151912.082500",
    "151914.082500",
    "151916.082500",
    "151918.082500",
    "151920.082500",
    "151922.082500",
    "151924.082500",
    "151926.082500",
    "151928.082500",
    "151930.082500",
    "151932.082500",
    "151934.082500",
    "151936.082500",
    "151938.082500",
    "151940.082500",
    "151942.082500",
    "151944.082500",
    "151946.082500",
    "151948.082500",
    "151950.082500",
    "151952.082500",
    "151954.082500",
    "151956.082500",
    "151958.082500",
    "152000.082500",
    "152002.082500",
    "152004.082500",
    "152006.082500",
    "152008.082500",
    "152010.082500",
    "152012.082500",
    "152014.082500",
    "152016.082500",
    "152018.082500",
    "152020.082500",
    "152022.082500",
    "152024.082500",
    "152026.082500",
    "152028.082500",
    "152030.082500",
    "152032.082500",
    "152034.082500",
    "152036.082500",
    "152038.082500",
    "152040.082500",
    "152042.082500",
    "152044.082500",
    "152046.082500",
    "152048.082500",
    "152050.082500",
    "152052.082500",
    "152054.082500",
    "152056.082500",
    "152058.082500",
    "152100.082500",
    "152102.082500",
    "152104.082500",
    "152106.082500",
    "152108.082500",
    "152110.082500",
    "152112.082500",
    "152114.082500",
    "152116.082500",
    "152118.082500",
    "152120.082500",
    "152122.082500",
    "152124.082500",
    "152126.082500",
    "152128.082500",
    "152130.082500",
    "152132.082500",
    "152134.082500",
    "152136.082500",
    "152138.082500",
    "152140.082500",
    "152142.082500",
    "152144.082500",
    "152146.082500",
    "152148.082500",
    "152150.082500",
    "152152.082500",
    "152154.082500",
    "152156.082500",
    "152158.082500",
    "152200.082500",
    "152202.082500",
    "152204.082500",
    "152206.082500",
    "152208.082500",
    "152210.082500",
    "152212.082500",
    "152214.082500",
    "152216.082500",
    "152218.082500",
    "152220.082500",
    "152222.082500",
    "152224.082500",
    "152226.082500",
    "152228.082500",
    "152230.082500",
    "152232.082500",
    "152234.082500",
    "152236.082500",
    "152238.082500",
    "152240.082500",
    "152242.082500",
    "152244.082500",
    "152246.082500",
    "152248.082500",
    "152250.082500",
    "152252.082500",
    "152254.082500",
    "152256.082500",
    "152258.082500",
    "152300.082500",
    "152302.082500",
    "152304.082500",
    "152306.082500",
    "152308.082500",
    "152310.082500",
    "152312.082500",
    "152314.082500",
    "152316.082500",
    "152318.082500",
    "152320.082500",
    "152322.082500",
    "152324.082500",
    "152326.082500",
    "152328.082500",
    "152330.082500",
    "152332.082500",
    "152334.082500",
    "152336.082500",
    "152338.082500",
    "152340.082500",
    "152342.082500",
    "152344.082500",
    "152346.082500",
    "152348.082500",
    "152350.082500",
    "152352.082500",
    "152354.082500",
    "152356.082500",
    "152358.082500",
    "152400.082500",
    "152402.082500",
    "152404.082500",
    "152406.082500",
    "152408.082500",
    "152410.082500",
    "152412.082500",
    "152414.082500",
    "152416.082500",
    "152418.082500",
    "152420.082500",
    "152422.082500",
    "152424.082500",
    "152426.082500",
    "152428.082500",
    "152430.082500",
    "152432.082500",
    "152434.082500",
    "152436.082500",
    "152438.082500",
    "152440.082500",
    "152442.082500",
    "152444.082500",
    "152446.082500",
    "152448.082500",
    "152450.082500",
    "152452.082500",
    "152454.082500",
    "152456.082500",
    "152458.082500",
    "152500.082500",
    "152502.082500",
    "152504.082500",
    "152506.082500",
    "152508.082500",
    "152510.082500",
    "152512.082500",
    "152514.082500",
    "152516.082500",
    "152518.082500",
    "152520.082500",
    "152522.082500",
    "152524.082500",
    "152526.082500",
    "152528.082500",
    "152530.082500",
    "152532.082500",
    "152534.082500",
    "152536.082500",
    "152538.082500",
    "152540.082500",
    "152542.082500",
    "152544.082500",
    "152546.082500",
    "152548.082500",
    "152550.082500",
    "152552.082500",
    "152554.082500",
    "152556.082500",
    "152558.082500",
    "152600.082500",
    "152602.082500",
    "152604.082500",
    "152606.082500",
    "152608.082500",
    "152610.082500",
    "152612.082500",
    "152614.082500",
    "152616.082500",
    "152618.082500",
    "152620.082500",
    "152622.082500",
    "152624.082500",
    "152626.082500",
    "152628.082500",
    "152630.082500",
    "152632.082500",
    "152634.082500",
    "152636.082500",
    "152638.082500",
    "152640.082500",
    "152642.082500",
    "152644.082500",
    "152646.082500",
    "152648.082500",
    "152650.082500"
   ],
   "ContentTime": [
    "151822.844000",
    "151824.340000",
    "151826.339000",
    "151828.339000",
    "151830.338000",
    "151832.338000",
    "151834.339000",
    "151836.339000",
    "151838.340000",
    "151840.339000",
    "151842.339000",
    "151844.338000",
    "151846.339000",
    "151848.339000",
    "151850.339000",
    "151852.340000",
    "151854.339000",
    "151856.340000",
    "151858.339000",
    "151900.339000",
    "151902.339000",
    "151904.339000",
    "151906.338000",
    "151908.338000",
    "151910.339000",
    "151912.339000",
    "151914.339000",
    "151916.340000",
    "151918.338000",
    "151920.339000",
    "151922.338000",
    "151924.338000",
    "151926.339000",
    "151928.339000",
    "151930.339000",
    "151932.339000",
    "151934.340000",
    "151936.339000",
    "151938.338000",
    "151940.339000",
    "151942.339000",
    "151944.340000",
    "151946.340000",
    "151948.340000",
    "151950.339000",
    "151952.339000",
    "151954.338000",
    "151956.338000",
    "151958.338000",
    "152000.339000",
    "152002.340000",
    "152004.340000",
    "152006.339000",
    "152008.339000",
    "152010.340000",
    "152012.339000",
    "152014.338000",
    "152016.338000",
    "152018.338000",
    "152020.340000",
    "152022.339000",
    "152024.340000",
    "152026.340000",
    "152028.338000",
    "152030.338000",
    "152032.338000",
    "152034.338000",
    "152036.339000",
    "152038.339000",
    "152040.340000",
    "152042.339000",
    "152044.339000",
    "152046.339000",
    "152048.339000",
    "152050.339000",
    "152052.339000",
    "152054.340000",
    "152056.340000",
    "152058.339000",
    "152100.340000",
    "152102.340000",
    "152104.339000",
    "152106.339000",
    "152108.339000",
    "152110.338000",
    "152112.339000",
    "152114.339000",
    "152116.339000",
    "152118.339000",
    "152120.339000",
    "152122.338000",
    "152124.339000",
    "152126.338000",
    "152128.338000",
    "152130.340000",
    "152132.340000",
    "152134.339000",
    "152136.340000",
    "152138.339000",
    "152140.339000",
    "152142.338000",
    "152144.338000",
    "152146.339000",
    "152148.340000",
    "152150.340000",
    "152152.339000",
    "152154.339000",
    "152156.339000",
    "152158.338000",
    "152200.338000",
    "152202.339000",
    "152204.339000",
    "152206.339000",
    "152208.339000",
    "152210.340000",
    "152212.339000",
    "152214.338000",
    "152216.339000",
    "152218.338000",
    "152220.338000",
    "152222.339000",
    "152224.339000",
    "152226.340000",
    "152228.339000",
    "152230.339000",
    "152232.338000",
    "152234.338000",
    "152236.338000",
    "152238.338000",
    "152240.340000",
    "152242.340000",
    "152244.340000",
    "152246.339000",
    "152248.339000",
    "152250.339000",
    "152252.339000",
    "152254.338000",
    "152256.339000",
    "152258.340000",
    "152300.340000",
    "152302.339000",
    "152304.340000",
    "152306.338000",
    "152308.339000",
    "152310.338000",
    "152312.338000",
    "152314.340000",
    "152316.339000",
    "152318.340000",
    "152320.339000",
    "152322.339000",
    "152324.339000",
    "152326.339000",
    "152328.338000",
    "152330.338000",
    "152332.340000",
    "152334.340000",
    "152336.340000",
    "152338.340000",
    "152340.340000",
    "152342.339000",
    "152344.339000",
    "152346.339000",
    "152348.338000",
    "152350.340000",
    "152352.339000",
    "152354.340000",
    "152356.340000",
    "152358.339000",
    "152400.339000",
    "152402.339000",
    "152404.338000",
    "152406.339000",
    "152408.340000",
    "152410.339000",
    "152412.340000",
    "152414.340000",
    "152416.338000",
    "152418.339000",
    "152420.338000",
    "152422.338000",
    "152424.339000",
    "152426.339000",
    "152428.339000",
    "152430.339000",
    "152432.339000",
    "152434.338000",
    "152436.338000",
    "152438.338000",
    "152440.338000",
    "152442.340000",
    "152444.340000",
    "152446.339000",
    "152448.339000",
    "152450.339000",
    "152452.339000",
    "152454.339000",
    "152456.339000",
    "152458.339000",
    "152500.339000",
    "152502.340000",
    "152504.339000",
    "152506.340000",
    "152508.339000",
    "152510.339000",
    "152512.338000",
    "152514.339000",
    "152516.339000",
    "152518.340000",
    "152520.340000",
    "152522.340000",
    "152524.340000",
    "152526.339000",
    "152528.338000",
    "152530.338000",
    "152532.339000",
    "152534.339000",
    "152536.339000",
    "152538.340000",
    "152540.340000",
    "152542.340000",
    "152544.338000",
    "152546.339000",
    "152548.338000",
    "152550.339000",
    "152552.339000",
    "152554.339000",
    "152556.339000",
    "152558.339000",
    "152600.340000",
    "152602.339000",
    "152604.338000",
    "152606.339000",
    "152608.340000",
    "152610.342000",
    "152612.339000",
    "152614.339000",
    "152616.339000",
    "152618.338000",
    "152620.338000",
    "152622.338000",
    "152624.339000",
    "152626.340000",
    "152628.339000",
    "152630.340000",
    "152632.340000",
    "152634.339000",
    "152636.338000",
    "152638.339000",
    "152640.339000",
    "152642.339000",
    "152644.339000",
    "152646.340000",
    "152648.339000",
    "152650.339000",
    "152651.886000"
   ],
   "InstanceCreationTime": [
    "151822.844000",
    "151824.340000",
    "151826.339000",
    "151828.339000",
    "151830.338000",
    "151832.338000",
    "151834.339000",
    "151836.339000",
    "151838.340000",
    "151840.339000",
    "151842.339000",
    "151844.338000",
    "151846.339000",
    "151848.339000",
    "151850.339000",
    "151852.340000",
    "151854.339000",
    "151856.340000",
    "151858.339000",
    "151900.339000",
    "151902.339000",
    "151904.339000",
    "151906.338000",
    "151908.338000",
    "151910.339000",
    "151912.339000",
    "151914.339000",
    "151916.340000",
    "151918.338000",
    "151920.339000",
    "151922.338000",
    "151924.338000",
    "151926.339000",
    "151928.339000",
    "151930.339000",
    "151932.339000",
    "151934.340000",
    "151936.339000",
    "151938.338000",
    "151940.339000",
    "151942.339000",
    "151944.340000",
    "151946.340000",
    "151948.340000",
    "151950.339000",
    "151952.339000",
    "151954.338000",
    "151956.338000",
    "151958.338000",
    "152000.339000",
    "152002.340000",
    "152004.340000",
    "152006.339000",
    "152008.339000",
    "152010.340000",
    "152012.339000",
    "152014.338000",
    "152016.338000",
    "152018.338000",
    "152020.340000",
    "152022.339000",
    "152024.340000",
    "152026.340000",
    "152028.338000",
    "152030.338000",
    "152032.338000",
    "152034.338000",
    "152036.339000",
    "152038.339000",
    "152040.340000",
    "152042.339000",
    "152044.339000",
    "152046.339000",
    "152048.339000",
    "152050.339000",
    "152052.339000",
    "152054.340000",
    "152056.340000",
    "152058.339000",
    "152100.340000",
    "152102.340000",
    "152104.339000",
    "152106.339000",
    "152108.339000",
    "152110.338000",
    "152112.339000",
    "152114.339000",
    "152116.339000",
    "152118.339000",
    "152120.339000",
    "152122.338000",
    "152124.339000",
    "152126.338000",
    "152128.338000",
    "152130.340000",
    "152132.340000",
    "152134.339000",
    "152136.340000",
    "152138.339000",
    "152140.339000",
    "152142.338000",
    "152144.338000",
    "152146.339000",
    "152148.340000",
    "152150.340000",
    "152152.339000",
    "152154.339000",
    "152156.339000",
    "152158.338000",
    "152200.338000",
    "152202.339000",
    "152204.339000",
    "152206.339000",
    "152208.339000",
    "152210.340000",
    "152212.339000",
    "152214.338000",
    "152216.339000",
    "152218.338000",
    "152220.338000",
    "152222.339000",
    "152224.339000",
    "152226.340000",
    "152228.339000",
    "152230.339000",
    "152232.338000",
    "152234.338000",
    "152236.338000",
    "152238.338000",
    "152240.340000",
    "152242.340000",
    "152244.340000",
    "152246.339000",
    "152248.339000",
    "152250.339000",
    "152252.339000",
    "152254.338000",
    "152256.339000",
    "152258.340000",
    "152300.340000",
    "152302.339000",
    "152304.340000",
    "152306.338000",
    "152308.339000",
    "152310.338000",
    "152312.338000",
    "152314.340000",
    "152316.339000",
    "152318.340000",
    "152320.339000",
    "152322.339000",
    "152324.339000",
    "152326.339000",
    "152328.338000",
    "152330.338000",
    "152332.340000",
    "152334.340000",
    "152336.340000",
    "152338.340000",
    "152340.340000",
    "152342.339000",
    "152344.339000",
    "152346.339000",
    "152348.338000",
    "152350.340000",
    "152352.339000",
    "152354.340000",
    "152356.340000",
    "152358.339000",
    "152400.339000",
    "152402.339000",
    "152404.338000",
    "152406.339000",
    "152408.340000",
    "152410.339000",
    "152412.340000",
    "152414.340000",
    "152416.338000",
    "152418.339000",
    "152420.338000",
    "152422.338000",
    "152424.339000",
    "152426.339000",
    "152428.339000",
    "152430.339000",
    "152432.339000",
    "152434.338000",
    "152436.338000",
    "152438.338000",
    "152440.338000",
    "152442.340000",
    "152444.340000",
    "152446.339000",
    "152448.339000",
    "152450.339000",
    "152452.339000",
    "152454.339000",
    "152456.339000",
    "152458.339000",
    "152500.339000",
    "152502.340000",
    "152504.339000",
    "152506.340000",
    "152508.339000",
    "152510.339000",
    "152512.338000",
    "152514.339000",
    "152516.339000",
    "152518.340000",
    "152520.340000",
    "152522.340000",
    "152524.340000",
    "152526.339000",
    "152528.338000",
    "152530.338000",
    "152532.339000",
    "152534.339000",
    "152536.339000",
    "152538.340000",
    "152540.340000",
    "152542.340000",
    "152544.338000",
    "152546.339000",
    "152548.338000",
    "152550.339000",
    "152552.339000",
    "152554.339000",
    "152556.339000",
    "152558.339000",
    "152600.340000",
    "152602.339000",
    "152604.338000",
    "152606.339000",
    "152608.340000",
    "152610.342000",
    "152612.339000",
    "152614.339000",
    "152616.339000",
    "152618.338000",
    "152620.338000",
    "152622.338000",
    "152624.339000",
    "152626.340000",
    "152628.339000",
    "152630.340000",
    "152632.340000",
    "152634.339000",
    "152636.338000",
    "152638.339000",
    "152640.339000",
    "152642.339000",
    "152644.339000",
    "152646.340000",
    "152648.339000",
    "152650.339000",
    "152651.886000"
   ],
   "InstanceNumber": [
    1,
    2,
    3,
    4,
    5,
    6,
    7,
    8,
    9,
    10,
    11,
    12,
    13,
    14,
    15,
    16,
    17,
    18,
    19,
    20,
    21,
    22,
    23,
    24,
    25,
    26,
    27,
    28,
    29,
    30,
    31,
    32,
    33,
    34,
    35,
    36,
    37,
    38,
    39,
    40,
    41,
    42,
    43,
    44,
    45,
    46,
    47,
    48,
    49,
    50,
    51,
    52,
    53,
    54,
    55,
    56,
    57,
    58,
    59,
    60,
    61,
    62,
    63,
    64,
    65,
    66,
    67,
    68,
    69,
    70,
    71,
    72,
    73,
    74,
    75,
    76,
    77,
    78,
    79,
    80,
    81,
    82,
    83,
    84,
    85,
    86,
    87,
    88,
    89,
    90,
    91,
    92,
    93,
    94,
    95,
    96,
    97,
    98,
    99,
    100,
    101,
    102,
    103,
    104,
    105,
    106,
    107,
    108,
    109,
    110,
    111,
    112,
    113,
    114,
    115,
    116,
    117,
    118,
    119,
    120,
    121,
    122,
    123,
    124,
    125,
    126,
    127,
    128,
    129,
    130,
    131,
    132,
    133,
    134,
    135,
    136,
    137,
    138,
    139,
    140,
    141,
    142,
    143,
    144,
    145,
    146,
    147,
    148,
    149,
    150,
    151,
    152,
    153,
    154,
    155,
    156,
    157,
    158,
    159,
    160,
    161,
    162,
    163,
    164,
    165,
    166,
    167,
    168,
    169,
    170,
    171,
    172,
    173,
    174,
    175,
    176,
    177,
    178,
    179,
    180,
    181,
    182,
    183,
    184,
    185,
    186,
    187,
    188,
    189,
    190,
    191,
    192,
    193,
    194,
    195,
    196,
    197,
    198,
    199,
    200,
    201,
    202,
    203,
    204,
    205,
    206,
    207,
    208,
    209,
    210,
    211,
    212,
    213,
    214,
    215,
    216,
    217,
    218,
    219,
    220,
    221,
    222,
    223,
    224,
    225,
    226,
    227,
    228,
    229,
    230,
    231,
    232,
    233,
    234,
    235,
    236,
    237,
    238,
    239,
    240,
    241,
    242,
    243,
    244,
    245,
    246,
    247,
    248,
    249,
    250,
    251,
    252,
    253,
    254,
    255,
    256
   ],
   "LargestImagePixelValue": [
    4095,
    4047,
    4006,
    3996,
    4050,
    4057,
    4027,
    4028,
    4038,
    4064,
    4019,
    4006,
    4043,
    4032,
    4053,
    4095,
    4095,
    4095,
    4095,
    4095,
    4077,
    4094,
    4095,
    4095,
    4095,
    4095,
    4095,
    4095,
    4095,
    4095,
    4095,
    4095,
    4095,
    4095,
    4095,
    4095,
    4095,
    4095,
    4095,
    4095,
    4095,
    4095,
    4095,
    4095,
    4095,
    4095,
    4095,
    4095,
    4095,
    4095,
    4095,
    4095,
    4095,
    4095,
    4095,
    4095,
    4095,
    4095,
    4095,
    4095,
    4095,
    4095,
    4095,
    4095,
    4095,
    4095,
    4095,
    4095,
    4095,
    4095,
    4095,
    4095,
    4095,
    4095,
    4095,
    4095,
    4095,
    4095,
    4095,
    4095,
    4095,
    4095,
    4091,
    4095,
    4095,
    4095,
    4095,
    4095,
    4095,
    4095,
    4095,
    4095,
    4095,
    4095,
    4095,
    4095,
    4095,
    4095,
    4095,
    4095,
    4095,
    4095,
    4095,
    4095,
    4095,
    4095,
    4095,
    4095,
    4095,
    4095,
    4095,
    4095,
    4095,
    4095,
    4095,
    4086,
    4095,
    4095,
    4095,
    4095,
    4095,
    4095,
    4095,
    4095,
    4095,
    4095,
    4095,
    4095,
    4095,
    4095,
    4095,
    4095,
    4095,
    4095,
    4095,
    4095,
    4095,
    4095,
    4095,
    4095,
    4095,
    4095,
    4095,
    4095,
    4095,
    4095,
    4095,
    4095,
    4095,
    4095,
    4095,
    4095,
    4095,
    4095,
    4095,
    4095,
    4095,
    4095,
    4087,
    4095,
    4043,
    4095,
    4095,
    4060,
    4025,
    4072,
    4078,
    4095,
    4095,
    4095,
    4095,
    4095,
    4094,
    4095,
    4095,
    4095,
    4095,
    4095,
    4095,
    4095,
    4095,
    4095,
    4095,
    4095,
    4095,
    4095,
    4095,
    4087,
    4085,
    4077,
    4062,
    4095,
    4095,
    4095,
    4095,
    4095,
    4095,
    4095,
    4095,
    4088,
    4046,
    4060,
    4095,
    4095,
    4095,
    4095,
    4095,
    4095,
    4095,
    4095,
    4095,
    4095,
    4095,
    4095,
    4095,
    4095,
    4095,
    4095,
    4095,
    4095,
    4095,
    4095,
    4095,
    4095,
    4095,
    4095,
    4095,
    4095,
    4095,
    4095,
    4095,
    4087,
    4095,
    4095,
    4095,
    4095,
    4080,
    4089,
    4095,
    4095,
    4095,
    4095,
    4095,
    4095,
    4095,
    4095,
    4088,
    4095,
    4095,
    4095,
    4095,
    4095,
    4095,
    4095,
    4095,
    4095
   ],
   "WindowCenter": [
    883.0,
    880.0,
    878.0,
    878.0,
    879.0,
    881.0,
    880.0,
    880.0,
    879.0,
    878.0,
    877.0,
    877.0,
    877.0,
    878.0,
    877.0,
    878.0,
    879.0,
    879.0,
    879.0,
    877.0,
    876.0,
    877.0,
    878.0,
    877.0,
    878.0,
    879.0,
    879.0,
    878.0,
    877.0,
    876.0,
    877.0,
    877.0,
    876.0,
    876.0,
    877.0,
    878.0,
    878.0,
    877.0,
    877.0,
    877.0,
    878.0,
    879.0,
    879.0,
    878.0,
    876.0,
    876.0,
    876.0,
    876.0,
    875.0,
    875.0,
    876.0,
    876.0,
    875.0,
    876.0,
    876.0,
    876.0,
    874.0,
    875.0,
    876.0,
    875.0,
    876.0,
    875.0,
    876.0,
    876.0,
    876.0,
    876.0,
    876.0,
    876.0,
    876.0,
    875.0,
    875.0,
    877.0,
    877.0,
    877.0,
    878.0,
    878.0,
    878.0,
    876.0,
    876.0,
    876.0,
    876.0,
    875.0,
    875.0,
    876.0,
    878.0,
    879.0,
    880.0,
    878.0,
    877.0,
    877.0,
    877.0,
    878.0,
    877.0,
    878.0,
    878.0,
    878.0,
    879.0,
    878.0,
    878.0,
    878.0,
    878.0,
    878.0,
    877.0,
    876.0,
    875.0,
    876.0,
    877.0,
    878.0,
    878.0,
    877.0,
    877.0,
    878.0,
    878.0,
    876.0,
    876.0,
    876.0,
    877.0,
    876.0,
    877.0,
    877.0,
    877.0,
    876.0,
    875.0,
    875.0,
    876.0,
