{
  "AcquisitionMatrixPE": 100,
  "AcquisitionNumber": 1,
  "AcquisitionTime": "14:11:0.887500",
  "BandwidthPerPixelPhaseEncode": 18.519,
  "BaseResolution": 100,
  "BodyPartExamined": "BRAIN",
  "ConsistencyInfo": "N4_VE11C_LATEST_20160120",
  "ConversionSoftware": "dcm2niix",
  "ConversionSoftwareVersion": "v1.0.20180622 GCC4.9.2",
  "DerivedVendorReportedEchoSpacing": 0.000539986,
  "DeviceSerialNumber": "166078",
  "DwellTime": 2.1e-06,
  "EchoTime": 0.034,
  "EchoTrainLength": 100,
  "EffectiveEchoSpacing": 0.000539986,
  "FlipAngle": 90,
  "ImageOrientationPatientDICOM": [1, 0, 0, 0, 0.983571, -0.180519],
  "ImageType": [
    "ORIGINAL",
    "PRIMARY",
    "M",
    "ND",
    "MOSAIC"
],
  "InPlanePhaseEncodingDirectionDICOM": "COL",
  "InstitutionAddress": "Street_StreetNo_Bei_Jing_District_CN_ZIP",
  "InstitutionName": "BeiJing_Normal_University",
  "InstitutionalDepartmentName": "Department",
  "MRAcquisitionType": "2D",
  "MagneticFieldStrength": 3,
  "Manufacturer": "Siemens",
  "ManufacturersModelName": "Prisma",
  "Modality": "MR",
  "MultibandAccelerationFactor": 3,
  "PartialFourier": 1,
  "PatientPosition": "HFS",
  "PercentPhaseFOV": 100,
  "PhaseEncodingDirection": "j-",
  "PhaseEncodingSteps": 100,
  "PhaseResolution": 1,
  "PixelBandwidth": 2380,
  "ProcedureStepDescription": "BNU_P2018_64CH_Zhen.ZongLei",
  "ProtocolName": "bold_100x100_s3_2x2x2_static_256",
  "PulseSequenceDetails": "%SiemensSeq%_ep2d_bold",
  "ReceiveCoilActiveElements": "HC1-7;NC1",
  "ReceiveCoilName": "HeadNeck_64",
  "ReconMatrixPE": 100,
  "RepetitionTime": 2,
  "SAR": 0.0710137,
  "ScanOptions": "FS",
  "ScanningSequence": "EP",
  "SequenceName": "_epfid2d1_100",
  "SequenceVariant": "SK",
  "SeriesDescription": "bold_100x100_s3_2x2x2_static_256",
  "SeriesNumber": 11,
  "ShimSetting": [-5477, -11529, -1274, 540, -18, -239, -165, 47],
  "SliceThickness": 2,
  "SliceTiming": [1.485, 0, 0.99, 0.0825, 1.0725, 0.165, 1.155, 0.2475, 1.2375, 0.33, 1.32, 0.4125, 1.4025, 0.5775, 1.5675, 0.66, 1.65, 0.7425, 1.7325, 0.825, 1.815, 0.9075, 1.8975, 0.495, 1.485, 0, 0.99, 0.0825, 1.0725, 0.165, 1.155, 0.2475, 1.2375, 0.33, 1.32, 0.4125, 1.4025, 0.5775, 1.5675, 0.66, 1.65, 0.7425, 1.7325, 0.825, 1.815, 0.9075, 1.8975, 0.495, 1.485, 0, 0.99, 0.0825, 1.0725, 0.165, 1.155, 0.2475, 1.2375, 0.33, 1.32, 0.4125, 1.4025, 0.5775, 1.5675, 0.66, 1.65, 0.7425, 1.7325, 0.825, 1.815, 0.9075, 1.8975, 0.495],
  "SoftwareVersions": "syngo_MR_E11",
  "SpacingBetweenSlices": 2,
  "StationName": "AWP166078",
  "TaskName": "naturalvision",
  "TotalReadoutTime": 0.0534586,
  "TxRefAmp": 216.057,
  "dcmmeta_affine": [
    [-2.0, 0.0, 0.0, 106.7796630859375],
    [0.0, 1.967142939567566, -0.36103829741477966, -75.60704040527344],
    [0.0, 0.36103829741477966, 1.967142939567566, -79.15641021728516],
    [0.0, 0.0, 0.0, 1.0]
],
  "dcmmeta_reorient_transform": [
    [0.0, -1.0, 0.0, 99.0],
    [1.0, 0.0, 0.0, 0.0],
    [0.0, 0.0, 1.0, 0.0],
    [0.0, 0.0, 0.0, 1.0]
],
  "dcmmeta_shape": [100, 100, 72, 256],
  "dcmmeta_slice_dim": 2,
  "dcmmeta_version": 0.6,
  "global": {
    "const": {
      "AcquisitionMatrix": [100, 0, 0, 100],
      "AngioFlag": "N",
      "BitsAllocated": 16,
      "BitsStored": 12,
      "BodyPartExamined": "BRAIN",
      "Columns": 900,
      "EchoNumbers": 1,
      "EchoTime": 34.0,
      "EchoTrainLength": 100,
      "FlipAngle": 90.0,
      "HighBit": 11,
      "ImageOrientationPatient": [1.0, 0.0, 0.0, 0.0, 0.98357147073484, -0.1805191456785],
      "ImagePositionPatient": [-906.77966117859, -905.99728455308, 101.00169690048],
      "ImageType": [
        "ORIGINAL",
        "PRIMARY",
        "M",
        "ND",
        "MOSAIC"
],
      "ImagedNucleus": "1H",
      "ImagingFrequency": 123.257734,
      "InPlanePhaseEncodingDirection": "COL",
      "MRAcquisitionType": "2D",
      "MagneticFieldStrength": 3.0,
      "Manufacturer": "SIEMENS",
      "ManufacturerModelName": "Prisma",
      "Modality": "MR",
      "NumberOfAverages": 1.0,
      "NumberOfPhaseEncodingSteps": 100,
      "PercentPhaseFieldOfView": 100.0,
      "PercentSampling": 100.0,
      "PerformedProcedureStepStartTime": "130454.803000",
      "PhotometricInterpretation": "MONOCHROME2",
      "PixelBandwidth": 2380.0,
      "PixelRepresentation": 0,
      "PixelSpacing": [2.0, 2.0],
      "ProtocolName": "bold_100x100_s3_2x2x2_static_256",
      "RepetitionTime": 2000.0,
      "Rows": 900,
      "SAR": 0.07101369468017,
      "SamplesPerPixel": 1,
      "ScanOptions": "FS",
      "ScanningSequence": "EP",
      "SequenceName": "*epfid2d1_100",
      "SequenceVariant": "SK",
      "SeriesDescription": "bold_100x100_s3_2x2x2_static_256",
      "SeriesNumber": 11,
      "SeriesTime": "141103.612000",
      "SliceLocation": -64.207468227478,
      "SliceThickness": 2.0,
      "SmallestImagePixelValue": 0,
      "SoftwareVersions": "syngo MR E11",
      "SpacingBetweenSlices": 1.99999999598,
      "SpecificCharacterSet": "ISO_IR 100",
      "StudyID": "1",
      "StudyTime": "130454.677000",
      "TransmitCoilName": "Body",
      "VariableFlipAngleFlag": "N",
      "WindowCenterWidthExplanation": "Algo1",
      "dBdt": 0.0},
    "slices": {}
  },
  "time": {
    "samples": {
      "AcquisitionNumber": [1, 2, 3, 4, 5, 6, 7, 8, 9, 10, 11, 12, 13, 14, 15, 16, 17, 18, 19, 20, 21, 22, 23, 24, 25, 26, 27, 28, 29, 30, 31, 32, 33, 34, 35, 36, 37, 38, 39, 40, 41, 42, 43, 44, 45, 46, 47, 48, 49, 50, 51, 52, 53, 54, 55, 56, 57, 58, 59, 60, 61, 62, 63, 64, 65, 66, 67, 68, 69, 70, 71, 72, 73, 74, 75, 76, 77, 78, 79, 80, 81, 82, 83, 84, 85, 86, 87, 88, 89, 90, 91, 92, 93, 94, 95, 96, 97, 98, 99, 100, 101, 102, 103, 104, 105, 106, 107, 108, 109, 110, 111, 112, 113, 114, 115, 116, 117, 118, 119, 120, 121, 122, 123, 124, 125, 126, 127, 128, 129, 130, 131, 132, 133, 134, 135, 136, 137, 138, 139, 140, 141, 142, 143, 144, 145, 146, 147, 148, 149, 150, 151, 152, 153, 154, 155, 156, 157, 158, 159, 160, 161, 162, 163, 164, 165, 166, 167, 168, 169, 170, 171, 172, 173, 174, 175, 176, 177, 178, 179, 180, 181, 182, 183, 184, 185, 186, 187, 188, 189, 190, 191, 192, 193, 194, 195, 196, 197, 198, 199, 200, 201, 202, 203, 204, 205, 206, 207, 208, 209, 210, 211, 212, 213, 214, 215, 216, 217, 218, 219, 220, 221, 222, 223, 224, 225, 226, 227, 228, 229, 230, 231, 232, 233, 234, 235, 236, 237, 238, 239, 240, 241, 242, 243, 244, 245, 246, 247, 248, 249, 250, 251, 252, 253, 254, 255, 256],
      "AcquisitionTime": ["141100.887500", "141102.887500", "141104.887500", "141106.887500", "141108.887500", "141110.887500", "141112.887500", "141114.887500", "141116.887500", "141118.887500", "141120.887500", "141122.887500", "141124.887500", "141126.887500", "141128.887500", "141130.887500", "141132.887500", "141134.887500", "141136.887500", "141138.887500", "141140.887500", "141142.887500", "141144.887500", "141146.887500", "141148.887500", "141150.887500", "141152.887500", "141154.887500", "141156.887500", "141158.887500", "141200.887500", "141202.887500", "141204.887500", "141206.887500", "141208.887500", "141210.887500", "141212.887500", "141214.887500", "141216.887500", "141218.887500", "141220.887500", "141222.887500", "141224.887500", "141226.887500", "141228.887500", "141230.887500", "141232.887500", "141234.887500", "141236.887500", "141238.887500", "141240.887500", "141242.887500", "141244.887500", "141246.887500", "141248.887500", "141250.887500", "141252.887500", "141254.887500", "141256.887500", "141258.887500", "141300.887500", "141302.887500", "141304.887500", "141306.887500", "141308.887500", "141310.887500", "141312.887500", "141314.887500", "141316.887500", "141318.887500", "141320.887500", "141322.887500", "141324.887500", "141326.887500", "141328.887500", "141330.887500", "141332.887500", "141334.887500", "141336.887500", "141338.887500", "141340.887500", "141342.887500", "141344.887500", "141346.887500", "141348.887500", "141350.887500", "141352.887500", "141354.887500", "141356.887500", "141358.887500", "141400.887500", "141402.887500", "141404.887500", "141406.887500", "141408.887500", "141410.887500", "141412.887500", "141414.887500", "141416.887500", "141418.887500", "141420.887500", "141422.887500", "141424.887500", "141426.887500", "141428.887500", "141430.887500", "141432.887500", "141434.887500", "141436.887500", "141438.887500", "141440.887500", "141442.887500", "141444.887500", "141446.887500", "141448.887500", "141450.887500", "141452.887500", "141454.887500", "141456.887500", "141458.887500", "141500.887500", "141502.887500", "141504.887500", "141506.887500", "141508.887500", "141510.887500", "141512.887500", "141514.887500", "141516.887500", "141518.887500", "141520.887500", "141522.887500", "141524.887500", "141526.887500", "141528.887500", "141530.887500", "141532.887500", "141534.887500", "141536.887500", "141538.887500", "141540.887500", "141542.887500", "141544.887500", "141546.887500", "141548.887500", "141550.887500", "141552.887500", "141554.887500", "141556.887500", "141558.887500", "141600.887500", "141602.887500", "141604.887500", "141606.887500", "141608.887500", "141610.887500", "141612.887500", "141614.887500", "141616.887500", "141618.887500", "141620.887500", "141622.887500", "141624.887500", "141626.887500", "141628.887500", "141630.887500", "141632.887500", "141634.887500", "141636.887500", "141638.887500", "141640.887500", "141642.887500", "141644.887500", "141646.887500", "141648.887500", "141650.887500", "141652.887500", "141654.887500", "141656.887500", "141658.887500", "141700.887500", "141702.887500", "141704.887500", "141706.887500", "141708.887500", "141710.887500", "141712.887500", "141714.887500", "141716.887500", "141718.887500", "141720.887500", "141722.887500", "141724.887500", "141726.887500", "141728.887500", "141730.887500", "141732.887500", "141734.887500", "141736.887500", "141738.887500", "141740.887500", "141742.887500", "141744.887500", "141746.887500", "141748.887500", "141750.887500", "141752.887500", "141754.887500", "141756.887500", "141758.887500", "141800.887500", "141802.887500", "141804.887500", "141806.887500", "141808.887500", "141810.887500", "141812.887500", "141814.887500", "141816.887500", "141818.887500", "141820.887500", "141822.887500", "141824.887500", "141826.887500", "141828.887500", "141830.887500", "141832.887500", "141834.887500", "141836.887500", "141838.887500", "141840.887500", "141842.887500", "141844.887500", "141846.887500", "141848.887500", "141850.887500", "141852.887500", "141854.887500", "141856.887500", "141858.887500", "141900.887500", "141902.887500", "141904.887500", "141906.887500", "141908.887500", "141910.887500", "141912.887500", "141914.887500", "141916.887500", "141918.887500", "141920.887500", "141922.887500", "141924.887500", "141926.887500", "141928.887500", "141930.887500"],
      "ContentTime": ["141103.616000", "141105.112000", "141107.113000", "141109.111000", "141111.112000", "141113.112000", "141115.112000", "141117.111000", "141119.111000", "141121.111000", "141123.112000", "141125.113000", "141127.112000", "141129.111000", "141131.111000", "141133.112000", "141135.112000", "141137.111000", "141139.111000", "141141.112000", "141143.111000", "141145.111000", "141147.111000", "141149.111000", "141151.111000", "141153.111000", "141155.112000", "141157.111000", "141159.112000", "141201.111000", "141203.112000", "141205.112000", "141207.112000", "141209.111000", "141211.112000", "141213.112000", "141215.112000", "141217.112000", "141219.111000", "141221.111000", "141223.111000", "141225.112000", "141227.112000", "141229.112000", "141231.111000", "141233.111000", "141235.112000", "141237.111000", "141239.111000", "141241.111000", "141243.111000", "141245.111000", "141247.112000", "141249.112000", "141251.111000", "141253.111000", "141255.611000", "141257.111000", "141259.112000", "141301.611000", "141303.112000", "141305.112000", "141307.112000", "141309.112000", "141311.111000", "141313.111000", "141315.111000", "141317.111000", "141319.112000", "141321.112000", "141323.111000", "141325.112000", "141327.112000", "141329.112000", "141331.111000", "141333.112000", "141335.111000", "141337.112000", "141339.111000", "141341.111000", "141343.111000", "141345.112000", "141347.111000", "141349.112000", "141351.112000", "141353.112000", "141355.112000", "141357.111000", "141359.111000", "141401.112000", "141403.111000", "141405.112000", "141407.112000", "141409.111000", "141411.112000", "141413.112000", "141415.111000", "141417.112000", "141419.111000", "141421.111000", "141423.112000", "141425.112000", "141427.112000", "141429.112000", "141431.112000", "141433.111000", "141435.111000", "141437.112000", "141439.111000", "141441.112000", "141443.111000", "141445.112000", "141447.111000", "141449.111000", "141451.111000", "141453.112000", "141455.113000", "141457.111000", "141459.112000", "141501.111000", "141503.111000", "141505.112000", "141507.111000", "141509.111000", "141511.112000", "141513.112000", "141515.111000", "141517.112000", "141519.111000", "141521.111000", "141523.112000", "141525.112000", "141527.112000", "141529.111000", "141531.111000", "141533.111000", "141535.111000", "141537.111000", "141539.112000", "141541.112000", "141543.112000", "141545.112000", "141547.113000", "141549.112000", "141551.111000", "141553.112000", "141555.111000", "141557.112000", "141559.111000", "141601.111000", "141603.111000", "141605.112000", "141607.111000", "141609.111000", "141611.111000", "141613.112000", "141615.111000", "141617.111000", "141619.111000", "141621.112000", "141623.112000", "141625.111000", "141627.111000", "141629.111000", "141631.112000", "141633.112000", "141635.112000", "141637.111000", "141639.111000", "141641.111000", "141643.111000", "141645.111000", "141647.111000", "141649.112000", "141651.112000", "141653.111000", "141655.111000", "141657.112000", "141659.111000", "141701.112000", "141703.111000", "141705.111000", "141707.111000", "141709.112000", "141711.112000", "141713.112000", "141715.113000", "141717.111000", "141719.112000", "141721.132000", "141723.112000", "141725.112000", "141727.112000", "141729.111000", "141731.112000", "141733.112000", "141735.112000", "141737.112000", "141739.111000", "141741.111000", "141743.111000", "141745.112000", "141747.112000", "141749.112000", "141751.112000", "141753.111000", "141755.111000", "141757.111000", "141759.111000", "141801.112000", "141803.112000", "141805.112000", "141807.113000", "141809.111000", "141811.112000", "141813.111000", "141815.112000", "141817.112000", "141819.111000", "141821.112000", "141823.112000", "141825.112000", "141827.112000", "141829.111000", "141831.112000", "141833.112000", "141835.112000", "141837.111000", "141839.112000", "141841.112000", "141843.111000", "141845.112000", "141847.111000", "141849.111000", "141851.111000", "141853.112000", "141855.111000", "141857.112000", "141859.111000", "141901.111000", "141903.112000", "141905.111000", "141907.112000", "141909.111000", "141911.111000", "141913.111000", "141915.112000", "141917.113000", "141919.111000", "141921.111000", "141923.111000", "141925.111000", "141927.111000", "141929.112000", "141931.112000", "141932.949000"],
      "InstanceCreationTime": ["141103.616000", "141105.112000", "141107.113000", "141109.111000", "141111.112000", "141113.112000", "141115.112000", "141117.111000", "141119.111000", "141121.111000", "141123.112000", "141125.113000", "141127.112000", "141129.111000", "141131.111000", "141133.112000", "141135.112000", "141137.111000", "141139.111000", "141141.112000", "141143.111000", "141145.111000", "141147.111000", "141149.111000", "141151.111000", "141153.111000", "141155.112000", "141157.111000", "141159.112000", "141201.111000", "141203.112000", "141205.112000", "141207.112000", "141209.111000", "141211.112000", "141213.112000", "141215.112000", "141217.112000", "141219.111000", "141221.111000", "141223.111000", "141225.112000", "141227.112000", "141229.112000", "141231.111000", "141233.111000", "141235.112000", "141237.111000", "141239.111000", "141241.111000", "141243.111000", "141245.111000", "141247.112000", "141249.112000", "141251.111000", "141253.111000", "141255.611000", "141257.111000", "141259.112000", "141301.611000", "141303.112000", "141305.112000", "141307.112000", "141309.112000", "141311.111000", "141313.111000", "141315.111000", "141317.111000", "141319.112000", "141321.112000", "141323.111000", "141325.112000", "141327.112000", "141329.112000", "141331.111000", "141333.112000", "141335.111000", "141337.112000", "141339.111000", "141341.111000", "141343.111000", "141345.112000", "141347.111000", "141349.112000", "141351.112000", "141353.112000", "141355.112000", "141357.111000", "141359.111000", "141401.112000", "141403.111000", "141405.112000", "141407.112000", "141409.111000", "141411.112000", "141413.112000", "141415.111000", "141417.112000", "141419.111000", "141421.111000", "141423.112000", "141425.112000", "141427.112000", "141429.112000", "141431.112000", "141433.111000", "141435.111000", "141437.112000", "141439.111000", "141441.112000", "141443.111000", "141445.112000", "141447.111000", "141449.111000", "141451.111000", "141453.112000", "141455.113000", "141457.111000", "141459.112000", "141501.111000", "141503.111000", "141505.112000", "141507.111000", "141509.111000", "141511.112000", "141513.112000", "141515.111000", "141517.112000", "141519.111000", "141521.111000", "141523.112000", "141525.112000", "141527.112000", "141529.111000", "141531.111000", "141533.111000", "141535.111000", "141537.111000", "141539.112000", "141541.112000", "141543.112000", "141545.112000", "141547.113000", "141549.112000", "141551.111000", "141553.112000", "141555.111000", "141557.112000", "141559.111000", "141601.111000", "141603.111000", "141605.112000", "141607.111000", "141609.111000", "141611.111000", "141613.112000", "141615.111000", "141617.111000", "141619.111000", "141621.112000", "141623.112000", "141625.111000", "141627.111000", "141629.111000", "141631.112000", "141633.112000", "141635.112000", "141637.111000", "141639.111000", "141641.111000", "141643.111000", "141645.111000", "141647.111000", "141649.112000", "141651.112000", "141653.111000", "141655.111000", "141657.112000", "141659.111000", "141701.112000", "141703.111000", "141705.111000", "141707.111000", "141709.112000", "141711.112000", "141713.112000", "141715.113000", "141717.111000", "141719.112000", "141721.132000", "141723.112000", "141725.112000", "141727.112000", "141729.111000", "141731.112000", "141733.112000", "141735.112000", "141737.112000", "141739.111000", "141741.111000", "141743.111000", "141745.112000", "141747.112000", "141749.112000", "141751.112000", "141753.111000", "141755.111000", "141757.111000", "141759.111000", "141801.112000", "141803.112000", "141805.112000", "141807.113000", "141809.111000", "141811.112000", "141813.111000", "141815.112000", "141817.112000", "141819.111000", "141821.112000", "141823.112000", "141825.112000", "141827.112000", "141829.111000", "141831.112000", "141833.112000", "141835.112000", "141837.111000", "141839.112000", "141841.112000", "141843.111000", "141845.112000", "141847.111000", "141849.111000", "141851.111000", "141853.112000", "141855.111000", "141857.112000", "141859.111000", "141901.111000", "141903.112000", "141905.111000", "141907.112000", "141909.111000", "141911.111000", "141913.111000", "141915.112000", "141917.113000", "141919.111000", "141921.111000", "141923.111000", "141925.111000", "141927.111000", "141929.112000", "141931.112000", "141932.949000"],
      "InstanceNumber": [1, 2, 3, 4, 5, 6, 7, 8, 9, 10, 11, 12, 13, 14, 15, 16, 17, 18, 19, 20, 21, 22, 23, 24, 25, 26, 27, 28, 29, 30, 31, 32, 33, 34, 35, 36, 37, 38, 39, 40, 41, 42, 43, 44, 45, 46, 47, 48, 49, 50, 51, 52, 53, 54, 55, 56, 57, 58, 59, 60, 61, 62, 63, 64, 65, 66, 67, 68, 69, 70, 71, 72, 73, 74, 75, 76, 77, 78, 79, 80, 81, 82, 83, 84, 85, 86, 87, 88, 89, 90, 91, 92, 93, 94, 95, 96, 97, 98, 99, 100, 101, 102, 103, 104, 105, 106, 107, 108, 109, 110, 111, 112, 113, 114, 115, 116, 117, 118, 119, 120, 121, 122, 123, 124, 125, 126, 127, 128, 129, 130, 131, 132, 133, 134, 135, 136, 137, 138, 139, 140, 141, 142, 143, 144, 145, 146, 147, 148, 149, 150, 151, 152, 153, 154, 155, 156, 157, 158, 159, 160, 161, 162, 163, 164, 165, 166, 167, 168, 169, 170, 171, 172, 173, 174, 175, 176, 177, 178, 179, 180, 181, 182, 183, 184, 185, 186, 187, 188, 189, 190, 191, 192, 193, 194, 195, 196, 197, 198, 199, 200, 201, 202, 203, 204, 205, 206, 207, 208, 209, 210, 211, 212, 213, 214, 215, 216, 217, 218, 219, 220, 221, 222, 223, 224, 225, 226, 227, 228, 229, 230, 231, 232, 233, 234, 235, 236, 237, 238, 239, 240, 241, 242, 243, 244, 245, 246, 247, 248, 249, 250, 251, 252, 253, 254, 255, 256],
      "LargestImagePixelValue": [2728, 2698, 2683, 2724, 2745, 2696, 2730, 2706, 2706, 2724, 2721, 2763, 2693, 2683, 2667, 2672, 2699, 2654, 2670, 2692, 2663, 2654, 2687, 2692, 2684, 2672, 2700, 2683, 2710, 2680, 2674, 2694, 2662, 2670, 2646, 2663, 2660, 2658, 2674, 2666, 2670, 2690, 2663, 2682, 2669, 2673, 2709, 2680, 2668, 2716, 2661, 2675, 2684, 2683, 2725, 2727, 2718, 2729, 2720, 2714, 2707, 2724, 2733, 2697, 2723, 2704, 2700, 2708, 2713, 2703, 2686, 2695, 2700, 2685, 2701, 2655, 2694, 2689, 2674, 2646, 2683, 2712, 2670, 2701, 2684, 2703, 2690, 2665, 2717, 2728, 2697, 2710, 2706, 2671, 2667, 2719, 2711, 2713, 2693, 2701, 2714, 2725, 2757, 2683, 2651, 2803, 2644, 2681, 2671, 2691, 2676, 2657, 2627, 2628, 2631, 2643, 2651, 2609, 2672, 2646, 2658, 2630, 2644, 2651, 2744, 2659, 2664, 2672, 2630, 2674, 2640, 2690, 2673, 2627, 2640, 2654, 2630, 2711, 2635, 2632, 2697, 2608, 2649, 2650, 2604, 2691, 2638, 2723, 2592, 2604, 2637, 2641, 2624, 2606, 2719, 2671, 2646, 2668, 2659, 2648, 2679, 2684, 2704, 2696, 2682, 2662, 2664, 2646, 2677, 2639, 2682, 2670, 2659, 2693, 2674, 2652, 2630, 2641, 2664, 2641, 2674, 2641, 2659, 2642, 2651, 2644, 2649, 2653, 2611, 2624, 2707, 2635, 2716, 2656, 2639, 2641, 2652, 2658, 2683, 2680, 2649, 2640, 2653, 2629, 2652, 2634, 2666, 2759, 2662, 2643, 2636, 2665, 2638, 2656, 2574, 2527, 2486, 2479, 2530, 2524, 2554, 2536, 2519, 2526, 2500, 2511, 2525, 2540, 2548, 2547, 2538, 2506, 2566, 2525, 2547, 2538, 2554, 2530, 2511, 2511, 2540, 2529, 2491, 2528, 2520, 2474, 2506, 2518, 2490, 2495, 2452, 2498, 2475, 2493, 2475, 2751],
      "WindowCenter": [723.0, 722.0, 722.0, 723.0, 723.0, 722.0, 721.0, 722.0, 722.0, 723.0, 724.0, 723.0, 724.0, 723.0, 722.0, 720.0, 721.0, 721.0, 722.0, 722.0, 722.0, 720.0, 721.0, 721.0, 721.0, 721.0, 721.0, 722.0, 722.0, 721.0, 722.0, 722.0, 722.0, 722.0, 723.0, 724.0, 724.0, 722.0, 722.0, 722.0, 722.0, 723.0, 722.0, 724.0, 723.0, 722.0, 722.0, 723.0, 724.0, 723.0, 721.0, 719.0, 719.0, 720.0, 721.0, 722.0, 722.0, 722.0, 720.0, 719.0, 720.0, 721.0, 722.0, 721.0, 722.0, 722.0, 722.0, 722.0, 723.0, 722.0, 722.0, 722.0, 722.0, 721.0, 720.0, 721.0, 722.0, 722.0, 723.0, 721.0, 719.0, 719.0, 718.0, 719.0, 721.0, 722.0, 721.0, 722.0, 723.0, 722.0, 721.0, 720.0, 719.0, 721.0, 721.0, 722.0, 723.0, 724.0, 722.0, 721.0, 721.0, 721.0, 724.0, 722.0, 720.0, 722.0, 720.0, 723.0, 724.0, 723.0, 722.0, 720.0, 720.0, 721.0, 723.0, 723.0, 722.0, 720.0, 724.0, 724.0, 723.0, 721.0, 719.0, 721.0, 724.0, 721.0, 719.0, 718.0, 716.0, 717.0, 716.0, 718.0, 719.0, 720.0, 722.0, 722.0, 721.0, 722.0, 724.0, 723.0, 723.0, 722.0, 723.0, 724.0, 722.0, 720.0, 718.0, 721.0, 720.0, 720.0, 722.0, 721.0, 720.0, 720.0, 723.0, 724.0, 723.0, 721.0, 719.0, 718.0, 717.0, 716.0, 717.0, 719.0, 719.0, 720.0, 721.0, 723.0, 722.0, 721.0, 721.0, 719.0, 718.0, 720.0, 722.0, 721.0, 720.0, 720.0, 720.0, 722.0, 723.0, 722.0, 721.0, 721.0, 721.0, 721.0, 721.0, 722.0, 723.0, 723.0, 724.0, 724.0, 725.0, 723.0, 722.0, 721.0, 720.0, 721.0, 722.0, 724.0, 723.0, 721.0, 721.0, 720.0, 720.0, 720.0, 720.0, 722.0, 722.0, 722.0, 722.0, 723.0, 724.0, 725.0, 724.0, 723.0, 722.0, 723.0, 725.0, 726.0, 726.0, 723.0, 721.0, 720.0, 720.0, 720.0, 721.0, 722.0, 723.0, 723.0, 724.0, 722.0, 722.0, 722.0, 722.0, 722.0, 722.0, 722.0, 723.0, 723.0, 723.0, 723.0, 724.0, 725.0, 724.0, 723.0, 723.0, 723.0, 722.0, 721.0, 720.0, 720.0, 720.0, 720.0, 720.0, 724.0],
      "WindowWidth": [1545.0, 1543.0, 1545.0, 1546.0, 1546.0, 1543.0, 1541.0, 1544.0, 1545.0, 1548.0, 1549.0, 1548.0, 1548.0, 1547.0, 1544.0, 1539.0, 1541.0, 1542.0, 1544.0, 1544.0, 1543.0, 1539.0, 1542.0, 1542.0, 1542.0, 1540.0, 1542.0, 1543.0, 1544.0, 1543.0, 1544.0, 1546.0, 1545.0, 1546.0, 1548.0, 1549.0, 1549.0, 1545.0, 1544.0, 1543.0, 1545.0, 1546.0, 1544.0, 1550.0, 1548.0, 1544.0, 1545.0, 1548.0, 1550.0, 1546.0, 1540.0, 1537.0, 1536.0, 1539.0, 1541.0, 1544.0, 1542.0, 1543.0, 1539.0, 1536.0, 1537.0, 1540.0, 1542.0, 1543.0, 1543.0, 1543.0, 1543.0, 1545.0, 1547.0, 1545.0, 1545.0, 1544.0, 1544.0, 1541.0, 1540.0, 1541.0, 1544.0, 1545.0, 1546.0, 1541.0, 1537.0, 1535.0, 1532.0, 1536.0, 1541.0, 1542.0, 1541.0, 1545.0, 1546.0, 1543.0, 1540.0, 1538.0, 1537.0, 1542.0, 1541.0, 1543.0, 1546.0, 1548.0, 1543.0, 1541.0, 1541.0, 1542.0, 1549.0, 1545.0, 1540.0, 1543.0, 1539.0, 1546.0, 1549.0, 1547.0, 1544.0, 1540.0, 1538.0, 1542.0, 1546.0, 1546.0, 1543.0, 1540.0, 1549.0, 1549.0, 1546.0, 1540.0, 1537.0, 1541.0, 1549.0, 1542.0, 1537.0, 1532.0, 1529.0, 1531.0, 1527.0, 1533.0, 1537.0, 1539.0, 1543.0, 1545.0, 1542.0, 1545.0, 1549.0, 1548.0, 1548.0, 1543.0, 1547.0, 1550.0, 1544.0, 1539.0, 1534.0, 1540.0, 1538.0, 1540.0, 1543.0, 1543.0, 1539.0, 1539.0, 1547.0, 1550.0, 1547.0, 1541.0, 1534.0, 1533.0, 1530.0, 1529.0, 1530.0, 1535.0, 1536.0, 1538.0, 1542.0, 1547.0, 1545.0, 1541.0, 1540.0, 1537.0, 1533.0, 1539.0, 1543.0, 1541.0, 1538.0, 1538.0, 1540.0, 1545.0, 1547.0, 1545.0, 1542.0, 1541.0, 1542.0, 1542.0, 1542.0, 1545.0, 1548.0, 1548.0, 1550.0, 1549.0, 1551.0, 1547.0, 1544.0, 1542.0, 1540.0, 1541.0, 1544.0, 1549.0, 1546.0, 1542.0, 1541.0, 1538.0, 1539.0, 1538.0, 1540.0, 1545.0, 1545.0, 1545.0, 1544.0, 1547.0, 1550.0, 1552.0, 1550.0, 1546.0, 1546.0, 1547.0, 1554.0, 1555.0, 1554.0, 1546.0, 1543.0, 1539.0, 1538.0, 1538.0, 1541.0, 1544.0, 1547.0, 1548.0, 1549.0, 1545.0, 1545.0, 1543.0, 1545.0, 1544.0, 1545.0, 1544.0, 1546.0, 1548.0, 1548.0, 1548.0, 1551.0, 1554.0, 1551.0, 1547.0, 1548.0, 1548.0, 1545.0, 1541.0, 1538.0, 1540.0, 1538.0, 1540.0, 1540.0, 1549.0]
    },
    "slices": {}
  }
}