{
 "AcquisitionMatrixPE": 100,
 "AcquisitionNumber": 1,
 "AcquisitionTime": "13:27:26.115000",
 "BandwidthPerPixelPhaseEncode": 18.519,
 "BaseResolution": 100,
 "BodyPartExamined": "BRAIN",
 "ConsistencyInfo": "N4_VE11C_LATEST_20160120",
 "ConversionSoftware": "dcm2niix",
 "ConversionSoftwareVersion": "v1.0.20180622 GCC4.9.2",
 "DerivedVendorReportedEchoSpacing": 0.000539986,
 "DeviceSerialNumber": "166078",
 "DwellTime": 2.1e-06,
 "EchoTime": 0.034,
 "EchoTrainLength": 100,
 "EffectiveEchoSpacing": 0.000539986,
 "FlipAngle": 90,
 "ImageOrientationPatientDICOM": [
  1,
  0,
  0,
  0,
  0.983571,
  -0.180519
 ],
 "ImageType": [
  "ORIGINAL",
  "PRIMARY",
  "M",
  "ND",
  "MOSAIC"
 ],
 "InPlanePhaseEncodingDirectionDICOM": "COL",
 "InstitutionAddress": "Street_StreetNo_Bei_Jing_District_CN_ZIP",
 "InstitutionName": "BeiJing_Normal_University",
 "InstitutionalDepartmentName": "Department",
 "MRAcquisitionType": "2D",
 "MagneticFieldStrength": 3,
 "Manufacturer": "Siemens",
 "ManufacturersModelName": "Prisma",
 "Modality": "MR",
 "MultibandAccelerationFactor": 3,
 "PartialFourier": 1,
 "PatientPosition": "HFS",
 "PercentPhaseFOV": 100,
 "PhaseEncodingDirection": "j-",
 "PhaseEncodingSteps": 100,
 "PhaseResolution": 1,
 "PixelBandwidth": 2380,
 "ProcedureStepDescription": "BNU_P2018_64CH_Zhen.ZongLei",
 "ProtocolName": "bold_100x100_s3_2x2x2_static_256",
 "PulseSequenceDetails": "%SiemensSeq%_ep2d_bold",
 "ReceiveCoilActiveElements": "HC1-7;NC1",
 "ReceiveCoilName": "HeadNeck_64",
 "ReconMatrixPE": 100,
 "RepetitionTime": 2,
 "SAR": 0.0710137,
 "ScanOptions": "FS",
 "ScanningSequence": "EP",
 "SequenceName": "_epfid2d1_100",
 "SequenceVariant": "SK",
 "SeriesDescription": "bold_100x100_s3_2x2x2_static_256",
 "SeriesNumber": 5,
 "ShimSetting": [
  -5477,
  -11529,
  -1274,
  540,
  -18,
  -239,
  -165,
  47
 ],
 "SliceThickness": 2,
 "SliceTiming": [
  1.4825,
  0,
  0.99,
  0.0825,
  1.0725,
  0.165,
  1.155,
  0.2475,
  1.2375,
  0.33,
  1.32,
  0.4125,
  1.4,
  0.5775,
  1.565,
  0.66,
  1.6475,
  0.7425,
  1.73,
  0.825,
  1.8125,
  0.9075,
  1.895,
  0.495,
  1.4825,
  0,
  0.99,
  0.0825,
  1.0725,
  0.165,
  1.155,
  0.2475,
  1.2375,
  0.33,
  1.32,
  0.4125,
  1.4,
  0.5775,
  1.565,
  0.66,
  1.6475,
  0.7425,
  1.73,
  0.825,
  1.8125,
  0.9075,
  1.895,
  0.495,
  1.4825,
  0,
  0.99,
  0.0825,
  1.0725,
  0.165,
  1.155,
  0.2475,
  1.2375,
  0.33,
  1.32,
  0.4125,
  1.4,
  0.5775,
  1.565,
  0.66,
  1.6475,
  0.7425,
  1.73,
  0.825,
  1.8125,
  0.9075,
  1.895,
  0.495
 ],
 "SoftwareVersions": "syngo_MR_E11",
 "SpacingBetweenSlices": 2,
 "StationName": "AWP166078",
 "TaskName": "imagenet",
 "TotalReadoutTime": 0.0534586,
 "TxRefAmp": 216.057,
 "dcmmeta_affine": [
  [
   -2.0,
   0.0,
   0.0,
   106.7796630859375
  ],
  [
   0.0,
   1.967142939567566,
   -0.36103829741477966,
   -75.60704040527344
  ],
  [
   0.0,
   0.36103829741477966,
   1.967142939567566,
   -79.15641021728516
  ],
  [
   0.0,
   0.0,
   0.0,
   1.0
  ]
 ],
 "dcmmeta_reorient_transform": [
  [
   0.0,
   -1.0,
   0.0,
   99.0
  ],
  [
   1.0,
   0.0,
   0.0,
   0.0
  ],
  [
   0.0,
   0.0,
   1.0,
   0.0
  ],
  [
   0.0,
   0.0,
   0.0,
   1.0
  ]
 ],
 "dcmmeta_shape": [
  100,
  100,
  72,
  256
 ],
 "dcmmeta_slice_dim": 2,
 "dcmmeta_version": 0.6,
 "global": {
  "const": {
   "AcquisitionMatrix": [
    100,
    0,
    0,
    100
   ],
   "AngioFlag": "N",
   "BitsAllocated": 16,
   "BitsStored": 12,
   "BodyPartExamined": "BRAIN",
   "Columns": 900,
   "EchoNumbers": 1,
   "EchoTime": 34.0,
   "EchoTrainLength": 100,
   "FlipAngle": 90.0,
   "HighBit": 11,
   "ImageOrientationPatient": [
    1.0,
    0.0,
    0.0,
    0.0,
    0.98357147073484,
    -0.1805191456785
   ],
   "ImagePositionPatient": [
    -906.77966117859,
    -905.99728455308,
    101.00169690048
   ],
   "ImageType": [
    "ORIGINAL",
    "PRIMARY",
    "M",
    "ND",
    "MOSAIC"
   ],
   "ImagedNucleus": "1H",
   "ImagingFrequency": 123.25773,
   "InPlanePhaseEncodingDirection": "COL",
   "MRAcquisitionType": "2D",
   "MagneticFieldStrength": 3.0,
   "Manufacturer": "SIEMENS",
   "ManufacturerModelName": "Prisma",
   "Modality": "MR",
   "NumberOfAverages": 1.0,
   "NumberOfPhaseEncodingSteps": 100,
   "PercentPhaseFieldOfView": 100.0,
   "PercentSampling": 100.0,
   "PerformedProcedureStepStartTime": "130454.803000",
   "PhotometricInterpretation": "MONOCHROME2",
   "PixelBandwidth": 2380.0,
   "PixelRepresentation": 0,
   "PixelSpacing": [
    2.0,
    2.0
   ],
   "ProtocolName": "bold_100x100_s3_2x2x2_static_256",
   "RepetitionTime": 2000.0,
   "Rows": 900,
   "SAR": 0.07101369468017,
   "SamplesPerPixel": 1,
   "ScanOptions": "FS",
   "ScanningSequence": "EP",
   "SequenceName": "*epfid2d1_100",
   "SequenceVariant": "SK",
   "SeriesDescription": "bold_100x100_s3_2x2x2_static_256",
   "SeriesNumber": 5,
   "SeriesTime": "132729.258000",
   "SliceLocation": -64.207468227478,
   "SliceThickness": 2.0,
   "SmallestImagePixelValue": 0,
   "SoftwareVersions": "syngo MR E11",
   "SpacingBetweenSlices": 1.99999999598,
   "SpecificCharacterSet": "ISO_IR 100",
   "StudyID": "1",
   "StudyTime": "130454.677000",
   "TransmitCoilName": "Body",
   "VariableFlipAngleFlag": "N",
   "WindowCenterWidthExplanation": "Algo1",
   "dBdt": 0.0
  },
  "slices": {}
 },
 "time": {
  "samples": {
   "AcquisitionNumber": [
    1,
    2,
    3,
    4,
    5,
    6,
    7,
    8,
    9,
    10,
    11,
    12,
    13,
    14,
    15,
    16,
    17,
    18,
    19,
    20,
    21,
    22,
    23,
    24,
    25,
    26,
    27,
    28,
    29,
    30,
    31,
    32,
    33,
    34,
    35,
    36,
    37,
    38,
    39,
    40,
    41,
    42,
    43,
    44,
    45,
    46,
    47,
    48,
    49,
    50,
    51,
    52,
    53,
    54,
    55,
    56,
    57,
    58,
    59,
    60,
    61,
    62,
    63,
    64,
    65,
    66,
    67,
    68,
    69,
    70,
    71,
    72,
    73,
    74,
    75,
    76,
    77,
    78,
    79,
    80,
    81,
    82,
    83,
    84,
    85,
    86,
    87,
    88,
    89,
    90,
    91,
    92,
    93,
    94,
    95,
    96,
    97,
    98,
    99,
    100,
    101,
    102,
    103,
    104,
    105,
    106,
    107,
    108,
    109,
    110,
    111,
    112,
    113,
    114,
    115,
    116,
    117,
    118,
    119,
    120,
    121,
    122,
    123,
    124,
    125,
    126,
    127,
    128,
    129,
    130,
    131,
    132,
    133,
    134,
    135,
    136,
    137,
    138,
    139,
    140,
    141,
    142,
    143,
    144,
    145,
    146,
    147,
    148,
    149,
    150,
    151,
    152,
    153,
    154,
    155,
    156,
    157,
    158,
    159,
    160,
    161,
    162,
    163,
    164,
    165,
    166,
    167,
    168,
    169,
    170,
    171,
    172,
    173,
    174,
    175,
    176,
    177,
    178,
    179,
    180,
    181,
    182,
    183,
    184,
    185,
    186,
    187,
    188,
    189,
    190,
    191,
    192,
    193,
    194,
    195,
    196,
    197,
    198,
    199,
    200,
    201,
    202,
    203,
    204,
    205,
    206,
    207,
    208,
    209,
    210,
    211,
    212,
    213,
    214,
    215,
    216,
    217,
    218,
    219,
    220,
    221,
    222,
    223,
    224,
    225,
    226,
    227,
    228,
    229,
    230,
    231,
    232,
    233,
    234,
    235,
    236,
    237,
    238,
    239,
    240,
    241,
    242,
    243,
    244,
    245,
    246,
    247,
    248,
    249,
    250,
    251,
    252,
    253,
    254,
    255,
    256
   ],
   "AcquisitionTime": [
    "132726.115000",
    "132728.115000",
    "132730.115000",
    "132732.115000",
    "132734.115000",
    "132736.115000",
    "132738.115000",
    "132740.115000",
    "132742.115000",
    "132744.115000",
    "132746.115000",
    "132748.115000",
    "132750.115000",
    "132752.115000",
    "132754.115000",
    "132756.115000",
    "132758.115000",
    "132800.115000",
    "132802.115000",
    "132804.115000",
    "132806.115000",
    "132808.115000",
    "132810.115000",
    "132812.115000",
    "132814.115000",
    "132816.115000",
    "132818.115000",
    "132820.115000",
    "132822.115000",
    "132824.115000",
    "132826.115000",
    "132828.115000",
    "132830.115000",
    "132832.115000",
    "132834.115000",
    "132836.115000",
    "132838.115000",
    "132840.115000",
    "132842.115000",
    "132844.115000",
    "132846.115000",
    "132848.115000",
    "132850.115000",
    "132852.115000",
    "132854.115000",
    "132856.115000",
    "132858.115000",
    "132900.115000",
    "132902.115000",
    "132904.115000",
    "132906.115000",
    "132908.115000",
    "132910.115000",
    "132912.115000",
    "132914.115000",
    "132916.115000",
    "132918.115000",
    "132920.115000",
    "132922.115000",
    "132924.115000",
    "132926.115000",
    "132928.115000",
    "132930.115000",
    "132932.115000",
    "132934.115000",
    "132936.115000",
    "132938.115000",
    "132940.115000",
    "132942.115000",
    "132944.115000",
    "132946.115000",
    "132948.115000",
    "132950.115000",
    "132952.115000",
    "132954.115000",
    "132956.115000",
    "132958.115000",
    "133000.115000",
    "133002.115000",
    "133004.115000",
    "133006.115000",
    "133008.115000",
    "133010.115000",
    "133012.115000",
    "133014.115000",
    "133016.115000",
    "133018.115000",
    "133020.115000",
    "133022.115000",
    "133024.115000",
    "133026.115000",
    "133028.115000",
    "133030.115000",
    "133032.115000",
    "133034.115000",
    "133036.115000",
    "133038.115000",
    "133040.115000",
    "133042.115000",
    "133044.115000",
    "133046.115000",
    "133048.115000",
    "133050.115000",
    "133052.115000",
    "133054.115000",
    "133056.115000",
    "133058.115000",
    "133100.115000",
    "133102.115000",
    "133104.115000",
    "133106.115000",
    "133108.115000",
    "133110.115000",
    "133112.115000",
    "133114.115000",
    "133116.115000",
    "133118.115000",
    "133120.115000",
    "133122.115000",
    "133124.115000",
    "133126.115000",
    "133128.115000",
    "133130.115000",
    "133132.115000",
    "133134.115000",
    "133136.115000",
    "133138.115000",
    "133140.115000",
    "133142.115000",
    "133144.115000",
    "133146.115000",
    "133148.115000",
    "133150.115000",
    "133152.115000",
    "133154.115000",
    "133156.115000",
    "133158.115000",
    "133200.115000",
    "133202.115000",
    "133204.115000",
    "133206.115000",
    "133208.115000",
    "133210.115000",
    "133212.115000",
    "133214.115000",
    "133216.115000",
    "133218.115000",
    "133220.115000",
    "133222.115000",
    "133224.115000",
    "133226.115000",
    "133228.115000",
    "133230.115000",
    "133232.115000",
    "133234.115000",
    "133236.115000",
    "133238.115000",
    "133240.115000",
    "133242.115000",
    "133244.115000",
    "133246.115000",
    "133248.115000",
    "133250.115000",
    "133252.115000",
    "133254.115000",
    "133256.115000",
    "133258.115000",
    "133300.115000",
    "133302.115000",
    "133304.115000",
    "133306.115000",
    "133308.115000",
    "133310.115000",
    "133312.115000",
    "133314.115000",
    "133316.115000",
    "133318.115000",
    "133320.115000",
    "133322.115000",
    "133324.115000",
    "133326.115000",
    "133328.115000",
    "133330.115000",
    "133332.115000",
    "133334.115000",
    "133336.115000",
    "133338.115000",
    "133340.115000",
    "133342.115000",
    "133344.115000",
    "133346.115000",
    "133348.115000",
    "133350.115000",
    "133352.115000",
    "133354.115000",
    "133356.115000",
    "133358.115000",
    "133400.115000",
    "133402.115000",
    "133404.115000",
    "133406.115000",
    "133408.115000",
    "133410.115000",
    "133412.115000",
    "133414.115000",
    "133416.115000",
    "133418.115000",
    "133420.115000",
    "133422.115000",
    "133424.115000",
    "133426.115000",
    "133428.115000",
    "133430.115000",
    "133432.115000",
    "133434.115000",
    "133436.115000",
    "133438.115000",
    "133440.115000",
    "133442.115000",
    "133444.115000",
    "133446.115000",
    "133448.115000",
    "133450.115000",
    "133452.115000",
    "133454.115000",
    "133456.115000",
    "133458.115000",
    "133500.115000",
    "133502.115000",
    "133504.115000",
    "133506.115000",
    "133508.115000",
    "133510.115000",
    "133512.115000",
    "133514.115000",
    "133516.115000",
    "133518.115000",
    "133520.115000",
    "133522.115000",
    "133524.115000",
    "133526.115000",
    "133528.115000",
    "133530.115000",
    "133532.115000",
    "133534.115000",
    "133536.115000",
    "133538.115000",
    "133540.115000",
    "133542.115000",
    "133544.115000",
    "133546.115000",
    "133548.115000",
    "133550.115000",
    "133552.115000",
    "133554.115000",
    "133556.115000"
   ],
   "ContentTime": [
    "132729.262000",
    "132730.745000",
    "132732.745000",
    "132734.746000",
    "132736.746000",
    "132738.745000",
    "132740.745000",
    "132742.745000",
    "132744.745000",
    "132746.746000",
    "132748.745000",
    "132750.745000",
    "132752.746000",
    "132754.745000",
    "132756.745000",
    "132758.744000",
    "132800.745000",
    "132802.745000",
    "132804.745000",
    "132806.745000",
    "132808.745000",
    "132810.746000",
    "132812.745000",
    "132814.745000",
    "132816.744000",
    "132818.745000",
    "132820.745000",
    "132822.745000",
    "132824.745000",
    "132826.745000",
    "132828.745000",
    "132830.746000",
    "132832.745000",
    "132834.746000",
    "132836.746000",
    "132838.745000",
    "132840.745000",
    "132842.746000",
    "132844.746000",
    "132846.745000",
    "132848.745000",
    "132850.744000",
    "132852.745000",
    "132854.746000",
    "132856.745000",
    "132858.745000",
    "132900.745000",
    "132902.746000",
    "132904.746000",
    "132906.746000",
    "132908.744000",
    "132910.745000",
    "132912.745000",
    "132914.746000",
    "132916.746000",
    "132918.745000",
    "132920.745000",
    "132922.746000",
    "132924.745000",
    "132926.745000",
    "132928.746000",
    "132930.746000",
    "132932.745000",
    "132934.745000",
    "132936.745000",
    "132938.745000",
    "132940.745000",
    "132942.745000",
    "132944.745000",
    "132946.746000",
    "132948.745000",
    "132950.746000",
    "132952.746000",
    "132954.745000",
    "132956.746000",
    "132958.746000",
    "133000.745000",
    "133002.745000",
    "133004.745000",
    "133006.746000",
    "133008.745000",
    "133010.745000",
    "133012.745000",
    "133014.745000",
    "133016.746000",
    "133018.745000",
    "133020.745000",
    "133022.746000",
    "133024.746000",
    "133026.745000",
    "133028.746000",
    "133030.746000",
    "133032.746000",
    "133034.745000",
    "133036.744000",
    "133038.745000",
    "133040.746000",
    "133042.745000",
    "133044.746000",
    "133046.746000",
    "133048.745000",
    "133050.746000",
    "133052.746000",
    "133054.746000",
    "133056.745000",
    "133058.745000",
    "133100.746000",
    "133102.746000",
    "133104.745000",
    "133106.746000",
    "133108.746000",
    "133110.744000",
    "133112.745000",
    "133114.745000",
    "133116.745000",
    "133118.746000",
    "133120.745000",
    "133122.746000",
    "133124.745000",
    "133126.745000",
    "133128.744000",
    "133130.746000",
    "133132.746000",
    "133134.745000",
    "133136.745000",
    "133138.745000",
    "133140.745000",
    "133142.746000",
    "133144.746000",
    "133146.744000",
    "133148.745000",
    "133150.745000",
    "133152.745000",
    "133154.745000",
    "133156.746000",
    "133158.746000",
    "133200.746000",
    "133202.745000",
    "133204.746000",
    "133206.745000",
    "133208.746000",
    "133210.746000",
    "133212.746000",
    "133214.746000",
    "133216.746000",
    "133218.746000",
    "133220.745000",
    "133222.746000",
    "133224.745000",
    "133226.746000",
    "133228.746000",
    "133230.745000",
    "133232.745000",
    "133234.745000",
    "133236.745000",
    "133238.745000",
    "133240.745000",
    "133242.746000",
    "133244.745000",
    "133246.745000",
    "133248.745000",
    "133250.745000",
    "133252.745000",
    "133254.745000",
    "133256.745000",
    "133258.746000",
    "133300.746000",
    "133302.746000",
    "133304.745000",
    "133306.745000",
    "133308.746000",
    "133310.746000",
    "133312.745000",
    "133314.746000",
    "133316.745000",
    "133318.745000",
    "133320.760000",
    "133322.746000",
    "133324.745000",
    "133326.746000",
    "133328.746000",
    "133330.744000",
    "133332.746000",
    "133334.746000",
    "133336.746000",
    "133338.745000",
    "133340.746000",
    "133342.746000",
    "133344.745000",
    "133346.746000",
    "133348.745000",
    "133350.746000",
    "133352.745000",
    "133354.746000",
    "133356.746000",
    "133358.745000",
    "133400.746000",
    "133402.745000",
    "133404.746000",
    "133406.746000",
    "133408.746000",
    "133410.745000",
    "133412.745000",
    "133414.746000",
    "133416.745000",
    "133418.746000",
    "133420.746000",
    "133422.746000",
    "133424.746000",
    "133426.746000",
    "133428.746000",
    "133430.745000",
    "133432.746000",
    "133434.745000",
    "133436.745000",
    "133438.746000",
    "133440.744000",
    "133442.745000",
    "133444.745000",
    "133446.745000",
    "133448.746000",
    "133450.745000",
    "133452.745000",
    "133454.746000",
    "133456.745000",
    "133458.744000",
    "133500.746000",
    "133502.745000",
    "133504.745000",
    "133506.745000",
    "133508.746000",
    "133510.746000",
    "133512.745000",
    "133514.745000",
    "133516.746000",
    "133518.746000",
    "133520.745000",
    "133522.746000",
    "133524.746000",
    "133526.746000",
    "133528.746000",
    "133530.746000",
    "133532.745000",
    "133534.745000",
    "133536.745000",
    "133538.746000",
    "133540.745000",
    "133542.746000",
    "133544.746000",
    "133546.745000",
    "133548.746000",
    "133550.745000",
    "133552.745000",
    "133554.746000",
    "133556.746000",
    "133558.324000"
   ],
   "InstanceCreationTime": [
    "132729.262000",
    "132730.745000",
    "132732.745000",
    "132734.746000",
    "132736.746000",
    "132738.745000",
    "132740.745000",
    "132742.745000",
    "132744.745000",
    "132746.746000",
    "132748.745000",
    "132750.745000",
    "132752.746000",
    "132754.745000",
    "132756.745000",
    "132758.744000",
    "132800.745000",
    "132802.745000",
    "132804.745000",
    "132806.745000",
    "132808.745000",
    "132810.746000",
    "132812.745000",
    "132814.745000",
    "132816.744000",
    "132818.745000",
    "132820.745000",
    "132822.745000",
    "132824.745000",
    "132826.745000",
    "132828.745000",
    "132830.746000",
    "132832.745000",
    "132834.746000",
    "132836.746000",
    "132838.745000",
    "132840.745000",
    "132842.746000",
    "132844.746000",
    "132846.745000",
    "132848.745000",
    "132850.744000",
    "132852.745000",
    "132854.746000",
    "132856.745000",
    "132858.745000",
    "132900.745000",
    "132902.746000",
    "132904.746000",
    "132906.746000",
    "132908.744000",
    "132910.745000",
    "132912.745000",
    "132914.746000",
    "132916.746000",
    "132918.745000",
    "132920.745000",
    "132922.746000",
    "132924.745000",
    "132926.745000",
    "132928.746000",
    "132930.746000",
    "132932.745000",
    "132934.745000",
    "132936.745000",
    "132938.745000",
    "132940.745000",
    "132942.745000",
    "132944.745000",
    "132946.746000",
    "132948.745000",
    "132950.746000",
    "132952.746000",
    "132954.745000",
    "132956.746000",
    "132958.746000",
    "133000.745000",
    "133002.745000",
    "133004.745000",
    "133006.746000",
    "133008.745000",
    "133010.745000",
    "133012.745000",
    "133014.745000",
    "133016.746000",
    "133018.745000",
    "133020.745000",
    "133022.746000",
    "133024.746000",
    "133026.745000",
    "133028.746000",
    "133030.746000",
    "133032.746000",
    "133034.745000",
    "133036.744000",
    "133038.745000",
    "133040.746000",
    "133042.745000",
    "133044.746000",
    "133046.746000",
    "133048.745000",
    "133050.746000",
    "133052.746000",
    "133054.746000",
    "133056.745000",
    "133058.745000",
    "133100.746000",
    "133102.746000",
    "133104.745000",
    "133106.746000",
    "133108.746000",
    "133110.744000",
    "133112.745000",
    "133114.745000",
    "133116.745000",
    "133118.746000",
    "133120.745000",
    "133122.746000",
    "133124.745000",
    "133126.745000",
    "133128.744000",
    "133130.746000",
    "133132.746000",
    "133134.745000",
    "133136.745000",
    "133138.745000",
    "133140.745000",
    "133142.746000",
    "133144.746000",
    "133146.744000",
    "133148.745000",
    "133150.745000",
    "133152.745000",
    "133154.745000",
    "133156.746000",
    "133158.746000",
    "133200.746000",
    "133202.745000",
    "133204.746000",
    "133206.745000",
    "133208.746000",
    "133210.746000",
    "133212.746000",
    "133214.746000",
    "133216.746000",
    "133218.746000",
    "133220.745000",
    "133222.746000",
    "133224.745000",
    "133226.746000",
    "133228.746000",
    "133230.745000",
    "133232.745000",
    "133234.745000",
    "133236.745000",
    "133238.745000",
    "133240.745000",
    "133242.746000",
    "133244.745000",
    "133246.745000",
    "133248.745000",
    "133250.745000",
    "133252.745000",
    "133254.745000",
    "133256.745000",
    "133258.746000",
    "133300.746000",
    "133302.746000",
    "133304.745000",
    "133306.745000",
    "133308.746000",
    "133310.746000",
    "133312.745000",
    "133314.746000",
    "133316.745000",
    "133318.745000",
    "133320.760000",
    "133322.746000",
    "133324.745000",
    "133326.746000",
    "133328.746000",
    "133330.744000",
    "133332.746000",
    "133334.746000",
    "133336.746000",
    "133338.745000",
    "133340.746000",
    "133342.746000",
    "133344.745000",
    "133346.746000",
    "133348.745000",
    "133350.746000",
    "133352.745000",
    "133354.746000",
    "133356.746000",
    "133358.745000",
    "133400.746000",
    "133402.745000",
    "133404.746000",
    "133406.746000",
    "133408.746000",
    "133410.745000",
    "133412.745000",
    "133414.746000",
    "133416.745000",
    "133418.746000",
    "133420.746000",
    "133422.746000",
    "133424.746000",
    "133426.746000",
    "133428.746000",
    "133430.745000",
    "133432.746000",
    "133434.745000",
    "133436.745000",
    "133438.746000",
    "133440.744000",
    "133442.745000",
    "133444.745000",
    "133446.745000",
    "133448.746000",
    "133450.745000",
    "133452.745000",
    "133454.746000",
    "133456.745000",
    "133458.744000",
    "133500.746000",
    "133502.745000",
    "133504.745000",
    "133506.745000",
    "133508.746000",
    "133510.746000",
    "133512.745000",
    "133514.745000",
    "133516.746000",
    "133518.746000",
    "133520.745000",
    "133522.746000",
    "133524.746000",
    "133526.746000",
    "133528.746000",
    "133530.746000",
    "133532.745000",
    "133534.745000",
    "133536.745000",
    "133538.746000",
    "133540.745000",
    "133542.746000",
    "133544.746000",
    "133546.745000",
    "133548.746000",
    "133550.745000",
    "133552.745000",
    "133554.746000",
    "133556.746000",
    "133558.324000"
   ],
   "InstanceNumber": [
    1,
    2,
    3,
    4,
    5,
    6,
    7,
    8,
    9,
    10,
    11,
    12,
    13,
    14,
    15,
    16,
    17,
    18,
    19,
    20,
    21,
    22,
    23,
    24,
    25,
    26,
    27,
    28,
    29,
    30,
    31,
    32,
    33,
    34,
    35,
    36,
    37,
    38,
    39,
    40,
    41,
    42,
    43,
    44,
    45,
    46,
    47,
    48,
    49,
    50,
    51,
    52,
    53,
    54,
    55,
    56,
    57,
    58,
    59,
    60,
    61,
    62,
    63,
    64,
    65,
    66,
    67,
    68,
    69,
    70,
    71,
    72,
    73,
    74,
    75,
    76,
    77,
    78,
    79,
    80,
    81,
    82,
    83,
    84,
    85,
    86,
    87,
    88,
    89,
    90,
    91,
    92,
    93,
    94,
    95,
    96,
    97,
    98,
    99,
    100,
    101,
    102,
    103,
    104,
    105,
    106,
    107,
    108,
    109,
    110,
    111,
    112,
    113,
    114,
    115,
    116,
    117,
    118,
    119,
    120,
    121,
    122,
    123,
    124,
    125,
    126,
    127,
    128,
    129,
    130,
    131,
    132,
    133,
    134,
    135,
    136,
    137,
    138,
    139,
    140,
    141,
    142,
    143,
    144,
    145,
    146,
    147,
    148,
    149,
    150,
    151,
    152,
    153,
    154,
    155,
    156,
    157,
    158,
    159,
    160,
    161,
    162,
    163,
    164,
    165,
    166,
    167,
    168,
    169,
    170,
    171,
    172,
    173,
    174,
    175,
    176,
    177,
    178,
    179,
    180,
    181,
    182,
    183,
    184,
    185,
    186,
    187,
    188,
    189,
    190,
    191,
    192,
    193,
    194,
    195,
    196,
    197,
    198,
    199,
    200,
    201,
    202,
    203,
    204,
    205,
    206,
    207,
    208,
    209,
    210,
    211,
    212,
    213,
    214,
    215,
    216,
    217,
    218,
    219,
    220,
    221,
    222,
    223,
    224,
    225,
    226,
    227,
    228,
    229,
    230,
    231,
    232,
    233,
    234,
    235,
    236,
    237,
    238,
    239,
    240,
    241,
    242,
    243,
    244,
    245,
    246,
    247,
    248,
    249,
    250,
    251,
    252,
    253,
    254,
    255,
    256
   ],
   "LargestImagePixelValue": [
    2574,
    2550,
    2479,
    2649,
    2559,
    2503,
    2503,
    2516,
    2507,
    2491,
    2513,
    2680,
    2573,
    2542,
    2586,
    2496,
    2486,
    2685,
    2571,
    2482,
    2476,
    2573,
    2480,
    2474,
    2497,
    2490,
    2491,
    2509,
    2503,
    2482,
    2581,
    2486,
    2476,
    2452,
    2479,
    2486,
    2476,
    2703,
    2492,
    2471,
    2477,
    2465,
    2477,
    2467,
    2478,
    2460,
    2472,
    2457,
    2483,
    2461,
    2477,
    2473,
    2459,
    2476,
    2607,
    2482,
    2461,
    2936,
    2488,
    2448,
    2535,
    2491,
    2457,
    2491,
    2476,
    2624,
    2471,
    2442,
    2454,
    2444,
    2456,
    2529,
    2459,
    2466,
    2459,
    2485,
    2446,
    2473,
    2473,
    2456,
    2462,
    2480,
    2447,
    2456,
    2524,
    2448,
    2628,
    3084,
    2447,
    2807,
    2588,
    2518,
    2482,
    2767,
    2471,
    2590,
    2946,
    3114,
    2438,
    2849,
    2462,
    2726,
    2448,
    2440,
    2477,
    2465,
    2446,
    2550,
    2578,
    2436,
    2445,
    2767,
    2469,
    2627,
    2512,
    2490,
    2465,
    2472,
    2633,
    2492,
    2462,
    2505,
    2461,
    2478,
    2473,
    2462,
    2727,
    2462,
    2477,
    2456,
    2488,
    2569,
    2976,
    2443,
    2532,
    2621,
    2520,
    2474,
    2584,
    2504,
    2471,
    2505,
    2475,
    2466,
    2511,
    2577,
    2502,
    2527,
    2495,
    2796,
    2532,
    2530,
    2512,
    2498,
    2513,
    2561,
    2684,
    2605,
    2501,
    2554,
    2497,
    2503,
    2514,
    2533,
    2500,
    2660,
    2546,
    2676,
    2626,
    2514,
    2546,
    2564,
    2521,
    2502,
    2552,
    2537,
    2691,
    2486,
    2673,
    2479,
    2504,
    2552,
    2480,
    2644,
    2506,
    2569,
    2575,
    2561,
    2540,
    2542,
    2543,
    2608,
    2625,
    2586,
    2635,
    2725,
    2618,
    2634,
    2635,
    2627,
    2609,
    2734,
    2610,
    2607,
    2622,
    2818,
    2632,
    2706,
    2644,
    2634,
    2628,
    2619,
    2617,
    2655,
    2644,
    2616,
    2612,
    2602,
    2609,
    2618,
    2589,
    2613,
    2626,
    2575,
    2599,
    2572,
    2598,
    2553,
    2569,
    2548,
    2566,
    2617,
    2569,
    2584,
    2528,
    2547,
    2554,
    2567,
    2532,
    2538,
    2561,
    2514,
    2522,
    2551,
    2532,
    2501,
    2537,
    2529,
    2533,
    2571,
    2511,
    2533,
    2530,
    2527,
    2562,
    2557
   ],
   "WindowCenter": [
    725.0,
    724.0,
    723.0,
    725.0,
    724.0,
    723.0,
    723.0,
    723.0,
    723.0,
    724.0,
    724.0,
    725.0,
    723.0,
    723.0,
    724.0,
    723.0,
    722.0,
    725.0,
    724.0,
    722.0,
    721.0,
    722.0,
    721.0,
    723.0,
    723.0,
    722.0,
    722.0,
    722.0,
    723.0,
    723.0,
    724.0,
    722.0,
    721.0,
    721.0,
    723.0,
    723.0,
    723.0,
    724.0,
    722.0,
    721.0,
    722.0,
    723.0,
    723.0,
    721.0,
    721.0,
    720.0,
    722.0,
    722.0,
    723.0,
    723.0,
    723.0,
    722.0,
    721.0,
    722.0,
    724.0,
    724.0,
    723.0,
    727.0,
    723.0,
    723.0,
    724.0,
    723.0,
    722.0,
    721.0,
    720.0,
    723.0,
    724.0,
    723.0,
    723.0,
    722.0,
    722.0,
    723.0,
    722.0,
    721.0,
    721.0,
    721.0,
    721.0,
    722.0,
    722.0,
    722.0,
    721.0,
    721.0,
    723.0,
    723.0,
    723.0,
    721.0,
    724.0,
    728.0,
    721.0,
    725.0,
    723.0,
    722.0,
    722.0,
    724.0,
    721.0,
    722.0,
    726.0,
    729.0,
    723.0,
    726.0,
    722.0,
    725.0,
    723.0,
    722.0,
    721.0,
    720.0,
    722.0,
    724.0,
    724.0,
    723.0,
    724.0,
    727.0,
    723.0,
    725.0,
    724.0,
    723.0,
    722.0,
    721.0,
    724.0,
    723.0,
    723.0,
    723.0,
    721.0,
    721.0,
    722.0,
    723.0,
