{
  "AcquisitionMatrixPE": 100,
  "AcquisitionNumber": 1,
  "AcquisitionTime": "14:20:44.302500",
  "BandwidthPerPixelPhaseEncode": 18.519,
  "BaseResolution": 100,
  "BodyPartExamined": "BRAIN",
  "ConsistencyInfo": "N4_VE11C_LATEST_20160120",
  "ConversionSoftware": "dcm2niix",
  "ConversionSoftwareVersion": "v1.0.20180622 GCC4.9.2",
  "DerivedVendorReportedEchoSpacing": 0.000539986,
  "DeviceSerialNumber": "166078",
  "DwellTime": 2.1e-06,
  "EchoTime": 0.034,
  "EchoTrainLength": 100,
  "EffectiveEchoSpacing": 0.000539986,
  "FlipAngle": 90,
  "ImageOrientationPatientDICOM": [1, 0, 0, 0, 0.983571, -0.180519],
  "ImageType": [
    "ORIGINAL",
    "PRIMARY",
    "M",
    "ND",
    "MOSAIC"
],
  "InPlanePhaseEncodingDirectionDICOM": "COL",
  "InstitutionAddress": "Street_StreetNo_Bei_Jing_District_CN_ZIP",
  "InstitutionName": "BeiJing_Normal_University",
  "InstitutionalDepartmentName": "Department",
  "MRAcquisitionType": "2D",
  "MagneticFieldStrength": 3,
  "Manufacturer": "Siemens",
  "ManufacturersModelName": "Prisma",
  "Modality": "MR",
  "MultibandAccelerationFactor": 3,
  "PartialFourier": 1,
  "PatientPosition": "HFS",
  "PercentPhaseFOV": 100,
  "PhaseEncodingDirection": "j-",
  "PhaseEncodingSteps": 100,
  "PhaseResolution": 1,
  "PixelBandwidth": 2380,
  "ProcedureStepDescription": "BNU_P2018_64CH_Zhen.ZongLei",
  "ProtocolName": "bold_100x100_s3_2x2x2_static_256",
  "PulseSequenceDetails": "%SiemensSeq%_ep2d_bold",
  "ReceiveCoilActiveElements": "HC1-7;NC1",
  "ReceiveCoilName": "HeadNeck_64",
  "ReconMatrixPE": 100,
  "RepetitionTime": 2,
  "SAR": 0.0710137,
  "ScanOptions": "FS",
  "ScanningSequence": "EP",
  "SequenceName": "_epfid2d1_100",
  "SequenceVariant": "SK",
  "SeriesDescription": "bold_100x100_s3_2x2x2_static_256",
  "SeriesNumber": 12,
  "ShimSetting": [-5477, -11529, -1274, 540, -18, -239, -165, 47],
  "SliceThickness": 2,
  "SliceTiming": [1.485, 0, 0.99, 0.0825, 1.0725, 0.165, 1.155, 0.2475, 1.2375, 0.33, 1.32, 0.4125, 1.4025, 0.5775, 1.5675, 0.66, 1.65, 0.7425, 1.7325, 0.825, 1.815, 0.9075, 1.8975, 0.495, 1.485, 0, 0.99, 0.0825, 1.0725, 0.165, 1.155, 0.2475, 1.2375, 0.33, 1.32, 0.4125, 1.4025, 0.5775, 1.5675, 0.66, 1.65, 0.7425, 1.7325, 0.825, 1.815, 0.9075, 1.8975, 0.495, 1.485, 0, 0.99, 0.0825, 1.0725, 0.165, 1.155, 0.2475, 1.2375, 0.33, 1.32, 0.4125, 1.4025, 0.5775, 1.5675, 0.66, 1.65, 0.7425, 1.7325, 0.825, 1.815, 0.9075, 1.8975, 0.495],
  "SoftwareVersions": "syngo_MR_E11",
  "SpacingBetweenSlices": 2,
  "StationName": "AWP166078",
  "TaskName": "naturalvision",
  "TotalReadoutTime": 0.0534586,
  "TxRefAmp": 216.057,
  "dcmmeta_affine": [
    [-2.0, 0.0, 0.0, 106.7796630859375],
    [0.0, 1.967142939567566, -0.36103829741477966, -75.60704040527344],
    [0.0, 0.36103829741477966, 1.967142939567566, -79.15641021728516],
    [0.0, 0.0, 0.0, 1.0]
],
  "dcmmeta_reorient_transform": [
    [0.0, -1.0, 0.0, 99.0],
    [1.0, 0.0, 0.0, 0.0],
    [0.0, 0.0, 1.0, 0.0],
    [0.0, 0.0, 0.0, 1.0]
],
  "dcmmeta_shape": [100, 100, 72, 256],
  "dcmmeta_slice_dim": 2,
  "dcmmeta_version": 0.6,
  "global": {
    "const": {
      "AcquisitionMatrix": [100, 0, 0, 100],
      "AngioFlag": "N",
      "BitsAllocated": 16,
      "BitsStored": 12,
      "BodyPartExamined": "BRAIN",
      "Columns": 900,
      "EchoNumbers": 1,
      "EchoTime": 34.0,
      "EchoTrainLength": 100,
      "FlipAngle": 90.0,
      "HighBit": 11,
      "ImageOrientationPatient": [1.0, 0.0, 0.0, 0.0, 0.98357147073484, -0.1805191456785],
      "ImagePositionPatient": [-906.77966117859, -905.99728455308, 101.00169690048],
      "ImageType": [
        "ORIGINAL",
        "PRIMARY",
        "M",
        "ND",
        "MOSAIC"
],
      "ImagedNucleus": "1H",
      "ImagingFrequency": 123.257734,
      "InPlanePhaseEncodingDirection": "COL",
      "MRAcquisitionType": "2D",
      "MagneticFieldStrength": 3.0,
      "Manufacturer": "SIEMENS",
      "ManufacturerModelName": "Prisma",
      "Modality": "MR",
      "NumberOfAverages": 1.0,
      "NumberOfPhaseEncodingSteps": 100,
      "PercentPhaseFieldOfView": 100.0,
      "PercentSampling": 100.0,
      "PerformedProcedureStepStartTime": "130454.803000",
      "PhotometricInterpretation": "MONOCHROME2",
      "PixelBandwidth": 2380.0,
      "PixelRepresentation": 0,
      "PixelSpacing": [2.0, 2.0],
      "ProtocolName": "bold_100x100_s3_2x2x2_static_256",
      "RepetitionTime": 2000.0,
      "Rows": 900,
      "SAR": 0.07101369468017,
      "SamplesPerPixel": 1,
      "ScanOptions": "FS",
      "ScanningSequence": "EP",
      "SequenceName": "*epfid2d1_100",
      "SequenceVariant": "SK",
      "SeriesDescription": "bold_100x100_s3_2x2x2_static_256",
      "SeriesNumber": 12,
      "SeriesTime": "142047.288000",
      "SliceLocation": -64.207468227478,
      "SliceThickness": 2.0,
      "SmallestImagePixelValue": 0,
      "SoftwareVersions": "syngo MR E11",
      "SpacingBetweenSlices": 1.99999999598,
      "SpecificCharacterSet": "ISO_IR 100",
      "StudyID": "1",
      "StudyTime": "130454.677000",
      "TransmitCoilName": "Body",
      "VariableFlipAngleFlag": "N",
      "WindowCenterWidthExplanation": "Algo1",
      "dBdt": 0.0},
    "slices": {}
  },
  "time": {
    "samples": {
      "AcquisitionNumber": [1, 2, 3, 4, 5, 6, 7, 8, 9, 10, 11, 12, 13, 14, 15, 16, 17, 18, 19, 20, 21, 22, 23, 24, 25, 26, 27, 28, 29, 30, 31, 32, 33, 34, 35, 36, 37, 38, 39, 40, 41, 42, 43, 44, 45, 46, 47, 48, 49, 50, 51, 52, 53, 54, 55, 56, 57, 58, 59, 60, 61, 62, 63, 64, 65, 66, 67, 68, 69, 70, 71, 72, 73, 74, 75, 76, 77, 78, 79, 80, 81, 82, 83, 84, 85, 86, 87, 88, 89, 90, 91, 92, 93, 94, 95, 96, 97, 98, 99, 100, 101, 102, 103, 104, 105, 106, 107, 108, 109, 110, 111, 112, 113, 114, 115, 116, 117, 118, 119, 120, 121, 122, 123, 124, 125, 126, 127, 128, 129, 130, 131, 132, 133, 134, 135, 136, 137, 138, 139, 140, 141, 142, 143, 144, 145, 146, 147, 148, 149, 150, 151, 152, 153, 154, 155, 156, 157, 158, 159, 160, 161, 162, 163, 164, 165, 166, 167, 168, 169, 170, 171, 172, 173, 174, 175, 176, 177, 178, 179, 180, 181, 182, 183, 184, 185, 186, 187, 188, 189, 190, 191, 192, 193, 194, 195, 196, 197, 198, 199, 200, 201, 202, 203, 204, 205, 206, 207, 208, 209, 210, 211, 212, 213, 214, 215, 216, 217, 218, 219, 220, 221, 222, 223, 224, 225, 226, 227, 228, 229, 230, 231, 232, 233, 234, 235, 236, 237, 238, 239, 240, 241, 242, 243, 244, 245, 246, 247, 248, 249, 250, 251, 252, 253, 254, 255, 256],
      "AcquisitionTime": ["142044.302500", "142046.302500", "142048.302500", "142050.302500", "142052.302500", "142054.302500", "142056.302500", "142058.302500", "142100.302500", "142102.302500", "142104.302500", "142106.302500", "142108.302500", "142110.302500", "142112.302500", "142114.302500", "142116.302500", "142118.302500", "142120.302500", "142122.302500", "142124.302500", "142126.302500", "142128.302500", "142130.302500", "142132.302500", "142134.302500", "142136.302500", "142138.302500", "142140.302500", "142142.302500", "142144.302500", "142146.302500", "142148.302500", "142150.302500", "142152.302500", "142154.302500", "142156.302500", "142158.302500", "142200.302500", "142202.302500", "142204.302500", "142206.302500", "142208.302500", "142210.302500", "142212.302500", "142214.302500", "142216.302500", "142218.302500", "142220.302500", "142222.302500", "142224.302500", "142226.302500", "142228.302500", "142230.302500", "142232.302500", "142234.302500", "142236.302500", "142238.302500", "142240.302500", "142242.302500", "142244.302500", "142246.302500", "142248.302500", "142250.302500", "142252.302500", "142254.302500", "142256.302500", "142258.302500", "142300.302500", "142302.302500", "142304.302500", "142306.302500", "142308.302500", "142310.302500", "142312.302500", "142314.302500", "142316.302500", "142318.302500", "142320.302500", "142322.302500", "142324.302500", "142326.302500", "142328.302500", "142330.302500", "142332.302500", "142334.302500", "142336.302500", "142338.302500", "142340.302500", "142342.302500", "142344.302500", "142346.302500", "142348.302500", "142350.302500", "142352.302500", "142354.302500", "142356.302500", "142358.302500", "142400.302500", "142402.302500", "142404.302500", "142406.302500", "142408.302500", "142410.302500", "142412.302500", "142414.302500", "142416.302500", "142418.302500", "142420.302500", "142422.302500", "142424.302500", "142426.302500", "142428.302500", "142430.302500", "142432.302500", "142434.302500", "142436.302500", "142438.302500", "142440.302500", "142442.302500", "142444.302500", "142446.302500", "142448.302500", "142450.302500", "142452.302500", "142454.302500", "142456.302500", "142458.302500", "142500.302500", "142502.302500", "142504.302500", "142506.302500", "142508.302500", "142510.302500", "142512.302500", "142514.302500", "142516.302500", "142518.302500", "142520.302500", "142522.302500", "142524.302500", "142526.302500", "142528.302500", "142530.302500", "142532.302500", "142534.302500", "142536.302500", "142538.302500", "142540.302500", "142542.302500", "142544.302500", "142546.302500", "142548.302500", "142550.302500", "142552.302500", "142554.302500", "142556.302500", "142558.302500", "142600.302500", "142602.302500", "142604.302500", "142606.302500", "142608.302500", "142610.302500", "142612.302500", "142614.302500", "142616.302500", "142618.302500", "142620.302500", "142622.302500", "142624.302500", "142626.302500", "142628.302500", "142630.302500", "142632.302500", "142634.302500", "142636.302500", "142638.302500", "142640.302500", "142642.302500", "142644.302500", "142646.302500", "142648.302500", "142650.302500", "142652.302500", "142654.302500", "142656.302500", "142658.302500", "142700.302500", "142702.302500", "142704.302500", "142706.302500", "142708.302500", "142710.302500", "142712.302500", "142714.302500", "142716.302500", "142718.302500", "142720.302500", "142722.302500", "142724.302500", "142726.302500", "142728.302500", "142730.302500", "142732.302500", "142734.302500", "142736.302500", "142738.302500", "142740.302500", "142742.302500", "142744.302500", "142746.302500", "142748.302500", "142750.302500", "142752.302500", "142754.302500", "142756.302500", "142758.302500", "142800.302500", "142802.302500", "142804.302500", "142806.302500", "142808.302500", "142810.302500", "142812.302500", "142814.302500", "142816.302500", "142818.302500", "142820.302500", "142822.302500", "142824.302500", "142826.302500", "142828.302500", "142830.302500", "142832.302500", "142834.302500", "142836.302500", "142838.302500", "142840.302500", "142842.302500", "142844.302500", "142846.302500", "142848.302500", "142850.302500", "142852.302500", "142854.302500", "142856.302500", "142858.302500", "142900.302500", "142902.302500", "142904.302500", "142906.302500", "142908.302500", "142910.302500", "142912.302500", "142914.302500"],
      "ContentTime": ["142047.292000", "142048.788000", "142050.787000", "142052.787000", "142054.787000", "142056.787000", "142058.787000", "142100.787000", "142102.787000", "142104.787000", "142106.788000", "142108.787000", "142110.788000", "142112.788000", "142114.788000", "142116.787000", "142118.788000", "142120.787000", "142122.787000", "142124.788000", "142126.788000", "142128.787000", "142130.788000", "142132.787000", "142134.787000", "142136.788000", "142138.788000", "142140.788000", "142142.787000", "142144.787000", "142146.787000", "142148.788000", "142150.787000", "142152.788000", "142154.788000", "142156.788000", "142158.787000", "142200.787000", "142202.787000", "142204.787000", "142206.787000", "142208.788000", "142210.787000", "142212.787000", "142214.788000", "142216.787000", "142218.787000", "142220.787000", "142222.787000", "142224.787000", "142226.788000", "142228.788000", "142230.787000", "142232.787000", "142234.788000", "142236.787000", "142238.788000", "142240.788000", "142242.787000", "142244.788000", "142246.789000", "142248.787000", "142250.787000", "142252.787000", "142254.788000", "142256.787000", "142258.787000", "142300.787000", "142302.787000", "142304.788000", "142306.787000", "142308.787000", "142310.787000", "142312.787000", "142314.787000", "142316.788000", "142318.788000", "142320.788000", "142322.788000", "142324.787000", "142326.787000", "142328.787000", "142330.788000", "142332.788000", "142334.787000", "142336.788000", "142338.788000", "142340.788000", "142342.787000", "142344.788000", "142346.788000", "142348.788000", "142350.788000", "142352.788000", "142354.787000", "142356.789000", "142358.787000", "142400.788000", "142402.787000", "142404.787000", "142406.787000", "142408.787000", "142410.788000", "142412.788000", "142414.788000", "142416.788000", "142418.787000", "142420.787000", "142422.787000", "142424.788000", "142426.787000", "142428.788000", "142430.788000", "142432.787000", "142434.788000", "142436.787000", "142438.788000", "142440.788000", "142442.787000", "142444.787000", "142446.788000", "142448.787000", "142450.788000", "142452.788000", "142454.787000", "142456.788000", "142458.788000", "142500.788000", "142502.787000", "142504.788000", "142506.788000", "142508.788000", "142510.788000", "142512.788000", "142514.788000", "142516.787000", "142518.788000", "142520.787000", "142522.788000", "142524.788000", "142526.787000", "142528.788000", "142530.788000", "142532.788000", "142534.788000", "142536.787000", "142538.788000", "142540.787000", "142542.788000", "142544.788000", "142546.788000", "142548.788000", "142550.787000", "142552.788000", "142554.787000", "142556.787000", "142558.788000", "142600.788000", "142602.788000", "142604.788000", "142606.788000", "142608.787000", "142610.788000", "142612.787000", "142614.788000", "142616.789000", "142618.788000", "142620.788000", "142622.787000", "142624.788000", "142626.788000", "142628.787000", "142630.787000", "142632.787000", "142634.789000", "142636.788000", "142638.788000", "142640.787000", "142642.787000", "142644.788000", "142646.788000", "142648.787000", "142650.787000", "142652.787000", "142654.787000", "142656.787000", "142658.787000", "142700.788000", "142702.787000", "142704.787000", "142706.787000", "142708.788000", "142710.787000", "142712.788000", "142714.787000", "142716.788000", "142718.788000", "142720.788000", "142722.788000", "142724.787000", "142726.788000", "142728.787000", "142730.787000", "142732.787000", "142734.787000", "142736.788000", "142738.787000", "142740.788000", "142742.788000", "142744.802000", "142746.788000", "142748.787000", "142750.787000", "142752.787000", "142754.788000", "142756.788000", "142758.787000", "142800.787000", "142802.788000", "142804.787000", "142806.787000", "142808.788000", "142810.788000", "142812.788000", "142814.787000", "142816.788000", "142818.788000", "142820.788000", "142822.787000", "142824.787000", "142826.787000", "142828.788000", "142830.787000", "142832.788000", "142834.787000", "142836.789000", "142838.787000", "142840.788000", "142842.788000", "142844.787000", "142846.788000", "142848.788000", "142850.788000", "142852.788000", "142854.787000", "142856.788000", "142858.787000", "142900.788000", "142902.787000", "142904.788000", "142906.788000", "142908.788000", "142910.787000", "142912.788000", "142914.787000", "142916.538000"],
      "InstanceCreationTime": ["142047.292000", "142048.788000", "142050.787000", "142052.787000", "142054.787000", "142056.787000", "142058.787000", "142100.787000", "142102.787000", "142104.787000", "142106.788000", "142108.787000", "142110.788000", "142112.788000", "142114.788000", "142116.787000", "142118.788000", "142120.787000", "142122.787000", "142124.788000", "142126.788000", "142128.787000", "142130.788000", "142132.787000", "142134.787000", "142136.788000", "142138.788000", "142140.788000", "142142.787000", "142144.787000", "142146.787000", "142148.788000", "142150.787000", "142152.788000", "142154.788000", "142156.788000", "142158.787000", "142200.787000", "142202.787000", "142204.787000", "142206.787000", "142208.788000", "142210.787000", "142212.787000", "142214.788000", "142216.787000", "142218.787000", "142220.787000", "142222.787000", "142224.787000", "142226.788000", "142228.788000", "142230.787000", "142232.787000", "142234.788000", "142236.787000", "142238.788000", "142240.788000", "142242.787000", "142244.788000", "142246.789000", "142248.787000", "142250.787000", "142252.787000", "142254.788000", "142256.787000", "142258.787000", "142300.787000", "142302.787000", "142304.788000", "142306.787000", "142308.787000", "142310.787000", "142312.787000", "142314.787000", "142316.788000", "142318.788000", "142320.788000", "142322.788000", "142324.787000", "142326.787000", "142328.787000", "142330.788000", "142332.788000", "142334.787000", "142336.788000", "142338.788000", "142340.788000", "142342.787000", "142344.788000", "142346.788000", "142348.788000", "142350.788000", "142352.788000", "142354.787000", "142356.789000", "142358.787000", "142400.788000", "142402.787000", "142404.787000", "142406.787000", "142408.787000", "142410.788000", "142412.788000", "142414.788000", "142416.788000", "142418.787000", "142420.787000", "142422.787000", "142424.788000", "142426.787000", "142428.788000", "142430.788000", "142432.787000", "142434.788000", "142436.787000", "142438.788000", "142440.788000", "142442.787000", "142444.787000", "142446.788000", "142448.787000", "142450.788000", "142452.788000", "142454.787000", "142456.788000", "142458.788000", "142500.788000", "142502.787000", "142504.788000", "142506.788000", "142508.788000", "142510.788000", "142512.788000", "142514.788000", "142516.787000", "142518.788000", "142520.787000", "142522.788000", "142524.788000", "142526.787000", "142528.788000", "142530.788000", "142532.788000", "142534.788000", "142536.787000", "142538.788000", "142540.787000", "142542.788000", "142544.788000", "142546.788000", "142548.788000", "142550.787000", "142552.788000", "142554.787000", "142556.787000", "142558.788000", "142600.788000", "142602.788000", "142604.788000", "142606.788000", "142608.787000", "142610.788000", "142612.787000", "142614.788000", "142616.789000", "142618.788000", "142620.788000", "142622.787000", "142624.788000", "142626.788000", "142628.787000", "142630.787000", "142632.787000", "142634.789000", "142636.788000", "142638.788000", "142640.787000", "142642.787000", "142644.788000", "142646.788000", "142648.787000", "142650.787000", "142652.787000", "142654.787000", "142656.787000", "142658.787000", "142700.788000", "142702.787000", "142704.787000", "142706.787000", "142708.788000", "142710.787000", "142712.788000", "142714.787000", "142716.788000", "142718.788000", "142720.788000", "142722.788000", "142724.787000", "142726.788000", "142728.787000", "142730.787000", "142732.787000", "142734.787000", "142736.788000", "142738.787000", "142740.788000", "142742.788000", "142744.802000", "142746.788000", "142748.787000", "142750.787000", "142752.787000", "142754.788000", "142756.788000", "142758.787000", "142800.787000", "142802.788000", "142804.787000", "142806.787000", "142808.788000", "142810.788000", "142812.788000", "142814.787000", "142816.788000", "142818.788000", "142820.788000", "142822.787000", "142824.787000", "142826.787000", "142828.788000", "142830.787000", "142832.788000", "142834.787000", "142836.789000", "142838.787000", "142840.788000", "142842.788000", "142844.787000", "142846.788000", "142848.788000", "142850.788000", "142852.788000", "142854.787000", "142856.788000", "142858.787000", "142900.788000", "142902.787000", "142904.788000", "142906.788000", "142908.788000", "142910.787000", "142912.788000", "142914.787000", "142916.538000"],
      "InstanceNumber": [1, 2, 3, 4, 5, 6, 7, 8, 9, 10, 11, 12, 13, 14, 15, 16, 17, 18, 19, 20, 21, 22, 23, 24, 25, 26, 27, 28, 29, 30, 31, 32, 33, 34, 35, 36, 37, 38, 39, 40, 41, 42, 43, 44, 45, 46, 47, 48, 49, 50, 51, 52, 53, 54, 55, 56, 57, 58, 59, 60, 61, 62, 63, 64, 65, 66, 67, 68, 69, 70, 71, 72, 73, 74, 75, 76, 77, 78, 79, 80, 81, 82, 83, 84, 85, 86, 87, 88, 89, 90, 91, 92, 93, 94, 95, 96, 97, 98, 99, 100, 101, 102, 103, 104, 105, 106, 107, 108, 109, 110, 111, 112, 113, 114, 115, 116, 117, 118, 119, 120, 121, 122, 123, 124, 125, 126, 127, 128, 129, 130, 131, 132, 133, 134, 135, 136, 137, 138, 139, 140, 141, 142, 143, 144, 145, 146, 147, 148, 149, 150, 151, 152, 153, 154, 155, 156, 157, 158, 159, 160, 161, 162, 163, 164, 165, 166, 167, 168, 169, 170, 171, 172, 173, 174, 175, 176, 177, 178, 179, 180, 181, 182, 183, 184, 185, 186, 187, 188, 189, 190, 191, 192, 193, 194, 195, 196, 197, 198, 199, 200, 201, 202, 203, 204, 205, 206, 207, 208, 209, 210, 211, 212, 213, 214, 215, 216, 217, 218, 219, 220, 221, 222, 223, 224, 225, 226, 227, 228, 229, 230, 231, 232, 233, 234, 235, 236, 237, 238, 239, 240, 241, 242, 243, 244, 245, 246, 247, 248, 249, 250, 251, 252, 253, 254, 255, 256],
      "LargestImagePixelValue": [2540, 2635, 2618, 2494, 2478, 2520, 2454, 2474, 2420, 2442, 2448, 2496, 2474, 2467, 2474, 2462, 2560, 2449, 2455, 2426, 2709, 2449, 2462, 2428, 2498, 2452, 2442, 2458, 2443, 2460, 2486, 2456, 2615, 2439, 2489, 2470, 2468, 2460, 2461, 2474, 2462, 2456, 2479, 2489, 2488, 2556, 2462, 2462, 2474, 2717, 2465, 2489, 2450, 2465, 2477, 2486, 2486, 2734, 2470, 2492, 2484, 2497, 2477, 2732, 2484, 2479, 2475, 2471, 2432, 2465, 2482, 2519, 2475, 2487, 2482, 2505, 2448, 2507, 2512, 2490, 2480, 2456, 2477, 2546, 2527, 2495, 2483, 2494, 2516, 2528, 2528, 2559, 2467, 2510, 2481, 2522, 2527, 2475, 2501, 2488, 2494, 2491, 2825, 2466, 2493, 2734, 2510, 2469, 2485, 2474, 2499, 2478, 2544, 2519, 2500, 2496, 2468, 2757, 2495, 2499, 2490, 2487, 2477, 2485, 2495, 2572, 2500, 2525, 2485, 2496, 2507, 2504, 2495, 2524, 2492, 2491, 2514, 2523, 2487, 2499, 2579, 2593, 2527, 2914, 2465, 2454, 2587, 2579, 2516, 2517, 2551, 2549, 2566, 2541, 2558, 2589, 2553, 2550, 2544, 2519, 2508, 2546, 2503, 2542, 2541, 2579, 2534, 2576, 2553, 2600, 2592, 2634, 2588, 2608, 2592, 2555, 2518, 2555, 2551, 2547, 2526, 2584, 2555, 2542, 2535, 2634, 2582, 2563, 2556, 2557, 2578, 2621, 2592, 2562, 2550, 2618, 2582, 2662, 2694, 2660, 2641, 2616, 2634, 2598, 2621, 2614, 2628, 2676, 2632, 2627, 2655, 2620, 2644, 2632, 2636, 2641, 2614, 2636, 2634, 2651, 2635, 2630, 2634, 2671, 2609, 2633, 2640, 2646, 2644, 2604, 2652, 2644, 2651, 2587, 2581, 2511, 2498, 2542, 2549, 2573, 2610, 2602, 2504, 2566, 2581, 2498, 2550, 2579, 2725, 2649, 2647, 2652, 2631, 2601, 2612, 2608],
      "WindowCenter": [723.0, 725.0, 724.0, 723.0, 723.0, 723.0, 723.0, 723.0, 721.0, 720.0, 721.0, 722.0, 722.0, 722.0, 723.0, 723.0, 725.0, 724.0, 724.0, 722.0, 724.0, 721.0, 722.0, 721.0, 723.0, 722.0, 722.0, 723.0, 722.0, 722.0, 722.0, 723.0, 724.0, 722.0, 722.0, 722.0, 723.0, 723.0, 723.0, 724.0, 723.0, 722.0, 722.0, 723.0, 724.0, 725.0, 723.0, 723.0, 723.0, 726.0, 723.0, 724.0, 723.0, 722.0, 723.0, 724.0, 725.0, 728.0, 724.0, 723.0, 723.0, 724.0, 723.0, 724.0, 722.0, 724.0, 725.0, 724.0, 723.0, 722.0, 723.0, 724.0, 725.0, 725.0, 724.0, 724.0, 724.0, 726.0, 725.0, 724.0, 723.0, 723.0, 724.0, 725.0, 724.0, 722.0, 722.0, 724.0, 725.0, 725.0, 725.0, 724.0, 722.0, 723.0, 723.0, 725.0, 724.0, 723.0, 724.0, 722.0, 722.0, 721.0, 725.0, 721.0, 722.0, 725.0, 722.0, 721.0, 721.0, 721.0, 721.0, 722.0, 724.0, 724.0, 724.0, 723.0, 722.0, 726.0, 725.0, 724.0, 723.0, 723.0, 722.0, 722.0, 723.0, 723.0, 723.0, 725.0, 724.0, 724.0, 724.0, 723.0, 723.0, 723.0, 722.0, 723.0, 723.0, 725.0, 724.0, 723.0, 724.0, 726.0, 727.0, 729.0, 723.0, 722.0, 723.0, 724.0, 725.0, 726.0, 725.0, 724.0, 723.0, 723.0, 724.0, 728.0, 728.0, 726.0, 723.0, 722.0, 721.0, 723.0, 723.0, 723.0, 725.0, 727.0, 726.0, 724.0, 723.0, 723.0, 724.0, 725.0, 727.0, 729.0, 729.0, 726.0, 722.0, 721.0, 721.0, 720.0, 720.0, 721.0, 721.0, 721.0, 722.0, 723.0, 725.0, 726.0, 726.0, 725.0, 725.0, 725.0, 726.0, 726.0, 725.0, 726.0, 725.0, 728.0, 731.0, 731.0, 729.0, 726.0, 724.0, 723.0, 723.0, 723.0, 724.0, 725.0, 725.0, 724.0, 724.0, 723.0, 723.0, 724.0, 725.0, 726.0, 728.0, 727.0, 726.0, 724.0, 723.0, 724.0, 726.0, 727.0, 726.0, 727.0, 727.0, 726.0, 724.0, 723.0, 724.0, 724.0, 724.0, 725.0, 726.0, 724.0, 721.0, 721.0, 721.0, 721.0, 723.0, 722.0, 721.0, 725.0, 726.0, 723.0, 721.0, 719.0, 723.0, 722.0, 726.0, 728.0, 726.0, 722.0, 721.0, 720.0],
      "WindowWidth": [1547.0, 1551.0, 1550.0, 1547.0, 1547.0, 1548.0, 1547.0, 1547.0, 1542.0, 1540.0, 1542.0, 1545.0, 1546.0, 1545.0, 1547.0, 1546.0, 1552.0, 1550.0, 1550.0, 1545.0, 1550.0, 1542.0, 1546.0, 1543.0, 1547.0, 1546.0, 1546.0, 1547.0, 1544.0, 1544.0, 1546.0, 1547.0, 1550.0, 1545.0, 1544.0, 1546.0, 1547.0, 1548.0, 1549.0, 1551.0, 1548.0, 1546.0, 1544.0, 1547.0, 1549.0, 1553.0, 1549.0, 1549.0, 1548.0, 1553.0, 1548.0, 1549.0, 1547.0, 1546.0, 1547.0, 1551.0, 1552.0, 1559.0, 1549.0, 1548.0, 1548.0, 1549.0, 1547.0, 1550.0, 1544.0, 1551.0, 1553.0, 1550.0, 1546.0, 1546.0, 1547.0, 1550.0, 1552.0, 1552.0, 1549.0, 1550.0, 1549.0, 1555.0, 1553.0, 1550.0, 1546.0, 1547.0, 1550.0, 1552.0, 1549.0, 1545.0, 1544.0, 1549.0, 1552.0, 1552.0, 1551.0, 1550.0, 1545.0, 1546.0, 1548.0, 1552.0, 1549.0, 1548.0, 1549.0, 1544.0, 1543.0, 1543.0, 1552.0, 1543.0, 1544.0, 1552.0, 1545.0, 1543.0, 1541.0, 1542.0, 1543.0, 1545.0, 1550.0, 1551.0, 1549.0, 1548.0, 1545.0, 1556.0, 1552.0, 1551.0, 1548.0, 1546.0, 1546.0, 1546.0, 1546.0, 1548.0, 1548.0, 1551.0, 1552.0, 1551.0, 1549.0, 1547.0, 1547.0, 1547.0, 1545.0, 1546.0, 1548.0, 1552.0, 1551.0, 1547.0, 1549.0, 1556.0, 1557.0, 1563.0, 1547.0, 1543.0, 1546.0, 1549.0, 1552.0, 1554.0, 1552.0, 1549.0, 1548.0, 1548.0, 1551.0, 1560.0, 1560.0, 1554.0, 1548.0, 1544.0, 1543.0, 1547.0, 1547.0, 1548.0, 1551.0, 1557.0, 1554.0, 1550.0, 1547.0, 1548.0, 1551.0, 1554.0, 1557.0, 1565.0, 1564.0, 1556.0, 1545.0, 1543.0, 1541.0, 1540.0, 1539.0, 1542.0, 1542.0, 1542.0, 1544.0, 1548.0, 1551.0, 1555.0, 1554.0, 1552.0, 1552.0, 1552.0, 1554.0, 1554.0, 1552.0, 1555.0, 1553.0, 1559.0, 1567.0, 1569.0, 1562.0, 1554.0, 1550.0, 1547.0, 1548.0, 1547.0, 1548.0, 1552.0, 1552.0, 1550.0, 1549.0, 1547.0, 1547.0, 1549.0, 1553.0, 1556.0, 1560.0, 1559.0, 1554.0, 1550.0, 1548.0, 1550.0, 1555.0, 1557.0, 1554.0, 1557.0, 1557.0, 1555.0, 1550.0, 1547.0, 1548.0, 1550.0, 1549.0, 1553.0, 1554.0, 1550.0, 1543.0, 1542.0, 1540.0, 1542.0, 1546.0, 1545.0, 1543.0, 1553.0, 1555.0, 1548.0, 1542.0, 1535.0, 1546.0, 1544.0, 1555.0, 1560.0, 1554.0, 1545.0, 1542.0, 1538.0]
    },
    "slices": {}
  }
}