{
  "AcquisitionMatrixPE": 100,
  "AcquisitionNumber": 1,
  "AcquisitionTime": "14:30:40.435000",
  "BandwidthPerPixelPhaseEncode": 18.519,
  "BaseResolution": 100,
  "BodyPartExamined": "BRAIN",
  "ConsistencyInfo": "N4_VE11C_LATEST_20160120",
  "ConversionSoftware": "dcm2niix",
  "ConversionSoftwareVersion": "v1.0.20180622 GCC4.9.2",
  "DerivedVendorReportedEchoSpacing": 0.000539986,
  "DeviceSerialNumber": "166078",
  "DwellTime": 2.1e-06,
  "EchoTime": 0.034,
  "EchoTrainLength": 100,
  "EffectiveEchoSpacing": 0.000539986,
  "FlipAngle": 90,
  "ImageOrientationPatientDICOM": [1, 0, 0, 0, 0.983571, -0.180519],
  "ImageType": [
    "ORIGINAL",
    "PRIMARY",
    "M",
    "ND",
    "MOSAIC"
],
  "InPlanePhaseEncodingDirectionDICOM": "COL",
  "InstitutionAddress": "Street_StreetNo_Bei_Jing_District_CN_ZIP",
  "InstitutionName": "BeiJing_Normal_University",
  "InstitutionalDepartmentName": "Department",
  "MRAcquisitionType": "2D",
  "MagneticFieldStrength": 3,
  "Manufacturer": "Siemens",
  "ManufacturersModelName": "Prisma",
  "Modality": "MR",
  "MultibandAccelerationFactor": 3,
  "PartialFourier": 1,
  "PatientPosition": "HFS",
  "PercentPhaseFOV": 100,
  "PhaseEncodingDirection": "j-",
  "PhaseEncodingSteps": 100,
  "PhaseResolution": 1,
  "PixelBandwidth": 2380,
  "ProcedureStepDescription": "BNU_P2018_64CH_Zhen.ZongLei",
  "ProtocolName": "bold_100x100_s3_2x2x2_static_256",
  "PulseSequenceDetails": "%SiemensSeq%_ep2d_bold",
  "ReceiveCoilActiveElements": "HC1-7;NC1",
  "ReceiveCoilName": "HeadNeck_64",
  "ReconMatrixPE": 100,
  "RepetitionTime": 2,
  "SAR": 0.0710137,
  "ScanOptions": "FS",
  "ScanningSequence": "EP",
  "SequenceName": "_epfid2d1_100",
  "SequenceVariant": "SK",
  "SeriesDescription": "bold_100x100_s3_2x2x2_static_256",
  "SeriesNumber": 13,
  "ShimSetting": [-5477, -11529, -1274, 540, -18, -239, -165, 47],
  "SliceThickness": 2,
  "SliceTiming": [1.485, 0, 0.99, 0.0825, 1.0725, 0.165, 1.155, 0.2475, 1.2375, 0.33, 1.32, 0.4125, 1.4025, 0.5775, 1.5675, 0.66, 1.65, 0.7425, 1.7325, 0.825, 1.815, 0.9075, 1.8975, 0.495, 1.485, 0, 0.99, 0.0825, 1.0725, 0.165, 1.155, 0.2475, 1.2375, 0.33, 1.32, 0.4125, 1.4025, 0.5775, 1.5675, 0.66, 1.65, 0.7425, 1.7325, 0.825, 1.815, 0.9075, 1.8975, 0.495, 1.485, 0, 0.99, 0.0825, 1.0725, 0.165, 1.155, 0.2475, 1.2375, 0.33, 1.32, 0.4125, 1.4025, 0.5775, 1.5675, 0.66, 1.65, 0.7425, 1.7325, 0.825, 1.815, 0.9075, 1.8975, 0.495],
  "SoftwareVersions": "syngo_MR_E11",
  "SpacingBetweenSlices": 2,
  "StationName": "AWP166078",
  "TaskName": "naturalvision",
  "TotalReadoutTime": 0.0534586,
  "TxRefAmp": 216.057,
  "dcmmeta_affine": [
    [-2.0, 0.0, 0.0, 106.7796630859375],
    [0.0, 1.967142939567566, -0.36103829741477966, -75.60704040527344],
    [0.0, 0.36103829741477966, 1.967142939567566, -79.15641021728516],
    [0.0, 0.0, 0.0, 1.0]
],
  "dcmmeta_reorient_transform": [
    [0.0, -1.0, 0.0, 99.0],
    [1.0, 0.0, 0.0, 0.0],
    [0.0, 0.0, 1.0, 0.0],
    [0.0, 0.0, 0.0, 1.0]
],
  "dcmmeta_shape": [100, 100, 72, 256],
  "dcmmeta_slice_dim": 2,
  "dcmmeta_version": 0.6,
  "global": {
    "const": {
      "AcquisitionMatrix": [100, 0, 0, 100],
      "AngioFlag": "N",
      "BitsAllocated": 16,
      "BitsStored": 12,
      "BodyPartExamined": "BRAIN",
      "Columns": 900,
      "EchoNumbers": 1,
      "EchoTime": 34.0,
      "EchoTrainLength": 100,
      "FlipAngle": 90.0,
      "HighBit": 11,
      "ImageOrientationPatient": [1.0, 0.0, 0.0, 0.0, 0.98357147073484, -0.1805191456785],
      "ImagePositionPatient": [-906.77966117859, -905.99728455308, 101.00169690048],
      "ImageType": [
        "ORIGINAL",
        "PRIMARY",
        "M",
        "ND",
        "MOSAIC"
],
      "ImagedNucleus": "1H",
      "ImagingFrequency": 123.257735,
      "InPlanePhaseEncodingDirection": "COL",
      "MRAcquisitionType": "2D",
      "MagneticFieldStrength": 3.0,
      "Manufacturer": "SIEMENS",
      "ManufacturerModelName": "Prisma",
      "Modality": "MR",
      "NumberOfAverages": 1.0,
      "NumberOfPhaseEncodingSteps": 100,
      "PercentPhaseFieldOfView": 100.0,
      "PercentSampling": 100.0,
      "PerformedProcedureStepStartTime": "130454.803000",
      "PhotometricInterpretation": "MONOCHROME2",
      "PixelBandwidth": 2380.0,
      "PixelRepresentation": 0,
      "PixelSpacing": [2.0, 2.0],
      "ProtocolName": "bold_100x100_s3_2x2x2_static_256",
      "RepetitionTime": 2000.0,
      "Rows": 900,
      "SAR": 0.07101369468017,
      "SamplesPerPixel": 1,
      "ScanOptions": "FS",
      "ScanningSequence": "EP",
      "SequenceName": "*epfid2d1_100",
      "SequenceVariant": "SK",
      "SeriesDescription": "bold_100x100_s3_2x2x2_static_256",
      "SeriesNumber": 13,
      "SeriesTime": "143043.031000",
      "SliceLocation": -64.207468227478,
      "SliceThickness": 2.0,
      "SmallestImagePixelValue": 0,
      "SoftwareVersions": "syngo MR E11",
      "SpacingBetweenSlices": 1.99999999598,
      "SpecificCharacterSet": "ISO_IR 100",
      "StudyID": "1",
      "StudyTime": "130454.677000",
      "TransmitCoilName": "Body",
      "VariableFlipAngleFlag": "N",
      "WindowCenterWidthExplanation": "Algo1",
      "dBdt": 0.0},
    "slices": {}
  },
  "time": {
    "samples": {
      "AcquisitionNumber": [1, 2, 3, 4, 5, 6, 7, 8, 9, 10, 11, 12, 13, 14, 15, 16, 17, 18, 19, 20, 21, 22, 23, 24, 25, 26, 27, 28, 29, 30, 31, 32, 33, 34, 35, 36, 37, 38, 39, 40, 41, 42, 43, 44, 45, 46, 47, 48, 49, 50, 51, 52, 53, 54, 55, 56, 57, 58, 59, 60, 61, 62, 63, 64, 65, 66, 67, 68, 69, 70, 71, 72, 73, 74, 75, 76, 77, 78, 79, 80, 81, 82, 83, 84, 85, 86, 87, 88, 89, 90, 91, 92, 93, 94, 95, 96, 97, 98, 99, 100, 101, 102, 103, 104, 105, 106, 107, 108, 109, 110, 111, 112, 113, 114, 115, 116, 117, 118, 119, 120, 121, 122, 123, 124, 125, 126, 127, 128, 129, 130, 131, 132, 133, 134, 135, 136, 137, 138, 139, 140, 141, 142, 143, 144, 145, 146, 147, 148, 149, 150, 151, 152, 153, 154, 155, 156, 157, 158, 159, 160, 161, 162, 163, 164, 165, 166, 167, 168, 169, 170, 171, 172, 173, 174, 175, 176, 177, 178, 179, 180, 181, 182, 183, 184, 185, 186, 187, 188, 189, 190, 191, 192, 193, 194, 195, 196, 197, 198, 199, 200, 201, 202, 203, 204, 205, 206, 207, 208, 209, 210, 211, 212, 213, 214, 215, 216, 217, 218, 219, 220, 221, 222, 223, 224, 225, 226, 227, 228, 229, 230, 231, 232, 233, 234, 235, 236, 237, 238, 239, 240, 241, 242, 243, 244, 245, 246, 247, 248, 249, 250, 251, 252, 253, 254, 255, 256],
      "AcquisitionTime": ["143040.435000", "143042.435000", "143044.435000", "143046.435000", "143048.435000", "143050.435000", "143052.435000", "143054.435000", "143056.435000", "143058.435000", "143100.435000", "143102.435000", "143104.435000", "143106.435000", "143108.435000", "143110.435000", "143112.435000", "143114.435000", "143116.435000", "143118.435000", "143120.435000", "143122.435000", "143124.435000", "143126.435000", "143128.435000", "143130.435000", "143132.435000", "143134.435000", "143136.435000", "143138.435000", "143140.435000", "143142.435000", "143144.435000", "143146.435000", "143148.435000", "143150.435000", "143152.435000", "143154.435000", "143156.435000", "143158.435000", "143200.435000", "143202.435000", "143204.435000", "143206.435000", "143208.435000", "143210.435000", "143212.435000", "143214.435000", "143216.435000", "143218.435000", "143220.435000", "143222.435000", "143224.435000", "143226.435000", "143228.435000", "143230.435000", "143232.435000", "143234.435000", "143236.435000", "143238.435000", "143240.435000", "143242.435000", "143244.435000", "143246.435000", "143248.435000", "143250.435000", "143252.435000", "143254.435000", "143256.435000", "143258.435000", "143300.435000", "143302.435000", "143304.435000", "143306.435000", "143308.435000", "143310.435000", "143312.435000", "143314.435000", "143316.435000", "143318.435000", "143320.435000", "143322.435000", "143324.435000", "143326.435000", "143328.435000", "143330.435000", "143332.435000", "143334.435000", "143336.435000", "143338.435000", "143340.435000", "143342.435000", "143344.435000", "143346.435000", "143348.435000", "143350.435000", "143352.435000", "143354.435000", "143356.435000", "143358.435000", "143400.435000", "143402.435000", "143404.435000", "143406.435000", "143408.435000", "143410.435000", "143412.435000", "143414.435000", "143416.435000", "143418.435000", "143420.435000", "143422.435000", "143424.435000", "143426.435000", "143428.435000", "143430.435000", "143432.435000", "143434.435000", "143436.435000", "143438.435000", "143440.435000", "143442.435000", "143444.435000", "143446.435000", "143448.435000", "143450.435000", "143452.435000", "143454.435000", "143456.435000", "143458.435000", "143500.435000", "143502.435000", "143504.435000", "143506.435000", "143508.435000", "143510.435000", "143512.435000", "143514.435000", "143516.435000", "143518.435000", "143520.435000", "143522.435000", "143524.435000", "143526.435000", "143528.435000", "143530.435000", "143532.435000", "143534.435000", "143536.435000", "143538.435000", "143540.435000", "143542.435000", "143544.435000", "143546.435000", "143548.435000", "143550.435000", "143552.435000", "143554.435000", "143556.435000", "143558.435000", "143600.435000", "143602.435000", "143604.435000", "143606.435000", "143608.435000", "143610.435000", "143612.435000", "143614.435000", "143616.435000", "143618.435000", "143620.435000", "143622.435000", "143624.435000", "143626.435000", "143628.435000", "143630.435000", "143632.435000", "143634.435000", "143636.435000", "143638.435000", "143640.435000", "143642.435000", "143644.435000", "143646.435000", "143648.435000", "143650.435000", "143652.435000", "143654.435000", "143656.435000", "143658.435000", "143700.435000", "143702.435000", "143704.435000", "143706.435000", "143708.435000", "143710.435000", "143712.435000", "143714.435000", "143716.435000", "143718.435000", "143720.435000", "143722.435000", "143724.435000", "143726.435000", "143728.435000", "143730.435000", "143732.435000", "143734.435000", "143736.435000", "143738.435000", "143740.435000", "143742.435000", "143744.435000", "143746.435000", "143748.435000", "143750.435000", "143752.435000", "143754.435000", "143756.435000", "143758.435000", "143800.435000", "143802.435000", "143804.435000", "143806.435000", "143808.435000", "143810.435000", "143812.435000", "143814.435000", "143816.435000", "143818.435000", "143820.435000", "143822.435000", "143824.435000", "143826.435000", "143828.435000", "143830.435000", "143832.435000", "143834.435000", "143836.435000", "143838.435000", "143840.435000", "143842.435000", "143844.435000", "143846.435000", "143848.435000", "143850.435000", "143852.435000", "143854.435000", "143856.435000", "143858.435000", "143900.435000", "143902.435000", "143904.435000", "143906.435000", "143908.435000", "143910.435000"],
      "ContentTime": ["143043.035000", "143044.531000", "143046.530000", "143048.530000", "143050.529000", "143052.529000", "143054.529000", "143056.530000", "143058.530000", "143100.530000", "143102.530000", "143104.529000", "143106.529000", "143108.529000", "143110.530000", "143112.530000", "143114.531000", "143116.530000", "143118.530000", "143120.530000", "143122.530000", "143124.530000", "143126.530000", "143128.529000", "143130.529000", "143133.031000", "143134.531000", "143136.531000", "143138.530000", "143140.529000", "143142.530000", "143144.529000", "143146.530000", "143148.530000", "143150.530000", "143152.531000", "143154.530000", "143156.530000", "143158.530000", "143200.529000", "143202.530000", "143204.529000", "143206.531000", "143208.530000", "143210.530000", "143212.530000", "143214.529000", "143216.529000", "143218.530000", "143220.530000", "143222.530000", "143224.531000", "143226.530000", "143228.530000", "143230.530000", "143232.530000", "143234.530000", "143236.530000", "143238.530000", "143240.530000", "143242.530000", "143244.531000", "143246.530000", "143248.530000", "143250.529000", "143252.550000", "143254.529000", "143256.529000", "143259.031000", "143301.031000", "143302.531000", "143304.531000", "143306.529000", "143308.530000", "143310.530000", "143312.530000", "143314.529000", "143316.530000", "143318.531000", "143320.531000", "143322.531000", "143324.530000", "143326.530000", "143328.529000", "143330.530000", "143332.529000", "143334.530000", "143336.530000", "143338.530000", "143340.530000", "143342.530000", "143345.030000", "143346.530000", "143348.530000", "143350.530000", "143352.531000", "143354.530000", "143356.530000", "143358.531000", "143400.529000", "143402.530000", "143404.529000", "143406.529000", "143408.530000", "143410.530000", "143413.030000", "143414.530000", "143416.530000", "143418.530000", "143420.530000", "143422.529000", "143424.530000", "143426.530000", "143428.530000", "143430.530000", "143432.530000", "143434.529000", "143436.529000", "143438.530000", "143440.530000", "143442.529000", "143444.531000", "143446.531000", "143448.530000", "143450.530000", "143452.530000", "143454.530000", "143456.530000", "143458.530000", "143500.530000", "143502.531000", "143504.530000", "143506.530000", "143508.530000", "143510.530000", "143512.530000", "143514.529000", "143516.529000", "143518.531000", "143520.530000", "143522.530000", "143524.531000", "143526.529000", "143528.530000", "143530.530000", "143532.529000", "143534.529000", "143536.531000", "143538.531000", "143540.531000", "143542.530000", "143544.530000", "143546.530000", "143548.529000", "143550.530000", "143552.529000", "143554.531000", "143556.531000", "143558.531000", "143600.531000", "143602.530000", "143604.529000", "143606.530000", "143608.530000", "143611.031000", "143612.531000", "143614.531000", "143616.531000", "143618.531000", "143620.530000", "143622.529000", "143624.529000", "143626.530000", "143628.530000", "143630.530000", "143632.530000", "143634.531000", "143636.530000", "143638.530000", "143640.530000", "143642.530000", "143644.530000", "143646.530000", "143648.531000", "143650.531000", "143652.531000", "143654.530000", "143656.530000", "143658.530000", "143700.530000", "143702.529000", "143704.531000", "143706.530000", "143708.531000", "143710.531000", "143712.529000", "143714.529000", "143716.529000", "143718.530000", "143720.530000", "143722.531000", "143724.531000", "143726.531000", "143728.531000", "143730.530000", "143732.529000", "143734.530000", "143737.029000", "143738.531000", "143740.531000", "143742.530000", "143744.530000", "143746.530000", "143748.530000", "143750.530000", "143752.529000", "143754.530000", "143756.530000", "143758.531000", "143800.530000", "143802.531000", "143804.529000", "143806.529000", "143808.530000", "143810.529000", "143812.529000", "143814.530000", "143816.531000", "143818.530000", "143820.530000", "143822.529000", "143824.546000", "143826.530000", "143828.529000", "143830.529000", "143832.530000", "143834.530000", "143836.530000", "143838.530000", "143840.530000", "143842.530000", "143844.530000", "143846.530000", "143848.531000", "143850.531000", "143852.530000", "143854.530000", "143856.530000", "143858.530000", "143900.529000", "143902.529000", "143904.530000", "143906.531000", "143908.531000", "143910.531000", "143912.441000"],
      "InstanceCreationTime": ["143043.035000", "143044.531000", "143046.530000", "143048.530000", "143050.529000", "143052.529000", "143054.529000", "143056.530000", "143058.530000", "143100.530000", "143102.530000", "143104.529000", "143106.529000", "143108.529000", "143110.530000", "143112.530000", "143114.531000", "143116.530000", "143118.530000", "143120.530000", "143122.530000", "143124.530000", "143126.530000", "143128.529000", "143130.529000", "143133.031000", "143134.531000", "143136.531000", "143138.530000", "143140.529000", "143142.530000", "143144.529000", "143146.530000", "143148.530000", "143150.530000", "143152.531000", "143154.530000", "143156.530000", "143158.530000", "143200.529000", "143202.530000", "143204.529000", "143206.531000", "143208.530000", "143210.530000", "143212.530000", "143214.529000", "143216.529000", "143218.530000", "143220.530000", "143222.530000", "143224.531000", "143226.530000", "143228.530000", "143230.530000", "143232.530000", "143234.530000", "143236.530000", "143238.530000", "143240.530000", "143242.530000", "143244.531000", "143246.530000", "143248.530000", "143250.529000", "143252.550000", "143254.529000", "143256.529000", "143259.031000", "143301.031000", "143302.531000", "143304.531000", "143306.529000", "143308.530000", "143310.530000", "143312.530000", "143314.529000", "143316.530000", "143318.531000", "143320.531000", "143322.531000", "143324.530000", "143326.530000", "143328.529000", "143330.530000", "143332.529000", "143334.530000", "143336.530000", "143338.530000", "143340.530000", "143342.530000", "143345.030000", "143346.530000", "143348.530000", "143350.530000", "143352.531000", "143354.530000", "143356.530000", "143358.531000", "143400.529000", "143402.530000", "143404.529000", "143406.529000", "143408.530000", "143410.530000", "143413.030000", "143414.530000", "143416.530000", "143418.530000", "143420.530000", "143422.529000", "143424.530000", "143426.530000", "143428.530000", "143430.530000", "143432.530000", "143434.529000", "143436.529000", "143438.530000", "143440.530000", "143442.529000", "143444.531000", "143446.531000", "143448.530000", "143450.530000", "143452.530000", "143454.530000", "143456.530000", "143458.530000", "143500.530000", "143502.531000", "143504.530000", "143506.530000", "143508.530000", "143510.530000", "143512.530000", "143514.529000", "143516.529000", "143518.531000", "143520.530000", "143522.530000", "143524.531000", "143526.529000", "143528.530000", "143530.530000", "143532.529000", "143534.529000", "143536.531000", "143538.531000", "143540.531000", "143542.530000", "143544.530000", "143546.530000", "143548.529000", "143550.530000", "143552.529000", "143554.531000", "143556.531000", "143558.531000", "143600.531000", "143602.530000", "143604.529000", "143606.530000", "143608.530000", "143611.031000", "143612.531000", "143614.531000", "143616.531000", "143618.531000", "143620.530000", "143622.529000", "143624.529000", "143626.530000", "143628.530000", "143630.530000", "143632.530000", "143634.531000", "143636.530000", "143638.530000", "143640.530000", "143642.530000", "143644.530000", "143646.530000", "143648.531000", "143650.531000", "143652.531000", "143654.530000", "143656.530000", "143658.530000", "143700.530000", "143702.529000", "143704.531000", "143706.530000", "143708.531000", "143710.531000", "143712.529000", "143714.529000", "143716.529000", "143718.530000", "143720.530000", "143722.531000", "143724.531000", "143726.531000", "143728.531000", "143730.530000", "143732.529000", "143734.530000", "143737.029000", "143738.531000", "143740.531000", "143742.530000", "143744.530000", "143746.530000", "143748.530000", "143750.530000", "143752.529000", "143754.530000", "143756.530000", "143758.531000", "143800.530000", "143802.531000", "143804.529000", "143806.529000", "143808.530000", "143810.529000", "143812.529000", "143814.530000", "143816.531000", "143818.530000", "143820.530000", "143822.529000", "143824.546000", "143826.530000", "143828.529000", "143830.529000", "143832.530000", "143834.530000", "143836.530000", "143838.530000", "143840.530000", "143842.530000", "143844.530000", "143846.530000", "143848.531000", "143850.531000", "143852.530000", "143854.530000", "143856.530000", "143858.530000", "143900.529000", "143902.529000", "143904.530000", "143906.531000", "143908.531000", "143910.531000", "143912.441000"],
      "InstanceNumber": [1, 2, 3, 4, 5, 6, 7, 8, 9, 10, 11, 12, 13, 14, 15, 16, 17, 18, 19, 20, 21, 22, 23, 24, 25, 26, 27, 28, 29, 30, 31, 32, 33, 34, 35, 36, 37, 38, 39, 40, 41, 42, 43, 44, 45, 46, 47, 48, 49, 50, 51, 52, 53, 54, 55, 56, 57, 58, 59, 60, 61, 62, 63, 64, 65, 66, 67, 68, 69, 70, 71, 72, 73, 74, 75, 76, 77, 78, 79, 80, 81, 82, 83, 84, 85, 86, 87, 88, 89, 90, 91, 92, 93, 94, 95, 96, 97, 98, 99, 100, 101, 102, 103, 104, 105, 106, 107, 108, 109, 110, 111, 112, 113, 114, 115, 116, 117, 118, 119, 120, 121, 122, 123, 124, 125, 126, 127, 128, 129, 130, 131, 132, 133, 134, 135, 136, 137, 138, 139, 140, 141, 142, 143, 144, 145, 146, 147, 148, 149, 150, 151, 152, 153, 154, 155, 156, 157, 158, 159, 160, 161, 162, 163, 164, 165, 166, 167, 168, 169, 170, 171, 172, 173, 174, 175, 176, 177, 178, 179, 180, 181, 182, 183, 184, 185, 186, 187, 188, 189, 190, 191, 192, 193, 194, 195, 196, 197, 198, 199, 200, 201, 202, 203, 204, 205, 206, 207, 208, 209, 210, 211, 212, 213, 214, 215, 216, 217, 218, 219, 220, 221, 222, 223, 224, 225, 226, 227, 228, 229, 230, 231, 232, 233, 234, 235, 236, 237, 238, 239, 240, 241, 242, 243, 244, 245, 246, 247, 248, 249, 250, 251, 252, 253, 254, 255, 256],
      "LargestImagePixelValue": [2841, 2779, 2777, 2804, 2821, 2819, 2788, 2749, 2734, 2785, 2779, 2769, 2778, 2800, 2784, 2840, 2838, 2818, 2776, 2792, 2829, 2800, 2817, 2799, 2810, 2815, 2778, 2767, 2808, 2784, 2812, 2801, 2791, 2806, 2825, 2781, 2786, 2796, 2808, 2782, 2787, 2806, 2787, 2806, 2835, 2833, 2815, 2784, 2759, 2756, 2799, 2751, 2769, 2805, 2809, 2825, 2834, 2807, 2787, 2803, 2821, 2828, 2796, 2781, 2767, 2717, 2764, 2783, 2794, 2802, 2817, 2783, 2801, 2785, 2839, 2808, 2810, 2809, 2771, 2771, 2786, 2757, 2806, 2830, 2838, 2803, 2788, 2771, 2806, 2797, 2800, 2791, 2766, 2795, 2802, 2797, 2784, 2806, 2795, 2773, 2781, 2776, 2773, 2751, 2778, 2750, 2745, 2760, 2757, 2738, 2751, 2746, 2749, 2747, 2754, 2743, 2761, 2749, 2727, 2723, 2692, 2742, 2716, 2716, 2735, 2710, 2712, 2705, 2716, 2697, 2664, 2640, 2650, 2680, 2628, 2681, 2718, 2702, 2728, 2701, 2658, 2647, 2662, 2686, 2683, 2644, 2668, 2672, 2686, 2680, 2684, 2610, 2602, 2648, 2623, 2678, 2690, 2702, 2640, 2647, 2668, 2659, 2613, 2627, 2617, 2672, 2667, 2659, 2653, 2617, 2727, 2632, 2625, 2624, 2671, 2608, 2637, 2624, 2638, 2633, 2645, 2640, 2647, 2723, 2643, 2616, 2633, 2635, 2622, 2666, 2627, 2622, 2702, 2628, 2646, 2604, 2640, 2598, 2615, 2634, 2653, 2602, 2622, 2622, 2611, 2612, 2581, 2622, 2613, 2596, 2588, 2585, 2639, 2610, 2670, 2716, 2626, 2646, 2607, 2603, 2593, 2571, 2561, 2521, 2556, 2591, 2602, 2595, 2562, 2576, 2541, 2605, 2573, 2585, 2588, 2557, 2558, 2567, 2537, 2650, 2595, 2580, 2598, 2575, 2547, 2586, 2523, 2541, 2527, 2536, 2562, 2569, 2550, 2562, 2559, 2585],
      "WindowCenter": [727.0, 727.0, 727.0, 727.0, 728.0, 729.0, 728.0, 725.0, 724.0, 727.0, 727.0, 727.0, 727.0, 727.0, 727.0, 728.0, 728.0, 726.0, 727.0, 728.0, 727.0, 725.0, 725.0, 725.0, 727.0, 728.0, 727.0, 726.0, 726.0, 724.0, 725.0, 725.0, 725.0, 726.0, 726.0, 726.0, 727.0, 727.0, 726.0, 725.0, 726.0, 727.0, 727.0, 728.0, 729.0, 729.0, 729.0, 729.0, 728.0, 727.0, 728.0, 728.0, 728.0, 730.0, 731.0, 730.0, 729.0, 727.0, 727.0, 727.0, 728.0, 727.0, 727.0, 728.0, 728.0, 728.0, 730.0, 732.0, 732.0, 730.0, 729.0, 729.0, 729.0, 729.0, 730.0, 729.0, 729.0, 728.0, 729.0, 728.0, 727.0, 727.0, 728.0, 730.0, 730.0, 729.0, 728.0, 727.0, 728.0, 729.0, 729.0, 729.0, 728.0, 729.0, 732.0, 731.0, 729.0, 728.0, 728.0, 728.0, 728.0, 728.0, 728.0, 729.0, 730.0, 730.0, 732.0, 733.0, 731.0, 728.0, 727.0, 727.0, 728.0, 729.0, 729.0, 728.0, 729.0, 730.0, 731.0, 730.0, 730.0, 732.0, 733.0, 732.0, 729.0, 727.0, 726.0, 726.0, 729.0, 729.0, 730.0, 732.0, 732.0, 729.0, 729.0, 732.0, 733.0, 730.0, 727.0, 725.0, 723.0, 723.0, 725.0, 726.0, 727.0, 727.0, 727.0, 728.0, 729.0, 729.0, 729.0, 730.0, 731.0, 731.0, 730.0, 730.0, 729.0, 729.0, 727.0, 728.0, 729.0, 730.0, 728.0, 728.0, 729.0, 731.0, 731.0, 731.0, 730.0, 729.0, 730.0, 731.0, 733.0, 732.0, 731.0, 730.0, 730.0, 730.0, 731.0, 731.0, 731.0, 731.0, 732.0, 735.0, 734.0, 733.0, 731.0, 729.0, 728.0, 728.0, 728.0, 728.0, 730.0, 729.0, 729.0, 729.0, 729.0, 729.0, 729.0, 729.0, 729.0, 729.0, 732.0, 733.0, 732.0, 729.0, 728.0, 729.0, 729.0, 728.0, 728.0, 728.0, 729.0, 729.0, 730.0, 733.0, 733.0, 732.0, 729.0, 727.0, 725.0, 725.0, 726.0, 727.0, 728.0, 730.0, 731.0, 731.0, 730.0, 729.0, 728.0, 732.0, 733.0, 732.0, 730.0, 728.0, 727.0, 727.0, 728.0, 732.0, 731.0, 730.0, 729.0, 729.0, 729.0, 728.0, 726.0, 725.0, 726.0, 728.0, 730.0, 732.0, 732.0, 731.0, 730.0, 730.0],
      "WindowWidth": [1559.0, 1558.0, 1557.0, 1557.0, 1561.0, 1562.0, 1560.0, 1552.0, 1549.0, 1557.0, 1556.0, 1557.0, 1558.0, 1556.0, 1558.0, 1559.0, 1559.0, 1555.0, 1557.0, 1560.0, 1558.0, 1553.0, 1552.0, 1553.0, 1557.0, 1561.0, 1559.0, 1556.0, 1554.0, 1550.0, 1552.0, 1551.0, 1552.0, 1554.0, 1555.0, 1556.0, 1557.0, 1557.0, 1555.0, 1554.0, 1555.0, 1558.0, 1558.0, 1559.0, 1562.0, 1564.0, 1564.0, 1563.0, 1560.0, 1559.0, 1560.0, 1560.0, 1561.0, 1566.0, 1569.0, 1567.0, 1562.0, 1558.0, 1557.0, 1559.0, 1560.0, 1559.0, 1559.0, 1561.0, 1561.0, 1561.0, 1566.0, 1571.0, 1572.0, 1565.0, 1564.0, 1563.0, 1563.0, 1564.0, 1567.0, 1563.0, 1564.0, 1561.0, 1562.0, 1561.0, 1558.0, 1558.0, 1560.0, 1566.0, 1566.0, 1562.0, 1559.0, 1558.0, 1562.0, 1563.0, 1563.0, 1562.0, 1560.0, 1564.0, 1570.0, 1569.0, 1564.0, 1561.0, 1561.0, 1561.0, 1562.0, 1560.0, 1561.0, 1563.0, 1565.0, 1565.0, 1572.0, 1574.0, 1568.0, 1561.0, 1558.0, 1559.0, 1561.0, 1562.0, 1562.0, 1560.0, 1563.0, 1566.0, 1568.0, 1565.0, 1567.0, 1573.0, 1575.0, 1571.0, 1564.0, 1557.0, 1556.0, 1555.0, 1564.0, 1563.0, 1567.0, 1572.0, 1573.0, 1565.0, 1565.0, 1572.0, 1573.0, 1567.0, 1558.0, 1552.0, 1549.0, 1548.0, 1552.0, 1555.0, 1557.0, 1558.0, 1559.0, 1561.0, 1563.0, 1564.0, 1565.0, 1567.0, 1570.0, 1570.0, 1567.0, 1567.0, 1565.0, 1562.0, 1559.0, 1561.0, 1565.0, 1566.0, 1561.0, 1561.0, 1564.0, 1569.0, 1569.0, 1568.0, 1565.0, 1564.0, 1567.0, 1570.0, 1573.0, 1572.0, 1569.0, 1566.0, 1566.0, 1566.0, 1569.0, 1569.0, 1569.0, 1569.0, 1572.0, 1580.0, 1579.0, 1574.0, 1569.0, 1565.0, 1561.0, 1560.0, 1561.0, 1562.0, 1565.0, 1564.0, 1564.0, 1565.0, 1564.0, 1564.0, 1564.0, 1564.0, 1564.0, 1565.0, 1573.0, 1576.0, 1571.0, 1565.0, 1560.0, 1563.0, 1564.0, 1562.0, 1560.0, 1562.0, 1564.0, 1564.0, 1567.0, 1574.0, 1576.0, 1573.0, 1565.0, 1559.0, 1554.0, 1554.0, 1557.0, 1560.0, 1562.0, 1566.0, 1569.0, 1569.0, 1567.0, 1564.0, 1563.0, 1572.0, 1576.0, 1574.0, 1566.0, 1560.0, 1559.0, 1559.0, 1562.0, 1571.0, 1570.0, 1566.0, 1565.0, 1564.0, 1565.0, 1563.0, 1557.0, 1554.0, 1556.0, 1561.0, 1567.0, 1573.0, 1571.0, 1569.0, 1567.0, 1567.0]
    },
    "slices": {}
  }
}