{
 "AcquisitionMatrixPE": 100,
 "AcquisitionNumber": 1,
 "AcquisitionTime": "13:07:56.455000",
 "BandwidthPerPixelPhaseEncode": 18.519,
 "BaseResolution": 100,
 "BodyPartExamined": "BRAIN",
 "ConsistencyInfo": "N4_VE11C_LATEST_20160120",
 "ConversionSoftware": "dcm2niix",
 "ConversionSoftwareVersion": "v1.0.20180622 GCC4.9.2",
 "DerivedVendorReportedEchoSpacing": 0.000539986,
 "DeviceSerialNumber": "166078",
 "DwellTime": 2.1e-06,
 "EchoTime": 0.034,
 "EchoTrainLength": 100,
 "EffectiveEchoSpacing": 0.000539986,
 "FlipAngle": 90,
 "ImageOrientationPatientDICOM": [
  1,
  0,
  0,
  0,
  0.983571,
  -0.180519
 ],
 "ImageType": [
  "ORIGINAL",
  "PRIMARY",
  "M",
  "ND",
  "MOSAIC"
 ],
 "InPlanePhaseEncodingDirectionDICOM": "COL",
 "InstitutionAddress": "Street_StreetNo_Bei_Jing_District_CN_ZIP",
 "InstitutionName": "BeiJing_Normal_University",
 "InstitutionalDepartmentName": "Department",
 "MRAcquisitionType": "2D",
 "MagneticFieldStrength": 3,
 "Manufacturer": "Siemens",
 "ManufacturersModelName": "Prisma",
 "Modality": "MR",
 "MultibandAccelerationFactor": 3,
 "PartialFourier": 1,
 "PatientPosition": "HFS",
 "PercentPhaseFOV": 100,
 "PhaseEncodingDirection": "j-",
 "PhaseEncodingSteps": 100,
 "PhaseResolution": 1,
 "PixelBandwidth": 2380,
 "ProcedureStepDescription": "BNU_P2018_64CH_Zhen.ZongLei",
 "ProtocolName": "bold_100x100_s3_2x2x2_static_256",
 "PulseSequenceDetails": "%SiemensSeq%_ep2d_bold",
 "ReceiveCoilActiveElements": "HC1-7;NC1",
 "ReceiveCoilName": "HeadNeck_64",
 "ReconMatrixPE": 100,
 "RepetitionTime": 2,
 "SAR": 0.0710137,
 "ScanOptions": "FS",
 "ScanningSequence": "EP",
 "SequenceName": "_epfid2d1_100",
 "SequenceVariant": "SK",
 "SeriesDescription": "bold_100x100_s3_2x2x2_static_256",
 "SeriesNumber": 3,
 "ShimSetting": [
  -5477,
  -11529,
  -1274,
  540,
  -18,
  -239,
  -165,
  47
 ],
 "SliceThickness": 2,
 "SliceTiming": [
  1.485,
  0,
  0.99,
  0.0825,
  1.0725,
  0.165,
  1.155,
  0.2475,
  1.2375,
  0.33,
  1.32,
  0.4125,
  1.4025,
  0.5775,
  1.5675,
  0.66,
  1.65,
  0.7425,
  1.7325,
  0.825,
  1.815,
  0.9075,
  1.8975,
  0.495,
  1.485,
  0,
  0.99,
  0.0825,
  1.0725,
  0.165,
  1.155,
  0.2475,
  1.2375,
  0.33,
  1.32,
  0.4125,
  1.4025,
  0.5775,
  1.5675,
  0.66,
  1.65,
  0.7425,
  1.7325,
  0.825,
  1.815,
  0.9075,
  1.8975,
  0.495,
  1.485,
  0,
  0.99,
  0.0825,
  1.0725,
  0.165,
  1.155,
  0.2475,
  1.2375,
  0.33,
  1.32,
  0.4125,
  1.4025,
  0.5775,
  1.5675,
  0.66,
  1.65,
  0.7425,
  1.7325,
  0.825,
  1.815,
  0.9075,
  1.8975,
  0.495
 ],
 "SoftwareVersions": "syngo_MR_E11",
 "SpacingBetweenSlices": 2,
 "StationName": "AWP166078",
 "TaskName": "imagenet",
 "TotalReadoutTime": 0.0534586,
 "TxRefAmp": 216.057,
 "dcmmeta_affine": [
  [
   -2.0,
   0.0,
   0.0,
   106.7796630859375
  ],
  [
   0.0,
   1.967142939567566,
   -0.36103829741477966,
   -75.60704040527344
  ],
  [
   0.0,
   0.36103829741477966,
   1.967142939567566,
   -79.15641021728516
  ],
  [
   0.0,
   0.0,
   0.0,
   1.0
  ]
 ],
 "dcmmeta_reorient_transform": [
  [
   0.0,
   -1.0,
   0.0,
   99.0
  ],
  [
   1.0,
   0.0,
   0.0,
   0.0
  ],
  [
   0.0,
   0.0,
   1.0,
   0.0
  ],
  [
   0.0,
   0.0,
   0.0,
   1.0
  ]
 ],
 "dcmmeta_shape": [
  100,
  100,
  72,
  256
 ],
 "dcmmeta_slice_dim": 2,
 "dcmmeta_version": 0.6,
 "global": {
  "const": {
   "AcquisitionMatrix": [
    100,
    0,
    0,
    100
   ],
   "AngioFlag": "N",
   "BitsAllocated": 16,
   "BitsStored": 12,
   "BodyPartExamined": "BRAIN",
   "Columns": 900,
   "EchoNumbers": 1,
   "EchoTime": 34.0,
   "EchoTrainLength": 100,
   "FlipAngle": 90.0,
   "HighBit": 11,
   "ImageOrientationPatient": [
    1.0,
    0.0,
    0.0,
    0.0,
    0.98357147073484,
    -0.1805191456785
   ],
   "ImagePositionPatient": [
    -906.77966117859,
    -905.99728455308,
    101.00169690048
   ],
   "ImageType": [
    "ORIGINAL",
    "PRIMARY",
    "M",
    "ND",
    "MOSAIC"
   ],
   "ImagedNucleus": "1H",
   "ImagingFrequency": 123.257722,
   "InPlanePhaseEncodingDirection": "COL",
   "MRAcquisitionType": "2D",
   "MagneticFieldStrength": 3.0,
   "Manufacturer": "SIEMENS",
   "ManufacturerModelName": "Prisma",
   "Modality": "MR",
   "NumberOfAverages": 1.0,
   "NumberOfPhaseEncodingSteps": 100,
   "PercentPhaseFieldOfView": 100.0,
   "PercentSampling": 100.0,
   "PerformedProcedureStepStartTime": "130454.803000",
   "PhotometricInterpretation": "MONOCHROME2",
   "PixelBandwidth": 2380.0,
   "PixelRepresentation": 0,
   "PixelSpacing": [
    2.0,
    2.0
   ],
   "ProtocolName": "bold_100x100_s3_2x2x2_static_256",
   "RepetitionTime": 2000.0,
   "Rows": 900,
   "SAR": 0.07101369468017,
   "SamplesPerPixel": 1,
   "ScanOptions": "FS",
   "ScanningSequence": "EP",
   "SequenceName": "*epfid2d1_100",
   "SequenceVariant": "SK",
   "SeriesDescription": "bold_100x100_s3_2x2x2_static_256",
   "SeriesNumber": 3,
   "SeriesTime": "130758.477000",
   "SliceLocation": -64.207468227478,
   "SliceThickness": 2.0,
   "SmallestImagePixelValue": 0,
   "SoftwareVersions": "syngo MR E11",
   "SpacingBetweenSlices": 1.99999999598,
   "SpecificCharacterSet": "ISO_IR 100",
   "StudyID": "1",
   "StudyTime": "130454.677000",
   "TransmitCoilName": "Body",
   "VariableFlipAngleFlag": "N",
   "WindowCenterWidthExplanation": "Algo1",
   "dBdt": 0.0
  },
  "slices": {}
 },
 "time": {
  "samples": {
   "AcquisitionNumber": [
    1,
    2,
    3,
    4,
    5,
    6,
    7,
    8,
    9,
    10,
    11,
    12,
    13,
    14,
    15,
    16,
    17,
    18,
    19,
    20,
    21,
    22,
    23,
    24,
    25,
    26,
    27,
    28,
    29,
    30,
    31,
    32,
    33,
    34,
    35,
    36,
    37,
    38,
    39,
    40,
    41,
    42,
    43,
    44,
    45,
    46,
    47,
    48,
    49,
    50,
    51,
    52,
    53,
    54,
    55,
    56,
    57,
    58,
    59,
    60,
    61,
    62,
    63,
    64,
    65,
    66,
    67,
    68,
    69,
    70,
    71,
    72,
    73,
    74,
    75,
    76,
    77,
    78,
    79,
    80,
    81,
    82,
    83,
    84,
    85,
    86,
    87,
    88,
    89,
    90,
    91,
    92,
    93,
    94,
    95,
    96,
    97,
    98,
    99,
    100,
    101,
    102,
    103,
    104,
    105,
    106,
    107,
    108,
    109,
    110,
    111,
    112,
    113,
    114,
    115,
    116,
    117,
    118,
    119,
    120,
    121,
    122,
    123,
    124,
    125,
    126,
    127,
    128,
    129,
    130,
    131,
    132,
    133,
    134,
    135,
    136,
    137,
    138,
    139,
    140,
    141,
    142,
    143,
    144,
    145,
    146,
    147,
    148,
    149,
    150,
    151,
    152,
    153,
    154,
    155,
    156,
    157,
    158,
    159,
    160,
    161,
    162,
    163,
    164,
    165,
    166,
    167,
    168,
    169,
    170,
    171,
    172,
    173,
    174,
    175,
    176,
    177,
    178,
    179,
    180,
    181,
    182,
    183,
    184,
    185,
    186,
    187,
    188,
    189,
    190,
    191,
    192,
    193,
    194,
    195,
    196,
    197,
    198,
    199,
    200,
    201,
    202,
    203,
    204,
    205,
    206,
    207,
    208,
    209,
    210,
    211,
    212,
    213,
    214,
    215,
    216,
    217,
    218,
    219,
    220,
    221,
    222,
    223,
    224,
    225,
    226,
    227,
    228,
    229,
    230,
    231,
    232,
    233,
    234,
    235,
    236,
    237,
    238,
    239,
    240,
    241,
    242,
    243,
    244,
    245,
    246,
    247,
    248,
    249,
    250,
    251,
    252,
    253,
    254,
    255,
    256
   ],
   "AcquisitionTime": [
    "130756.455000",
    "130758.455000",
    "130800.455000",
    "130802.455000",
    "130804.455000",
    "130806.455000",
    "130808.455000",
    "130810.455000",
    "130812.455000",
    "130814.455000",
    "130816.455000",
    "130818.455000",
    "130820.455000",
    "130822.455000",
    "130824.455000",
    "130826.455000",
    "130828.455000",
    "130830.455000",
    "130832.455000",
    "130834.455000",
    "130836.455000",
    "130838.455000",
    "130840.455000",
    "130842.455000",
    "130844.455000",
    "130846.455000",
    "130848.455000",
    "130850.455000",
    "130852.455000",
    "130854.455000",
    "130856.455000",
    "130858.455000",
    "130900.455000",
    "130902.455000",
    "130904.455000",
    "130906.455000",
    "130908.455000",
    "130910.455000",
    "130912.455000",
    "130914.455000",
    "130916.455000",
    "130918.455000",
    "130920.455000",
    "130922.455000",
    "130924.455000",
    "130926.455000",
    "130928.455000",
    "130930.455000",
    "130932.455000",
    "130934.455000",
    "130936.455000",
    "130938.455000",
    "130940.455000",
    "130942.455000",
    "130944.455000",
    "130946.455000",
    "130948.455000",
    "130950.455000",
    "130952.455000",
    "130954.455000",
    "130956.455000",
    "130958.455000",
    "131000.455000",
    "131002.455000",
    "131004.455000",
    "131006.455000",
    "131008.455000",
    "131010.455000",
    "131012.455000",
    "131014.455000",
    "131016.455000",
    "131018.455000",
    "131020.455000",
    "131022.455000",
    "131024.455000",
    "131026.455000",
    "131028.455000",
    "131030.455000",
    "131032.455000",
    "131034.455000",
    "131036.455000",
    "131038.455000",
    "131040.455000",
    "131042.455000",
    "131044.455000",
    "131046.455000",
    "131048.455000",
    "131050.455000",
    "131052.455000",
    "131054.455000",
    "131056.455000",
    "131058.455000",
    "131100.455000",
    "131102.455000",
    "131104.455000",
    "131106.455000",
    "131108.455000",
    "131110.455000",
    "131112.455000",
    "131114.455000",
    "131116.455000",
    "131118.455000",
    "131120.455000",
    "131122.455000",
    "131124.455000",
    "131126.455000",
    "131128.455000",
    "131130.455000",
    "131132.455000",
    "131134.455000",
    "131136.455000",
    "131138.455000",
    "131140.455000",
    "131142.455000",
    "131144.455000",
    "131146.455000",
    "131148.455000",
    "131150.455000",
    "131152.455000",
    "131154.455000",
    "131156.455000",
    "131158.455000",
    "131200.455000",
    "131202.455000",
    "131204.455000",
    "131206.455000",
    "131208.455000",
    "131210.455000",
    "131212.455000",
    "131214.455000",
    "131216.455000",
    "131218.455000",
    "131220.455000",
    "131222.455000",
    "131224.455000",
    "131226.455000",
    "131228.455000",
    "131230.455000",
    "131232.455000",
    "131234.455000",
    "131236.455000",
    "131238.455000",
    "131240.455000",
    "131242.455000",
    "131244.455000",
    "131246.455000",
    "131248.455000",
    "131250.455000",
    "131252.455000",
    "131254.455000",
    "131256.455000",
    "131258.455000",
    "131300.455000",
    "131302.455000",
    "131304.455000",
    "131306.455000",
    "131308.455000",
    "131310.455000",
    "131312.455000",
    "131314.455000",
    "131316.455000",
    "131318.455000",
    "131320.455000",
    "131322.455000",
    "131324.455000",
    "131326.455000",
    "131328.455000",
    "131330.455000",
    "131332.455000",
    "131334.455000",
    "131336.455000",
    "131338.455000",
    "131340.455000",
    "131342.455000",
    "131344.455000",
    "131346.455000",
    "131348.455000",
    "131350.455000",
    "131352.455000",
    "131354.455000",
    "131356.455000",
    "131358.455000",
    "131400.455000",
    "131402.455000",
    "131404.455000",
    "131406.455000",
    "131408.455000",
    "131410.455000",
    "131412.455000",
    "131414.455000",
    "131416.455000",
    "131418.455000",
    "131420.455000",
    "131422.455000",
    "131424.455000",
    "131426.455000",
    "131428.455000",
    "131430.455000",
    "131432.455000",
    "131434.455000",
    "131436.455000",
    "131438.455000",
    "131440.455000",
    "131442.455000",
    "131444.455000",
    "131446.455000",
    "131448.455000",
    "131450.455000",
    "131452.455000",
    "131454.455000",
    "131456.455000",
    "131458.455000",
    "131500.455000",
    "131502.455000",
    "131504.455000",
    "131506.455000",
    "131508.455000",
    "131510.455000",
    "131512.455000",
    "131514.455000",
    "131516.455000",
    "131518.455000",
    "131520.455000",
    "131522.455000",
    "131524.455000",
    "131526.455000",
    "131528.455000",
    "131530.455000",
    "131532.455000",
    "131534.455000",
    "131536.455000",
    "131538.455000",
    "131540.455000",
    "131542.455000",
    "131544.455000",
    "131546.455000",
    "131548.455000",
    "131550.455000",
    "131552.455000",
    "131554.455000",
    "131556.455000",
    "131558.455000",
    "131600.455000",
    "131602.455000",
    "131604.455000",
    "131606.455000",
    "131608.455000",
    "131610.455000",
    "131612.455000",
    "131614.455000",
    "131616.455000",
    "131618.455000",
    "131620.455000",
    "131622.455000",
    "131624.455000",
    "131626.455000"
   ],
   "ContentTime": [
    "130758.481000",
    "130759.976000",
    "130801.976000",
    "130803.977000",
    "130805.977000",
    "130807.976000",
    "130809.977000",
    "130811.977000",
    "130813.976000",
    "130816.476000",
    "130817.976000",
    "130819.976000",
    "130821.977000",
    "130823.976000",
    "130825.976000",
    "130827.977000",
    "130829.977000",
    "130831.976000",
    "130833.976000",
    "130835.976000",
    "130837.976000",
    "130839.977000",
    "130841.976000",
    "130843.977000",
    "130845.978000",
    "130847.977000",
    "130849.976000",
    "130851.976000",
    "130853.976000",
    "130855.976000",
    "130857.976000",
    "130859.976000",
    "130901.976000",
    "130903.978000",
    "130905.977000",
    "130907.976000",
    "130909.976000",
    "130911.976000",
    "130913.976000",
    "130915.977000",
    "130917.977000",
    "130919.976000",
    "130921.978000",
    "130924.476000",
    "130926.476000",
    "130927.977000",
    "130929.977000",
    "130931.976000",
    "130934.477000",
    "130935.976000",
    "130937.976000",
    "130939.977000",
    "130941.976000",
    "130943.976000",
    "130945.976000",
    "130947.976000",
    "130949.976000",
    "130951.976000",
    "130953.977000",
    "130955.977000",
    "130957.978000",
    "130959.976000",
    "131001.976000",
    "131003.977000",
    "131005.977000",
    "131007.977000",
    "131009.976000",
    "131012.476000",
    "131013.977000",
    "131015.977000",
    "131017.976000",
    "131019.977000",
    "131021.977000",
    "131023.976000",
    "131025.976000",
    "131027.977000",
    "131029.977000",
    "131031.977000",
    "131033.976000",
    "131035.976000",
    "131037.977000",
    "131039.977000",
    "131041.976000",
    "131044.477000",
    "131045.976000",
    "131047.976000",
    "131049.977000",
    "131051.976000",
    "131053.976000",
    "131055.976000",
    "131057.977000",
    "131059.977000",
    "131101.977000",
    "131103.976000",
    "131105.977000",
    "131107.977000",
    "131109.976000",
    "131111.977000",
    "131113.977000",
    "131115.976000",
    "131117.976000",
    "131119.976000",
    "131121.977000",
    "131124.478000",
    "131125.978000",
    "131127.977000",
    "131129.976000",
    "131131.976000",
    "131133.976000",
    "131135.976000",
    "131137.977000",
    "131140.477000",
    "131141.977000",
    "131143.976000",
    "131145.977000",
    "131147.976000",
    "131149.977000",
    "131151.976000",
    "131153.976000",
    "131156.476000",
    "131157.977000",
    "131159.993000",
    "131201.976000",
    "131203.977000",
    "131205.977000",
    "131207.976000",
    "131209.976000",
    "131211.977000",
    "131213.976000",
    "131215.977000",
    "131217.977000",
    "131220.477000",
    "131221.977000",
    "131223.977000",
    "131225.977000",
    "131227.976000",
    "131229.977000",
    "131231.977000",
    "131234.478000",
    "131235.978000",
    "131237.976000",
    "131239.976000",
    "131241.977000",
    "131243.976000",
    "131246.477000",
    "131247.976000",
    "131250.478000",
    "131251.977000",
    "131253.976000",
    "131255.976000",
    "131257.976000",
    "131259.976000",
    "131301.976000",
    "131303.977000",
    "131305.977000",
    "131307.977000",
    "131309.978000",
    "131312.477000",
    "131313.977000",
    "131315.980000",
    "131317.976000",
    "131319.976000",
    "131321.976000",
    "131323.976000",
    "131325.978000",
    "131327.977000",
    "131329.977000",
    "131331.976000",
    "131333.976000",
    "131335.977000",
    "131337.976000",
    "131340.477000",
    "131341.976000",
    "131343.977000",
    "131345.977000",
    "131348.476000",
    "131349.976000",
    "131351.977000",
    "131353.977000",
    "131355.977000",
    "131357.976000",
    "131359.977000",
    "131401.977000",
    "131403.976000",
    "131405.976000",
    "131407.976000",
    "131409.977000",
    "131411.977000",
    "131413.976000",
    "131415.976000",
    "131417.977000",
    "131419.977000",
    "131421.977000",
    "131423.977000",
    "131425.977000",
    "131427.976000",
    "131429.976000",
    "131431.977000",
    "131433.977000",
    "131436.478000",
    "131437.977000",
    "131439.977000",
    "131441.976000",
    "131443.977000",
    "131445.976000",
    "131447.976000",
    "131450.477000",
    "131451.976000",
    "131453.977000",
    "131455.977000",
    "131457.977000",
    "131459.977000",
    "131501.977000",
    "131503.977000",
    "131505.977000",
    "131507.977000",
    "131509.976000",
    "131511.977000",
    "131513.977000",
    "131515.977000",
    "131518.476000",
    "131519.976000",
    "131521.976000",
    "131523.977000",
    "131525.977000",
    "131527.978000",
    "131529.978000",
    "131531.977000",
    "131533.977000",
    "131535.976000",
    "131537.977000",
    "131539.976000",
    "131542.477000",
    "131543.976000",
    "131545.978000",
    "131547.977000",
    "131549.977000",
    "131551.977000",
    "131553.977000",
    "131555.977000",
    "131557.976000",
    "131559.977000",
    "131601.976000",
    "131603.977000",
    "131605.976000",
    "131607.976000",
    "131609.976000",
    "131611.976000",
    "131613.976000",
    "131615.976000",
    "131617.976000",
    "131619.976000",
    "131621.978000",
    "131623.977000",
    "131625.977000",
    "131627.841000"
   ],
   "InstanceCreationTime": [
    "130758.481000",
    "130759.976000",
    "130801.976000",
    "130803.977000",
    "130805.977000",
    "130807.976000",
    "130809.977000",
    "130811.977000",
    "130813.976000",
    "130816.476000",
    "130817.976000",
    "130819.976000",
    "130821.977000",
    "130823.976000",
    "130825.976000",
    "130827.977000",
    "130829.977000",
    "130831.976000",
    "130833.976000",
    "130835.976000",
    "130837.976000",
    "130839.977000",
    "130841.976000",
    "130843.977000",
    "130845.978000",
    "130847.977000",
    "130849.976000",
    "130851.976000",
    "130853.976000",
    "130855.976000",
    "130857.976000",
    "130859.976000",
    "130901.976000",
    "130903.978000",
    "130905.977000",
    "130907.976000",
    "130909.976000",
    "130911.976000",
    "130913.976000",
    "130915.977000",
    "130917.977000",
    "130919.976000",
    "130921.978000",
    "130924.476000",
    "130926.476000",
    "130927.977000",
    "130929.977000",
    "130931.976000",
    "130934.477000",
    "130935.976000",
    "130937.976000",
    "130939.977000",
    "130941.976000",
    "130943.976000",
    "130945.976000",
    "130947.976000",
    "130949.976000",
    "130951.976000",
    "130953.977000",
    "130955.977000",
    "130957.978000",
    "130959.976000",
    "131001.976000",
    "131003.977000",
    "131005.977000",
    "131007.977000",
    "131009.976000",
    "131012.476000",
    "131013.977000",
    "131015.977000",
    "131017.976000",
    "131019.977000",
    "131021.977000",
    "131023.976000",
    "131025.976000",
    "131027.977000",
    "131029.977000",
    "131031.977000",
    "131033.976000",
    "131035.976000",
    "131037.977000",
    "131039.977000",
    "131041.976000",
    "131044.477000",
    "131045.976000",
    "131047.976000",
    "131049.977000",
    "131051.976000",
    "131053.976000",
    "131055.976000",
    "131057.977000",
    "131059.977000",
    "131101.977000",
    "131103.976000",
    "131105.977000",
    "131107.977000",
    "131109.976000",
    "131111.977000",
    "131113.977000",
    "131115.976000",
    "131117.976000",
    "131119.976000",
    "131121.977000",
    "131124.478000",
    "131125.978000",
    "131127.977000",
    "131129.976000",
    "131131.976000",
    "131133.976000",
    "131135.976000",
    "131137.977000",
    "131140.477000",
    "131141.977000",
    "131143.976000",
    "131145.977000",
    "131147.976000",
    "131149.977000",
    "131151.976000",
    "131153.976000",
    "131156.476000",
    "131157.977000",
    "131159.993000",
    "131201.976000",
    "131203.977000",
    "131205.977000",
    "131207.976000",
    "131209.976000",
    "131211.977000",
    "131213.976000",
    "131215.977000",
    "131217.977000",
    "131220.477000",
    "131221.977000",
    "131223.977000",
    "131225.977000",
    "131227.976000",
    "131229.977000",
    "131231.977000",
    "131234.478000",
    "131235.978000",
    "131237.976000",
    "131239.976000",
    "131241.977000",
    "131243.976000",
    "131246.477000",
    "131247.976000",
    "131250.478000",
    "131251.977000",
    "131253.976000",
    "131255.976000",
    "131257.976000",
    "131259.976000",
    "131301.976000",
    "131303.977000",
    "131305.977000",
    "131307.977000",
    "131309.978000",
    "131312.477000",
    "131313.977000",
    "131315.980000",
    "131317.976000",
    "131319.976000",
    "131321.976000",
    "131323.976000",
    "131325.978000",
    "131327.977000",
    "131329.977000",
    "131331.976000",
    "131333.976000",
    "131335.977000",
    "131337.976000",
    "131340.477000",
    "131341.976000",
    "131343.977000",
    "131345.977000",
    "131348.476000",
    "131349.976000",
    "131351.977000",
    "131353.977000",
    "131355.977000",
    "131357.976000",
    "131359.977000",
    "131401.977000",
    "131403.976000",
    "131405.976000",
    "131407.976000",
    "131409.977000",
    "131411.977000",
    "131413.976000",
    "131415.976000",
    "131417.977000",
    "131419.977000",
    "131421.977000",
    "131423.977000",
    "131425.977000",
    "131427.976000",
    "131429.976000",
    "131431.977000",
    "131433.977000",
    "131436.478000",
    "131437.977000",
    "131439.977000",
    "131441.976000",
    "131443.977000",
    "131445.976000",
    "131447.976000",
    "131450.477000",
    "131451.976000",
    "131453.977000",
    "131455.977000",
    "131457.977000",
    "131459.977000",
    "131501.977000",
    "131503.977000",
    "131505.977000",
    "131507.977000",
    "131509.976000",
    "131511.977000",
    "131513.977000",
    "131515.977000",
    "131518.476000",
    "131519.976000",
    "131521.976000",
    "131523.977000",
    "131525.977000",
    "131527.978000",
    "131529.978000",
    "131531.977000",
    "131533.977000",
    "131535.976000",
    "131537.977000",
    "131539.976000",
    "131542.477000",
    "131543.976000",
    "131545.978000",
    "131547.977000",
    "131549.977000",
    "131551.977000",
    "131553.977000",
    "131555.977000",
    "131557.976000",
    "131559.977000",
    "131601.976000",
    "131603.977000",
    "131605.976000",
    "131607.976000",
    "131609.976000",
    "131611.976000",
    "131613.976000",
    "131615.976000",
    "131617.976000",
    "131619.976000",
    "131621.978000",
    "131623.977000",
    "131625.977000",
    "131627.841000"
   ],
   "InstanceNumber": [
    1,
    2,
    3,
    4,
    5,
    6,
    7,
    8,
    9,
    10,
    11,
    12,
    13,
    14,
    15,
    16,
    17,
    18,
    19,
    20,
    21,
    22,
    23,
    24,
    25,
    26,
    27,
    28,
    29,
    30,
    31,
    32,
    33,
    34,
    35,
    36,
    37,
    38,
    39,
    40,
    41,
    42,
    43,
    44,
    45,
    46,
    47,
    48,
    49,
    50,
    51,
    52,
    53,
    54,
    55,
    56,
    57,
    58,
    59,
    60,
    61,
    62,
    63,
    64,
    65,
    66,
    67,
    68,
    69,
    70,
    71,
    72,
    73,
    74,
    75,
    76,
    77,
    78,
    79,
    80,
    81,
    82,
    83,
    84,
    85,
    86,
    87,
    88,
    89,
    90,
    91,
    92,
    93,
    94,
    95,
    96,
    97,
    98,
    99,
    100,
    101,
    102,
    103,
    104,
    105,
    106,
    107,
    108,
    109,
    110,
    111,
    112,
    113,
    114,
    115,
    116,
    117,
    118,
    119,
    120,
    121,
    122,
    123,
    124,
    125,
    126,
    127,
    128,
    129,
    130,
    131,
    132,
    133,
    134,
    135,
    136,
    137,
    138,
    139,
    140,
    141,
    142,
    143,
    144,
    145,
    146,
    147,
    148,
    149,
    150,
    151,
    152,
    153,
    154,
    155,
    156,
    157,
    158,
    159,
    160,
    161,
    162,
    163,
    164,
    165,
    166,
    167,
    168,
    169,
    170,
    171,
    172,
    173,
    174,
    175,
    176,
    177,
    178,
    179,
    180,
    181,
    182,
    183,
    184,
    185,
    186,
    187,
    188,
    189,
    190,
    191,
    192,
    193,
    194,
    195,
    196,
    197,
    198,
    199,
    200,
    201,
    202,
    203,
    204,
    205,
    206,
    207,
    208,
    209,
    210,
    211,
    212,
    213,
    214,
    215,
    216,
    217,
    218,
    219,
    220,
    221,
    222,
    223,
    224,
    225,
    226,
    227,
    228,
    229,
    230,
    231,
    232,
    233,
    234,
    235,
    236,
    237,
    238,
    239,
    240,
    241,
    242,
    243,
    244,
    245,
    246,
    247,
    248,
    249,
    250,
    251,
    252,
    253,
    254,
    255,
    256
   ],
   "LargestImagePixelValue": [
    2506,
    2468,
    2463,
    2554,
    2459,
    2503,
    2504,
    2495,
    2471,
    2464,
    2475,
    2498,
    2442,
    2444,
    2486,
    2472,
    2478,
    2507,
    2487,
    2534,
    2521,
    2488,
    2487,
    2506,
    2479,
    2503,
    2518,
    2505,
    2598,
    2610,
    2474,
    2504,
    2519,
    2504,
    2485,
    2465,
    2466,
    2492,
    2523,
    2481,
    2498,
    2486,
    2480,
    2474,
    2495,
    2479,
    2499,
    2503,
    2448,
    2480,
    2487,
    2530,
    2455,
    2513,
    2493,
    2455,
    2541,
    2535,
    2486,
    2516,
    2473,
    2456,
    2480,
    2471,
    2466,
    2475,
    2581,
    2523,
    2488,
    2516,
    2542,
    2517,
    2501,
    2525,
    2507,
    2497,
    2512,
    2565,
    2485,
    2551,
    2537,
    2551,
    2523,
    2634,
    2568,
    2568,
    2520,
    2565,
    2558,
    2545,
    2545,
    2536,
    2546,
    2590,
    2549,
    2570,
    2543,
    2567,
    2545,
    2560,
    2521,
    2599,
    2550,
    2567,
    2529,
    2563,
    2574,
    2544,
    2595,
    2564,
    2581,
    2562,
    2556,
    2578,
    2604,
    2590,
    2567,
    2603,
    2592,
    2570,
    2576,
    2577,
    2556,
    2582,
    2605,
    2575,
    2602,
    2596,
    2564,
    2569,
    2573,
    2582,
    2591,
    2590,
    2595,
    2583,
    2583,
    2575,
    2640,
    2580,
    2573,
    2596,
    2593,
    2596,
    2572,
    2597,
    2553,
    2574,
    2577,
    2554,
    2552,
    2593,
    2574,
    2564,
    2553,
    2551,
    2542,
    2563,
    2553,
    2542,
    2579,
    2588,
    2553,
    2553,
    2539,
    2557,
    2560,
    2579,
    2545,
    2568,
    2574,
    2556,
    2564,
    2566,
    2531,
    2557,
    2518,
    2533,
    2532,
    2545,
    2550,
    2542,
    2565,
    2553,
    2566,
    2546,
    2548,
    2538,
    2560,
    2573,
    2535,
    2566,
    2549,
    2679,
    2566,
    2628,
    2576,
    2576,
    2557,
    2582,
    2548,
    2547,
    2688,
    2525,
    2546,
    2551,
    2528,
    2608,
    2519,
    2528,
    2543,
    2485,
    2476,
    2513,
    2499,
    2759,
    2550,
    2659,
    2523,
    2638,
    2783,
    2520,
    2496,
    2584,
    2475,
    2514,
    2557,
    2556,
    2530,
    2506,
    2493,
    2490,
    2503,
    2512,
    2489,
    2496,
    2501,
    2523,
    2496,
    2685,
    2469,
    2509,
    2478,
    2636,
    2633,
    2499,
    2453,
    2428,
    2439,
    2462,
    2484,
    2453,
    2495,
    2427,
    2436,
    2458
   ],
   "WindowCenter": [
    717.0,
    715.0,
    716.0,
    718.0,
    717.0,
    717.0,
    717.0,
    717.0,
    717.0,
    717.0,
    717.0,
    717.0,
    717.0,
    717.0,
    718.0,
    717.0,
    716.0,
    716.0,
    717.0,
    717.0,
    716.0,
    716.0,
    717.0,
    717.0,
    717.0,
    716.0,
    716.0,
    716.0,
    717.0,
    718.0,
    716.0,
    717.0,
    717.0,
    717.0,
    717.0,
    717.0,
    717.0,
    718.0,
    717.0,
    717.0,
    717.0,
    717.0,
    717.0,
    717.0,
    717.0,
    717.0,
    717.0,
    717.0,
    716.0,
    717.0,
    717.0,
    717.0,
    716.0,
    716.0,
    717.0,
    716.0,
    716.0,
    715.0,
    714.0,
    717.0,
    717.0,
    715.0,
    714.0,
    714.0,
    715.0,
    716.0,
    717.0,
    716.0,
    716.0,
    717.0,
    717.0,
    716.0,
    715.0,
    715.0,
    716.0,
    716.0,
    716.0,
    716.0,
    715.0,
    717.0,
    717.0,
    716.0,
    716.0,
    717.0,
    717.0,
    717.0,
    717.0,
    717.0,
    717.0,
    717.0,
    717.0,
    716.0,
    717.0,
    718.0,
    718.0,
    718.0,
    717.0,
    717.0,
    717.0,
    717.0,
    717.0,
    718.0,
    717.0,
    718.0,
    716.0,
    716.0,
    716.0,
    717.0,
    717.0,
    717.0,
    718.0,
    718.0,
    717.0,
    718.0,
    719.0,
    718.0,
    716.0,
    718.0,
    718.0,
    718.0,
    717.0,
    717.0,
    718.0,
    718.0,
    717.0,
