{
 "AcquisitionMatrixPE": 100,
 "AcquisitionNumber": 1,
 "AcquisitionTime": "13:25:47.865000",
 "BandwidthPerPixelPhaseEncode": 18.519,
 "BaseResolution": 100,
 "BodyPartExamined": "BRAIN",
 "ConsistencyInfo": "N4_VE11C_LATEST_20160120",
 "ConversionSoftware": "dcm2niix",
 "ConversionSoftwareVersion": "v1.0.20180622 GCC4.9.2",
 "DerivedVendorReportedEchoSpacing": 0.000539986,
 "DeviceSerialNumber": "166078",
 "DwellTime": 2.1e-06,
 "EchoTime": 0.034,
 "EchoTrainLength": 100,
 "EffectiveEchoSpacing": 0.000539986,
 "FlipAngle": 90,
 "ImageOrientationPatientDICOM": [
  1,
  0,
  0,
  0,
  0.981293,
  -0.192522
 ],
 "ImageType": [
  "ORIGINAL",
  "PRIMARY",
  "M",
  "ND",
  "MOSAIC"
 ],
 "InPlanePhaseEncodingDirectionDICOM": "COL",
 "InstitutionAddress": "Street_StreetNo_Bei_Jing_District_CN_ZIP",
 "InstitutionName": "BeiJing_Normal_University",
 "InstitutionalDepartmentName": "Department",
 "MRAcquisitionType": "2D",
 "MagneticFieldStrength": 3,
 "Manufacturer": "Siemens",
 "ManufacturersModelName": "Prisma",
 "Modality": "MR",
 "MultibandAccelerationFactor": 3,
 "PartialFourier": 1,
 "PatientPosition": "HFS",
 "PercentPhaseFOV": 100,
 "PhaseEncodingDirection": "j-",
 "PhaseEncodingSteps": 100,
 "PhaseResolution": 1,
 "PixelBandwidth": 2380,
 "ProcedureStepDescription": "BNU_P2018_64CH_Zhen.ZongLei",
 "ProtocolName": "bold_100x100_s3_2x2x2_static_256",
 "PulseSequenceDetails": "%SiemensSeq%_ep2d_bold",
 "ReceiveCoilActiveElements": "HC1-7;NC1",
 "ReceiveCoilName": "HeadNeck_64",
 "ReconMatrixPE": 100,
 "RepetitionTime": 2,
 "SAR": 0.0728372,
 "ScanOptions": "FS",
 "ScanningSequence": "EP",
 "SequenceName": "_epfid2d1_100",
 "SequenceVariant": "SK",
 "SeriesDescription": "bold_100x100_s3_2x2x2_static_256",
 "SeriesNumber": 4,
 "ShimSetting": [
  -5463,
  -11482,
  -1288,
  326,
  36,
  -205,
  -159,
  48
 ],
 "SliceThickness": 2,
 "SliceTiming": [
  1.485,
  0,
  0.99,
  0.0825,
  1.0725,
  0.165,
  1.155,
  0.2475,
  1.2375,
  0.33,
  1.32,
  0.4125,
  1.4025,
  0.5775,
  1.5675,
  0.66,
  1.65,
  0.7425,
  1.7325,
  0.825,
  1.815,
  0.9075,
  1.8975,
  0.495,
  1.485,
  0,
  0.99,
  0.0825,
  1.0725,
  0.165,
  1.155,
  0.2475,
  1.2375,
  0.33,
  1.32,
  0.4125,
  1.4025,
  0.5775,
  1.5675,
  0.66,
  1.65,
  0.7425,
  1.7325,
  0.825,
  1.815,
  0.9075,
  1.8975,
  0.495,
  1.485,
  0,
  0.99,
  0.0825,
  1.0725,
  0.165,
  1.155,
  0.2475,
  1.2375,
  0.33,
  1.32,
  0.4125,
  1.4025,
  0.5775,
  1.5675,
  0.66,
  1.65,
  0.7425,
  1.7325,
  0.825,
  1.815,
  0.9075,
  1.8975,
  0.495
 ],
 "SoftwareVersions": "syngo_MR_E11",
 "SpacingBetweenSlices": 2,
 "StationName": "AWP166078",
 "TaskName": "imagenet",
 "TotalReadoutTime": 0.0534586,
 "TxRefAmp": 208.17,
 "dcmmeta_affine": [
  [
   -2.0,
   0.0,
   0.0,
   102.03389739990234
  ],
  [
   0.0,
   1.9625853300094604,
   -0.3850439488887787,
   -83.61626434326172
  ],
  [
   0.0,
   0.3850439488887787,
   1.9625853300094604,
   -83.58009338378906
  ],
  [
   0.0,
   0.0,
   0.0,
   1.0
  ]
 ],
 "dcmmeta_reorient_transform": [
  [
   0.0,
   -1.0,
   0.0,
   99.0
  ],
  [
   1.0,
   0.0,
   0.0,
   0.0
  ],
  [
   0.0,
   0.0,
   1.0,
   0.0
  ],
  [
   0.0,
   0.0,
   0.0,
   1.0
  ]
 ],
 "dcmmeta_shape": [
  100,
  100,
  72,
  256
 ],
 "dcmmeta_slice_dim": 2,
 "dcmmeta_version": 0.6,
 "global": {
  "const": {
   "AcquisitionMatrix": [
    100,
    0,
    0,
    100
   ],
   "AngioFlag": "N",
   "BitsAllocated": 16,
   "BitsStored": 12,
   "BodyPartExamined": "BRAIN",
   "Columns": 900,
   "EchoNumbers": 1,
   "EchoTime": 34.0,
   "EchoTrainLength": 100,
   "FlipAngle": 90.0,
   "HighBit": 11,
   "ImageOrientationPatient": [
    1.0,
    0.0,
    0.0,
    0.0,
    0.98129266330938,
    -0.1925219700065
   ],
   "ImagePositionPatient": [
    -902.03389835358,
    -895.71381297118,
    108.55682897507
   ],
   "ImageType": [
    "ORIGINAL",
    "PRIMARY",
    "M",
    "ND",
    "MOSAIC"
   ],
   "ImagedNucleus": "1H",
   "ImagingFrequency": 123.257707,
   "InPlanePhaseEncodingDirection": "COL",
   "MRAcquisitionType": "2D",
   "MagneticFieldStrength": 3.0,
   "Manufacturer": "SIEMENS",
   "ManufacturerModelName": "Prisma",
   "Modality": "MR",
   "NumberOfAverages": 1.0,
   "NumberOfPhaseEncodingSteps": 100,
   "PercentPhaseFieldOfView": 100.0,
   "PercentSampling": 100.0,
   "PerformedProcedureStepStartTime": "130455.886000",
   "PhotometricInterpretation": "MONOCHROME2",
   "PixelBandwidth": 2380.0,
   "PixelRepresentation": 0,
   "PixelSpacing": [
    2.0,
    2.0
   ],
   "ProtocolName": "bold_100x100_s3_2x2x2_static_256",
   "RepetitionTime": 2000.0,
   "Rows": 900,
   "SAR": 0.07283716184881,
   "SamplesPerPixel": 1,
   "ScanOptions": "FS",
   "ScanningSequence": "EP",
   "SequenceName": "*epfid2d1_100",
   "SequenceVariant": "SK",
   "SeriesDescription": "bold_100x100_s3_2x2x2_static_256",
   "SeriesNumber": 4,
   "SeriesTime": "132550.249000",
   "SliceLocation": -65.91856800986,
   "SliceThickness": 2.0,
   "SmallestImagePixelValue": 0,
   "SoftwareVersions": "syngo MR E11",
   "SpacingBetweenSlices": 2.0000000142257,
   "SpecificCharacterSet": "ISO_IR 100",
   "StudyID": "1",
   "StudyTime": "130455.795000",
   "TransmitCoilName": "Body",
   "VariableFlipAngleFlag": "N",
   "WindowCenterWidthExplanation": "Algo1",
   "dBdt": 0.0
  },
  "slices": {}
 },
 "time": {
  "samples": {
   "AcquisitionNumber": [
    1,
    2,
    3,
    4,
    5,
    6,
    7,
    8,
    9,
    10,
    11,
    12,
    13,
    14,
    15,
    16,
    17,
    18,
    19,
    20,
    21,
    22,
    23,
    24,
    25,
    26,
    27,
    28,
    29,
    30,
    31,
    32,
    33,
    34,
    35,
    36,
    37,
    38,
    39,
    40,
    41,
    42,
    43,
    44,
    45,
    46,
    47,
    48,
    49,
    50,
    51,
    52,
    53,
    54,
    55,
    56,
    57,
    58,
    59,
    60,
    61,
    62,
    63,
    64,
    65,
    66,
    67,
    68,
    69,
    70,
    71,
    72,
    73,
    74,
    75,
    76,
    77,
    78,
    79,
    80,
    81,
    82,
    83,
    84,
    85,
    86,
    87,
    88,
    89,
    90,
    91,
    92,
    93,
    94,
    95,
    96,
    97,
    98,
    99,
    100,
    101,
    102,
    103,
    104,
    105,
    106,
    107,
    108,
    109,
    110,
    111,
    112,
    113,
    114,
    115,
    116,
    117,
    118,
    119,
    120,
    121,
    122,
    123,
    124,
    125,
    126,
    127,
    128,
    129,
    130,
    131,
    132,
    133,
    134,
    135,
    136,
    137,
    138,
    139,
    140,
    141,
    142,
    143,
    144,
    145,
    146,
    147,
    148,
    149,
    150,
    151,
    152,
    153,
    154,
    155,
    156,
    157,
    158,
    159,
    160,
    161,
    162,
    163,
    164,
    165,
    166,
    167,
    168,
    169,
    170,
    171,
    172,
    173,
    174,
    175,
    176,
    177,
    178,
    179,
    180,
    181,
    182,
    183,
    184,
    185,
    186,
    187,
    188,
    189,
    190,
    191,
    192,
    193,
    194,
    195,
    196,
    197,
    198,
    199,
    200,
    201,
    202,
    203,
    204,
    205,
    206,
    207,
    208,
    209,
    210,
    211,
    212,
    213,
    214,
    215,
    216,
    217,
    218,
    219,
    220,
    221,
    222,
    223,
    224,
    225,
    226,
    227,
    228,
    229,
    230,
    231,
    232,
    233,
    234,
    235,
    236,
    237,
    238,
    239,
    240,
    241,
    242,
    243,
    244,
    245,
    246,
    247,
    248,
    249,
    250,
    251,
    252,
    253,
    254,
    255,
    256
   ],
   "AcquisitionTime": [
    "132547.865000",
    "132549.865000",
    "132551.865000",
    "132553.865000",
    "132555.865000",
    "132557.865000",
    "132559.865000",
    "132601.865000",
    "132603.865000",
    "132605.865000",
    "132607.865000",
    "132609.865000",
    "132611.865000",
    "132613.865000",
    "132615.865000",
    "132617.865000",
    "132619.865000",
    "132621.865000",
    "132623.865000",
    "132625.865000",
    "132627.865000",
    "132629.865000",
    "132631.865000",
    "132633.865000",
    "132635.865000",
    "132637.865000",
    "132639.865000",
    "132641.865000",
    "132643.865000",
    "132645.865000",
    "132647.865000",
    "132649.865000",
    "132651.865000",
    "132653.865000",
    "132655.865000",
    "132657.865000",
    "132659.865000",
    "132701.865000",
    "132703.865000",
    "132705.865000",
    "132707.865000",
    "132709.865000",
    "132711.865000",
    "132713.865000",
    "132715.865000",
    "132717.865000",
    "132719.865000",
    "132721.865000",
    "132723.865000",
    "132725.865000",
    "132727.865000",
    "132729.865000",
    "132731.865000",
    "132733.865000",
    "132735.865000",
    "132737.865000",
    "132739.865000",
    "132741.865000",
    "132743.865000",
    "132745.865000",
    "132747.865000",
    "132749.865000",
    "132751.865000",
    "132753.865000",
    "132755.865000",
    "132757.865000",
    "132759.865000",
    "132801.865000",
    "132803.865000",
    "132805.865000",
    "132807.865000",
    "132809.865000",
    "132811.865000",
    "132813.865000",
    "132815.865000",
    "132817.865000",
    "132819.865000",
    "132821.865000",
    "132823.865000",
    "132825.865000",
    "132827.865000",
    "132829.865000",
    "132831.865000",
    "132833.865000",
    "132835.865000",
    "132837.865000",
    "132839.865000",
    "132841.865000",
    "132843.865000",
    "132845.865000",
    "132847.865000",
    "132849.865000",
    "132851.865000",
    "132853.865000",
    "132855.865000",
    "132857.865000",
    "132859.865000",
    "132901.865000",
    "132903.865000",
    "132905.865000",
    "132907.865000",
    "132909.865000",
    "132911.865000",
    "132913.865000",
    "132915.865000",
    "132917.865000",
    "132919.865000",
    "132921.865000",
    "132923.865000",
    "132925.865000",
    "132927.865000",
    "132929.865000",
    "132931.865000",
    "132933.865000",
    "132935.865000",
    "132937.865000",
    "132939.865000",
    "132941.865000",
    "132943.865000",
    "132945.865000",
    "132947.865000",
    "132949.865000",
    "132951.865000",
    "132953.865000",
    "132955.865000",
    "132957.865000",
    "132959.865000",
    "133001.865000",
    "133003.865000",
    "133005.865000",
    "133007.865000",
    "133009.865000",
    "133011.865000",
    "133013.865000",
    "133015.865000",
    "133017.865000",
    "133019.865000",
    "133021.865000",
    "133023.865000",
    "133025.865000",
    "133027.865000",
    "133029.865000",
    "133031.865000",
    "133033.865000",
    "133035.865000",
    "133037.865000",
    "133039.865000",
    "133041.865000",
    "133043.865000",
    "133045.865000",
    "133047.865000",
    "133049.865000",
    "133051.865000",
    "133053.865000",
    "133055.865000",
    "133057.865000",
    "133059.865000",
    "133101.865000",
    "133103.865000",
    "133105.865000",
    "133107.865000",
    "133109.865000",
    "133111.865000",
    "133113.865000",
    "133115.865000",
    "133117.865000",
    "133119.865000",
    "133121.865000",
    "133123.865000",
    "133125.865000",
    "133127.865000",
    "133129.865000",
    "133131.865000",
    "133133.865000",
    "133135.865000",
    "133137.865000",
    "133139.865000",
    "133141.865000",
    "133143.865000",
    "133145.865000",
    "133147.865000",
    "133149.865000",
    "133151.865000",
    "133153.865000",
    "133155.865000",
    "133157.865000",
    "133159.865000",
    "133201.865000",
    "133203.865000",
    "133205.865000",
    "133207.865000",
    "133209.865000",
    "133211.865000",
    "133213.865000",
    "133215.865000",
    "133217.865000",
    "133219.865000",
    "133221.865000",
    "133223.865000",
    "133225.865000",
    "133227.865000",
    "133229.865000",
    "133231.865000",
    "133233.865000",
    "133235.865000",
    "133237.865000",
    "133239.865000",
    "133241.865000",
    "133243.865000",
    "133245.865000",
    "133247.865000",
    "133249.865000",
    "133251.865000",
    "133253.865000",
    "133255.865000",
    "133257.865000",
    "133259.865000",
    "133301.865000",
    "133303.865000",
    "133305.865000",
    "133307.865000",
    "133309.865000",
    "133311.865000",
    "133313.865000",
    "133315.865000",
    "133317.865000",
    "133319.865000",
    "133321.865000",
    "133323.865000",
    "133325.865000",
    "133327.865000",
    "133329.865000",
    "133331.865000",
    "133333.865000",
    "133335.865000",
    "133337.865000",
    "133339.865000",
    "133341.865000",
    "133343.865000",
    "133345.865000",
    "133347.865000",
    "133349.865000",
    "133351.865000",
    "133353.865000",
    "133355.865000",
    "133357.865000",
    "133359.865000",
    "133401.865000",
    "133403.865000",
    "133405.865000",
    "133407.865000",
    "133409.865000",
    "133411.865000",
    "133413.865000",
    "133415.865000",
    "133417.865000"
   ],
   "ContentTime": [
    "132550.253000",
    "132551.748000",
    "132553.749000",
    "132555.748000",
    "132557.749000",
    "132559.750000",
    "132601.749000",
    "132603.750000",
    "132605.749000",
    "132607.749000",
    "132609.748000",
    "132611.749000",
    "132613.749000",
    "132615.749000",
    "132617.749000",
    "132619.749000",
    "132621.750000",
    "132623.749000",
    "132625.749000",
    "132627.748000",
    "132629.749000",
    "132631.749000",
    "132633.750000",
    "132635.749000",
    "132637.749000",
    "132639.750000",
    "132641.750000",
    "132643.749000",
    "132645.748000",
    "132647.748000",
    "132649.749000",
    "132651.750000",
    "132653.749000",
    "132655.750000",
    "132657.749000",
    "132659.749000",
    "132701.749000",
    "132703.748000",
    "132705.749000",
    "132707.749000",
    "132709.749000",
    "132711.749000",
    "132713.750000",
    "132715.749000",
    "132717.749000",
    "132719.748000",
    "132721.749000",
    "132723.749000",
    "132725.749000",
    "132727.749000",
    "132729.749000",
    "132731.750000",
    "132733.750000",
    "132735.749000",
    "132737.748000",
    "132739.749000",
    "132741.749000",
    "132743.750000",
    "132745.749000",
    "132747.749000",
    "132749.749000",
    "132751.749000",
    "132753.748000",
    "132755.748000",
    "132757.748000",
    "132759.750000",
    "132801.750000",
    "132803.749000",
    "132805.750000",
    "132807.750000",
    "132809.750000",
    "132811.748000",
    "132813.749000",
    "132815.749000",
    "132817.750000",
    "132819.750000",
    "132821.750000",
    "132823.749000",
    "132825.749000",
    "132827.748000",
    "132829.748000",
    "132831.748000",
    "132833.749000",
    "132835.750000",
    "132837.749000",
    "132839.749000",
    "132841.749000",
    "132843.749000",
    "132845.748000",
    "132847.748000",
    "132849.748000",
    "132851.749000",
    "132853.749000",
    "132855.749000",
    "132857.749000",
    "132859.749000",
    "132901.750000",
    "132903.748000",
    "132905.749000",
    "132907.749000",
    "132909.750000",
    "132911.749000",
    "132913.750000",
    "132915.750000",
    "132917.750000",
    "132919.749000",
    "132921.749000",
    "132923.749000",
    "132925.749000",
    "132927.750000",
    "132929.750000",
    "132931.749000",
    "132933.749000",
    "132935.749000",
    "132937.749000",
    "132939.748000",
    "132941.749000",
    "132943.749000",
    "132945.749000",
    "132947.749000",
    "132949.750000",
    "132951.760000",
    "132953.750000",
    "132955.748000",
    "132957.749000",
    "132959.748000",
    "133001.749000",
    "133003.750000",
    "133005.749000",
    "133007.749000",
    "133009.750000",
    "133011.749000",
    "133013.749000",
    "133015.749000",
    "133017.749000",
    "133019.749000",
    "133021.750000",
    "133023.750000",
    "133025.749000",
    "133027.749000",
    "133029.749000",
    "133031.749000",
    "133033.748000",
    "133035.750000",
    "133037.749000",
    "133039.750000",
    "133041.749000",
    "133043.749000",
    "133045.750000",
    "133047.748000",
    "133049.748000",
    "133051.748000",
    "133053.750000",
    "133055.749000",
    "133057.750000",
    "133059.749000",
    "133101.750000",
    "133103.749000",
    "133105.749000",
    "133107.748000",
    "133109.749000",
    "133111.750000",
    "133113.750000",
    "133115.749000",
    "133117.750000",
    "133119.750000",
    "133121.749000",
    "133123.749000",
    "133125.749000",
    "133127.748000",
    "133129.749000",
    "133131.749000",
    "133133.750000",
    "133135.749000",
    "133137.749000",
    "133139.750000",
    "133141.748000",
    "133143.748000",
    "133145.749000",
    "133147.749000",
    "133149.749000",
    "133151.749000",
    "133153.749000",
    "133155.749000",
    "133157.749000",
    "133159.749000",
    "133201.748000",
    "133203.749000",
    "133205.750000",
    "133207.750000",
    "133209.750000",
    "133211.750000",
    "133213.749000",
    "133215.748000",
    "133217.749000",
    "133219.748000",
    "133221.750000",
    "133223.750000",
    "133225.750000",
    "133227.750000",
    "133229.750000",
    "133231.750000",
    "133233.749000",
    "133235.748000",
    "133237.748000",
    "133239.749000",
    "133241.750000",
    "133243.750000",
    "133245.750000",
    "133247.750000",
    "133249.749000",
    "133251.749000",
    "133253.749000",
    "133255.749000",
    "133257.749000",
    "133259.750000",
    "133301.750000",
    "133303.749000",
    "133305.749000",
    "133307.749000",
    "133309.749000",
    "133311.748000",
    "133313.749000",
    "133315.750000",
    "133317.749000",
    "133319.749000",
    "133321.750000",
    "133323.749000",
    "133325.749000",
    "133327.749000",
    "133329.748000",
    "133331.750000",
    "133333.750000",
    "133335.749000",
    "133337.749000",
    "133339.749000",
    "133341.749000",
    "133343.748000",
    "133345.748000",
    "133347.749000",
    "133349.750000",
    "133351.750000",
    "133353.749000",
    "133355.749000",
    "133357.750000",
    "133359.748000",
    "133401.749000",
    "133403.749000",
    "133405.749000",
    "133407.750000",
    "133409.749000",
    "133411.750000",
    "133413.750000",
    "133415.749000",
    "133417.748000",
    "133419.693000"
   ],
   "InstanceCreationTime": [
    "132550.253000",
    "132551.748000",
    "132553.749000",
    "132555.748000",
    "132557.749000",
    "132559.750000",
    "132601.749000",
    "132603.750000",
    "132605.749000",
    "132607.749000",
    "132609.748000",
    "132611.749000",
    "132613.749000",
    "132615.749000",
    "132617.749000",
    "132619.749000",
    "132621.750000",
    "132623.749000",
    "132625.749000",
    "132627.748000",
    "132629.749000",
    "132631.749000",
    "132633.750000",
    "132635.749000",
    "132637.749000",
    "132639.750000",
    "132641.750000",
    "132643.749000",
    "132645.748000",
    "132647.748000",
    "132649.749000",
    "132651.750000",
    "132653.749000",
    "132655.750000",
    "132657.749000",
    "132659.749000",
    "132701.749000",
    "132703.748000",
    "132705.749000",
    "132707.749000",
    "132709.749000",
    "132711.749000",
    "132713.750000",
    "132715.749000",
    "132717.749000",
    "132719.748000",
    "132721.749000",
    "132723.749000",
    "132725.749000",
    "132727.749000",
    "132729.749000",
    "132731.750000",
    "132733.750000",
    "132735.749000",
    "132737.748000",
    "132739.749000",
    "132741.749000",
    "132743.750000",
    "132745.749000",
    "132747.749000",
    "132749.749000",
    "132751.749000",
    "132753.748000",
    "132755.748000",
    "132757.748000",
    "132759.750000",
    "132801.750000",
    "132803.749000",
    "132805.750000",
    "132807.750000",
    "132809.750000",
    "132811.748000",
    "132813.749000",
    "132815.749000",
    "132817.750000",
    "132819.750000",
    "132821.750000",
    "132823.749000",
    "132825.749000",
    "132827.748000",
    "132829.748000",
    "132831.748000",
    "132833.749000",
    "132835.750000",
    "132837.749000",
    "132839.749000",
    "132841.749000",
    "132843.749000",
    "132845.748000",
    "132847.748000",
    "132849.748000",
    "132851.749000",
    "132853.749000",
    "132855.749000",
    "132857.749000",
    "132859.749000",
    "132901.750000",
    "132903.748000",
    "132905.749000",
    "132907.749000",
    "132909.750000",
    "132911.749000",
    "132913.750000",
    "132915.750000",
    "132917.750000",
    "132919.749000",
    "132921.749000",
    "132923.749000",
    "132925.749000",
    "132927.750000",
    "132929.750000",
    "132931.749000",
    "132933.749000",
    "132935.749000",
    "132937.749000",
    "132939.748000",
    "132941.749000",
    "132943.749000",
    "132945.749000",
    "132947.749000",
    "132949.750000",
    "132951.760000",
    "132953.750000",
    "132955.748000",
    "132957.749000",
    "132959.748000",
    "133001.749000",
    "133003.750000",
    "133005.749000",
    "133007.749000",
    "133009.750000",
    "133011.749000",
    "133013.749000",
    "133015.749000",
    "133017.749000",
    "133019.749000",
    "133021.750000",
    "133023.750000",
    "133025.749000",
    "133027.749000",
    "133029.749000",
    "133031.749000",
    "133033.748000",
    "133035.750000",
    "133037.749000",
    "133039.750000",
    "133041.749000",
    "133043.749000",
    "133045.750000",
    "133047.748000",
    "133049.748000",
    "133051.748000",
    "133053.750000",
    "133055.749000",
    "133057.750000",
    "133059.749000",
    "133101.750000",
    "133103.749000",
    "133105.749000",
    "133107.748000",
    "133109.749000",
    "133111.750000",
    "133113.750000",
    "133115.749000",
    "133117.750000",
    "133119.750000",
    "133121.749000",
    "133123.749000",
    "133125.749000",
    "133127.748000",
    "133129.749000",
    "133131.749000",
    "133133.750000",
    "133135.749000",
    "133137.749000",
    "133139.750000",
    "133141.748000",
    "133143.748000",
    "133145.749000",
    "133147.749000",
    "133149.749000",
    "133151.749000",
    "133153.749000",
    "133155.749000",
    "133157.749000",
    "133159.749000",
    "133201.748000",
    "133203.749000",
    "133205.750000",
    "133207.750000",
    "133209.750000",
    "133211.750000",
    "133213.749000",
    "133215.748000",
    "133217.749000",
    "133219.748000",
    "133221.750000",
    "133223.750000",
    "133225.750000",
    "133227.750000",
    "133229.750000",
    "133231.750000",
    "133233.749000",
    "133235.748000",
    "133237.748000",
    "133239.749000",
    "133241.750000",
    "133243.750000",
    "133245.750000",
    "133247.750000",
    "133249.749000",
    "133251.749000",
    "133253.749000",
    "133255.749000",
    "133257.749000",
    "133259.750000",
    "133301.750000",
    "133303.749000",
    "133305.749000",
    "133307.749000",
    "133309.749000",
    "133311.748000",
    "133313.749000",
    "133315.750000",
    "133317.749000",
    "133319.749000",
    "133321.750000",
    "133323.749000",
    "133325.749000",
    "133327.749000",
    "133329.748000",
    "133331.750000",
    "133333.750000",
    "133335.749000",
    "133337.749000",
    "133339.749000",
    "133341.749000",
    "133343.748000",
    "133345.748000",
    "133347.749000",
    "133349.750000",
    "133351.750000",
    "133353.749000",
    "133355.749000",
    "133357.750000",
    "133359.748000",
    "133401.749000",
    "133403.749000",
    "133405.749000",
    "133407.750000",
    "133409.749000",
    "133411.750000",
    "133413.750000",
    "133415.749000",
    "133417.748000",
    "133419.693000"
   ],
   "InstanceNumber": [
    1,
    2,
    3,
    4,
    5,
    6,
    7,
    8,
    9,
    10,
    11,
    12,
    13,
    14,
    15,
    16,
    17,
    18,
    19,
    20,
    21,
    22,
    23,
    24,
    25,
    26,
    27,
    28,
    29,
    30,
    31,
    32,
    33,
    34,
    35,
    36,
    37,
    38,
    39,
    40,
    41,
    42,
    43,
    44,
    45,
    46,
    47,
    48,
    49,
    50,
    51,
    52,
    53,
    54,
    55,
    56,
    57,
    58,
    59,
    60,
    61,
    62,
    63,
    64,
    65,
    66,
    67,
    68,
    69,
    70,
    71,
    72,
    73,
    74,
    75,
    76,
    77,
    78,
    79,
    80,
    81,
    82,
    83,
    84,
    85,
    86,
    87,
    88,
    89,
    90,
    91,
    92,
    93,
    94,
    95,
    96,
    97,
    98,
    99,
    100,
    101,
    102,
    103,
    104,
    105,
    106,
    107,
    108,
    109,
    110,
    111,
    112,
    113,
    114,
    115,
    116,
    117,
    118,
    119,
    120,
    121,
    122,
    123,
    124,
    125,
    126,
    127,
    128,
    129,
    130,
    131,
    132,
    133,
    134,
    135,
    136,
    137,
    138,
    139,
    140,
    141,
    142,
    143,
    144,
    145,
    146,
    147,
    148,
    149,
    150,
    151,
    152,
    153,
    154,
    155,
    156,
    157,
    158,
    159,
    160,
    161,
    162,
    163,
    164,
    165,
    166,
    167,
    168,
    169,
    170,
    171,
    172,
    173,
    174,
    175,
    176,
    177,
    178,
    179,
    180,
    181,
    182,
    183,
    184,
    185,
    186,
    187,
    188,
    189,
    190,
    191,
    192,
    193,
    194,
    195,
    196,
    197,
    198,
    199,
    200,
    201,
    202,
    203,
    204,
    205,
    206,
    207,
    208,
    209,
    210,
    211,
    212,
    213,
    214,
    215,
    216,
    217,
    218,
    219,
    220,
    221,
    222,
    223,
    224,
    225,
    226,
    227,
    228,
    229,
    230,
    231,
    232,
    233,
    234,
    235,
    236,
    237,
    238,
    239,
    240,
    241,
    242,
    243,
    244,
    245,
    246,
    247,
    248,
    249,
    250,
    251,
    252,
    253,
    254,
    255,
    256
   ],
   "LargestImagePixelValue": [
    4011,
    3928,
    3899,
    3869,
    3900,
    3880,
    3880,
    3889,
    3888,
    3889,
    3868,
    3908,
    3874,
    3888,
    3902,
    3862,
    3896,
    3913,
    3927,
    3914,
    3904,
    3899,
    3906,
    3918,
    3912,
    3919,
    3895,
    3911,
    3904,
    3922,
    3884,
    3892,
    3911,
    3922,
    3902,
    3906,
    3915,
    3891,
    3908,
    3886,
    3901,
    3902,
    3914,
    3899,
    3886,
    3908,
    3907,
    3902,
    3909,
    3922,
    3896,
    3893,
    3889,
    3900,
    3883,
    3901,
    3900,
    3897,
    3906,
    3894,
    3912,
    3904,
    3910,
    3889,
    3901,
    3900,
    3903,
    3931,
    3900,
    3898,
    3920,
    3896,
    3920,
    3901,
    3933,
    3924,
    3912,
    3901,
    3920,
    3915,
    3924,
    3898,
    3931,
    3922,
    3922,
    3928,
    3940,
    3909,
    3921,
    3913,
    3913,
    3921,
    3892,
    3919,
    3924,
    3918,
    3935,
    3891,
    3929,
    3905,
    3909,
    3903,
    3922,
    3899,
    3898,
    3912,
    3940,
    3965,
    3921,
    3892,
    3933,
    3918,
    3893,
    3904,
    3897,
    3932,
    3927,
    3895,
    3917,
    3907,
    3875,
    3908,
    3893,
    3926,
    3953,
    3946,
    3935,
    3933,
    3895,
    3918,
    3912,
    3903,
    3904,
    3901,
    3881,
    3930,
    3908,
    3915,
    3908,
    3898,
    3955,
    3938,
    3955,
    3951,
    3921,
    3929,
    3914,
    3922,
    3908,
    3916,
    3889,
    3940,
    3912,
    3921,
    3892,
    3903,
    3905,
    3878,
    3907,
    3910,
    3893,
    3886,
    3932,
    3926,
    3898,
    3930,
    3913,
    3932,
    3921,
    3924,
    3941,
    3965,
    3933,
    3917,
    3925,
    3928,
    3924,
    3925,
    3913,
    3899,
    3913,
    3941,
    3954,
    3915,
    3987,
    3958,
    3969,
    3921,
    3918,
    3945,
    3953,
    3938,
    3915,
    3908,
    3943,
    3939,
    3925,
    3903,
    3898,
    3914,
    3910,
    3984,
    3940,
    3945,
    3910,
    3911,
    3947,
    3951,
    3927,
    3934,
    3963,
    3952,
    3951,
    3961,
    4005,
    3977,
    3914,
    3891,
    3927,
    3945,
    3977,
    3987,
    3916,
    3893,
    3926,
    3927,
    3880,
    3958,
    3928,
    3940,
    3945,
    3930,
    3912,
    3912,
    3917,
    3935,
    3958,
    4013,
    3983,
    3950,
    3903,
    3968,
    4005,
    3945,
    3987,
    3947,
    3944,
    3919,
    3952,
    3980,
    3948,
    3971,
    3931,
    3899,
    3940,
    3961
   ],
   "WindowCenter": [
    810.0,
    809.0,
    808.0,
    808.0,
    808.0,
    808.0,
    808.0,
    808.0,
    808.0,
    808.0,
    808.0,
    809.0,
    808.0,
    807.0,
    808.0,
    808.0,
    808.0,
    808.0,
    809.0,
    809.0,
    807.0,
    806.0,
    807.0,
    808.0,
    809.0,
    809.0,
    809.0,
    810.0,
    809.0,
    808.0,
    808.0,
    808.0,
    807.0,
    808.0,
    809.0,
    809.0,
    809.0,
    808.0,
    808.0,
    808.0,
    809.0,
    809.0,
    809.0,
    809.0,
    808.0,
    808.0,
    809.0,
    809.0,
    808.0,
    808.0,
    808.0,
    808.0,
    808.0,
    808.0,
    808.0,
    808.0,
    807.0,
    807.0,
    808.0,
    808.0,
    809.0,
    810.0,
    809.0,
    807.0,
    807.0,
    807.0,
    807.0,
    807.0,
    806.0,
    806.0,
    807.0,
    808.0,
    808.0,
    808.0,
    808.0,
    807.0,
    807.0,
    807.0,
    808.0,
    808.0,
    807.0,
    808.0,
    809.0,
    810.0,
    808.0,
    809.0,
    808.0,
    809.0,
    809.0,
    810.0,
    809.0,
    809.0,
    809.0,
    810.0,
    810.0,
    810.0,
    811.0,
    810.0,
    811.0,
    812.0,
    809.0,
    808.0,
    808.0,
    808.0,
    809.0,
    810.0,
    812.0,
    812.0,
    811.0,
    809.0,
    808.0,
    808.0,
    809.0,
    809.0,
    810.0,
    810.0,
    809.0,
    808.0,
    809.0,
    808.0,
    808.0,
    808.0,
    810.0,
    811.0,
    810.0,
