{
 "AcquisitionMatrixPE": 100,
 "AcquisitionNumber": 1,
 "AcquisitionTime": "11:26:24.620000",
 "BandwidthPerPixelPhaseEncode": 18.519,
 "BaseResolution": 100,
 "BodyPartExamined": "BRAIN",
 "ConsistencyInfo": "N4_VE11C_LATEST_20160120",
 "ConversionSoftware": "dcm2niix",
 "ConversionSoftwareVersion": "v1.0.20180622 GCC4.9.2",
 "DerivedVendorReportedEchoSpacing": 0.000539986,
 "DeviceSerialNumber": "166078",
 "DwellTime": 2.1e-06,
 "EchoTime": 0.034,
 "EchoTrainLength": 100,
 "EffectiveEchoSpacing": 0.000539986,
 "FlipAngle": 90,
 "ImageOrientationPatientDICOM": [
  1,
  0,
  0,
  0,
  0.996637,
  -0.0819385
 ],
 "ImageType": [
  "ORIGINAL",
  "PRIMARY",
  "M",
  "ND",
  "MOSAIC"
 ],
 "InPlanePhaseEncodingDirectionDICOM": "COL",
 "InstitutionAddress": "Street_StreetNo_Bei_Jing_District_CN_ZIP",
 "InstitutionName": "BeiJing_Normal_University",
 "InstitutionalDepartmentName": "Department",
 "MRAcquisitionType": "2D",
 "MagneticFieldStrength": 3,
 "Manufacturer": "Siemens",
 "ManufacturersModelName": "Prisma",
 "Modality": "MR",
 "MultibandAccelerationFactor": 3,
 "PartialFourier": 1,
 "PatientPosition": "HFS",
 "PercentPhaseFOV": 100,
 "PhaseEncodingDirection": "j-",
 "PhaseEncodingSteps": 100,
 "PhaseResolution": 1,
 "PixelBandwidth": 2380,
 "ProcedureStepDescription": "BNU_P2018_64CH_Zhen.ZongLei",
 "ProtocolName": "bold_100x100_s3_2x2x2_cat_150",
 "PulseSequenceDetails": "%SiemensSeq%_ep2d_bold",
 "ReceiveCoilActiveElements": "HC1-7;NC1",
 "ReceiveCoilName": "HeadNeck_64",
 "ReconMatrixPE": 100,
 "RepetitionTime": 2,
 "SAR": 0.0713399,
 "ScanOptions": "FS",
 "ScanningSequence": "EP",
 "SequenceName": "_epfid2d1_100",
 "SequenceVariant": "SK",
 "SeriesDescription": "bold_100x100_s3_2x2x2_cat_150",
 "SeriesNumber": 8,
 "ShimSetting": [
  -5464,
  -11491,
  -1271,
  207,
  -67,
  -268,
  -229,
  29
 ],
 "SliceThickness": 2,
 "SliceTiming": [
  1.485,
  0,
  0.99,
  0.0825,
  1.0725,
  0.165,
  1.155,
  0.2475,
  1.2375,
  0.33,
  1.32,
  0.4125,
  1.4025,
  0.5775,
  1.5675,
  0.66,
  1.65,
  0.7425,
  1.7325,
  0.825,
  1.815,
  0.9075,
  1.8975,
  0.495,
  1.485,
  0,
  0.99,
  0.0825,
  1.0725,
  0.165,
  1.155,
  0.2475,
  1.2375,
  0.33,
  1.32,
  0.4125,
  1.4025,
  0.5775,
  1.5675,
  0.66,
  1.65,
  0.7425,
  1.7325,
  0.825,
  1.815,
  0.9075,
  1.8975,
  0.495,
  1.485,
  0,
  0.99,
  0.0825,
  1.0725,
  0.165,
  1.155,
  0.2475,
  1.2375,
  0.33,
  1.32,
  0.4125,
  1.4025,
  0.5775,
  1.5675,
  0.66,
  1.65,
  0.7425,
  1.7325,
  0.825,
  1.815,
  0.9075,
  1.8975,
  0.495
 ],
 "SoftwareVersions": "syngo_MR_E11",
 "SpacingBetweenSlices": 2,
 "StationName": "AWP166078",
 "TaskName": "floc",
 "TotalReadoutTime": 0.0534586,
 "TxRefAmp": 220.93,
 "dcmmeta_affine": [
  [
   -2.0,
   0.0,
   0.0,
   100.67469787597656
  ],
  [
   0.0,
   1.9932748079299927,
   -0.16387702524662018,
   -88.54198455810547
  ],
  [
   0.0,
   0.16387702524662018,
   1.9932748079299927,
   -80.93099212646484
  ],
  [
   0.0,
   0.0,
   0.0,
   1.0
  ]
 ],
 "dcmmeta_reorient_transform": [
  [
   0.0,
   -1.0,
   0.0,
   99.0
  ],
  [
   1.0,
   0.0,
   0.0,
   0.0
  ],
  [
   0.0,
   0.0,
   1.0,
   0.0
  ],
  [
   0.0,
   0.0,
   0.0,
   1.0
  ]
 ],
 "dcmmeta_shape": [
  100,
  100,
  72,
  150
 ],
 "dcmmeta_slice_dim": 2,
 "dcmmeta_version": 0.6,
 "global": {
  "const": {
   "AcquisitionMatrix": [
    100,
    0,
    0,
    100
   ],
   "AngioFlag": "N",
   "BitsAllocated": 16,
   "BitsStored": 12,
   "BodyPartExamined": "BRAIN",
   "Columns": 900,
   "EchoNumbers": 1,
   "EchoTime": 34.0,
   "EchoTrainLength": 100,
   "FlipAngle": 90.0,
   "HighBit": 11,
   "ImageOrientationPatient": [
    1.0,
    0.0,
    0.0,
    0.0,
    0.99663738671133,
    -0.0819385099279
   ],
   "ImagePositionPatient": [
    -900.67469877005,
    -906.10212513675,
    0.84364269976744
   ],
   "ImageType": [
    "ORIGINAL",
    "PRIMARY",
    "M",
    "ND",
    "MOSAIC"
   ],
   "ImagedNucleus": "1H",
   "ImagingFrequency": 123.257775,
   "InPlanePhaseEncodingDirection": "COL",
   "MRAcquisitionType": "2D",
   "MagneticFieldStrength": 3.0,
   "Manufacturer": "SIEMENS",
   "ManufacturerModelName": "Prisma",
   "Modality": "MR",
   "NumberOfAverages": 1.0,
   "NumberOfPhaseEncodingSteps": 100,
   "PercentPhaseFieldOfView": 100.0,
   "PercentSampling": 100.0,
   "PerformedProcedureStepStartTime": "105032.488000",
   "PhotometricInterpretation": "MONOCHROME2",
   "PixelBandwidth": 2380.0,
   "PixelRepresentation": 0,
   "PixelSpacing": [
    2.0,
    2.0
   ],
   "ProtocolName": "bold_100x100_s3_2x2x2_cat_150",
   "RepetitionTime": 2000.0,
   "Rows": 900,
   "SAR": 0.07133989196053,
   "SamplesPerPixel": 1,
   "ScanOptions": "FS",
   "ScanningSequence": "EP",
   "SequenceName": "*epfid2d1_100",
   "SequenceVariant": "SK",
   "SeriesDescription": "bold_100x100_s3_2x2x2_cat_150",
   "SeriesNumber": 8,
   "SeriesTime": "112626.856000",
   "SliceLocation": -73.403852120604,
   "SliceThickness": 2.0,
   "SmallestImagePixelValue": 0,
   "SoftwareVersions": "syngo MR E11",
   "SpacingBetweenSlices": 2.000000075446,
   "SpecificCharacterSet": "ISO_IR 100",
   "StudyID": "1",
   "StudyTime": "105032.385000",
   "TransmitCoilName": "Body",
   "VariableFlipAngleFlag": "N",
   "WindowCenterWidthExplanation": "Algo1",
   "dBdt": 0.0
  },
  "slices": {}
 },
 "time": {
  "samples": {
   "AcquisitionNumber": [
    1,
    2,
    3,
    4,
    5,
    6,
    7,
    8,
    9,
    10,
    11,
    12,
    13,
    14,
    15,
    16,
    17,
    18,
    19,
    20,
    21,
    22,
    23,
    24,
    25,
    26,
    27,
    28,
    29,
    30,
    31,
    32,
    33,
    34,
    35,
    36,
    37,
    38,
    39,
    40,
    41,
    42,
    43,
    44,
    45,
    46,
    47,
    48,
    49,
    50,
    51,
    52,
    53,
    54,
    55,
    56,
    57,
    58,
    59,
    60,
    61,
    62,
    63,
    64,
    65,
    66,
    67,
    68,
    69,
    70,
    71,
    72,
    73,
    74,
    75,
    76,
    77,
    78,
    79,
    80,
    81,
    82,
    83,
    84,
    85,
    86,
    87,
    88,
    89,
    90,
    91,
    92,
    93,
    94,
    95,
    96,
    97,
    98,
    99,
    100,
    101,
    102,
    103,
    104,
    105,
    106,
    107,
    108,
    109,
    110,
    111,
    112,
    113,
    114,
    115,
    116,
    117,
    118,
    119,
    120,
    121,
    122,
    123,
    124,
    125,
    126,
    127,
    128,
    129,
    130,
    131,
    132,
    133,
    134,
    135,
    136,
    137,
    138,
    139,
    140,
    141,
    142,
    143,
    144,
    145,
    146,
    147,
    148,
    149,
    150
   ],
   "AcquisitionTime": [
    "112624.620000",
    "112626.620000",
    "112628.620000",
    "112630.620000",
    "112632.620000",
    "112634.620000",
    "112636.620000",
    "112638.620000",
    "112640.620000",
    "112642.620000",
    "112644.620000",
    "112646.620000",
    "112648.620000",
    "112650.620000",
    "112652.620000",
    "112654.620000",
    "112656.620000",
    "112658.620000",
    "112700.620000",
    "112702.620000",
    "112704.620000",
    "112706.620000",
    "112708.620000",
    "112710.620000",
    "112712.620000",
    "112714.620000",
    "112716.620000",
    "112718.620000",
    "112720.620000",
    "112722.620000",
    "112724.620000",
    "112726.620000",
    "112728.620000",
    "112730.620000",
    "112732.620000",
    "112734.620000",
    "112736.620000",
    "112738.620000",
    "112740.620000",
    "112742.620000",
    "112744.620000",
    "112746.620000",
    "112748.620000",
    "112750.620000",
    "112752.620000",
    "112754.620000",
    "112756.620000",
    "112758.620000",
    "112800.620000",
    "112802.620000",
    "112804.620000",
    "112806.620000",
    "112808.620000",
    "112810.620000",
    "112812.620000",
    "112814.620000",
    "112816.620000",
    "112818.620000",
    "112820.620000",
    "112822.620000",
    "112824.620000",
    "112826.620000",
    "112828.620000",
    "112830.620000",
    "112832.620000",
    "112834.620000",
    "112836.620000",
    "112838.620000",
    "112840.620000",
    "112842.620000",
    "112844.620000",
    "112846.620000",
    "112848.620000",
    "112850.620000",
    "112852.620000",
    "112854.620000",
    "112856.620000",
    "112858.620000",
    "112900.620000",
    "112902.620000",
    "112904.620000",
    "112906.620000",
    "112908.620000",
    "112910.620000",
    "112912.620000",
    "112914.620000",
    "112916.620000",
    "112918.620000",
    "112920.620000",
    "112922.620000",
    "112924.620000",
    "112926.620000",
    "112928.620000",
    "112930.620000",
    "112932.620000",
    "112934.620000",
    "112936.620000",
    "112938.620000",
    "112940.620000",
    "112942.620000",
    "112944.620000",
    "112946.620000",
    "112948.620000",
    "112950.620000",
    "112952.620000",
    "112954.620000",
    "112956.620000",
    "112958.620000",
    "113000.620000",
    "113002.620000",
    "113004.620000",
    "113006.620000",
    "113008.620000",
    "113010.620000",
    "113012.620000",
    "113014.620000",
    "113016.620000",
    "113018.620000",
    "113020.620000",
    "113022.620000",
    "113024.620000",
    "113026.620000",
    "113028.620000",
    "113030.620000",
    "113032.620000",
    "113034.620000",
    "113036.620000",
    "113038.620000",
    "113040.620000",
    "113042.620000",
    "113044.620000",
    "113046.620000",
    "113048.620000",
    "113050.620000",
    "113052.620000",
    "113054.620000",
    "113056.620000",
    "113058.620000",
    "113100.620000",
    "113102.620000",
    "113104.620000",
    "113106.620000",
    "113108.620000",
    "113110.620000",
    "113112.620000",
    "113114.620000",
    "113116.620000",
    "113118.620000",
    "113120.620000",
    "113122.620000"
   ],
   "ContentTime": [
    "112626.860000",
    "112628.355000",
    "112630.356000",
    "112632.355000",
    "112634.356000",
    "112636.356000",
    "112638.357000",
    "112640.356000",
    "112642.356000",
    "112644.355000",
    "112646.356000",
    "112648.355000",
    "112650.355000",
    "112652.355000",
    "112654.357000",
    "112656.356000",
    "112658.357000",
    "112700.356000",
    "112702.355000",
    "112704.355000",
    "112706.356000",
    "112708.355000",
    "112710.355000",
    "112712.356000",
    "112714.357000",
    "112716.357000",
    "112718.356000",
    "112720.355000",
    "112722.356000",
    "112724.355000",
    "112726.356000",
    "112728.356000",
    "112730.356000",
    "112732.356000",
    "112734.356000",
    "112736.355000",
    "112738.356000",
    "112740.356000",
    "112742.355000",
    "112744.356000",
    "112746.355000",
    "112748.357000",
    "112750.356000",
    "112752.356000",
    "112754.356000",
    "112756.355000",
    "112758.355000",
    "112800.356000",
    "112802.355000",
    "112804.356000",
    "112806.357000",
    "112808.357000",
    "112810.357000",
    "112812.356000",
    "112814.355000",
    "112816.356000",
    "112818.356000",
    "112820.355000",
    "112822.357000",
    "112824.357000",
    "112826.356000",
    "112828.356000",
    "112830.356000",
    "112832.356000",
    "112834.356000",
    "112836.356000",
    "112838.355000",
    "112840.356000",
    "112842.356000",
    "112844.356000",
    "112846.355000",
    "112848.356000",
    "112850.356000",
    "112852.355000",
    "112854.355000",
    "112856.355000",
    "112858.357000",
    "112900.356000",
    "112902.356000",
    "112904.356000",
    "112906.356000",
    "112908.356000",
    "112910.356000",
    "112912.356000",
    "112914.357000",
    "112916.357000",
    "112918.356000",
    "112920.356000",
    "112922.356000",
    "112924.355000",
    "112926.356000",
    "112928.356000",
    "112930.356000",
    "112932.357000",
    "112934.356000",
    "112936.356000",
    "112938.357000",
    "112940.355000",
    "112942.355000",
    "112944.356000",
    "112946.356000",
    "112948.356000",
    "112950.357000",
    "112952.356000",
    "112954.356000",
    "112956.355000",
    "112958.356000",
    "113000.355000",
    "113002.355000",
    "113004.355000",
    "113006.356000",
    "113008.358000",
    "113010.357000",
    "113012.357000",
    "113014.355000",
    "113016.356000",
    "113018.355000",
    "113020.355000",
    "113022.355000",
    "113024.356000",
    "113026.357000",
    "113028.357000",
    "113030.357000",
    "113032.356000",
    "113034.356000",
    "113036.356000",
    "113038.356000",
    "113040.356000",
    "113042.357000",
    "113044.357000",
    "113046.357000",
    "113048.357000",
    "113050.356000",
    "113052.355000",
    "113054.356000",
    "113056.356000",
    "113058.356000",
    "113100.357000",
    "113102.357000",
    "113104.356000",
    "113106.356000",
    "113108.356000",
    "113110.356000",
    "113112.356000",
    "113114.356000",
    "113116.356000",
    "113118.357000",
    "113120.357000",
    "113122.357000",
    "113123.995000"
   ],
   "InstanceCreationTime": [
    "112626.860000",
    "112628.355000",
    "112630.356000",
    "112632.355000",
    "112634.356000",
    "112636.356000",
    "112638.357000",
    "112640.356000",
    "112642.356000",
    "112644.355000",
    "112646.356000",
    "112648.355000",
    "112650.355000",
    "112652.355000",
    "112654.357000",
    "112656.356000",
    "112658.357000",
    "112700.356000",
    "112702.355000",
    "112704.355000",
    "112706.356000",
    "112708.355000",
    "112710.355000",
    "112712.356000",
    "112714.357000",
    "112716.357000",
    "112718.356000",
    "112720.355000",
    "112722.356000",
    "112724.355000",
    "112726.356000",
    "112728.356000",
    "112730.356000",
    "112732.356000",
    "112734.356000",
    "112736.355000",
    "112738.356000",
    "112740.356000",
    "112742.355000",
    "112744.356000",
    "112746.355000",
    "112748.357000",
    "112750.356000",
    "112752.356000",
    "112754.356000",
    "112756.355000",
    "112758.355000",
    "112800.356000",
    "112802.355000",
    "112804.356000",
    "112806.357000",
    "112808.357000",
    "112810.357000",
    "112812.356000",
    "112814.355000",
    "112816.356000",
    "112818.356000",
    "112820.355000",
    "112822.357000",
    "112824.357000",
    "112826.356000",
    "112828.356000",
    "112830.356000",
    "112832.356000",
    "112834.356000",
    "112836.356000",
    "112838.355000",
    "112840.356000",
    "112842.356000",
    "112844.356000",
    "112846.355000",
    "112848.356000",
    "112850.356000",
    "112852.355000",
    "112854.355000",
    "112856.355000",
    "112858.357000",
    "112900.356000",
    "112902.356000",
    "112904.356000",
    "112906.356000",
    "112908.356000",
    "112910.356000",
    "112912.356000",
    "112914.357000",
    "112916.357000",
    "112918.356000",
    "112920.356000",
    "112922.356000",
    "112924.355000",
    "112926.356000",
    "112928.356000",
    "112930.356000",
    "112932.357000",
    "112934.356000",
    "112936.356000",
    "112938.357000",
    "112940.355000",
    "112942.355000",
    "112944.356000",
    "112946.356000",
    "112948.356000",
    "112950.357000",
    "112952.356000",
    "112954.356000",
    "112956.355000",
    "112958.356000",
    "113000.355000",
    "113002.355000",
    "113004.355000",
    "113006.356000",
    "113008.358000",
    "113010.357000",
    "113012.357000",
    "113014.355000",
    "113016.356000",
    "113018.355000",
    "113020.355000",
    "113022.355000",
    "113024.356000",
    "113026.357000",
    "113028.357000",
    "113030.357000",
    "113032.356000",
    "113034.356000",
    "113036.356000",
    "113038.356000",
    "113040.356000",
    "113042.357000",
    "113044.357000",
    "113046.357000",
    "113048.357000",
    "113050.356000",
    "113052.355000",
    "113054.356000",
    "113056.356000",
    "113058.356000",
    "113100.357000",
    "113102.357000",
    "113104.356000",
    "113106.356000",
    "113108.356000",
    "113110.356000",
    "113112.356000",
    "113114.356000",
    "113116.356000",
    "113118.357000",
    "113120.357000",
    "113122.357000",
    "113123.995000"
   ],
   "InstanceNumber": [
    1,
    2,
    3,
    4,
    5,
    6,
    7,
    8,
    9,
    10,
    11,
    12,
    13,
    14,
    15,
    16,
    17,
    18,
    19,
    20,
    21,
    22,
    23,
    24,
    25,
    26,
    27,
    28,
    29,
    30,
    31,
    32,
    33,
    34,
    35,
    36,
    37,
    38,
    39,
    40,
    41,
    42,
    43,
    44,
    45,
    46,
    47,
    48,
    49,
    50,
    51,
    52,
    53,
    54,
    55,
    56,
    57,
    58,
    59,
    60,
    61,
    62,
    63,
    64,
    65,
    66,
    67,
    68,
    69,
    70,
    71,
    72,
    73,
    74,
    75,
    76,
    77,
    78,
    79,
    80,
    81,
    82,
    83,
    84,
    85,
    86,
    87,
    88,
    89,
    90,
    91,
    92,
    93,
    94,
    95,
    96,
    97,
    98,
    99,
    100,
    101,
    102,
    103,
    104,
    105,
    106,
    107,
    108,
    109,
    110,
    111,
    112,
    113,
    114,
    115,
    116,
    117,
    118,
    119,
    120,
    121,
    122,
    123,
    124,
    125,
    126,
    127,
    128,
    129,
    130,
    131,
    132,
    133,
    134,
    135,
    136,
    137,
    138,
    139,
    140,
    141,
    142,
    143,
    144,
    145,
    146,
    147,
    148,
    149,
    150
   ],
   "LargestImagePixelValue": [
    4095,
    3979,
    4021,
    3933,
    3908,
    3909,
    3969,
    4058,
    4009,
    4088,
    4087,
    4088,
    4095,
    4095,
    4095,
    4095,
    4095,
    4095,
    4095,
    4095,
    4052,
    4095,
    4095,
    4093,
    4095,
    4055,
    4083,
    4058,
    4014,
    4000,
    4008,
    4068,
    4020,
    4033,
    4013,
    4057,
    4043,
    4086,
    4086,
    4040,
    4068,
    4095,
    4064,
    4060,
    4033,
    4029,
    4072,
    4039,
    4087,
    4088,
    4095,
    4080,
    4095,
    4054,
    4061,
    4079,
    4070,
    4061,
    4021,
    4092,
    4036,
    4083,
    4046,
    4018,
    4064,
    4048,
    4087,
    4049,
    3994,
    4095,
    4061,
    4041,
    4024,
    4084,
    4006,
    4060,
    4021,
    4010,
    3997,
    3998,
    4055,
    4011,
    4040,
    4011,
    4048,
    4047,
    4038,
    4033,
    4019,
    4041,
    3995,
    4037,
    4010,
    3971,
    3983,
    3985,
    3958,
    3954,
    3947,
    3956,
    3959,
    3961,
    3978,
    3974,
    3981,
    3947,
    3940,
    3938,
    3970,
    3969,
    4061,
    3958,
    3970,
    3958,
    3974,
    3929,
    3951,
    3972,
    3973,
    3952,
    4095,
    4012,
    3950,
    3943,
    3960,
    4013,
    3943,
    3972,
    3959,
    3974,
    3953,
    4040,
    3973,
    4066,
    3950,
    4070,
    3950,
    3951,
    3943,
    3969,
    4020,
    3941,
    3979,
    3987,
    3959,
    4060,
    4000,
    4069,
    4004,
    4057
   ],
   "WindowCenter": [
    840.0,
    839.0,
    839.0,
    840.0,
    838.0,
    838.0,
    837.0,
    838.0,
    837.0,
    838.0,
    837.0,
    837.0,
    835.0,
    835.0,
    834.0,
    835.0,
    835.0,
    834.0,
    833.0,
    832.0,
    833.0,
    832.0,
    833.0,
    833.0,
    833.0,
    832.0,
    831.0,
    832.0,
    831.0,
    832.0,
    832.0,
    832.0,
    832.0,
    832.0,
    833.0,
    834.0,
    834.0,
    835.0,
    835.0,
    836.0,
    836.0,
    836.0,
    835.0,
    834.0,
    834.0,
    833.0,
    833.0,
    833.0,
    833.0,
    833.0,
    833.0,
    833.0,
    832.0,
    832.0,
    833.0,
    833.0,
    834.0,
    834.0,
    835.0,
    835.0,
    835.0,
    834.0,
    833.0,
    832.0,
    833.0,
    835.0,
    835.0,
    834.0,
    834.0,
    834.0,
    834.0,
    835.0,
    835.0,
    834.0,
    832.0,
    831.0,
    831.0,
    831.0,
    831.0,
    833.0,
    834.0,
    836.0,
    835.0,
    834.0,
    834.0,
    833.0,
    834.0,
    835.0,
    836.0,
    835.0,
    834.0,
    833.0,
    835.0,
    835.0,
    835.0,
    834.0,
    832.0,
    833.0,
    834.0,
    835.0,
    835.0,
    835.0,
    834.0,
    833.0,
    832.0,
    832.0,
    833.0,
    833.0,
    832.0,
    831.0,
    833.0,
    833.0,
    834.0,
    834.0,
    835.0,
    835.0,
    835.0,
    834.0,
    833.0,
    833.0,
    833.0,
    833.0,
    833.0,
    833.0,
    832.0,
    833.0,
    832.0,
    833.0,
    834.0,
    834.0,
    834.0,
    833.0,
    833.0,
    835.0,
    835.0,
    836.0,
    835.0,
    835.0,
    837.0,
    836.0,
    836.0,
    834.0,
    834.0,
    834.0,
    834.0,
    835.0,
    834.0,
    833.0,
    834.0,
    834.0
   ],
   "WindowWidth": [
    1844.0,
    1838.0,
    1838.0,
    1840.0,
    1837.0,
    1835.0,
    1834.0,
    1836.0,
    1834.0,
    1838.0,
    1835.0,
    1834.0,
    1830.0,
    1830.0,
    1828.0,
    1830.0,
    1828.0,
    1826.0,
    1826.0,
    1823.0,
    1824.0,
    1823.0,
    1825.0,
    1824.0,
    1823.0,
    1820.0,
    1820.0,
    1821.0,
    1819.0,
    1820.0,
    1821.0,
    1820.0,
    1821.0,
    1821.0,
    1824.0,
    1828.0,
    1828.0,
    1830.0,
    1828.0,
    1832.0,
    1833.0,
    1832.0,
    1830.0,
    1826.0,
    1825.0,
    1825.0,
    1824.0,
    1824.0,
    1824.0,
    1824.0,
    1823.0,
    1823.0,
    1823.0,
    1822.0,
    1823.0,
    1824.0,
    1827.0,
    1827.0,
    1828.0,
    1829.0,
    1828.0,
    1826.0,
    1823.0,
    1821.0,
    1825.0,
    1830.0,
    1829.0,
    1827.0,
    1825.0,
    1827.0,
    1828.0,
    1830.0,
    1830.0,
    1826.0,
    1821.0,
    1819.0,
    1817.0,
    1817.0,
    1819.0,
    1822.0,
    1826.0,
    1830.0,
    1829.0,
    1827.0,
    1824.0,
    1824.0,
    1825.0,
    1828.0,
    1831.0,
    1827.0,
    1825.0,
    1824.0,
    1828.0,
    1830.0,
    1828.0,
    1825.0,
    1821.0,
    1822.0,
    1825.0,
    1829.0,
    1830.0,
    1828.0,
    1826.0,
    1823.0,
    1820.0,
    1819.0,
    1822.0,
    1822.0,
    1821.0,
    1818.0,
    1823.0,
    1823.0,
    1825.0,
    1826.0,
    1828.0,
    1828.0,
    1828.0,
    1825.0,
    1824.0,
    1821.0,
    1823.0,
    1822.0,
    1822.0,
    1823.0,
    1821.0,
    1822.0,
    1820.0,
    1823.0,
    1824.0,
    1825.0,
    1825.0,
    1824.0,
    1823.0,
    1827.0,
    1826.0,
    1830.0,
    1828.0,
    1828.0,
    1833.0,
    1831.0,
    1830.0,
    1826.0,
    1824.0,
    1826.0,
    1825.0,
    1828.0,
    1824.0,
    1824.0,
    1825.0,
    1826.0
   ]
  },
  "slices": {}
 }
}