{
  "AcquisitionMatrixPE": 100,
  "AcquisitionNumber": 1,
  "AcquisitionTime": "14:58:59.067500",
  "BandwidthPerPixelPhaseEncode": 18.519,
  "BaseResolution": 100,
  "BodyPartExamined": "BRAIN",
  "ConsistencyInfo": "N4_VE11C_LATEST_20160120",
  "ConversionSoftware": "dcm2niix",
  "ConversionSoftwareVersion": "v1.0.20180622 GCC4.9.2",
  "DerivedVendorReportedEchoSpacing": 0.000539986,
  "DeviceSerialNumber": "166078",
  "DwellTime": 2.1e-06,
  "EchoTime": 0.034,
  "EchoTrainLength": 100,
  "EffectiveEchoSpacing": 0.000539986,
  "FlipAngle": 90,
  "ImageOrientationPatientDICOM": [1, -7.88483e-05, -0.00047179, -5.20551e-08, 0.986302, -0.164947],
  "ImageType": [
    "ORIGINAL",
    "PRIMARY",
    "M",
    "ND",
    "MOSAIC"
],
  "InPlanePhaseEncodingDirectionDICOM": "COL",
  "InstitutionAddress": "Street_StreetNo_Bei_Jing_District_CN_ZIP",
  "InstitutionName": "BeiJing_Normal_University",
  "InstitutionalDepartmentName": "Department",
  "MRAcquisitionType": "2D",
  "MagneticFieldStrength": 3,
  "Manufacturer": "Siemens",
  "ManufacturersModelName": "Prisma",
  "Modality": "MR",
  "MultibandAccelerationFactor": 3,
  "PartialFourier": 1,
  "PatientPosition": "HFS",
  "PercentPhaseFOV": 100,
  "PhaseEncodingDirection": "j-",
  "PhaseEncodingSteps": 100,
  "PhaseResolution": 1,
  "PixelBandwidth": 2380,
  "ProcedureStepDescription": "BNU_P2018_64CH_Zhen.ZongLei",
  "ProtocolName": "bold_100x100_s3_2x2x2_cat_150",
  "PulseSequenceDetails": "%SiemensSeq%_ep2d_bold",
  "ReceiveCoilActiveElements": "HC1-7;NC1",
  "ReceiveCoilName": "HeadNeck_64",
  "ReconMatrixPE": 100,
  "RepetitionTime": 2,
  "SAR": 0.0657738,
  "ScanOptions": "FS",
  "ScanningSequence": "EP",
  "SequenceName": "_epfid2d1_100",
  "SequenceVariant": "SK",
  "SeriesDescription": "bold_100x100_s3_2x2x2_cat_150",
  "SeriesNumber": 17,
  "ShimSetting": [-5461, -11491, -1259, 273, -89, -184, -187, 30],
  "SliceThickness": 2,
  "SliceTiming": [1.485, 0, 0.99, 0.0825, 1.0725, 0.165, 1.155, 0.2475, 1.2375, 0.33, 1.32, 0.4125, 1.4025, 0.5775, 1.5675, 0.66, 1.65, 0.7425, 1.7325, 0.825, 1.815, 0.9075, 1.8975, 0.495, 1.485, 0, 0.99, 0.0825, 1.0725, 0.165, 1.155, 0.2475, 1.2375, 0.33, 1.32, 0.4125, 1.4025, 0.5775, 1.5675, 0.66, 1.65, 0.7425, 1.7325, 0.825, 1.815, 0.9075, 1.8975, 0.495, 1.485, 0, 0.99, 0.0825, 1.0725, 0.165, 1.155, 0.2475, 1.2375, 0.33, 1.32, 0.4125, 1.4025, 0.5775, 1.5675, 0.66, 1.65, 0.7425, 1.7325, 0.825, 1.815, 0.9075, 1.8975, 0.495],
  "SoftwareVersions": "syngo_MR_E11",
  "SpacingBetweenSlices": 2,
  "StationName": "AWP166078",
  "TaskName": "category",
  "TotalReadoutTime": 0.0534586,
  "TxRefAmp": 216.643,
  "dcmmeta_affine": [
    [-1.999999761581421, -1.0411029904844327e-07, -0.000956666306592524, 99.7325668334961],
    [0.00015769663150422275, 1.9726048707962036, -0.32989412546157837, -78.03262329101562],
    [-0.0009435794781893492, 0.32989415526390076, 1.9726046323776245, -94.775634765625],
    [0.0, 0.0, 0.0, 1.0]
],
  "dcmmeta_reorient_transform": [
    [0.0, -1.0, 0.0, 99.0],
    [1.0, 0.0, 0.0, 0.0],
    [0.0, 0.0, 1.0, 0.0],
    [0.0, 0.0, 0.0, 1.0]
],
  "dcmmeta_shape": [100, 100, 72, 150],
  "dcmmeta_slice_dim": 2,
  "dcmmeta_version": 0.6,
  "global": {
    "const": {
      "AcquisitionMatrix": [100, 0, 0, 100],
      "AngioFlag": "N",
      "BitsAllocated": 16,
      "BitsStored": 12,
      "BodyPartExamined": "BRAIN",
      "Columns": 900,
      "EchoNumbers": 1,
      "EchoTime": 34.0,
      "EchoTrainLength": 100,
      "FlipAngle": 90.0,
      "HighBit": 11,
      "ImageOrientationPatient": [0.99999988559869, -7.88483171e-05, -0.0004717897347, -5.2055148e-08, 0.98630241787436, -0.1649470839245],
      "ImagePositionPatient": [-899.73242691705, -906.2341109322, 70.218989161917],
      "ImageType": [
        "ORIGINAL",
        "PRIMARY",
        "M",
        "ND",
        "MOSAIC"
],
      "ImagedNucleus": "1H",
      "ImagingFrequency": 123.257789,
      "InPlanePhaseEncodingDirection": "COL",
      "MRAcquisitionType": "2D",
      "MagneticFieldStrength": 3.0,
      "Manufacturer": "SIEMENS",
      "ManufacturerModelName": "Prisma",
      "Modality": "MR",
      "NumberOfAverages": 1.0,
      "NumberOfPhaseEncodingSteps": 100,
      "PercentPhaseFieldOfView": 100.0,
      "PercentSampling": 100.0,
      "PerformedProcedureStepStartTime": "130212.680000",
      "PhotometricInterpretation": "MONOCHROME2",
      "PixelBandwidth": 2380.0,
      "PixelRepresentation": 0,
      "PixelSpacing": [2.0, 2.0],
      "ProtocolName": "bold_100x100_s3_2x2x2_cat_150",
      "RepetitionTime": 2000.0,
      "Rows": 900,
      "SAR": 0.06577380045031,
      "SamplesPerPixel": 1,
      "ScanOptions": "FS",
      "ScanningSequence": "EP",
      "SequenceName": "*epfid2d1_100",
      "SequenceVariant": "SK",
      "SeriesDescription": "bold_100x100_s3_2x2x2_cat_150",
      "SeriesNumber": 17,
      "SeriesTime": "145901.441000",
      "SliceLocation": -80.653877856303,
      "SliceThickness": 2.0,
      "SmallestImagePixelValue": 0,
      "SoftwareVersions": "syngo MR E11",
      "SpacingBetweenSlices": 2.0000000086767,
      "SpecificCharacterSet": "ISO_IR 100",
      "StudyID": "1",
      "StudyTime": "130212.611000",
      "TransmitCoilName": "Body",
      "VariableFlipAngleFlag": "N",
      "WindowCenterWidthExplanation": "Algo1",
      "dBdt": 0.0},
    "slices": {}
  },
  "time": {
    "samples": {
      "AcquisitionNumber": [1, 2, 3, 4, 5, 6, 7, 8, 9, 10, 11, 12, 13, 14, 15, 16, 17, 18, 19, 20, 21, 22, 23, 24, 25, 26, 27, 28, 29, 30, 31, 32, 33, 34, 35, 36, 37, 38, 39, 40, 41, 42, 43, 44, 45, 46, 47, 48, 49, 50, 51, 52, 53, 54, 55, 56, 57, 58, 59, 60, 61, 62, 63, 64, 65, 66, 67, 68, 69, 70, 71, 72, 73, 74, 75, 76, 77, 78, 79, 80, 81, 82, 83, 84, 85, 86, 87, 88, 89, 90, 91, 92, 93, 94, 95, 96, 97, 98, 99, 100, 101, 102, 103, 104, 105, 106, 107, 108, 109, 110, 111, 112, 113, 114, 115, 116, 117, 118, 119, 120, 121, 122, 123, 124, 125, 126, 127, 128, 129, 130, 131, 132, 133, 134, 135, 136, 137, 138, 139, 140, 141, 142, 143, 144, 145, 146, 147, 148, 149, 150],
      "AcquisitionTime": ["145859.067500", "145901.067500", "145903.067500", "145905.067500", "145907.067500", "145909.067500", "145911.067500", "145913.067500", "145915.067500", "145917.067500", "145919.067500", "145921.067500", "145923.067500", "145925.067500", "145927.067500", "145929.067500", "145931.067500", "145933.067500", "145935.067500", "145937.067500", "145939.067500", "145941.067500", "145943.067500", "145945.067500", "145947.067500", "145949.067500", "145951.067500", "145953.067500", "145955.067500", "145957.067500", "145959.067500", "150001.067500", "150003.067500", "150005.067500", "150007.067500", "150009.067500", "150011.067500", "150013.067500", "150015.067500", "150017.067500", "150019.067500", "150021.067500", "150023.067500", "150025.067500", "150027.067500", "150029.067500", "150031.067500", "150033.067500", "150035.067500", "150037.067500", "150039.067500", "150041.067500", "150043.067500", "150045.067500", "150047.067500", "150049.067500", "150051.067500", "150053.067500", "150055.067500", "150057.067500", "150059.067500", "150101.067500", "150103.067500", "150105.067500", "150107.067500", "150109.067500", "150111.067500", "150113.067500", "150115.067500", "150117.067500", "150119.067500", "150121.067500", "150123.067500", "150125.067500", "150127.067500", "150129.067500", "150131.067500", "150133.067500", "150135.067500", "150137.067500", "150139.067500", "150141.067500", "150143.067500", "150145.067500", "150147.067500", "150149.067500", "150151.067500", "150153.067500", "150155.067500", "150157.067500", "150159.067500", "150201.067500", "150203.067500", "150205.067500", "150207.067500", "150209.067500", "150211.067500", "150213.067500", "150215.067500", "150217.067500", "150219.067500", "150221.067500", "150223.067500", "150225.067500", "150227.067500", "150229.067500", "150231.067500", "150233.067500", "150235.067500", "150237.067500", "150239.067500", "150241.067500", "150243.067500", "150245.067500", "150247.067500", "150249.067500", "150251.067500", "150253.067500", "150255.067500", "150257.067500", "150259.067500", "150301.067500", "150303.067500", "150305.067500", "150307.067500", "150309.067500", "150311.067500", "150313.067500", "150315.067500", "150317.067500", "150319.067500", "150321.067500", "150323.067500", "150325.067500", "150327.067500", "150329.067500", "150331.067500", "150333.067500", "150335.067500", "150337.067500", "150339.067500", "150341.067500", "150343.067500", "150345.067500", "150347.067500", "150349.067500", "150351.067500", "150353.067500", "150355.067500", "150357.067500"],
      "ContentTime": ["145901.445000", "145903.440000", "145905.439000", "145907.439000", "145909.440000", "145911.440000", "145913.440000", "145915.439000", "145917.440000", "145919.440000", "145921.440000", "145923.440000", "145925.439000", "145927.440000", "145929.439000", "145931.439000", "145933.440000", "145935.441000", "145937.440000", "145939.439000", "145941.439000", "145943.439000", "145945.440000", "145947.439000", "145949.439000", "145951.441000", "145953.440000", "145955.440000", "145957.439000", "145959.439000", "150001.440000", "150003.440000", "150005.440000", "150007.439000", "150009.440000", "150011.440000", "150013.440000", "150015.440000", "150017.440000", "150019.440000", "150021.439000", "150023.439000", "150025.439000", "150027.440000", "150029.441000", "150031.439000", "150033.439000", "150035.440000", "150037.440000", "150039.439000", "150041.439000", "150043.441000", "150045.440000", "150047.440000", "150049.440000", "150051.439000", "150053.439000", "150055.439000", "150057.439000", "150059.439000", "150101.441000", "150103.440000", "150105.441000", "150107.439000", "150109.439000", "150111.439000", "150113.440000", "150115.440000", "150117.439000", "150119.441000", "150121.441000", "150123.441000", "150125.439000", "150127.440000", "150129.439000", "150131.440000", "150133.440000", "150135.439000", "150137.441000", "150139.441000", "150141.439000", "150143.439000", "150145.439000", "150147.439000", "150149.439000", "150151.439000", "150153.441000", "150155.440000", "150157.441000", "150159.439000", "150201.439000", "150203.440000", "150205.439000", "150207.439000", "150209.440000", "150211.440000", "150213.441000", "150215.440000", "150217.439000", "150219.439000", "150221.439000", "150223.440000", "150225.439000", "150227.439000", "150229.440000", "150231.441000", "150233.441000", "150235.440000", "150237.440000", "150239.439000", "150241.439000", "150243.439000", "150245.440000", "150247.441000", "150249.440000", "150251.440000", "150253.440000", "150255.439000", "150257.439000", "150259.440000", "150301.440000", "150303.441000", "150305.441000", "150307.440000", "150309.440000", "150311.439000", "150313.440000", "150315.440000", "150317.440000", "150319.439000", "150321.440000", "150323.440000", "150325.441000", "150327.440000", "150329.440000", "150331.440000", "150333.439000", "150335.439000", "150337.439000", "150339.440000", "150341.441000", "150343.440000", "150345.439000", "150347.439000", "150349.440000", "150351.439000", "150353.440000", "150355.440000", "150357.440000", "150358.994000"],
      "InstanceCreationTime": ["145901.445000", "145903.440000", "145905.439000", "145907.439000", "145909.440000", "145911.440000", "145913.440000", "145915.439000", "145917.440000", "145919.440000", "145921.440000", "145923.440000", "145925.439000", "145927.440000", "145929.439000", "145931.439000", "145933.440000", "145935.441000", "145937.440000", "145939.439000", "145941.439000", "145943.439000", "145945.440000", "145947.439000", "145949.439000", "145951.441000", "145953.440000", "145955.440000", "145957.439000", "145959.439000", "150001.440000", "150003.440000", "150005.440000", "150007.439000", "150009.440000", "150011.440000", "150013.440000", "150015.440000", "150017.440000", "150019.440000", "150021.439000", "150023.439000", "150025.439000", "150027.440000", "150029.441000", "150031.439000", "150033.439000", "150035.440000", "150037.440000", "150039.439000", "150041.439000", "150043.441000", "150045.440000", "150047.440000", "150049.440000", "150051.439000", "150053.439000", "150055.439000", "150057.439000", "150059.439000", "150101.441000", "150103.440000", "150105.441000", "150107.439000", "150109.439000", "150111.439000", "150113.440000", "150115.440000", "150117.439000", "150119.441000", "150121.441000", "150123.441000", "150125.439000", "150127.440000", "150129.439000", "150131.440000", "150133.440000", "150135.439000", "150137.441000", "150139.441000", "150141.439000", "150143.439000", "150145.439000", "150147.439000", "150149.439000", "150151.439000", "150153.441000", "150155.440000", "150157.441000", "150159.439000", "150201.439000", "150203.440000", "150205.439000", "150207.439000", "150209.440000", "150211.440000", "150213.441000", "150215.440000", "150217.439000", "150219.439000", "150221.439000", "150223.440000", "150225.439000", "150227.439000", "150229.440000", "150231.441000", "150233.441000", "150235.440000", "150237.440000", "150239.439000", "150241.439000", "150243.439000", "150245.440000", "150247.441000", "150249.440000", "150251.440000", "150253.440000", "150255.439000", "150257.439000", "150259.440000", "150301.440000", "150303.441000", "150305.441000", "150307.440000", "150309.440000", "150311.439000", "150313.440000", "150315.440000", "150317.440000", "150319.439000", "150321.440000", "150323.440000", "150325.441000", "150327.440000", "150329.440000", "150331.440000", "150333.439000", "150335.439000", "150337.439000", "150339.440000", "150341.441000", "150343.440000", "150345.439000", "150347.439000", "150349.440000", "150351.439000", "150353.440000", "150355.440000", "150357.440000", "150358.994000"],
      "InstanceNumber": [1, 2, 3, 4, 5, 6, 7, 8, 9, 10, 11, 12, 13, 14, 15, 16, 17, 18, 19, 20, 21, 22, 23, 24, 25, 26, 27, 28, 29, 30, 31, 32, 33, 34, 35, 36, 37, 38, 39, 40, 41, 42, 43, 44, 45, 46, 47, 48, 49, 50, 51, 52, 53, 54, 55, 56, 57, 58, 59, 60, 61, 62, 63, 64, 65, 66, 67, 68, 69, 70, 71, 72, 73, 74, 75, 76, 77, 78, 79, 80, 81, 82, 83, 84, 85, 86, 87, 88, 89, 90, 91, 92, 93, 94, 95, 96, 97, 98, 99, 100, 101, 102, 103, 104, 105, 106, 107, 108, 109, 110, 111, 112, 113, 114, 115, 116, 117, 118, 119, 120, 121, 122, 123, 124, 125, 126, 127, 128, 129, 130, 131, 132, 133, 134, 135, 136, 137, 138, 139, 140, 141, 142, 143, 144, 145, 146, 147, 148, 149, 150],
      "LargestImagePixelValue": [3255, 3238, 3269, 3259, 3234, 3208, 3195, 3200, 3202, 3189, 3199, 3204, 3210, 3207, 3211, 3210, 3213, 3201, 3232, 3219, 3204, 3216, 3204, 3207, 3199, 3229, 3218, 3218, 3228, 3204, 3217, 3246, 3247, 3238, 3257, 3239, 3209, 3235, 3267, 3253, 3291, 3272, 3278, 3277, 3263, 3272, 3277, 3282, 3280, 3275, 3261, 3263, 3221, 3249, 3230, 3208, 3213, 3229, 3244, 3207, 3228, 3259, 3217, 3218, 3224, 3253, 3219, 3243, 3240, 3260, 3263, 3226, 3229, 3246, 3232, 3262, 3215, 3243, 3242, 3226, 3258, 3243, 3225, 3238, 3184, 3204, 3237, 3207, 3211, 3263, 3201, 3209, 3182, 3195, 3180, 3204, 3241, 3229, 3228, 3228, 3251, 3259, 3246, 3235, 3234, 3219, 3237, 3270, 3256, 3290, 3259, 3249, 3238, 3243, 3231, 3237, 3222, 3225, 3212, 3237, 3237, 3228, 3247, 3189, 3222, 3224, 3239, 3248, 3258, 3225, 3224, 3222, 3238, 3243, 3224, 3237, 3225, 3237, 3254, 3250, 3235, 3240, 3235, 3230, 3212, 3232, 3237, 3229, 3204, 3235],
      "WindowCenter": [786.0, 785.0, 785.0, 784.0, 786.0, 786.0, 786.0, 785.0, 786.0, 786.0, 786.0, 786.0, 786.0, 785.0, 785.0, 786.0, 786.0, 786.0, 786.0, 786.0, 787.0, 787.0, 787.0, 787.0, 786.0, 787.0, 786.0, 786.0, 785.0, 785.0, 785.0, 785.0, 785.0, 785.0, 785.0, 785.0, 785.0, 785.0, 784.0, 785.0, 785.0, 785.0, 786.0, 786.0, 785.0, 786.0, 786.0, 786.0, 786.0, 786.0, 785.0, 786.0, 785.0, 785.0, 784.0, 784.0, 784.0, 784.0, 783.0, 783.0, 784.0, 786.0, 785.0, 783.0, 781.0, 781.0, 780.0, 780.0, 782.0, 783.0, 784.0, 783.0, 783.0, 783.0, 782.0, 783.0, 783.0, 784.0, 785.0, 784.0, 784.0, 784.0, 785.0, 785.0, 784.0, 784.0, 785.0, 785.0, 785.0, 786.0, 784.0, 783.0, 783.0, 783.0, 783.0, 783.0, 783.0, 783.0, 782.0, 782.0, 783.0, 783.0, 784.0, 783.0, 783.0, 783.0, 784.0, 785.0, 785.0, 784.0, 784.0, 784.0, 784.0, 784.0, 783.0, 782.0, 783.0, 784.0, 784.0, 784.0, 784.0, 783.0, 782.0, 781.0, 782.0, 783.0, 784.0, 784.0, 784.0, 784.0, 784.0, 785.0, 785.0, 786.0, 786.0, 786.0, 784.0, 785.0, 785.0, 785.0, 784.0, 785.0, 784.0, 785.0, 784.0, 783.0, 783.0, 782.0, 784.0, 784.0],
      "WindowWidth": [1686.0, 1683.0, 1683.0, 1682.0, 1685.0, 1685.0, 1685.0, 1685.0, 1685.0, 1687.0, 1687.0, 1686.0, 1685.0, 1684.0, 1685.0, 1685.0, 1686.0, 1685.0, 1686.0, 1686.0, 1687.0, 1689.0, 1688.0, 1689.0, 1687.0, 1687.0, 1686.0, 1685.0, 1683.0, 1682.0, 1682.0, 1683.0, 1683.0, 1683.0, 1684.0, 1684.0, 1683.0, 1682.0, 1681.0, 1684.0, 1683.0, 1684.0, 1686.0, 1684.0, 1683.0, 1685.0, 1685.0, 1687.0, 1687.0, 1685.0, 1684.0, 1686.0, 1684.0, 1682.0, 1681.0, 1679.0, 1679.0, 1680.0, 1678.0, 1678.0, 1680.0, 1684.0, 1682.0, 1678.0, 1673.0, 1672.0, 1670.0, 1671.0, 1676.0, 1678.0, 1680.0, 1678.0, 1679.0, 1679.0, 1676.0, 1678.0, 1678.0, 1681.0, 1682.0, 1681.0, 1681.0, 1681.0, 1682.0, 1682.0, 1681.0, 1681.0, 1682.0, 1683.0, 1683.0, 1685.0, 1680.0, 1678.0, 1676.0, 1678.0, 1677.0, 1677.0, 1677.0, 1678.0, 1675.0, 1676.0, 1677.0, 1679.0, 1679.0, 1678.0, 1677.0, 1678.0, 1681.0, 1682.0, 1682.0, 1682.0, 1680.0, 1680.0, 1680.0, 1680.0, 1677.0, 1676.0, 1677.0, 1680.0, 1679.0, 1680.0, 1679.0, 1677.0, 1675.0, 1673.0, 1675.0, 1679.0, 1680.0, 1680.0, 1680.0, 1681.0, 1681.0, 1682.0, 1682.0, 1684.0, 1685.0, 1685.0, 1681.0, 1682.0, 1682.0, 1682.0, 1681.0, 1682.0, 1681.0, 1682.0, 1681.0, 1678.0, 1677.0, 1674.0, 1679.0, 1681.0]
    },
    "slices": {}
  }
}