{
 "AcquisitionMatrixPE": 100,
 "AcquisitionNumber": 1,
 "AcquisitionTime": "12:05:35.587500",
 "BandwidthPerPixelPhaseEncode": 18.519,
 "BaseResolution": 100,
 "BodyPartExamined": "BRAIN",
 "ConsistencyInfo": "N4_VE11C_LATEST_20160120",
 "ConversionSoftware": "dcm2niix",
 "ConversionSoftwareVersion": "v1.0.20180622 GCC4.9.2",
 "DerivedVendorReportedEchoSpacing": 0.000539986,
 "DeviceSerialNumber": "166078",
 "DwellTime": 2.1e-06,
 "EchoTime": 0.034,
 "EchoTrainLength": 100,
 "EffectiveEchoSpacing": 0.000539986,
 "FlipAngle": 90,
 "ImageOrientationPatientDICOM": [
  1,
  0,
  0,
  0,
  0.996637,
  -0.0819385
 ],
 "ImageType": [
  "ORIGINAL",
  "PRIMARY",
  "M",
  "ND",
  "MOSAIC"
 ],
 "InPlanePhaseEncodingDirectionDICOM": "COL",
 "InstitutionAddress": "Street_StreetNo_Bei_Jing_District_CN_ZIP",
 "InstitutionName": "BeiJing_Normal_University",
 "InstitutionalDepartmentName": "Department",
 "MRAcquisitionType": "2D",
 "MagneticFieldStrength": 3,
 "Manufacturer": "Siemens",
 "ManufacturersModelName": "Prisma",
 "Modality": "MR",
 "MultibandAccelerationFactor": 3,
 "PartialFourier": 1,
 "PatientPosition": "HFS",
 "PercentPhaseFOV": 100,
 "PhaseEncodingDirection": "j-",
 "PhaseEncodingSteps": 100,
 "PhaseResolution": 1,
 "PixelBandwidth": 2380,
 "ProcedureStepDescription": "BNU_P2018_64CH_Zhen.ZongLei",
 "ProtocolName": "bold_100x100_s3_2x2x2_cat_150",
 "PulseSequenceDetails": "%SiemensSeq%_ep2d_bold",
 "ReceiveCoilActiveElements": "HC1-7;NC1",
 "ReceiveCoilName": "HeadNeck_64",
 "ReconMatrixPE": 100,
 "RepetitionTime": 2,
 "SAR": 0.0713399,
 "ScanOptions": "FS",
 "ScanningSequence": "EP",
 "SequenceName": "_epfid2d1_100",
 "SequenceVariant": "SK",
 "SeriesDescription": "bold_100x100_s3_2x2x2_cat_150",
 "SeriesNumber": 16,
 "ShimSetting": [
  -5464,
  -11491,
  -1271,
  207,
  -67,
  -268,
  -229,
  29
 ],
 "SliceThickness": 2,
 "SliceTiming": [
  1.485,
  0,
  0.99,
  0.0825,
  1.0725,
  0.165,
  1.155,
  0.2475,
  1.2375,
  0.33,
  1.32,
  0.4125,
  1.4025,
  0.5775,
  1.5675,
  0.66,
  1.65,
  0.7425,
  1.7325,
  0.825,
  1.815,
  0.9075,
  1.8975,
  0.495,
  1.485,
  0,
  0.99,
  0.0825,
  1.0725,
  0.165,
  1.155,
  0.2475,
  1.2375,
  0.33,
  1.32,
  0.4125,
  1.4025,
  0.5775,
  1.5675,
  0.66,
  1.65,
  0.7425,
  1.7325,
  0.825,
  1.815,
  0.9075,
  1.8975,
  0.495,
  1.485,
  0,
  0.99,
  0.0825,
  1.0725,
  0.165,
  1.155,
  0.2475,
  1.2375,
  0.33,
  1.32,
  0.4125,
  1.4025,
  0.5775,
  1.5675,
  0.66,
  1.65,
  0.7425,
  1.7325,
  0.825,
  1.815,
  0.9075,
  1.8975,
  0.495
 ],
 "SoftwareVersions": "syngo_MR_E11",
 "SpacingBetweenSlices": 2,
 "StationName": "AWP166078",
 "TaskName": "floc",
 "TotalReadoutTime": 0.0534586,
 "TxRefAmp": 220.93,
 "dcmmeta_affine": [
  [
   -2.0,
   0.0,
   0.0,
   100.67469787597656
  ],
  [
   0.0,
   1.9932748079299927,
   -0.16387702524662018,
   -88.54198455810547
  ],
  [
   0.0,
   0.16387702524662018,
   1.9932748079299927,
   -80.93099212646484
  ],
  [
   0.0,
   0.0,
   0.0,
   1.0
  ]
 ],
 "dcmmeta_reorient_transform": [
  [
   0.0,
   -1.0,
   0.0,
   99.0
  ],
  [
   1.0,
   0.0,
   0.0,
   0.0
  ],
  [
   0.0,
   0.0,
   1.0,
   0.0
  ],
  [
   0.0,
   0.0,
   0.0,
   1.0
  ]
 ],
 "dcmmeta_shape": [
  100,
  100,
  72,
  150
 ],
 "dcmmeta_slice_dim": 2,
 "dcmmeta_version": 0.6,
 "global": {
  "const": {
   "AcquisitionMatrix": [
    100,
    0,
    0,
    100
   ],
   "AngioFlag": "N",
   "BitsAllocated": 16,
   "BitsStored": 12,
   "BodyPartExamined": "BRAIN",
   "Columns": 900,
   "EchoNumbers": 1,
   "EchoTime": 34.0,
   "EchoTrainLength": 100,
   "FlipAngle": 90.0,
   "HighBit": 11,
   "ImageOrientationPatient": [
    1.0,
    0.0,
    0.0,
    0.0,
    0.99663738671133,
    -0.0819385099279
   ],
   "ImagePositionPatient": [
    -900.67469877005,
    -906.10212513675,
    0.84364269976744
   ],
   "ImageType": [
    "ORIGINAL",
    "PRIMARY",
    "M",
    "ND",
    "MOSAIC"
   ],
   "ImagedNucleus": "1H",
   "ImagingFrequency": 123.257777,
   "InPlanePhaseEncodingDirection": "COL",
   "MRAcquisitionType": "2D",
   "MagneticFieldStrength": 3.0,
   "Manufacturer": "SIEMENS",
   "ManufacturerModelName": "Prisma",
   "Modality": "MR",
   "NumberOfAverages": 1.0,
   "NumberOfPhaseEncodingSteps": 100,
   "PercentPhaseFieldOfView": 100.0,
   "PercentSampling": 100.0,
   "PerformedProcedureStepStartTime": "105032.488000",
   "PhotometricInterpretation": "MONOCHROME2",
   "PixelBandwidth": 2380.0,
   "PixelRepresentation": 0,
   "PixelSpacing": [
    2.0,
    2.0
   ],
   "ProtocolName": "bold_100x100_s3_2x2x2_cat_150",
   "RepetitionTime": 2000.0,
   "Rows": 900,
   "SAR": 0.07133989196053,
   "SamplesPerPixel": 1,
   "ScanOptions": "FS",
   "ScanningSequence": "EP",
   "SequenceName": "*epfid2d1_100",
   "SequenceVariant": "SK",
   "SeriesDescription": "bold_100x100_s3_2x2x2_cat_150",
   "SeriesNumber": 16,
   "SeriesTime": "120537.874000",
   "SliceLocation": -73.403852120604,
   "SliceThickness": 2.0,
   "SmallestImagePixelValue": 0,
   "SoftwareVersions": "syngo MR E11",
   "SpacingBetweenSlices": 2.000000075446,
   "SpecificCharacterSet": "ISO_IR 100",
   "StudyID": "1",
   "StudyTime": "105032.385000",
   "TransmitCoilName": "Body",
   "VariableFlipAngleFlag": "N",
   "WindowCenterWidthExplanation": "Algo1",
   "dBdt": 0.0
  },
  "slices": {}
 },
 "time": {
  "samples": {
   "AcquisitionNumber": [
    1,
    2,
    3,
    4,
    5,
    6,
    7,
    8,
    9,
    10,
    11,
    12,
    13,
    14,
    15,
    16,
    17,
    18,
    19,
    20,
    21,
    22,
    23,
    24,
    25,
    26,
    27,
    28,
    29,
    30,
    31,
    32,
    33,
    34,
    35,
    36,
    37,
    38,
    39,
    40,
    41,
    42,
    43,
    44,
    45,
    46,
    47,
    48,
    49,
    50,
    51,
    52,
    53,
    54,
    55,
    56,
    57,
    58,
    59,
    60,
    61,
    62,
    63,
    64,
    65,
    66,
    67,
    68,
    69,
    70,
    71,
    72,
    73,
    74,
    75,
    76,
    77,
    78,
    79,
    80,
    81,
    82,
    83,
    84,
    85,
    86,
    87,
    88,
    89,
    90,
    91,
    92,
    93,
    94,
    95,
    96,
    97,
    98,
    99,
    100,
    101,
    102,
    103,
    104,
    105,
    106,
    107,
    108,
    109,
    110,
    111,
    112,
    113,
    114,
    115,
    116,
    117,
    118,
    119,
    120,
    121,
    122,
    123,
    124,
    125,
    126,
    127,
    128,
    129,
    130,
    131,
    132,
    133,
    134,
    135,
    136,
    137,
    138,
    139,
    140,
    141,
    142,
    143,
    144,
    145,
    146,
    147,
    148,
    149,
    150
   ],
   "AcquisitionTime": [
    "120535.587500",
    "120537.587500",
    "120539.587500",
    "120541.587500",
    "120543.587500",
    "120545.587500",
    "120547.587500",
    "120549.587500",
    "120551.587500",
    "120553.587500",
    "120555.587500",
    "120557.587500",
    "120559.587500",
    "120601.587500",
    "120603.587500",
    "120605.587500",
    "120607.587500",
    "120609.587500",
    "120611.587500",
    "120613.587500",
    "120615.587500",
    "120617.587500",
    "120619.587500",
    "120621.587500",
    "120623.587500",
    "120625.587500",
    "120627.587500",
    "120629.587500",
    "120631.587500",
    "120633.587500",
    "120635.587500",
    "120637.587500",
    "120639.587500",
    "120641.587500",
    "120643.587500",
    "120645.587500",
    "120647.587500",
    "120649.587500",
    "120651.587500",
    "120653.587500",
    "120655.587500",
    "120657.587500",
    "120659.587500",
    "120701.587500",
    "120703.587500",
    "120705.587500",
    "120707.587500",
    "120709.587500",
    "120711.587500",
    "120713.587500",
    "120715.587500",
    "120717.587500",
    "120719.587500",
    "120721.587500",
    "120723.587500",
    "120725.587500",
    "120727.587500",
    "120729.587500",
    "120731.587500",
    "120733.587500",
    "120735.587500",
    "120737.587500",
    "120739.587500",
    "120741.587500",
    "120743.587500",
    "120745.587500",
    "120747.587500",
    "120749.587500",
    "120751.587500",
    "120753.587500",
    "120755.587500",
    "120757.587500",
    "120759.587500",
    "120801.587500",
    "120803.587500",
    "120805.587500",
    "120807.587500",
    "120809.587500",
    "120811.587500",
    "120813.587500",
    "120815.587500",
    "120817.587500",
    "120819.587500",
    "120821.587500",
    "120823.587500",
    "120825.587500",
    "120827.587500",
    "120829.587500",
    "120831.587500",
    "120833.587500",
    "120835.587500",
    "120837.587500",
    "120839.587500",
    "120841.587500",
    "120843.587500",
    "120845.587500",
    "120847.587500",
    "120849.587500",
    "120851.587500",
    "120853.587500",
    "120855.587500",
    "120857.587500",
    "120859.587500",
    "120901.587500",
    "120903.587500",
    "120905.587500",
    "120907.587500",
    "120909.587500",
    "120911.587500",
    "120913.587500",
    "120915.587500",
    "120917.587500",
    "120919.587500",
    "120921.587500",
    "120923.587500",
    "120925.587500",
    "120927.587500",
    "120929.587500",
    "120931.587500",
    "120933.587500",
    "120935.587500",
    "120937.587500",
    "120939.587500",
    "120941.587500",
    "120943.587500",
    "120945.587500",
    "120947.587500",
    "120949.587500",
    "120951.587500",
    "120953.587500",
    "120955.587500",
    "120957.587500",
    "120959.587500",
    "121001.587500",
    "121003.587500",
    "121005.587500",
    "121007.587500",
    "121009.587500",
    "121011.587500",
    "121013.587500",
    "121015.587500",
    "121017.587500",
    "121019.587500",
    "121021.587500",
    "121023.587500",
    "121025.587500",
    "121027.587500",
    "121029.587500",
    "121031.587500",
    "121033.587500"
   ],
   "ContentTime": [
    "120537.878000",
    "120539.374000",
    "120541.875000",
    "120543.875000",
    "120545.875000",
    "120547.874000",
    "120549.374000",
    "120551.873000",
    "120553.873000",
    "120555.874000",
    "120557.374000",
    "120559.874000",
    "120601.874000",
    "120603.874000",
    "120605.874000",
    "120607.373000",
    "120609.373000",
    "120611.373000",
    "120613.874000",
    "120615.875000",
    "120617.374000",
    "120619.874000",
    "120621.874000",
    "120623.875000",
    "120625.374000",
    "120627.373000",
    "120629.873000",
    "120631.374000",
    "120633.374000",
    "120635.375000",
    "120637.874000",
    "120639.874000",
    "120641.875000",
    "120643.873000",
    "120645.874000",
    "120647.373000",
    "120649.875000",
    "120651.374000",
    "120653.374000",
    "120655.875000",
    "120657.875000",
    "120659.874000",
    "120701.373000",
    "120703.873000",
    "120705.873000",
    "120707.375000",
    "120709.874000",
    "120711.374000",
    "120713.374000",
    "120715.374000",
    "120717.873000",
    "120719.373000",
    "120721.373000",
    "120723.873000",
    "120725.379000",
    "120727.875000",
    "120729.374000",
    "120731.874000",
    "120733.874000",
    "120735.873000",
    "120737.373000",
    "120739.373000",
    "120741.373000",
    "120743.374000",
    "120745.875000",
    "120747.874000",
    "120749.874000",
    "120751.375000",
    "120753.373000",
    "120755.873000",
    "120757.874000",
    "120759.374000",
    "120801.874000",
    "120803.874000",
    "120805.874000",
    "120807.877000",
    "120809.374000",
    "120811.874000",
    "120813.374000",
    "120815.874000",
    "120817.374000",
    "120819.874000",
    "120821.374000",
    "120823.874000",
    "120825.875000",
    "120827.374000",
    "120829.873000",
    "120831.874000",
    "120833.874000",
    "120835.374000",
    "120837.875000",
    "120839.374000",
    "120841.374000",
    "120843.375000",
    "120845.373000",
    "120847.373000",
    "120849.874000",
    "120851.874000",
    "120853.375000",
    "120855.874000",
    "120857.874000",
    "120859.874000",
    "120901.874000",
    "120903.874000",
    "120905.874000",
    "120907.873000",
    "120909.875000",
    "120911.374000",
    "120913.875000",
    "120915.875000",
    "120917.875000",
    "120919.874000",
    "120921.874000",
    "120923.373000",
    "120925.873000",
    "120927.374000",
    "120929.874000",
    "120931.374000",
    "120933.875000",
    "120935.875000",
    "120937.374000",
    "120939.373000",
    "120941.373000",
    "120943.374000",
    "120945.874000",
    "120947.375000",
    "120949.875000",
    "120951.875000",
    "120953.875000",
    "120955.373000",
    "120957.874000",
    "120959.373000",
    "121001.373000",
    "121003.875000",
    "121005.374000",
    "121007.874000",
    "121009.875000",
    "121011.875000",
    "121013.874000",
    "121015.874000",
    "121017.874000",
    "121019.874000",
    "121021.875000",
    "121023.874000",
    "121025.374000",
    "121027.874000",
    "121029.374000",
    "121031.874000",
    "121033.373000",
    "121035.363000"
   ],
   "InstanceCreationTime": [
    "120537.878000",
    "120539.374000",
    "120541.875000",
    "120543.875000",
    "120545.875000",
    "120547.874000",
    "120549.374000",
    "120551.873000",
    "120553.873000",
    "120555.874000",
    "120557.374000",
    "120559.874000",
    "120601.874000",
    "120603.874000",
    "120605.874000",
    "120607.373000",
    "120609.373000",
    "120611.373000",
    "120613.874000",
    "120615.875000",
    "120617.374000",
    "120619.874000",
    "120621.874000",
    "120623.875000",
    "120625.374000",
    "120627.373000",
    "120629.873000",
    "120631.374000",
    "120633.374000",
    "120635.375000",
    "120637.874000",
    "120639.874000",
    "120641.875000",
    "120643.873000",
    "120645.874000",
    "120647.373000",
    "120649.875000",
    "120651.374000",
    "120653.374000",
    "120655.875000",
    "120657.875000",
    "120659.874000",
    "120701.373000",
    "120703.873000",
    "120705.873000",
    "120707.375000",
    "120709.874000",
    "120711.374000",
    "120713.374000",
    "120715.374000",
    "120717.873000",
    "120719.373000",
    "120721.373000",
    "120723.873000",
    "120725.379000",
    "120727.875000",
    "120729.374000",
    "120731.874000",
    "120733.874000",
    "120735.873000",
    "120737.373000",
    "120739.373000",
    "120741.373000",
    "120743.374000",
    "120745.875000",
    "120747.874000",
    "120749.874000",
    "120751.375000",
    "120753.373000",
    "120755.873000",
    "120757.874000",
    "120759.374000",
    "120801.874000",
    "120803.874000",
    "120805.874000",
    "120807.877000",
    "120809.374000",
    "120811.874000",
    "120813.374000",
    "120815.874000",
    "120817.374000",
    "120819.874000",
    "120821.374000",
    "120823.874000",
    "120825.875000",
    "120827.374000",
    "120829.873000",
    "120831.874000",
    "120833.874000",
    "120835.374000",
    "120837.875000",
    "120839.374000",
    "120841.374000",
    "120843.375000",
    "120845.373000",
    "120847.373000",
    "120849.874000",
    "120851.874000",
    "120853.375000",
    "120855.874000",
    "120857.874000",
    "120859.874000",
    "120901.874000",
    "120903.874000",
    "120905.874000",
    "120907.873000",
    "120909.875000",
    "120911.374000",
    "120913.875000",
    "120915.875000",
    "120917.875000",
    "120919.874000",
    "120921.874000",
    "120923.373000",
    "120925.873000",
    "120927.374000",
    "120929.874000",
    "120931.374000",
    "120933.875000",
    "120935.875000",
    "120937.374000",
    "120939.373000",
    "120941.373000",
    "120943.374000",
    "120945.874000",
    "120947.375000",
    "120949.875000",
    "120951.875000",
    "120953.875000",
    "120955.373000",
    "120957.874000",
    "120959.373000",
    "121001.373000",
    "121003.875000",
    "121005.374000",
    "121007.874000",
    "121009.875000",
    "121011.875000",
    "121013.874000",
    "121015.874000",
    "121017.874000",
    "121019.874000",
    "121021.875000",
    "121023.874000",
    "121025.374000",
    "121027.874000",
    "121029.374000",
    "121031.874000",
    "121033.373000",
    "121035.363000"
   ],
   "InstanceNumber": [
    1,
    2,
    3,
    4,
    5,
    6,
    7,
    8,
    9,
    10,
    11,
    12,
    13,
    14,
    15,
    16,
    17,
    18,
    19,
    20,
    21,
    22,
    23,
    24,
    25,
    26,
    27,
    28,
    29,
    30,
    31,
    32,
    33,
    34,
    35,
    36,
    37,
    38,
    39,
    40,
    41,
    42,
    43,
    44,
    45,
    46,
    47,
    48,
    49,
    50,
    51,
    52,
    53,
    54,
    55,
    56,
    57,
    58,
    59,
    60,
    61,
    62,
    63,
    64,
    65,
    66,
    67,
    68,
    69,
    70,
    71,
    72,
    73,
    74,
    75,
    76,
    77,
    78,
    79,
    80,
    81,
    82,
    83,
    84,
    85,
    86,
    87,
    88,
    89,
    90,
    91,
    92,
    93,
    94,
    95,
    96,
    97,
    98,
    99,
    100,
    101,
    102,
    103,
    104,
    105,
    106,
    107,
    108,
    109,
    110,
    111,
    112,
    113,
    114,
    115,
    116,
    117,
    118,
    119,
    120,
    121,
    122,
    123,
    124,
    125,
    126,
    127,
    128,
    129,
    130,
    131,
    132,
    133,
    134,
    135,
    136,
    137,
    138,
    139,
    140,
    141,
    142,
    143,
    144,
    145,
    146,
    147,
    148,
    149,
    150
   ],
   "LargestImagePixelValue": [
    4095,
    4001,
    3996,
    3982,
    4024,
    3963,
    3976,
    3945,
    3922,
    3949,
    3930,
    3938,
    3964,
    3991,
    4003,
    3968,
    3991,
    3956,
    3936,
    3955,
    3941,
    3946,
    3947,
    3953,
    3949,
    3915,
    3958,
    3963,
    3941,
    3940,
    3929,
    3925,
    3978,
    3959,
    3951,
    3940,
    3980,
    3951,
    3956,
    3956,
    3959,
    3942,
    3967,
    3960,
    3972,
    3973,
    3956,
    3952,
    3947,
    3959,
    3932,
    3935,
    3942,
    3941,
    3941,
    3951,
    3927,
    3977,
    3969,
    3977,
    3984,
    3957,
    3963,
    3964,
    3955,
    3952,
    3959,
    3931,
    3952,
    3920,
    3961,
    3922,
    3944,
    3937,
    3936,
    3956,
    3945,
    3954,
    3976,
    3936,
    3954,
    3945,
    3958,
    3940,
    3923,
    3966,
    3977,
    3929,
    3980,
    3908,
    3970,
    3945,
    3965,
    3973,
    3949,
    3936,
    3937,
    3950,
    3925,
    3947,
    3970,
    3927,
    3917,
    3951,
    3976,
    3936,
    3963,
    3939,
    3956,
    3969,
    3951,
    3950,
    3958,
    3933,
    3916,
    3916,
    3931,
    3925,
    3944,
    3952,
    3948,
    3982,
    3941,
    3967,
    3963,
    3959,
    3934,
    3959,
    3957,
    3974,
    3943,
    3968,
    3943,
    3933,
    3930,
    3950,
    3963,
    3944,
    3922,
    3934,
    3959,
    3947,
    3960,
    3954,
    3942,
    3913,
    3919,
    3948,
    3927,
    3907
   ],
   "WindowCenter": [
    842.0,
    839.0,
    840.0,
    839.0,
    838.0,
    837.0,
    839.0,
    838.0,
    838.0,
    838.0,
    839.0,
    839.0,
    838.0,
    838.0,
    838.0,
    837.0,
    839.0,
    839.0,
    838.0,
    838.0,
    838.0,
    839.0,
    838.0,
    837.0,
    836.0,
    836.0,
    837.0,
    837.0,
    837.0,
    836.0,
    836.0,
    837.0,
    838.0,
    838.0,
    838.0,
    838.0,
    838.0,
    838.0,
    838.0,
    837.0,
    837.0,
    837.0,
    838.0,
    838.0,
    837.0,
    837.0,
    837.0,
    839.0,
    839.0,
    838.0,
    838.0,
    839.0,
    839.0,
    840.0,
    839.0,
    839.0,
    839.0,
    839.0,
    838.0,
    838.0,
    838.0,
    837.0,
    836.0,
    836.0,
    838.0,
    838.0,
    839.0,
    839.0,
    840.0,
    841.0,
    841.0,
    840.0,
    840.0,
    839.0,
    840.0,
    841.0,
    841.0,
    840.0,
    840.0,
    839.0,
    840.0,
    840.0,
    840.0,
    839.0,
    839.0,
    840.0,
    841.0,
    840.0,
    841.0,
    840.0,
    841.0,
    839.0,
    838.0,
    838.0,
    837.0,
    837.0,
    837.0,
    838.0,
    838.0,
    838.0,
    837.0,
    837.0,
    838.0,
    839.0,
    840.0,
    841.0,
    841.0,
    840.0,
    839.0,
    839.0,
    839.0,
    840.0,
    840.0,
    838.0,
    838.0,
    837.0,
    837.0,
    837.0,
    837.0,
    837.0,
    837.0,
    838.0,
    838.0,
    838.0,
    839.0,
    840.0,
    841.0,
    841.0,
    840.0,
    840.0,
    841.0,
    841.0,
    842.0,
    841.0,
    841.0,
    841.0,
    840.0,
    839.0,
    839.0,
    839.0,
    839.0,
    838.0,
    838.0,
    838.0,
    839.0,
    840.0,
    841.0,
    841.0,
    840.0,
    838.0
   ],
   "WindowWidth": [
    1848.0,
    1839.0,
    1840.0,
    1836.0,
    1834.0,
    1833.0,
    1836.0,
    1834.0,
    1836.0,
    1834.0,
    1837.0,
    1837.0,
    1836.0,
    1835.0,
    1835.0,
    1833.0,
    1837.0,
    1837.0,
    1835.0,
    1835.0,
    1834.0,
    1837.0,
    1834.0,
    1832.0,
    1829.0,
    1829.0,
    1832.0,
    1832.0,
    1831.0,
    1829.0,
    1830.0,
    1831.0,
    1836.0,
    1837.0,
    1837.0,
    1835.0,
    1835.0,
    1836.0,
    1836.0,
    1833.0,
    1832.0,
    1833.0,
    1836.0,
    1834.0,
    1834.0,
    1833.0,
    1834.0,
    1837.0,
    1837.0,
    1836.0,
    1836.0,
    1839.0,
    1839.0,
    1840.0,
    1837.0,
    1838.0,
    1837.0,
    1838.0,
    1835.0,
    1835.0,
    1834.0,
    1832.0,
    1830.0,
    1831.0,
    1834.0,
    1836.0,
    1838.0,
    1838.0,
    1840.0,
    1842.0,
    1843.0,
    1840.0,
    1840.0,
    1838.0,
    1841.0,
    1843.0,
    1843.0,
    1842.0,
    1841.0,
    1839.0,
    1840.0,
    1841.0,
    1840.0,
    1836.0,
    1837.0,
    1839.0,
    1842.0,
    1840.0,
    1843.0,
    1840.0,
    1842.0,
    1837.0,
    1836.0,
    1833.0,
    1832.0,
    1831.0,
    1832.0,
    1835.0,
    1835.0,
    1835.0,
    1832.0,
    1833.0,
    1834.0,
    1836.0,
    1840.0,
    1842.0,
    1843.0,
    1839.0,
    1838.0,
    1836.0,
    1838.0,
    1841.0,
    1839.0,
    1835.0,
    1833.0,
    1832.0,
    1832.0,
    1832.0,
    1830.0,
    1830.0,
    1831.0,
    1833.0,
    1833.0,
    1834.0,
    1836.0,
    1840.0,
    1844.0,
    1843.0,
    1840.0,
    1840.0,
    1841.0,
    1843.0,
    1844.0,
    1843.0,
    1843.0,
    1842.0,
    1839.0,
    1836.0,
    1837.0,
    1838.0,
    1836.0,
    1833.0,
    1835.0,
    1835.0,
    1838.0,
    1839.0,
    1842.0,
    1841.0,
    1838.0,
    1834.0
   ]
  },
  "slices": {}
 }
}