{
  "AcquisitionMatrixPE": 100,
  "AcquisitionNumber": 1,
  "AcquisitionTime": "11:18:41.182500",
  "BandwidthPerPixelPhaseEncode": 18.519,
  "BaseResolution": 100,
  "BodyPartExamined": "BRAIN",
  "ConsistencyInfo": "N4_VE11C_LATEST_20160120",
  "ConversionSoftware": "dcm2niix",
  "ConversionSoftwareVersion": "v1.0.20180622 GCC4.9.2",
  "DerivedVendorReportedEchoSpacing": 0.000539986,
  "DeviceSerialNumber": "166078",
  "DwellTime": 2.1e-06,
  "EchoTime": 0.034,
  "EchoTrainLength": 100,
  "EffectiveEchoSpacing": 0.000539986,
  "FlipAngle": 90,
  "ImageOrientationPatientDICOM": [1, 0, 0, 0, 0.993961, -0.109734],
  "ImageType": [
    "ORIGINAL",
    "PRIMARY",
    "M",
    "ND",
    "MOSAIC"
],
  "InPlanePhaseEncodingDirectionDICOM": "COL",
  "InstitutionAddress": "Street_StreetNo_Bei_Jing_District_CN_ZIP",
  "InstitutionName": "BeiJing_Normal_University",
  "InstitutionalDepartmentName": "Department",
  "MRAcquisitionType": "2D",
  "MagneticFieldStrength": 3,
  "Manufacturer": "Siemens",
  "ManufacturersModelName": "Prisma",
  "Modality": "MR",
  "MultibandAccelerationFactor": 3,
  "PartialFourier": 1,
  "PatientPosition": "HFS",
  "PercentPhaseFOV": 100,
  "PhaseEncodingDirection": "j-",
  "PhaseEncodingSteps": 100,
  "PhaseResolution": 1,
  "PixelBandwidth": 2380,
  "ProcedureStepDescription": "BNU_P2018_64CH_Zhen.ZongLei",
  "ProtocolName": "bold_100x100_s3_2x2x2_static_256",
  "PulseSequenceDetails": "%SiemensSeq%_ep2d_bold",
  "ReceiveCoilActiveElements": "HC1-7;NC1",
  "ReceiveCoilName": "HeadNeck_64",
  "ReconMatrixPE": 100,
  "RepetitionTime": 2,
  "SAR": 0.0687404,
  "ScanOptions": "FS",
  "ScanningSequence": "EP",
  "SequenceName": "_epfid2d1_100",
  "SequenceVariant": "SK",
  "SeriesDescription": "bold_100x100_s3_2x2x2_static_256",
  "SeriesNumber": 4,
  "ShimSetting": [-5469, -11488, -1271, 251, -49, -179, -223, 93],
  "SliceThickness": 2,
  "SliceTiming": [1.485, 0, 0.99, 0.0825, 1.0725, 0.165, 1.155, 0.2475, 1.2375, 0.33, 1.32, 0.4125, 1.4025, 0.5775, 1.5675, 0.66, 1.65, 0.7425, 1.7325, 0.825, 1.815, 0.9075, 1.8975, 0.495, 1.485, 0, 0.99, 0.0825, 1.0725, 0.165, 1.155, 0.2475, 1.2375, 0.33, 1.32, 0.4125, 1.4025, 0.5775, 1.5675, 0.66, 1.65, 0.7425, 1.7325, 0.825, 1.815, 0.9075, 1.8975, 0.495, 1.485, 0, 0.99, 0.0825, 1.0725, 0.165, 1.155, 0.2475, 1.2375, 0.33, 1.32, 0.4125, 1.4025, 0.5775, 1.5675, 0.66, 1.65, 0.7425, 1.7325, 0.825, 1.815, 0.9075, 1.8975, 0.495],
  "SoftwareVersions": "syngo_MR_E11",
  "SpacingBetweenSlices": 2,
  "StationName": "AWP166078",
  "TaskName": "naturalvision",
  "TotalReadoutTime": 0.0534586,
  "TxRefAmp": 220.906,
  "dcmmeta_affine": [
    [-2.0, 0.0, 0.0, 102.02409362792969],
    [0.0, 1.987921953201294, -0.2194686233997345, -83.78089141845703],
    [0.0, 0.2194686233997345, 1.987921953201294, -86.16374206542969],
    [0.0, 0.0, 0.0, 1.0]
],
  "dcmmeta_reorient_transform": [
    [0.0, -1.0, 0.0, 99.0],
    [1.0, 0.0, 0.0, 0.0],
    [0.0, 0.0, 1.0, 0.0],
    [0.0, 0.0, 0.0, 1.0]
],
  "dcmmeta_shape": [100, 100, 72, 256],
  "dcmmeta_slice_dim": 2,
  "dcmmeta_version": 0.6,
  "global": {
    "const": {
      "AcquisitionMatrix": [100, 0, 0, 100],
      "AngioFlag": "N",
      "BitsAllocated": 16,
      "BitsStored": 12,
      "BodyPartExamined": "BRAIN",
      "Columns": 900,
      "EchoNumbers": 1,
      "EchoTime": 34.0,
      "EchoTrainLength": 100,
      "FlipAngle": 90.0,
      "HighBit": 11,
      "ImageOrientationPatient": [1.0, 0.0, 0.0, 0.0, 0.99396095521985, -0.1097343132226],
      "ImagePositionPatient": [-902.02409648895, -908.19213993316, 23.35109949069],
      "ImageType": [
        "ORIGINAL",
        "PRIMARY",
        "M",
        "ND",
        "MOSAIC"
],
      "ImagedNucleus": "1H",
      "ImagingFrequency": 123.257785,
      "InPlanePhaseEncodingDirection": "COL",
      "MRAcquisitionType": "2D",
      "MagneticFieldStrength": 3.0,
      "Manufacturer": "SIEMENS",
      "ManufacturerModelName": "Prisma",
      "Modality": "MR",
      "NumberOfAverages": 1.0,
      "NumberOfPhaseEncodingSteps": 100,
      "PercentPhaseFieldOfView": 100.0,
      "PercentSampling": 100.0,
      "PerformedProcedureStepStartTime": "110624.388000",
      "PhotometricInterpretation": "MONOCHROME2",
      "PixelBandwidth": 2380.0,
      "PixelRepresentation": 0,
      "PixelSpacing": [2.0, 2.0],
      "ProtocolName": "bold_100x100_s3_2x2x2_static_256",
      "RepetitionTime": 2000.0,
      "Rows": 900,
      "SAR": 0.06874038919746,
      "SamplesPerPixel": 1,
      "ScanOptions": "FS",
      "ScanningSequence": "EP",
      "SequenceName": "*epfid2d1_100",
      "SequenceVariant": "SK",
      "SeriesDescription": "bold_100x100_s3_2x2x2_static_256",
      "SeriesNumber": 4,
      "SeriesTime": "111843.778000",
      "SliceLocation": -76.449759594547,
      "SliceThickness": 2.0,
      "SmallestImagePixelValue": 0,
      "SoftwareVersions": "syngo MR E11",
      "SpacingBetweenSlices": 2.000000004579,
      "SpecificCharacterSet": "ISO_IR 100",
      "StudyID": "1",
      "StudyTime": "110624.281000",
      "TransmitCoilName": "Body",
      "VariableFlipAngleFlag": "N",
      "WindowCenterWidthExplanation": "Algo1",
      "dBdt": 0.0},
    "slices": {}
  },
  "time": {
    "samples": {
      "AcquisitionNumber": [1, 2, 3, 4, 5, 6, 7, 8, 9, 10, 11, 12, 13, 14, 15, 16, 17, 18, 19, 20, 21, 22, 23, 24, 25, 26, 27, 28, 29, 30, 31, 32, 33, 34, 35, 36, 37, 38, 39, 40, 41, 42, 43, 44, 45, 46, 47, 48, 49, 50, 51, 52, 53, 54, 55, 56, 57, 58, 59, 60, 61, 62, 63, 64, 65, 66, 67, 68, 69, 70, 71, 72, 73, 74, 75, 76, 77, 78, 79, 80, 81, 82, 83, 84, 85, 86, 87, 88, 89, 90, 91, 92, 93, 94, 95, 96, 97, 98, 99, 100, 101, 102, 103, 104, 105, 106, 107, 108, 109, 110, 111, 112, 113, 114, 115, 116, 117, 118, 119, 120, 121, 122, 123, 124, 125, 126, 127, 128, 129, 130, 131, 132, 133, 134, 135, 136, 137, 138, 139, 140, 141, 142, 143, 144, 145, 146, 147, 148, 149, 150, 151, 152, 153, 154, 155, 156, 157, 158, 159, 160, 161, 162, 163, 164, 165, 166, 167, 168, 169, 170, 171, 172, 173, 174, 175, 176, 177, 178, 179, 180, 181, 182, 183, 184, 185, 186, 187, 188, 189, 190, 191, 192, 193, 194, 195, 196, 197, 198, 199, 200, 201, 202, 203, 204, 205, 206, 207, 208, 209, 210, 211, 212, 213, 214, 215, 216, 217, 218, 219, 220, 221, 222, 223, 224, 225, 226, 227, 228, 229, 230, 231, 232, 233, 234, 235, 236, 237, 238, 239, 240, 241, 242, 243, 244, 245, 246, 247, 248, 249, 250, 251, 252, 253, 254, 255, 256],
      "AcquisitionTime": ["111841.182500", "111843.182500", "111845.182500", "111847.182500", "111849.182500", "111851.182500", "111853.182500", "111855.182500", "111857.182500", "111859.182500", "111901.182500", "111903.182500", "111905.182500", "111907.182500", "111909.182500", "111911.182500", "111913.182500", "111915.182500", "111917.182500", "111919.182500", "111921.182500", "111923.182500", "111925.182500", "111927.182500", "111929.182500", "111931.182500", "111933.182500", "111935.182500", "111937.182500", "111939.182500", "111941.182500", "111943.182500", "111945.182500", "111947.182500", "111949.182500", "111951.182500", "111953.182500", "111955.182500", "111957.182500", "111959.182500", "112001.182500", "112003.182500", "112005.182500", "112007.182500", "112009.182500", "112011.182500", "112013.182500", "112015.182500", "112017.182500", "112019.182500", "112021.182500", "112023.182500", "112025.182500", "112027.182500", "112029.182500", "112031.182500", "112033.182500", "112035.182500", "112037.182500", "112039.182500", "112041.182500", "112043.182500", "112045.182500", "112047.182500", "112049.182500", "112051.182500", "112053.182500", "112055.182500", "112057.182500", "112059.182500", "112101.182500", "112103.182500", "112105.182500", "112107.182500", "112109.182500", "112111.182500", "112113.182500", "112115.182500", "112117.182500", "112119.182500", "112121.182500", "112123.182500", "112125.182500", "112127.182500", "112129.182500", "112131.182500", "112133.182500", "112135.182500", "112137.182500", "112139.182500", "112141.182500", "112143.182500", "112145.182500", "112147.182500", "112149.182500", "112151.182500", "112153.182500", "112155.182500", "112157.182500", "112159.182500", "112201.182500", "112203.182500", "112205.182500", "112207.182500", "112209.182500", "112211.182500", "112213.182500", "112215.182500", "112217.182500", "112219.182500", "112221.182500", "112223.182500", "112225.182500", "112227.182500", "112229.182500", "112231.182500", "112233.182500", "112235.182500", "112237.182500", "112239.182500", "112241.182500", "112243.182500", "112245.182500", "112247.182500", "112249.182500", "112251.182500", "112253.182500", "112255.182500", "112257.182500", "112259.182500", "112301.182500", "112303.182500", "112305.182500", "112307.182500", "112309.182500", "112311.182500", "112313.182500", "112315.182500", "112317.182500", "112319.182500", "112321.182500", "112323.182500", "112325.182500", "112327.182500", "112329.182500", "112331.182500", "112333.182500", "112335.182500", "112337.182500", "112339.182500", "112341.182500", "112343.182500", "112345.182500", "112347.182500", "112349.182500", "112351.182500", "112353.182500", "112355.182500", "112357.182500", "112359.182500", "112401.182500", "112403.182500", "112405.182500", "112407.182500", "112409.182500", "112411.182500", "112413.182500", "112415.182500", "112417.182500", "112419.182500", "112421.182500", "112423.182500", "112425.182500", "112427.182500", "112429.182500", "112431.182500", "112433.182500", "112435.182500", "112437.182500", "112439.182500", "112441.182500", "112443.182500", "112445.182500", "112447.182500", "112449.182500", "112451.182500", "112453.182500", "112455.182500", "112457.182500", "112459.182500", "112501.182500", "112503.182500", "112505.182500", "112507.182500", "112509.182500", "112511.182500", "112513.182500", "112515.182500", "112517.182500", "112519.182500", "112521.182500", "112523.182500", "112525.182500", "112527.182500", "112529.182500", "112531.182500", "112533.182500", "112535.182500", "112537.182500", "112539.182500", "112541.182500", "112543.182500", "112545.182500", "112547.182500", "112549.182500", "112551.182500", "112553.182500", "112555.182500", "112557.182500", "112559.182500", "112601.182500", "112603.182500", "112605.182500", "112607.182500", "112609.182500", "112611.182500", "112613.182500", "112615.182500", "112617.182500", "112619.182500", "112621.182500", "112623.182500", "112625.182500", "112627.182500", "112629.182500", "112631.182500", "112633.182500", "112635.182500", "112637.182500", "112639.182500", "112641.182500", "112643.182500", "112645.182500", "112647.182500", "112649.182500", "112651.182500", "112653.182500", "112655.182500", "112657.182500", "112659.182500", "112701.182500", "112703.182500", "112705.182500", "112707.182500", "112709.182500", "112711.182500"],
      "ContentTime": ["111843.782000", "111845.277000", "111847.277000", "111849.276000", "111851.276000", "111853.276000", "111855.278000", "111857.277000", "111859.277000", "111901.277000", "111903.277000", "111905.277000", "111907.277000", "111909.276000", "111911.278000", "111913.278000", "111915.278000", "111917.277000", "111919.278000", "111921.277000", "111923.276000", "111925.277000", "111927.277000", "111929.278000", "111931.277000", "111933.278000", "111935.278000", "111937.278000", "111939.278000", "111941.276000", "111943.277000", "111945.277000", "111947.277000", "111949.277000", "111951.277000", "111953.277000", "111955.278000", "111957.278000", "111959.276000", "112001.277000", "112003.277000", "112005.277000", "112007.277000", "112009.278000", "112011.277000", "112013.277000", "112015.276000", "112017.276000", "112019.276000", "112021.278000", "112023.278000", "112025.278000", "112027.277000", "112029.278000", "112031.278000", "112033.277000", "112035.277000", "112037.277000", "112039.278000", "112041.277000", "112043.278000", "112045.278000", "112047.278000", "112049.277000", "112051.277000", "112053.276000", "112055.276000", "112057.277000", "112059.278000", "112101.277000", "112103.277000", "112105.278000", "112107.277000", "112109.276000", "112111.277000", "112113.277000", "112115.277000", "112117.277000", "112119.277000", "112121.277000", "112123.278000", "112125.276000", "112127.277000", "112129.277000", "112131.277000", "112133.277000", "112135.277000", "112137.277000", "112139.277000", "112141.277000", "112143.276000", "112145.277000", "112147.277000", "112149.278000", "112151.277000", "112153.277000", "112155.277000", "112157.277000", "112159.277000", "112201.277000", "112203.276000", "112205.277000", "112207.278000", "112209.278000", "112211.278000", "112213.277000", "112215.277000", "112217.277000", "112219.276000", "112221.276000", "112223.278000", "112225.277000", "112227.278000", "112229.278000", "112231.278000", "112233.277000", "112235.276000", "112237.276000", "112239.277000", "112241.278000", "112243.278000", "112245.278000", "112247.277000", "112249.277000", "112251.277000", "112253.277000", "112255.277000", "112257.276000", "112259.278000", "112301.277000", "112303.278000", "112305.277000", "112307.278000", "112309.278000", "112311.276000", "112313.277000", "112315.277000", "112317.278000", "112319.278000", "112321.278000", "112323.278000", "112325.277000", "112327.277000", "112329.277000", "112331.277000", "112333.277000", "112335.278000", "112337.278000", "112339.278000", "112341.278000", "112343.278000", "112345.277000", "112347.277000", "112349.276000", "112351.278000", "112353.277000", "112355.277000", "112357.278000", "112359.278000", "112401.277000", "112403.276000", "112405.277000", "112407.276000", "112409.278000", "112411.278000", "112413.277000", "112415.278000", "112417.277000", "112419.278000", "112421.276000", "112423.276000", "112425.276000", "112427.278000", "112429.278000", "112431.277000", "112433.278000", "112435.278000", "112437.278000", "112439.277000", "112441.276000", "112443.278000", "112445.277000", "112447.278000", "112449.278000", "112451.277000", "112453.278000", "112455.276000", "112457.276000", "112459.277000", "112501.277000", "112503.278000", "112505.278000", "112507.278000", "112509.277000", "112511.278000", "112513.277000", "112515.277000", "112517.277000", "112519.278000", "112521.277000", "112523.277000", "112525.278000", "112527.278000", "112529.278000", "112531.277000", "112533.276000", "112535.276000", "112537.278000", "112539.277000", "112541.277000", "112543.278000", "112545.277000", "112547.278000", "112549.276000", "112551.277000", "112553.281000", "112555.278000", "112557.278000", "112559.277000", "112601.277000", "112603.278000", "112605.277000", "112607.277000", "112609.277000", "112611.278000", "112613.278000", "112615.278000", "112617.278000", "112619.278000", "112621.278000", "112623.277000", "112625.276000", "112627.277000", "112629.278000", "112631.278000", "112633.277000", "112635.278000", "112637.277000", "112639.278000", "112641.276000", "112643.277000", "112645.277000", "112647.278000", "112649.278000", "112651.278000", "112653.278000", "112655.277000", "112657.278000", "112659.277000", "112701.277000", "112703.278000", "112705.278000", "112707.278000", "112709.278000", "112711.278000", "112712.927000"],
      "InstanceCreationTime": ["111843.782000", "111845.277000", "111847.277000", "111849.276000", "111851.276000", "111853.276000", "111855.278000", "111857.277000", "111859.277000", "111901.277000", "111903.277000", "111905.277000", "111907.277000", "111909.276000", "111911.278000", "111913.278000", "111915.278000", "111917.277000", "111919.278000", "111921.277000", "111923.276000", "111925.277000", "111927.277000", "111929.278000", "111931.277000", "111933.278000", "111935.278000", "111937.278000", "111939.278000", "111941.276000", "111943.277000", "111945.277000", "111947.277000", "111949.277000", "111951.277000", "111953.277000", "111955.278000", "111957.278000", "111959.276000", "112001.277000", "112003.277000", "112005.277000", "112007.277000", "112009.278000", "112011.277000", "112013.277000", "112015.276000", "112017.276000", "112019.276000", "112021.278000", "112023.278000", "112025.278000", "112027.277000", "112029.278000", "112031.278000", "112033.277000", "112035.277000", "112037.277000", "112039.278000", "112041.277000", "112043.278000", "112045.278000", "112047.278000", "112049.277000", "112051.277000", "112053.276000", "112055.276000", "112057.277000", "112059.278000", "112101.277000", "112103.277000", "112105.278000", "112107.277000", "112109.276000", "112111.277000", "112113.277000", "112115.277000", "112117.277000", "112119.277000", "112121.277000", "112123.278000", "112125.276000", "112127.277000", "112129.277000", "112131.277000", "112133.277000", "112135.277000", "112137.277000", "112139.277000", "112141.277000", "112143.276000", "112145.277000", "112147.277000", "112149.278000", "112151.277000", "112153.277000", "112155.277000", "112157.277000", "112159.277000", "112201.277000", "112203.276000", "112205.277000", "112207.278000", "112209.278000", "112211.278000", "112213.277000", "112215.277000", "112217.277000", "112219.276000", "112221.276000", "112223.278000", "112225.277000", "112227.278000", "112229.278000", "112231.278000", "112233.277000", "112235.276000", "112237.276000", "112239.277000", "112241.278000", "112243.278000", "112245.278000", "112247.277000", "112249.277000", "112251.277000", "112253.277000", "112255.277000", "112257.276000", "112259.278000", "112301.277000", "112303.278000", "112305.277000", "112307.278000", "112309.278000", "112311.276000", "112313.277000", "112315.277000", "112317.278000", "112319.278000", "112321.278000", "112323.278000", "112325.277000", "112327.277000", "112329.277000", "112331.277000", "112333.277000", "112335.278000", "112337.278000", "112339.278000", "112341.278000", "112343.278000", "112345.277000", "112347.277000", "112349.276000", "112351.278000", "112353.277000", "112355.277000", "112357.278000", "112359.278000", "112401.277000", "112403.276000", "112405.277000", "112407.276000", "112409.278000", "112411.278000", "112413.277000", "112415.278000", "112417.277000", "112419.278000", "112421.276000", "112423.276000", "112425.276000", "112427.278000", "112429.278000", "112431.277000", "112433.278000", "112435.278000", "112437.278000", "112439.277000", "112441.276000", "112443.278000", "112445.277000", "112447.278000", "112449.278000", "112451.277000", "112453.278000", "112455.276000", "112457.276000", "112459.277000", "112501.277000", "112503.278000", "112505.278000", "112507.278000", "112509.277000", "112511.278000", "112513.277000", "112515.277000", "112517.277000", "112519.278000", "112521.277000", "112523.277000", "112525.278000", "112527.278000", "112529.278000", "112531.277000", "112533.276000", "112535.276000", "112537.278000", "112539.277000", "112541.277000", "112543.278000", "112545.277000", "112547.278000", "112549.276000", "112551.277000", "112553.281000", "112555.278000", "112557.278000", "112559.277000", "112601.277000", "112603.278000", "112605.277000", "112607.277000", "112609.277000", "112611.278000", "112613.278000", "112615.278000", "112617.278000", "112619.278000", "112621.278000", "112623.277000", "112625.276000", "112627.277000", "112629.278000", "112631.278000", "112633.277000", "112635.278000", "112637.277000", "112639.278000", "112641.276000", "112643.277000", "112645.277000", "112647.278000", "112649.278000", "112651.278000", "112653.278000", "112655.277000", "112657.278000", "112659.277000", "112701.277000", "112703.278000", "112705.278000", "112707.278000", "112709.278000", "112711.278000", "112712.927000"],
      "InstanceNumber": [1, 2, 3, 4, 5, 6, 7, 8, 9, 10, 11, 12, 13, 14, 15, 16, 17, 18, 19, 20, 21, 22, 23, 24, 25, 26, 27, 28, 29, 30, 31, 32, 33, 34, 35, 36, 37, 38, 39, 40, 41, 42, 43, 44, 45, 46, 47, 48, 49, 50, 51, 52, 53, 54, 55, 56, 57, 58, 59, 60, 61, 62, 63, 64, 65, 66, 67, 68, 69, 70, 71, 72, 73, 74, 75, 76, 77, 78, 79, 80, 81, 82, 83, 84, 85, 86, 87, 88, 89, 90, 91, 92, 93, 94, 95, 96, 97, 98, 99, 100, 101, 102, 103, 104, 105, 106, 107, 108, 109, 110, 111, 112, 113, 114, 115, 116, 117, 118, 119, 120, 121, 122, 123, 124, 125, 126, 127, 128, 129, 130, 131, 132, 133, 134, 135, 136, 137, 138, 139, 140, 141, 142, 143, 144, 145, 146, 147, 148, 149, 150, 151, 152, 153, 154, 155, 156, 157, 158, 159, 160, 161, 162, 163, 164, 165, 166, 167, 168, 169, 170, 171, 172, 173, 174, 175, 176, 177, 178, 179, 180, 181, 182, 183, 184, 185, 186, 187, 188, 189, 190, 191, 192, 193, 194, 195, 196, 197, 198, 199, 200, 201, 202, 203, 204, 205, 206, 207, 208, 209, 210, 211, 212, 213, 214, 215, 216, 217, 218, 219, 220, 221, 222, 223, 224, 225, 226, 227, 228, 229, 230, 231, 232, 233, 234, 235, 236, 237, 238, 239, 240, 241, 242, 243, 244, 245, 246, 247, 248, 249, 250, 251, 252, 253, 254, 255, 256],
      "LargestImagePixelValue": [3955, 3918, 3990, 3926, 3935, 3901, 3919, 3943, 3943, 3943, 3920, 3960, 3893, 3860, 3904, 3901, 3914, 3907, 3913, 3878, 3900, 3879, 3923, 3897, 3912, 3895, 3909, 3900, 3893, 3913, 3893, 3925, 3896, 3949, 3901, 3922, 3921, 3895, 3949, 3871, 3912, 3954, 3898, 3937, 3909, 3960, 3923, 3948, 3893, 3930, 3898, 3922, 3904, 3897, 3913, 3901, 3917, 3909, 3894, 3919, 3927, 3895, 3929, 3938, 3941, 3925, 3928, 3911, 3939, 3926, 3924, 3951, 3902, 3952, 3958, 3918, 3928, 3882, 3906, 3934, 3906, 3916, 3899, 3864, 3888, 3921, 3928, 3908, 3935, 3915, 3982, 3922, 3984, 3978, 3942, 3940, 3971, 3929, 3933, 3923, 3957, 3890, 3975, 3989, 3974, 3982, 3913, 3962, 3982, 3995, 3955, 4033, 3980, 3916, 3961, 3932, 3948, 3948, 3949, 3889, 3850, 3933, 3943, 3913, 3906, 3879, 3938, 3894, 4008, 3968, 4007, 3967, 3974, 3992, 3964, 3978, 3962, 3966, 3926, 3963, 3946, 3986, 3948, 3960, 3939, 3971, 3986, 3980, 4005, 3962, 3963, 3965, 3984, 3969, 3938, 3953, 3956, 3937, 3889, 3944, 3951, 3933, 3958, 3918, 4003, 3966, 3925, 3965, 3929, 3940, 3983, 3918, 3979, 3940, 3889, 3956, 3903, 3913, 3915, 3938, 3973, 3940, 3982, 3938, 3961, 3922, 3957, 3917, 3971, 3952, 3960, 3951, 3957, 3921, 3953, 3919, 3948, 3911, 3972, 3953, 3958, 3962, 3958, 3988, 3935, 3977, 3936, 3937, 4003, 3983, 3969, 3983, 3931, 3920, 3928, 3958, 3932, 3978, 3966, 3943, 3955, 3949, 3949, 3892, 3983, 3942, 3979, 3903, 3974, 3975, 3929, 3953, 3925, 3967, 3956, 3968, 3950, 3919, 3951, 3897, 3977, 3931, 3968, 3974, 3928, 3919, 3899, 3935, 3959, 3946, 3939, 3975, 3977, 3998, 3939, 3928],
      "WindowCenter": [822.0, 822.0, 821.0, 821.0, 821.0, 822.0, 821.0, 821.0, 820.0, 820.0, 821.0, 821.0, 820.0, 820.0, 821.0, 821.0, 821.0, 820.0, 820.0, 819.0, 819.0, 819.0, 819.0, 820.0, 820.0, 821.0, 820.0, 820.0, 820.0, 820.0, 820.0, 819.0, 819.0, 819.0, 819.0, 820.0, 820.0, 821.0, 822.0, 821.0, 820.0, 820.0, 818.0, 819.0, 819.0, 819.0, 820.0, 819.0, 820.0, 819.0, 820.0, 820.0, 820.0, 820.0, 821.0, 821.0, 821.0, 820.0, 819.0, 819.0, 818.0, 819.0, 818.0, 818.0, 818.0, 820.0, 820.0, 821.0, 819.0, 819.0, 819.0, 819.0, 819.0, 818.0, 819.0, 818.0, 819.0, 819.0, 819.0, 820.0, 819.0, 821.0, 820.0, 820.0, 819.0, 819.0, 820.0, 819.0, 821.0, 820.0, 821.0, 820.0, 819.0, 820.0, 820.0, 821.0, 820.0, 820.0, 819.0, 818.0, 820.0, 820.0, 820.0, 821.0, 820.0, 820.0, 819.0, 819.0, 819.0, 819.0, 819.0, 819.0, 820.0, 819.0, 820.0, 820.0, 820.0, 820.0, 819.0, 819.0, 818.0, 820.0, 820.0, 819.0, 819.0, 818.0, 820.0, 820.0, 821.0, 820.0, 820.0, 820.0, 820.0, 821.0, 820.0, 821.0, 820.0, 821.0, 820.0, 820.0, 819.0, 820.0, 821.0, 821.0, 821.0, 820.0, 820.0, 819.0, 820.0, 820.0, 820.0, 820.0, 819.0, 819.0, 819.0, 820.0, 820.0, 819.0, 819.0, 818.0, 820.0, 820.0, 821.0, 820.0, 820.0, 821.0, 820.0, 821.0, 819.0, 818.0, 819.0, 819.0, 819.0, 819.0, 819.0, 820.0, 819.0, 819.0, 821.0, 820.0, 821.0, 821.0, 822.0, 820.0, 821.0, 820.0, 821.0, 820.0, 820.0, 819.0, 820.0, 821.0, 821.0, 821.0, 821.0, 820.0, 820.0, 820.0, 820.0, 820.0, 819.0, 819.0, 819.0, 820.0, 820.0, 821.0, 821.0, 821.0, 820.0, 820.0, 821.0, 821.0, 820.0, 820.0, 820.0, 820.0, 821.0, 821.0, 821.0, 819.0, 820.0, 820.0, 821.0, 820.0, 820.0, 820.0, 821.0, 821.0, 822.0, 821.0, 819.0, 819.0, 819.0, 820.0, 821.0, 821.0, 821.0, 820.0, 821.0, 820.0, 821.0, 821.0, 820.0, 820.0, 819.0, 819.0, 819.0, 820.0, 820.0, 819.0, 819.0, 819.0, 820.0, 821.0, 819.0, 820.0],
      "WindowWidth": [1792.0, 1789.0, 1789.0, 1789.0, 1789.0, 1790.0, 1788.0, 1787.0, 1784.0, 1786.0, 1787.0, 1787.0, 1785.0, 1786.0, 1789.0, 1787.0, 1787.0, 1784.0, 1786.0, 1783.0, 1782.0, 1781.0, 1783.0, 1784.0, 1785.0, 1787.0, 1786.0, 1785.0, 1786.0, 1786.0, 1785.0, 1783.0, 1781.0, 1781.0, 1783.0, 1784.0, 1784.0, 1789.0, 1792.0, 1788.0, 1784.0, 1784.0, 1781.0, 1783.0, 1782.0, 1783.0, 1784.0, 1783.0, 1784.0, 1784.0, 1786.0, 1786.0, 1786.0, 1786.0, 1787.0, 1789.0, 1787.0, 1785.0, 1783.0, 1783.0, 1780.0, 1781.0, 1779.0, 1781.0, 1781.0, 1784.0, 1786.0, 1787.0, 1783.0, 1782.0, 1783.0, 1782.0, 1781.0, 1780.0, 1782.0, 1780.0, 1782.0, 1781.0, 1783.0, 1785.0, 1783.0, 1788.0, 1785.0, 1785.0, 1781.0, 1782.0, 1784.0, 1783.0, 1787.0, 1785.0, 1787.0, 1784.0, 1784.0, 1785.0, 1784.0, 1787.0, 1786.0, 1785.0, 1783.0, 1780.0, 1784.0, 1784.0, 1785.0, 1786.0, 1784.0, 1784.0, 1781.0, 1782.0, 1781.0, 1783.0, 1783.0, 1784.0, 1784.0, 1782.0, 1785.0, 1785.0, 1785.0, 1784.0, 1781.0, 1782.0, 1779.0, 1784.0, 1785.0, 1782.0, 1782.0, 1780.0, 1783.0, 1784.0, 1786.0, 1785.0, 1785.0, 1785.0, 1785.0, 1787.0, 1786.0, 1787.0, 1785.0, 1786.0, 1783.0, 1783.0, 1781.0, 1783.0, 1787.0, 1787.0, 1787.0, 1784.0, 1785.0, 1782.0, 1784.0, 1784.0, 1784.0, 1784.0, 1781.0, 1782.0, 1782.0, 1786.0, 1784.0, 1782.0, 1780.0, 1779.0, 1783.0, 1784.0, 1786.0, 1783.0, 1785.0, 1786.0, 1785.0, 1786.0, 1781.0, 1780.0, 1782.0, 1780.0, 1782.0, 1782.0, 1781.0, 1784.0, 1782.0, 1781.0, 1785.0, 1785.0, 1788.0, 1786.0, 1789.0, 1785.0, 1787.0, 1785.0, 1787.0, 1785.0, 1784.0, 1781.0, 1784.0, 1786.0, 1787.0, 1785.0, 1787.0, 1785.0, 1785.0, 1784.0, 1784.0, 1784.0, 1781.0, 1782.0, 1782.0, 1784.0, 1783.0, 1786.0, 1786.0, 1786.0, 1783.0, 1785.0, 1786.0, 1788.0, 1785.0, 1782.0, 1784.0, 1785.0, 1787.0, 1787.0, 1786.0, 1783.0, 1784.0, 1785.0, 1786.0, 1784.0, 1786.0, 1785.0, 1786.0, 1788.0, 1788.0, 1787.0, 1782.0, 1782.0, 1782.0, 1783.0, 1787.0, 1786.0, 1787.0, 1783.0, 1786.0, 1785.0, 1786.0, 1785.0, 1783.0, 1783.0, 1780.0, 1782.0, 1782.0, 1783.0, 1783.0, 1781.0, 1782.0, 1782.0, 1784.0, 1786.0, 1781.0, 1782.0]
    },
    "slices": {}
  }
}