{
  "AcquisitionMatrixPE": 100,
  "AcquisitionNumber": 1,
  "AcquisitionTime": "11:27:51.925000",
  "BandwidthPerPixelPhaseEncode": 18.519,
  "BaseResolution": 100,
  "BodyPartExamined": "BRAIN",
  "ConsistencyInfo": "N4_VE11C_LATEST_20160120",
  "ConversionSoftware": "dcm2niix",
  "ConversionSoftwareVersion": "v1.0.20180622 GCC4.9.2",
  "DerivedVendorReportedEchoSpacing": 0.000539986,
  "DeviceSerialNumber": "166078",
  "DwellTime": 2.1e-06,
  "EchoTime": 0.034,
  "EchoTrainLength": 100,
  "EffectiveEchoSpacing": 0.000539986,
  "FlipAngle": 90,
  "ImageOrientationPatientDICOM": [1, 0, 0, 0, 0.993961, -0.109734],
  "ImageType": [
    "ORIGINAL",
    "PRIMARY",
    "M",
    "ND",
    "MOSAIC"
],
  "InPlanePhaseEncodingDirectionDICOM": "COL",
  "InstitutionAddress": "Street_StreetNo_Bei_Jing_District_CN_ZIP",
  "InstitutionName": "BeiJing_Normal_University",
  "InstitutionalDepartmentName": "Department",
  "MRAcquisitionType": "2D",
  "MagneticFieldStrength": 3,
  "Manufacturer": "Siemens",
  "ManufacturersModelName": "Prisma",
  "Modality": "MR",
  "MultibandAccelerationFactor": 3,
  "PartialFourier": 1,
  "PatientPosition": "HFS",
  "PercentPhaseFOV": 100,
  "PhaseEncodingDirection": "j-",
  "PhaseEncodingSteps": 100,
  "PhaseResolution": 1,
  "PixelBandwidth": 2380,
  "ProcedureStepDescription": "BNU_P2018_64CH_Zhen.ZongLei",
  "ProtocolName": "bold_100x100_s3_2x2x2_static_256",
  "PulseSequenceDetails": "%SiemensSeq%_ep2d_bold",
  "ReceiveCoilActiveElements": "HC1-7;NC1",
  "ReceiveCoilName": "HeadNeck_64",
  "ReconMatrixPE": 100,
  "RepetitionTime": 2,
  "SAR": 0.0687404,
  "ScanOptions": "FS",
  "ScanningSequence": "EP",
  "SequenceName": "_epfid2d1_100",
  "SequenceVariant": "SK",
  "SeriesDescription": "bold_100x100_s3_2x2x2_static_256",
  "SeriesNumber": 5,
  "ShimSetting": [-5469, -11488, -1271, 251, -49, -179, -223, 93],
  "SliceThickness": 2,
  "SliceTiming": [1.485, 0, 0.99, 0.0825, 1.0725, 0.165, 1.155, 0.2475, 1.2375, 0.33, 1.32, 0.4125, 1.4025, 0.5775, 1.5675, 0.66, 1.65, 0.7425, 1.7325, 0.825, 1.815, 0.9075, 1.8975, 0.495, 1.485, 0, 0.99, 0.0825, 1.0725, 0.165, 1.155, 0.2475, 1.2375, 0.33, 1.32, 0.4125, 1.4025, 0.5775, 1.5675, 0.66, 1.65, 0.7425, 1.7325, 0.825, 1.815, 0.9075, 1.8975, 0.495, 1.485, 0, 0.99, 0.0825, 1.0725, 0.165, 1.155, 0.2475, 1.2375, 0.33, 1.32, 0.4125, 1.4025, 0.5775, 1.5675, 0.66, 1.65, 0.7425, 1.7325, 0.825, 1.815, 0.9075, 1.8975, 0.495],
  "SoftwareVersions": "syngo_MR_E11",
  "SpacingBetweenSlices": 2,
  "StationName": "AWP166078",
  "TaskName": "naturalvision",
  "TotalReadoutTime": 0.0534586,
  "TxRefAmp": 220.906,
  "dcmmeta_affine": [
    [-2.0, 0.0, 0.0, 102.02409362792969],
    [0.0, 1.987921953201294, -0.2194686233997345, -83.78089141845703],
    [0.0, 0.2194686233997345, 1.987921953201294, -86.16374206542969],
    [0.0, 0.0, 0.0, 1.0]
],
  "dcmmeta_reorient_transform": [
    [0.0, -1.0, 0.0, 99.0],
    [1.0, 0.0, 0.0, 0.0],
    [0.0, 0.0, 1.0, 0.0],
    [0.0, 0.0, 0.0, 1.0]
],
  "dcmmeta_shape": [100, 100, 72, 256],
  "dcmmeta_slice_dim": 2,
  "dcmmeta_version": 0.6,
  "global": {
    "const": {
      "AcquisitionMatrix": [100, 0, 0, 100],
      "AngioFlag": "N",
      "BitsAllocated": 16,
      "BitsStored": 12,
      "BodyPartExamined": "BRAIN",
      "Columns": 900,
      "EchoNumbers": 1,
      "EchoTime": 34.0,
      "EchoTrainLength": 100,
      "FlipAngle": 90.0,
      "HighBit": 11,
      "ImageOrientationPatient": [1.0, 0.0, 0.0, 0.0, 0.99396095521985, -0.1097343132226],
      "ImagePositionPatient": [-902.02409648895, -908.19213993316, 23.35109949069],
      "ImageType": [
        "ORIGINAL",
        "PRIMARY",
        "M",
        "ND",
        "MOSAIC"
],
      "ImagedNucleus": "1H",
      "ImagingFrequency": 123.257786,
      "InPlanePhaseEncodingDirection": "COL",
      "MRAcquisitionType": "2D",
      "MagneticFieldStrength": 3.0,
      "Manufacturer": "SIEMENS",
      "ManufacturerModelName": "Prisma",
      "Modality": "MR",
      "NumberOfAverages": 1.0,
      "NumberOfPhaseEncodingSteps": 100,
      "PercentPhaseFieldOfView": 100.0,
      "PercentSampling": 100.0,
      "PerformedProcedureStepStartTime": "110624.388000",
      "PhotometricInterpretation": "MONOCHROME2",
      "PixelBandwidth": 2380.0,
      "PixelRepresentation": 0,
      "PixelSpacing": [2.0, 2.0],
      "ProtocolName": "bold_100x100_s3_2x2x2_static_256",
      "RepetitionTime": 2000.0,
      "Rows": 900,
      "SAR": 0.06874038919746,
      "SamplesPerPixel": 1,
      "ScanOptions": "FS",
      "ScanningSequence": "EP",
      "SequenceName": "*epfid2d1_100",
      "SequenceVariant": "SK",
      "SeriesDescription": "bold_100x100_s3_2x2x2_static_256",
      "SeriesNumber": 5,
      "SeriesTime": "112754.695000",
      "SliceLocation": -76.449759594547,
      "SliceThickness": 2.0,
      "SmallestImagePixelValue": 0,
      "SoftwareVersions": "syngo MR E11",
      "SpacingBetweenSlices": 2.000000004579,
      "SpecificCharacterSet": "ISO_IR 100",
      "StudyID": "1",
      "StudyTime": "110624.281000",
      "TransmitCoilName": "Body",
      "VariableFlipAngleFlag": "N",
      "WindowCenterWidthExplanation": "Algo1",
      "dBdt": 0.0},
    "slices": {}
  },
  "time": {
    "samples": {
      "AcquisitionNumber": [1, 2, 3, 4, 5, 6, 7, 8, 9, 10, 11, 12, 13, 14, 15, 16, 17, 18, 19, 20, 21, 22, 23, 24, 25, 26, 27, 28, 29, 30, 31, 32, 33, 34, 35, 36, 37, 38, 39, 40, 41, 42, 43, 44, 45, 46, 47, 48, 49, 50, 51, 52, 53, 54, 55, 56, 57, 58, 59, 60, 61, 62, 63, 64, 65, 66, 67, 68, 69, 70, 71, 72, 73, 74, 75, 76, 77, 78, 79, 80, 81, 82, 83, 84, 85, 86, 87, 88, 89, 90, 91, 92, 93, 94, 95, 96, 97, 98, 99, 100, 101, 102, 103, 104, 105, 106, 107, 108, 109, 110, 111, 112, 113, 114, 115, 116, 117, 118, 119, 120, 121, 122, 123, 124, 125, 126, 127, 128, 129, 130, 131, 132, 133, 134, 135, 136, 137, 138, 139, 140, 141, 142, 143, 144, 145, 146, 147, 148, 149, 150, 151, 152, 153, 154, 155, 156, 157, 158, 159, 160, 161, 162, 163, 164, 165, 166, 167, 168, 169, 170, 171, 172, 173, 174, 175, 176, 177, 178, 179, 180, 181, 182, 183, 184, 185, 186, 187, 188, 189, 190, 191, 192, 193, 194, 195, 196, 197, 198, 199, 200, 201, 202, 203, 204, 205, 206, 207, 208, 209, 210, 211, 212, 213, 214, 215, 216, 217, 218, 219, 220, 221, 222, 223, 224, 225, 226, 227, 228, 229, 230, 231, 232, 233, 234, 235, 236, 237, 238, 239, 240, 241, 242, 243, 244, 245, 246, 247, 248, 249, 250, 251, 252, 253, 254, 255, 256],
      "AcquisitionTime": ["112751.925000", "112753.925000", "112755.925000", "112757.925000", "112759.925000", "112801.925000", "112803.925000", "112805.925000", "112807.925000", "112809.925000", "112811.925000", "112813.925000", "112815.925000", "112817.925000", "112819.925000", "112821.925000", "112823.925000", "112825.925000", "112827.925000", "112829.925000", "112831.925000", "112833.925000", "112835.925000", "112837.925000", "112839.925000", "112841.925000", "112843.925000", "112845.925000", "112847.925000", "112849.925000", "112851.925000", "112853.925000", "112855.925000", "112857.925000", "112859.925000", "112901.925000", "112903.925000", "112905.925000", "112907.925000", "112909.925000", "112911.925000", "112913.925000", "112915.925000", "112917.925000", "112919.925000", "112921.925000", "112923.925000", "112925.925000", "112927.925000", "112929.925000", "112931.925000", "112933.925000", "112935.925000", "112937.925000", "112939.925000", "112941.925000", "112943.925000", "112945.925000", "112947.925000", "112949.925000", "112951.925000", "112953.925000", "112955.925000", "112957.925000", "112959.925000", "113001.925000", "113003.925000", "113005.925000", "113007.925000", "113009.925000", "113011.925000", "113013.925000", "113015.925000", "113017.925000", "113019.925000", "113021.925000", "113023.925000", "113025.925000", "113027.925000", "113029.925000", "113031.925000", "113033.925000", "113035.925000", "113037.925000", "113039.925000", "113041.925000", "113043.925000", "113045.925000", "113047.925000", "113049.925000", "113051.925000", "113053.925000", "113055.925000", "113057.925000", "113059.925000", "113101.925000", "113103.925000", "113105.925000", "113107.925000", "113109.925000", "113111.925000", "113113.925000", "113115.925000", "113117.925000", "113119.925000", "113121.925000", "113123.925000", "113125.925000", "113127.925000", "113129.925000", "113131.925000", "113133.925000", "113135.925000", "113137.925000", "113139.925000", "113141.925000", "113143.925000", "113145.925000", "113147.925000", "113149.925000", "113151.925000", "113153.925000", "113155.925000", "113157.925000", "113159.925000", "113201.925000", "113203.925000", "113205.925000", "113207.925000", "113209.925000", "113211.925000", "113213.925000", "113215.925000", "113217.925000", "113219.925000", "113221.925000", "113223.925000", "113225.925000", "113227.925000", "113229.925000", "113231.925000", "113233.925000", "113235.925000", "113237.925000", "113239.925000", "113241.925000", "113243.925000", "113245.925000", "113247.925000", "113249.925000", "113251.925000", "113253.925000", "113255.925000", "113257.925000", "113259.925000", "113301.925000", "113303.925000", "113305.925000", "113307.925000", "113309.925000", "113311.925000", "113313.925000", "113315.925000", "113317.925000", "113319.925000", "113321.925000", "113323.925000", "113325.925000", "113327.925000", "113329.925000", "113331.925000", "113333.925000", "113335.925000", "113337.925000", "113339.925000", "113341.925000", "113343.925000", "113345.925000", "113347.925000", "113349.925000", "113351.925000", "113353.925000", "113355.925000", "113357.925000", "113359.925000", "113401.925000", "113403.925000", "113405.925000", "113407.925000", "113409.925000", "113411.925000", "113413.925000", "113415.925000", "113417.925000", "113419.925000", "113421.925000", "113423.925000", "113425.925000", "113427.925000", "113429.925000", "113431.925000", "113433.925000", "113435.925000", "113437.925000", "113439.925000", "113441.925000", "113443.925000", "113445.925000", "113447.925000", "113449.925000", "113451.925000", "113453.925000", "113455.925000", "113457.925000", "113459.925000", "113501.925000", "113503.925000", "113505.925000", "113507.925000", "113509.925000", "113511.925000", "113513.925000", "113515.925000", "113517.925000", "113519.925000", "113521.925000", "113523.925000", "113525.925000", "113527.925000", "113529.925000", "113531.925000", "113533.925000", "113535.925000", "113537.925000", "113539.925000", "113541.925000", "113543.925000", "113545.925000", "113547.925000", "113549.925000", "113551.925000", "113553.925000", "113555.925000", "113557.925000", "113559.925000", "113601.925000", "113603.925000", "113605.925000", "113607.925000", "113609.925000", "113611.925000", "113613.925000", "113615.925000", "113617.925000", "113619.925000", "113621.925000"],
      "ContentTime": ["112754.699000", "112756.195000", "112758.195000", "112800.195000", "112802.195000", "112804.196000", "112806.195000", "112808.194000", "112810.195000", "112812.195000", "112814.195000", "112816.195000", "112818.195000", "112820.195000", "112822.196000", "112824.196000", "112826.194000", "112828.194000", "112830.195000", "112832.195000", "112834.196000", "112836.196000", "112838.195000", "112840.195000", "112842.195000", "112844.195000", "112846.194000", "112848.195000", "112850.195000", "112852.196000", "112854.195000", "112856.195000", "112858.195000", "112900.195000", "112902.194000", "112904.194000", "112906.195000", "112908.196000", "112910.195000", "112912.195000", "112914.195000", "112916.196000", "112918.195000", "112920.194000", "112922.194000", "112924.195000", "112926.195000", "112928.195000", "112930.196000", "112932.195000", "112934.196000", "112936.195000", "112938.194000", "112940.195000", "112942.195000", "112944.195000", "112946.195000", "112948.196000", "112950.696000", "112952.195000", "112954.194000", "112956.194000", "112958.195000", "113000.196000", "113002.195000", "113004.196000", "113006.195000", "113008.696000", "113010.195000", "113012.194000", "113014.195000", "113016.195000", "113018.196000", "113020.196000", "113022.195000", "113024.195000", "113026.195000", "113028.194000", "113030.195000", "113032.194000", "113034.195000", "113036.196000", "113038.195000", "113040.196000", "113042.196000", "113044.196000", "113046.194000", "113048.695000", "113050.196000", "113052.196000", "113054.196000", "113056.195000", "113058.195000", "113100.196000", "113102.196000", "113104.208000", "113106.195000", "113108.195000", "113110.196000", "113112.196000", "113114.195000", "113116.196000", "113118.195000", "113120.194000", "113122.194000", "113124.194000", "113126.195000", "113128.195000", "113130.196000", "113132.195000", "113134.196000", "113136.196000", "113138.194000", "113140.195000", "113142.194000", "113144.196000", "113146.195000", "113148.196000", "113150.195000", "113152.195000", "113154.196000", "113156.195000", "113158.194000", "113200.196000", "113202.195000", "113204.195000", "113206.195000", "113208.195000", "113210.196000", "113212.196000", "113214.195000", "113216.195000", "113218.196000", "113220.195000", "113222.195000", "113224.196000", "113226.195000", "113228.196000", "113230.194000", "113232.194000", "113234.195000", "113236.196000", "113238.195000", "113240.196000", "113242.195000", "113244.195000", "113246.196000", "113248.195000", "113250.194000", "113252.194000", "113254.195000", "113256.195000", "113258.195000", "113300.195000", "113302.195000", "113304.196000", "113306.195000", "113308.194000", "113310.195000", "113312.196000", "113314.195000", "113316.195000", "113318.196000", "113320.196000", "113322.195000", "113324.210000", "113326.194000", "113328.195000", "113330.196000", "113332.195000", "113334.196000", "113336.196000", "113338.195000", "113340.195000", "113342.195000", "113344.194000", "113346.196000", "113348.195000", "113350.195000", "113352.196000", "113354.696000", "113356.195000", "113358.195000", "113400.195000", "113402.194000", "113404.195000", "113406.196000", "113408.196000", "113410.196000", "113412.196000", "113414.196000", "113416.195000", "113418.195000", "113420.195000", "113422.196000", "113424.196000", "113426.195000", "113428.196000", "113430.195000", "113432.196000", "113434.194000", "113436.195000", "113438.195000", "113440.196000", "113442.196000", "113444.199000", "113446.195000", "113448.696000", "113450.194000", "113452.195000", "113454.195000", "113456.195000", "113458.196000", "113500.196000", "113502.195000", "113504.195000", "113506.195000", "113508.195000", "113510.195000", "113512.194000", "113514.195000", "113516.196000", "113518.196000", "113520.195000", "113522.196000", "113524.195000", "113526.194000", "113528.195000", "113530.195000", "113532.195000", "113534.196000", "113536.195000", "113538.195000", "113540.195000", "113542.195000", "113544.195000", "113546.195000", "113548.196000", "113550.195000", "113552.195000", "113554.196000", "113556.196000", "113558.196000", "113600.195000", "113602.194000", "113604.195000", "113606.195000", "113608.196000", "113610.197000", "113612.195000", "113614.195000", "113616.195000", "113618.195000", "113620.194000", "113622.195000", "113624.108000"],
      "InstanceCreationTime": ["112754.699000", "112756.195000", "112758.195000", "112800.195000", "112802.195000", "112804.196000", "112806.195000", "112808.194000", "112810.195000", "112812.195000", "112814.195000", "112816.195000", "112818.195000", "112820.195000", "112822.196000", "112824.196000", "112826.194000", "112828.194000", "112830.195000", "112832.195000", "112834.196000", "112836.196000", "112838.195000", "112840.195000", "112842.195000", "112844.195000", "112846.194000", "112848.195000", "112850.195000", "112852.196000", "112854.195000", "112856.195000", "112858.195000", "112900.195000", "112902.194000", "112904.194000", "112906.195000", "112908.196000", "112910.195000", "112912.195000", "112914.195000", "112916.196000", "112918.195000", "112920.194000", "112922.194000", "112924.195000", "112926.195000", "112928.195000", "112930.196000", "112932.195000", "112934.196000", "112936.195000", "112938.194000", "112940.195000", "112942.195000", "112944.195000", "112946.195000", "112948.196000", "112950.696000", "112952.195000", "112954.194000", "112956.194000", "112958.195000", "113000.196000", "113002.195000", "113004.196000", "113006.195000", "113008.696000", "113010.195000", "113012.194000", "113014.195000", "113016.195000", "113018.196000", "113020.196000", "113022.195000", "113024.195000", "113026.195000", "113028.194000", "113030.195000", "113032.194000", "113034.195000", "113036.196000", "113038.195000", "113040.196000", "113042.196000", "113044.196000", "113046.194000", "113048.695000", "113050.196000", "113052.196000", "113054.196000", "113056.195000", "113058.195000", "113100.196000", "113102.196000", "113104.208000", "113106.195000", "113108.195000", "113110.196000", "113112.196000", "113114.195000", "113116.196000", "113118.195000", "113120.194000", "113122.194000", "113124.194000", "113126.195000", "113128.195000", "113130.196000", "113132.195000", "113134.196000", "113136.196000", "113138.194000", "113140.195000", "113142.194000", "113144.196000", "113146.195000", "113148.196000", "113150.195000", "113152.195000", "113154.196000", "113156.195000", "113158.194000", "113200.196000", "113202.195000", "113204.195000", "113206.195000", "113208.195000", "113210.196000", "113212.196000", "113214.195000", "113216.195000", "113218.196000", "113220.195000", "113222.195000", "113224.196000", "113226.195000", "113228.196000", "113230.194000", "113232.194000", "113234.195000", "113236.196000", "113238.195000", "113240.196000", "113242.195000", "113244.195000", "113246.196000", "113248.195000", "113250.194000", "113252.194000", "113254.195000", "113256.195000", "113258.195000", "113300.195000", "113302.195000", "113304.196000", "113306.195000", "113308.194000", "113310.195000", "113312.196000", "113314.195000", "113316.195000", "113318.196000", "113320.196000", "113322.195000", "113324.210000", "113326.194000", "113328.195000", "113330.196000", "113332.195000", "113334.196000", "113336.196000", "113338.195000", "113340.195000", "113342.195000", "113344.194000", "113346.196000", "113348.195000", "113350.195000", "113352.196000", "113354.696000", "113356.195000", "113358.195000", "113400.195000", "113402.194000", "113404.195000", "113406.196000", "113408.196000", "113410.196000", "113412.196000", "113414.196000", "113416.195000", "113418.195000", "113420.195000", "113422.196000", "113424.196000", "113426.195000", "113428.196000", "113430.195000", "113432.196000", "113434.194000", "113436.195000", "113438.195000", "113440.196000", "113442.196000", "113444.199000", "113446.195000", "113448.696000", "113450.194000", "113452.195000", "113454.195000", "113456.195000", "113458.196000", "113500.196000", "113502.195000", "113504.195000", "113506.195000", "113508.195000", "113510.195000", "113512.194000", "113514.195000", "113516.196000", "113518.196000", "113520.195000", "113522.196000", "113524.195000", "113526.194000", "113528.195000", "113530.195000", "113532.195000", "113534.196000", "113536.195000", "113538.195000", "113540.195000", "113542.195000", "113544.195000", "113546.195000", "113548.196000", "113550.195000", "113552.195000", "113554.196000", "113556.196000", "113558.196000", "113600.195000", "113602.194000", "113604.195000", "113606.195000", "113608.196000", "113610.197000", "113612.195000", "113614.195000", "113616.195000", "113618.195000", "113620.194000", "113622.195000", "113624.108000"],
      "InstanceNumber": [1, 2, 3, 4, 5, 6, 7, 8, 9, 10, 11, 12, 13, 14, 15, 16, 17, 18, 19, 20, 21, 22, 23, 24, 25, 26, 27, 28, 29, 30, 31, 32, 33, 34, 35, 36, 37, 38, 39, 40, 41, 42, 43, 44, 45, 46, 47, 48, 49, 50, 51, 52, 53, 54, 55, 56, 57, 58, 59, 60, 61, 62, 63, 64, 65, 66, 67, 68, 69, 70, 71, 72, 73, 74, 75, 76, 77, 78, 79, 80, 81, 82, 83, 84, 85, 86, 87, 88, 89, 90, 91, 92, 93, 94, 95, 96, 97, 98, 99, 100, 101, 102, 103, 104, 105, 106, 107, 108, 109, 110, 111, 112, 113, 114, 115, 116, 117, 118, 119, 120, 121, 122, 123, 124, 125, 126, 127, 128, 129, 130, 131, 132, 133, 134, 135, 136, 137, 138, 139, 140, 141, 142, 143, 144, 145, 146, 147, 148, 149, 150, 151, 152, 153, 154, 155, 156, 157, 158, 159, 160, 161, 162, 163, 164, 165, 166, 167, 168, 169, 170, 171, 172, 173, 174, 175, 176, 177, 178, 179, 180, 181, 182, 183, 184, 185, 186, 187, 188, 189, 190, 191, 192, 193, 194, 195, 196, 197, 198, 199, 200, 201, 202, 203, 204, 205, 206, 207, 208, 209, 210, 211, 212, 213, 214, 215, 216, 217, 218, 219, 220, 221, 222, 223, 224, 225, 226, 227, 228, 229, 230, 231, 232, 233, 234, 235, 236, 237, 238, 239, 240, 241, 242, 243, 244, 245, 246, 247, 248, 249, 250, 251, 252, 253, 254, 255, 256],
      "LargestImagePixelValue": [4095, 4009, 4024, 3987, 4019, 4008, 3991, 3985, 3996, 4036, 4010, 4011, 4012, 4031, 4024, 4002, 4043, 3997, 4018, 4010, 4060, 4043, 4055, 4065, 4014, 4058, 4012, 4031, 4027, 4070, 4067, 4049, 4094, 4047, 4033, 4019, 4013, 4016, 4060, 4058, 4048, 4022, 4039, 4020, 4079, 4095, 4058, 4075, 4056, 4037, 4012, 4007, 4033, 4049, 4065, 4061, 4073, 4076, 4077, 4057, 4072, 4064, 4049, 4045, 4070, 4095, 4053, 4094, 4078, 4075, 4084, 4065, 4065, 4028, 4053, 4060, 4059, 4095, 4093, 4082, 4095, 4089, 4089, 4078, 4091, 4094, 4085, 4077, 4072, 4038, 4039, 4079, 4088, 4095, 4086, 4073, 4061, 4095, 4085, 4083, 4095, 4095, 4071, 4081, 4095, 4095, 4095, 4087, 4095, 4083, 4094, 4056, 4083, 4094, 4095, 4095, 4079, 4095, 4088, 4074, 4093, 4095, 4091, 4068, 4053, 4073, 4095, 4094, 4095, 4095, 4063, 4095, 4095, 4089, 4095, 4095, 4085, 4095, 4085, 4095, 4095, 4092, 4089, 4088, 4095, 4095, 4095, 4095, 4095, 4095, 4095, 4095, 4095, 4095, 4095, 4089, 4095, 4095, 4088, 4095, 4095, 4095, 4095, 4079, 4095, 4095, 4095, 4095, 4095, 4080, 4095, 4095, 4095, 4095, 4095, 4095, 4095, 4095, 4095, 4095, 4095, 4095, 4095, 4095, 4095, 4095, 4095, 4095, 4095, 4095, 4095, 4095, 4095, 4095, 4095, 4095, 4095, 4095, 4095, 4095, 4095, 4095, 4095, 4095, 4095, 4095, 4095, 4095, 4095, 4095, 4095, 4095, 4095, 4095, 4095, 4095, 4095, 4095, 4095, 4095, 4095, 4095, 4095, 4095, 4095, 4095, 4095, 4095, 4095, 4095, 4095, 4095, 4095, 4095, 4095, 4095, 4095, 4095, 4095, 4095, 4095, 4095, 4095, 4095, 4095, 4095, 4095, 4095, 4095, 4095, 4095, 4095, 4095, 4095, 4095, 4095],
      "WindowCenter": [824.0, 824.0, 823.0, 824.0, 824.0, 823.0, 822.0, 821.0, 820.0, 820.0, 821.0, 822.0, 821.0, 820.0, 820.0, 819.0, 820.0, 819.0, 820.0, 819.0, 819.0, 819.0, 819.0, 821.0, 821.0, 821.0, 820.0, 820.0, 821.0, 820.0, 820.0, 820.0, 820.0, 821.0, 821.0, 822.0, 821.0, 821.0, 822.0, 821.0, 821.0, 820.0, 820.0, 820.0, 819.0, 820.0, 820.0, 820.0, 820.0, 821.0, 821.0, 821.0, 821.0, 821.0, 820.0, 819.0, 820.0, 819.0, 821.0, 821.0, 822.0, 822.0, 822.0, 822.0, 821.0, 820.0, 820.0, 821.0, 822.0, 822.0, 822.0, 821.0, 821.0, 820.0, 821.0, 821.0, 821.0, 822.0, 821.0, 821.0, 819.0, 819.0, 819.0, 820.0, 820.0, 820.0, 821.0, 821.0, 821.0, 820.0, 821.0, 820.0, 820.0, 820.0, 821.0, 821.0, 820.0, 820.0, 820.0, 819.0, 820.0, 819.0, 820.0, 819.0, 820.0, 820.0, 820.0, 820.0, 819.0, 819.0, 820.0, 820.0, 821.0, 822.0, 823.0, 822.0, 821.0, 822.0, 821.0, 821.0, 821.0, 821.0, 822.0, 821.0, 822.0, 822.0, 823.0, 823.0, 821.0, 822.0, 822.0, 822.0, 821.0, 820.0, 821.0, 821.0, 821.0, 821.0, 822.0, 821.0, 822.0, 822.0, 822.0, 821.0, 821.0, 821.0, 821.0, 821.0, 821.0, 821.0, 822.0, 821.0, 821.0, 821.0, 821.0, 822.0, 822.0, 823.0, 822.0, 822.0, 821.0, 821.0, 821.0, 821.0, 822.0, 822.0, 822.0, 823.0, 823.0, 822.0, 821.0, 820.0, 820.0, 820.0, 820.0, 821.0, 820.0, 822.0, 823.0, 823.0, 823.0, 821.0, 822.0, 820.0, 820.0, 821.0, 821.0, 822.0, 821.0, 820.0, 822.0, 822.0, 823.0, 822.0, 822.0, 821.0, 821.0, 821.0, 822.0, 823.0, 822.0, 822.0, 823.0, 822.0, 822.0, 822.0, 821.0, 822.0, 822.0, 823.0, 822.0, 824.0, 822.0, 821.0, 822.0, 821.0, 822.0, 822.0, 823.0, 823.0, 822.0, 822.0, 821.0, 821.0, 820.0, 821.0, 820.0, 821.0, 822.0, 823.0, 822.0, 822.0, 822.0, 822.0, 822.0, 821.0, 821.0, 821.0, 822.0, 823.0, 824.0, 823.0, 823.0, 821.0, 821.0, 821.0, 822.0, 821.0, 820.0, 820.0, 821.0, 821.0, 821.0, 822.0, 821.0, 822.0],
      "WindowWidth": [1797.0, 1796.0, 1793.0, 1796.0, 1795.0, 1791.0, 1788.0, 1786.0, 1786.0, 1786.0, 1788.0, 1789.0, 1788.0, 1785.0, 1786.0, 1783.0, 1786.0, 1783.0, 1784.0, 1783.0, 1783.0, 1783.0, 1783.0, 1788.0, 1787.0, 1788.0, 1786.0, 1785.0, 1787.0, 1786.0, 1786.0, 1784.0, 1785.0, 1787.0, 1787.0, 1789.0, 1787.0, 1788.0, 1790.0, 1786.0, 1787.0, 1783.0, 1784.0, 1783.0, 1783.0, 1785.0, 1784.0, 1784.0, 1786.0, 1788.0, 1787.0, 1788.0, 1787.0, 1787.0, 1786.0, 1783.0, 1784.0, 1782.0, 1787.0, 1789.0, 1790.0, 1791.0, 1789.0, 1789.0, 1786.0, 1786.0, 1784.0, 1788.0, 1789.0, 1790.0, 1790.0, 1787.0, 1787.0, 1785.0, 1788.0, 1787.0, 1789.0, 1790.0, 1789.0, 1786.0, 1782.0, 1782.0, 1782.0, 1784.0, 1784.0, 1786.0, 1788.0, 1787.0, 1788.0, 1784.0, 1786.0, 1786.0, 1785.0, 1786.0, 1787.0, 1789.0, 1786.0, 1785.0, 1784.0, 1783.0, 1785.0, 1783.0, 1785.0, 1783.0, 1784.0, 1785.0, 1784.0, 1785.0, 1783.0, 1781.0, 1786.0, 1784.0, 1789.0, 1790.0, 1792.0, 1790.0, 1787.0, 1789.0, 1787.0, 1789.0, 1789.0, 1788.0, 1789.0, 1787.0, 1790.0, 1790.0, 1793.0, 1792.0, 1789.0, 1790.0, 1790.0, 1789.0, 1786.0, 1785.0, 1787.0, 1787.0, 1788.0, 1788.0, 1790.0, 1787.0, 1789.0, 1789.0, 1790.0, 1787.0, 1787.0, 1787.0, 1787.0, 1787.0, 1787.0, 1789.0, 1789.0, 1789.0, 1787.0, 1788.0, 1789.0, 1791.0, 1790.0, 1793.0, 1790.0, 1789.0, 1789.0, 1788.0, 1789.0, 1789.0, 1792.0, 1790.0, 1792.0, 1793.0, 1793.0, 1790.0, 1789.0, 1785.0, 1785.0, 1787.0, 1787.0, 1789.0, 1786.0, 1790.0, 1795.0, 1794.0, 1794.0, 1790.0, 1789.0, 1786.0, 1786.0, 1788.0, 1788.0, 1789.0, 1787.0, 1786.0, 1790.0, 1791.0, 1793.0, 1792.0, 1791.0, 1788.0, 1788.0, 1789.0, 1790.0, 1794.0, 1791.0, 1790.0, 1792.0, 1790.0, 1789.0, 1790.0, 1788.0, 1790.0, 1789.0, 1792.0, 1791.0, 1795.0, 1791.0, 1789.0, 1790.0, 1787.0, 1789.0, 1789.0, 1793.0, 1792.0, 1791.0, 1789.0, 1787.0, 1787.0, 1785.0, 1786.0, 1786.0, 1787.0, 1789.0, 1792.0, 1790.0, 1789.0, 1790.0, 1789.0, 1790.0, 1788.0, 1789.0, 1786.0, 1791.0, 1794.0, 1795.0, 1793.0, 1792.0, 1788.0, 1788.0, 1787.0, 1789.0, 1786.0, 1784.0, 1785.0, 1787.0, 1788.0, 1788.0, 1789.0, 1788.0, 1790.0]
    },
    "slices": {}
  }
}