{
 "AcquisitionMatrixPE": 100,
 "AcquisitionNumber": 1,
 "AcquisitionTime": "11:31:53.507500",
 "BandwidthPerPixelPhaseEncode": 18.519,
 "BaseResolution": 100,
 "BodyPartExamined": "BRAIN",
 "ConsistencyInfo": "N4_VE11C_LATEST_20160120",
 "ConversionSoftware": "dcm2niix",
 "ConversionSoftwareVersion": "v1.0.20180622 GCC4.9.2",
 "DerivedVendorReportedEchoSpacing": 0.000539986,
 "DeviceSerialNumber": "166078",
 "DwellTime": 2.1e-06,
 "EchoTime": 0.034,
 "EchoTrainLength": 100,
 "EffectiveEchoSpacing": 0.000539986,
 "FlipAngle": 90,
 "ImageOrientationPatientDICOM": [
  1,
  -4.59504e-07,
  -1.24617e-05,
  4.6189e-08,
  0.999451,
  -0.0331466
 ],
 "ImageType": [
  "ORIGINAL",
  "PRIMARY",
  "M",
  "ND",
  "MOSAIC"
 ],
 "InPlanePhaseEncodingDirectionDICOM": "COL",
 "InstitutionAddress": "Street_StreetNo_Bei_Jing_District_CN_ZIP",
 "InstitutionName": "BeiJing_Normal_University",
 "InstitutionalDepartmentName": "Department",
 "MRAcquisitionType": "2D",
 "MagneticFieldStrength": 3,
 "Manufacturer": "Siemens",
 "ManufacturersModelName": "Prisma",
 "Modality": "MR",
 "MultibandAccelerationFactor": 3,
 "PartialFourier": 1,
 "PatientPosition": "HFS",
 "PercentPhaseFOV": 100,
 "PhaseEncodingDirection": "j-",
 "PhaseEncodingSteps": 100,
 "PhaseResolution": 1,
 "PixelBandwidth": 2380,
 "ProcedureStepDescription": "BNU_P2018_64CH_Zhen.ZongLei",
 "ProtocolName": "bold_100x100_s3_2x2x2_retino_150",
 "PulseSequenceDetails": "%SiemensSeq%_ep2d_bold",
 "ReceiveCoilActiveElements": "HC1-7;NC1",
 "ReceiveCoilName": "HeadNeck_64",
 "ReconMatrixPE": 100,
 "RepetitionTime": 2,
 "SAR": 0.0808055,
 "ScanOptions": "FS",
 "ScanningSequence": "EP",
 "SequenceName": "_epfid2d1_100",
 "SequenceVariant": "SK",
 "SeriesDescription": "bold_100x100_s3_2x2x2_retino_150",
 "SeriesNumber": 6,
 "ShimSetting": [
  -5467,
  -11522,
  -1299,
  496,
  -16,
  -246,
  -103,
  19
 ],
 "SliceThickness": 2,
 "SliceTiming": [
  1.4825,
  0,
  0.9875,
  0.0825,
  1.07,
  0.165,
  1.1525,
  0.2475,
  1.235,
  0.33,
  1.3175,
  0.4125,
  1.4,
  0.575,
  1.565,
  0.6575,
  1.6475,
  0.74,
  1.73,
  0.8225,
  1.8125,
  0.905,
  1.895,
  0.495,
  1.4825,
  0,
  0.9875,
  0.0825,
  1.07,
  0.165,
  1.1525,
  0.2475,
  1.235,
  0.33,
  1.3175,
  0.4125,
  1.4,
  0.575,
  1.565,
  0.6575,
  1.6475,
  0.74,
  1.73,
  0.8225,
  1.8125,
  0.905,
  1.895,
  0.495,
  1.4825,
  0,
  0.9875,
  0.0825,
  1.07,
  0.165,
  1.1525,
  0.2475,
  1.235,
  0.33,
  1.3175,
  0.4125,
  1.4,
  0.575,
  1.565,
  0.6575,
  1.6475,
  0.74,
  1.73,
  0.8225,
  1.8125,
  0.905,
  1.895,
  0.495
 ],
 "SoftwareVersions": "syngo_MR_E11",
 "SpacingBetweenSlices": 2,
 "StationName": "AWP166078",
 "TaskName": "prf",
 "TotalReadoutTime": 0.0534586,
 "TxRefAmp": 214.219,
 "dcmmeta_affine": [
  [
   -2.0,
   9.237798792582907e-08,
   -2.494008731446229e-05,
   100.09884643554688
  ],
  [
   9.190073910758656e-07,
   1.9989010095596313,
   -0.06629329174757004,
   -95.54011535644531
  ],
  [
   -2.4923319870140404e-05,
   0.06629329174757004,
   1.9989010095596313,
   -63.81886672973633
  ],
  [
   0.0,
   0.0,
   0.0,
   1.0
  ]
 ],
 "dcmmeta_reorient_transform": [
  [
   0.0,
   -1.0,
   0.0,
   99.0
  ],
  [
   1.0,
   0.0,
   0.0,
   0.0
  ],
  [
   0.0,
   0.0,
   1.0,
   0.0
  ],
  [
   0.0,
   0.0,
   0.0,
   1.0
  ]
 ],
 "dcmmeta_shape": [
  100,
  100,
  72,
  150
 ],
 "dcmmeta_slice_dim": 2,
 "dcmmeta_version": 0.6,
 "global": {
  "const": {
   "AcquisitionMatrix": [
    100,
    0,
    0,
    100
   ],
   "AngioFlag": "N",
   "BitsAllocated": 16,
   "BitsStored": 12,
   "BodyPartExamined": "BRAIN",
   "Columns": 900,
   "EchoNumbers": 1,
   "EchoTime": 34.0,
   "EchoTrainLength": 100,
   "FlipAngle": 90.0,
   "HighBit": 11,
   "ImageOrientationPatient": [
    0.99999999992225,
    -4.595037e-07,
    -1.246166e-05,
    4.6188993e-08,
    0.99945049901382,
    -0.0331466441894
   ],
   "ImagePositionPatient": [
    -900.09889233151,
    -901.91111318248,
    -30.728547747005
   ],
   "ImageType": [
    "ORIGINAL",
    "PRIMARY",
    "M",
    "ND",
    "MOSAIC"
   ],
   "ImagedNucleus": "1H",
   "ImagingFrequency": 123.257764,
   "InPlanePhaseEncodingDirection": "COL",
   "MRAcquisitionType": "2D",
   "MagneticFieldStrength": 3.0,
   "Manufacturer": "SIEMENS",
   "ManufacturerModelName": "Prisma",
   "Modality": "MR",
   "NumberOfAverages": 1.0,
   "NumberOfPhaseEncodingSteps": 100,
   "PercentPhaseFieldOfView": 100.0,
   "PercentSampling": 100.0,
   "PerformedProcedureStepStartTime": "110417.131000",
   "PhotometricInterpretation": "MONOCHROME2",
   "PixelBandwidth": 2380.0,
   "PixelRepresentation": 0,
   "PixelSpacing": [
    2.0,
    2.0
   ],
   "ProtocolName": "bold_100x100_s3_2x2x2_retino_150",
   "RepetitionTime": 2000.0,
   "Rows": 900,
   "SAR": 0.08080550004819,
   "SamplesPerPixel": 1,
   "ScanOptions": "FS",
   "ScanningSequence": "EP",
   "SequenceName": "*epfid2d1_100",
   "SequenceVariant": "SK",
   "SeriesDescription": "bold_100x100_s3_2x2x2_retino_150",
   "SeriesNumber": 6,
   "SeriesTime": "113155.908000",
   "SliceLocation": -60.61821340579,
   "SliceThickness": 2.0,
   "SmallestImagePixelValue": 0,
   "SoftwareVersions": "syngo MR E11",
   "SpacingBetweenSlices": 1.9999999932748,
   "SpecificCharacterSet": "ISO_IR 100",
   "StudyID": "1",
   "StudyTime": "110417.034000",
   "TransmitCoilName": "Body",
   "VariableFlipAngleFlag": "N",
   "WindowCenterWidthExplanation": "Algo1",
   "dBdt": 0.0
  },
  "slices": {}
 },
 "time": {
  "samples": {
   "AcquisitionNumber": [
    1,
    2,
    3,
    4,
    5,
    6,
    7,
    8,
    9,
    10,
    11,
    12,
    13,
    14,
    15,
    16,
    17,
    18,
    19,
    20,
    21,
    22,
    23,
    24,
    25,
    26,
    27,
    28,
    29,
    30,
    31,
    32,
    33,
    34,
    35,
    36,
    37,
    38,
    39,
    40,
    41,
    42,
    43,
    44,
    45,
    46,
    47,
    48,
    49,
    50,
    51,
    52,
    53,
    54,
    55,
    56,
    57,
    58,
    59,
    60,
    61,
    62,
    63,
    64,
    65,
    66,
    67,
    68,
    69,
    70,
    71,
    72,
    73,
    74,
    75,
    76,
    77,
    78,
    79,
    80,
    81,
    82,
    83,
    84,
    85,
    86,
    87,
    88,
    89,
    90,
    91,
    92,
    93,
    94,
    95,
    96,
    97,
    98,
    99,
    100,
    101,
    102,
    103,
    104,
    105,
    106,
    107,
    108,
    109,
    110,
    111,
    112,
    113,
    114,
    115,
    116,
    117,
    118,
    119,
    120,
    121,
    122,
    123,
    124,
    125,
    126,
    127,
    128,
    129,
    130,
    131,
    132,
    133,
    134,
    135,
    136,
    137,
    138,
    139,
    140,
    141,
    142,
    143,
    144,
    145,
    146,
    147,
    148,
    149,
    150
   ],
   "AcquisitionTime": [
    "113153.507500",
    "113155.507500",
    "113157.507500",
    "113159.507500",
    "113201.507500",
    "113203.507500",
    "113205.507500",
    "113207.507500",
    "113209.507500",
    "113211.507500",
    "113213.507500",
    "113215.507500",
    "113217.507500",
    "113219.507500",
    "113221.507500",
    "113223.507500",
    "113225.507500",
    "113227.507500",
    "113229.507500",
    "113231.507500",
    "113233.507500",
    "113235.507500",
    "113237.507500",
    "113239.507500",
    "113241.507500",
    "113243.507500",
    "113245.507500",
    "113247.507500",
    "113249.507500",
    "113251.507500",
    "113253.507500",
    "113255.507500",
    "113257.507500",
    "113259.507500",
    "113301.507500",
    "113303.507500",
    "113305.507500",
    "113307.507500",
    "113309.507500",
    "113311.507500",
    "113313.507500",
    "113315.507500",
    "113317.507500",
    "113319.507500",
    "113321.507500",
    "113323.507500",
    "113325.507500",
    "113327.507500",
    "113329.507500",
    "113331.507500",
    "113333.507500",
    "113335.507500",
    "113337.507500",
    "113339.507500",
    "113341.507500",
    "113343.507500",
    "113345.507500",
    "113347.507500",
    "113349.507500",
    "113351.507500",
    "113353.507500",
    "113355.507500",
    "113357.507500",
    "113359.507500",
    "113401.507500",
    "113403.507500",
    "113405.507500",
    "113407.507500",
    "113409.507500",
    "113411.507500",
    "113413.507500",
    "113415.507500",
    "113417.507500",
    "113419.507500",
    "113421.507500",
    "113423.507500",
    "113425.507500",
    "113427.507500",
    "113429.507500",
    "113431.507500",
    "113433.507500",
    "113435.507500",
    "113437.507500",
    "113439.507500",
    "113441.507500",
    "113443.507500",
    "113445.507500",
    "113447.507500",
    "113449.507500",
    "113451.507500",
    "113453.507500",
    "113455.507500",
    "113457.507500",
    "113459.507500",
    "113501.507500",
    "113503.507500",
    "113505.507500",
    "113507.507500",
    "113509.507500",
    "113511.507500",
    "113513.507500",
    "113515.507500",
    "113517.507500",
    "113519.507500",
    "113521.507500",
    "113523.507500",
    "113525.507500",
    "113527.507500",
    "113529.507500",
    "113531.507500",
    "113533.507500",
    "113535.507500",
    "113537.507500",
    "113539.507500",
    "113541.507500",
    "113543.507500",
    "113545.507500",
    "113547.507500",
    "113549.507500",
    "113551.507500",
    "113553.507500",
    "113555.507500",
    "113557.507500",
    "113559.507500",
    "113601.507500",
    "113603.507500",
    "113605.507500",
    "113607.507500",
    "113609.507500",
    "113611.507500",
    "113613.507500",
    "113615.507500",
    "113617.507500",
    "113619.507500",
    "113621.507500",
    "113623.507500",
    "113625.507500",
    "113627.507500",
    "113629.507500",
    "113631.507500",
    "113633.507500",
    "113635.507500",
    "113637.507500",
    "113639.507500",
    "113641.507500",
    "113643.507500",
    "113645.507500",
    "113647.507500",
    "113649.507500",
    "113651.507500"
   ],
   "ContentTime": [
    "113155.911000",
    "113156.906000",
    "113159.407000",
    "113201.406000",
    "113202.906000",
    "113205.407000",
    "113206.906000",
    "113208.905000",
    "113211.407000",
    "113212.906000",
    "113214.907000",
    "113216.906000",
    "113218.906000",
    "113221.406000",
    "113222.906000",
    "113224.906000",
    "113226.905000",
    "113229.407000",
    "113230.906000",
    "113232.907000",
    "113234.907000",
    "113237.407000",
    "113238.906000",
    "113241.406000",
    "113243.405000",
    "113245.406000",
    "113246.906000",
    "113248.906000",
    "113250.907000",
    "113253.406000",
    "113254.906000",
    "113256.906000",
    "113259.407000",
    "113300.906000",
    "113302.907000",
    "113304.906000",
    "113306.906000",
    "113308.907000",
    "113310.907000",
    "113312.906000",
    "113315.406000",
    "113316.907000",
    "113318.905000",
    "113320.907000",
    "113322.906000",
    "113324.907000",
    "113326.906000",
    "113329.407000",
    "113330.906000",
    "113332.907000",
    "113335.405000",
    "113336.905000",
    "113338.906000",
    "113340.906000",
    "113343.407000",
    "113344.907000",
    "113346.907000",
    "113349.406000",
    "113350.907000",
    "113353.406000",
    "113355.406000",
    "113356.906000",
    "113358.906000",
    "113401.407000",
    "113402.906000",
    "113404.907000",
    "113407.406000",
    "113409.407000",
    "113410.906000",
    "113413.407000",
    "113414.906000",
    "113417.407000",
    "113418.907000",
    "113420.907000",
    "113423.407000",
    "113425.407000",
    "113426.907000",
    "113428.905000",
    "113431.406000",
    "113433.406000",
    "113435.407000",
    "113436.907000",
    "113439.407000",
    "113440.907000",
    "113442.906000",
    "113444.906000",
    "113446.905000",
    "113448.907000",
    "113450.907000",
    "113452.906000",
    "113454.906000",
    "113456.906000",
    "113458.906000",
    "113500.906000",
    "113502.906000",
    "113504.905000",
    "113506.906000",
    "113508.906000",
    "113510.907000",
    "113512.907000",
    "113514.907000",
    "113516.906000",
    "113518.907000",
    "113520.905000",
    "113522.906000",
    "113524.906000",
    "113526.906000",
    "113528.907000",
    "113531.406000",
    "113533.407000",
    "113534.906000",
    "113536.907000",
    "113538.906000",
    "113540.907000",
    "113543.406000",
    "113544.907000",
    "113546.906000",
    "113548.907000",
    "113550.907000",
    "113553.406000",
    "113554.907000",
    "113556.905000",
    "113558.907000",
    "113600.906000",
    "113602.907000",
    "113605.406000",
    "113606.907000",
    "113608.906000",
    "113611.406000",
    "113612.906000",
    "113614.906000",
    "113616.906000",
    "113618.906000",
    "113621.407000",
    "113623.407000",
    "113625.407000",
    "113626.907000",
    "113628.907000",
    "113630.906000",
    "113633.407000",
    "113635.406000",
    "113637.407000",
    "113639.407000",
    "113641.407000",
    "113642.906000",
    "113645.406000",
    "113646.907000",
    "113649.406000",
    "113651.407000",
    "113652.919000"
   ],
   "InstanceCreationTime": [
    "113155.911000",
    "113156.906000",
    "113159.407000",
    "113201.406000",
    "113202.906000",
    "113205.407000",
    "113206.906000",
    "113208.905000",
    "113211.407000",
    "113212.906000",
    "113214.907000",
    "113216.906000",
    "113218.906000",
    "113221.406000",
    "113222.906000",
    "113224.906000",
    "113226.905000",
    "113229.407000",
    "113230.906000",
    "113232.907000",
    "113234.907000",
    "113237.407000",
    "113238.906000",
    "113241.406000",
    "113243.405000",
    "113245.406000",
    "113246.906000",
    "113248.906000",
    "113250.907000",
    "113253.406000",
    "113254.906000",
    "113256.906000",
    "113259.407000",
    "113300.906000",
    "113302.907000",
    "113304.906000",
    "113306.906000",
    "113308.907000",
    "113310.907000",
    "113312.906000",
    "113315.406000",
    "113316.907000",
    "113318.905000",
    "113320.907000",
    "113322.906000",
    "113324.907000",
    "113326.906000",
    "113329.407000",
    "113330.906000",
    "113332.907000",
    "113335.405000",
    "113336.905000",
    "113338.906000",
    "113340.906000",
    "113343.407000",
    "113344.907000",
    "113346.907000",
    "113349.406000",
    "113350.907000",
    "113353.406000",
    "113355.406000",
    "113356.906000",
    "113358.906000",
    "113401.407000",
    "113402.906000",
    "113404.907000",
    "113407.406000",
    "113409.407000",
    "113410.906000",
    "113413.407000",
    "113414.906000",
    "113417.407000",
    "113418.907000",
    "113420.907000",
    "113423.407000",
    "113425.407000",
    "113426.907000",
    "113428.905000",
    "113431.406000",
    "113433.406000",
    "113435.407000",
    "113436.907000",
    "113439.407000",
    "113440.907000",
    "113442.906000",
    "113444.906000",
    "113446.905000",
    "113448.907000",
    "113450.907000",
    "113452.906000",
    "113454.906000",
    "113456.906000",
    "113458.906000",
    "113500.906000",
    "113502.906000",
    "113504.905000",
    "113506.906000",
    "113508.906000",
    "113510.907000",
    "113512.907000",
    "113514.907000",
    "113516.906000",
    "113518.907000",
    "113520.905000",
    "113522.906000",
    "113524.906000",
    "113526.906000",
    "113528.907000",
    "113531.406000",
    "113533.407000",
    "113534.906000",
    "113536.907000",
    "113538.906000",
    "113540.907000",
    "113543.406000",
    "113544.907000",
    "113546.906000",
    "113548.907000",
    "113550.907000",
    "113553.406000",
    "113554.907000",
    "113556.905000",
    "113558.907000",
    "113600.906000",
    "113602.907000",
    "113605.406000",
    "113606.907000",
    "113608.906000",
    "113611.406000",
    "113612.906000",
    "113614.906000",
    "113616.906000",
    "113618.906000",
    "113621.407000",
    "113623.407000",
    "113625.407000",
    "113626.907000",
    "113628.907000",
    "113630.906000",
    "113633.407000",
    "113635.406000",
    "113637.407000",
    "113639.407000",
    "113641.407000",
    "113642.906000",
    "113645.406000",
    "113646.907000",
    "113649.406000",
    "113651.407000",
    "113652.919000"
   ],
   "InstanceNumber": [
    1,
    2,
    3,
    4,
    5,
    6,
    7,
    8,
    9,
    10,
    11,
    12,
    13,
    14,
    15,
    16,
    17,
    18,
    19,
    20,
    21,
    22,
    23,
    24,
    25,
    26,
    27,
    28,
    29,
    30,
    31,
    32,
    33,
    34,
    35,
    36,
    37,
    38,
    39,
    40,
    41,
    42,
    43,
    44,
    45,
    46,
    47,
    48,
    49,
    50,
    51,
    52,
    53,
    54,
    55,
    56,
    57,
    58,
    59,
    60,
    61,
    62,
    63,
    64,
    65,
    66,
    67,
    68,
    69,
    70,
    71,
    72,
    73,
    74,
    75,
    76,
    77,
    78,
    79,
    80,
    81,
    82,
    83,
    84,
    85,
    86,
    87,
    88,
    89,
    90,
    91,
    92,
    93,
    94,
    95,
    96,
    97,
    98,
    99,
    100,
    101,
    102,
    103,
    104,
    105,
    106,
    107,
    108,
    109,
    110,
    111,
    112,
    113,
    114,
    115,
    116,
    117,
    118,
    119,
    120,
    121,
    122,
    123,
    124,
    125,
    126,
    127,
    128,
    129,
    130,
    131,
    132,
    133,
    134,
    135,
    136,
    137,
    138,
    139,
    140,
    141,
    142,
    143,
    144,
    145,
    146,
    147,
    148,
    149,
    150
   ],
   "LargestImagePixelValue": [
    3367,
    3204,
    3282,
    3274,
    3277,
    3283,
    3312,
    3275,
    3345,
    3305,
    3304,
    3232,
    3268,
    3264,
    3288,
    3185,
    3296,
    3148,
    3129,
    3177,
    3194,
    3154,
    3225,
    3172,
    3157,
    3117,
    3132,
    3151,
    3177,
    3212,
    3143,
    3145,
    3164,
    3214,
    3128,
    3165,
    3134,
    3153,
    3148,
    3173,
    3173,
    3184,
    3175,
    3243,
    3176,
    3143,
    3098,
    3134,
    3108,
    3181,
    3156,
    3200,
    3198,
    3185,
    3207,
    3184,
    3131,
    3142,
    3192,
    3186,
    3229,
    3208,
    3212,
    3194,
    3196,
    3194,
    3180,
    3191,
    3129,
    3211,
    3163,
    3193,
    3259,
    3238,
    3207,
    3218,
    3225,
    3242,
    3227,
    3192,
    3224,
    3214,
    3242,
    3227,
    3233,
    3200,
    3221,
    3244,
    3254,
    3223,
    3227,
    3212,
    3187,
    3201,
    3263,
    3175,
    3230,
    3231,
    3220,
    3221,
    3233,
    3203,
    3197,
    3230,
    3232,
    3271,
    3247,
    3255,
    3270,
    3263,
    3244,
    3261,
    3269,
    3243,
    3250,
    3276,
    3233,
    3255,
    3303,
    3235,
    3258,
    3246,
    3254,
    3257,
    3248,
    3291,
    3268,
    3281,
    3283,
    3299,
    3226,
    3286,
    3251,
    3301,
    3275,
    3298,
    3269,
    3277,
    3302,
    3331,
    3258,
    3294,
    3240,
    3252,
    3250,
    3336,
    3269,
    3311,
    3267,
    3327
   ],
   "WindowCenter": [
    759.0,
    756.0,
    756.0,
    757.0,
    757.0,
    757.0,
    757.0,
    756.0,
    756.0,
    757.0,
    756.0,
    756.0,
    757.0,
    757.0,
    757.0,
    756.0,
    756.0,
    755.0,
    754.0,
    755.0,
    756.0,
    755.0,
    755.0,
    756.0,
    756.0,
    756.0,
    755.0,
    755.0,
    755.0,
    756.0,
    757.0,
    757.0,
    756.0,
    756.0,
    755.0,
    756.0,
    756.0,
    756.0,
    756.0,
    755.0,
    754.0,
    754.0,
    754.0,
    755.0,
    756.0,
    756.0,
    756.0,
    756.0,
    756.0,
    756.0,
    756.0,
    756.0,
    756.0,
    756.0,
    757.0,
    757.0,
    757.0,
    756.0,
    755.0,
    755.0,
    756.0,
    757.0,
    757.0,
    757.0,
    756.0,
    756.0,
    756.0,
    757.0,
    756.0,
    756.0,
    756.0,
    755.0,
    756.0,
    756.0,
    755.0,
    755.0,
    755.0,
    756.0,
    757.0,
    757.0,
    757.0,
    756.0,
    755.0,
    755.0,
    755.0,
    755.0,
    755.0,
    755.0,
    755.0,
    754.0,
    755.0,
    756.0,
    756.0,
    756.0,
    756.0,
    756.0,
    756.0,
    756.0,
    755.0,
    755.0,
    757.0,
    757.0,
    756.0,
    756.0,
    755.0,
    755.0,
    756.0,
    755.0,
    756.0,
    756.0,
    756.0,
    755.0,
    756.0,
    755.0,
    755.0,
    755.0,
    755.0,
    755.0,
    756.0,
    756.0,
    756.0,
    755.0,
    755.0,
    757.0,
    757.0,
    756.0,
    755.0,
    755.0,
    755.0,
    756.0,
    756.0,
    757.0,
    756.0,
    756.0,
    755.0,
    757.0,
    757.0,
    756.0,
    755.0,
    755.0,
    755.0,
    758.0,
    758.0,
    756.0,
    754.0,
    754.0,
    753.0,
    755.0,
    754.0,
    755.0
   ],
   "WindowWidth": [
    1654.0,
    1646.0,
    1646.0,
    1650.0,
    1650.0,
    1649.0,
    1649.0,
    1646.0,
    1647.0,
    1649.0,
    1646.0,
    1646.0,
    1649.0,
    1650.0,
    1649.0,
    1646.0,
    1647.0,
    1642.0,
    1641.0,
    1643.0,
    1645.0,
    1644.0,
    1644.0,
    1645.0,
    1646.0,
    1645.0,
    1644.0,
    1645.0,
    1643.0,
    1647.0,
    1649.0,
    1648.0,
    1645.0,
    1645.0,
    1643.0,
    1646.0,
    1646.0,
    1647.0,
    1646.0,
    1644.0,
    1641.0,
    1640.0,
    1640.0,
    1643.0,
    1645.0,
    1647.0,
    1646.0,
    1646.0,
    1645.0,
    1646.0,
    1645.0,
    1645.0,
    1647.0,
    1647.0,
    1648.0,
    1648.0,
    1649.0,
    1645.0,
    1644.0,
    1642.0,
    1645.0,
    1648.0,
    1648.0,
    1647.0,
    1646.0,
    1647.0,
    1646.0,
    1649.0,
    1646.0,
    1647.0,
    1645.0,
    1645.0,
    1646.0,
    1646.0,
    1644.0,
    1644.0,
    1644.0,
    1646.0,
    1648.0,
    1649.0,
    1650.0,
    1646.0,
    1642.0,
    1642.0,
    1643.0,
    1642.0,
    1643.0,
    1642.0,
    1643.0,
    1640.0,
    1642.0,
    1645.0,
    1647.0,
    1645.0,
    1646.0,
    1645.0,
    1646.0,
    1645.0,
    1643.0,
    1643.0,
    1648.0,
    1648.0,
    1647.0,
    1644.0,
    1643.0,
    1644.0,
    1645.0,
    1644.0,
    1645.0,
    1646.0,
    1645.0,
    1644.0,
    1645.0,
    1643.0,
    1644.0,
    1644.0,
    1643.0,
    1642.0,
    1646.0,
    1646.0,
    1645.0,
    1642.0,
    1643.0,
    1648.0,
    1647.0,
    1646.0,
    1643.0,
    1643.0,
    1643.0,
    1646.0,
    1646.0,
    1648.0,
    1645.0,
    1645.0,
    1644.0,
    1647.0,
    1647.0,
    1647.0,
    1643.0,
    1643.0,
    1642.0,
    1652.0,
    1651.0,
    1646.0,
    1638.0,
    1639.0,
    1638.0,
    1642.0,
    1639.0,
    1642.0
   ]
  },
  "slices": {}
 }
}