{
  "AcquisitionMatrixPE": 100,
  "AcquisitionNumber": 1,
  "AcquisitionTime": "11:15:20.232500",
  "BandwidthPerPixelPhaseEncode": 18.519,
  "BaseResolution": 100,
  "BodyPartExamined": "BRAIN",
  "ConsistencyInfo": "N4_VE11C_LATEST_20160120",
  "ConversionSoftware": "dcm2niix",
  "ConversionSoftwareVersion": "v1.0.20180622 GCC4.9.2",
  "DerivedVendorReportedEchoSpacing": 0.000539986,
  "DeviceSerialNumber": "166078",
  "DwellTime": 2.1e-06,
  "EchoTime": 0.034,
  "EchoTrainLength": 100,
  "EffectiveEchoSpacing": 0.000539986,
  "FlipAngle": 90,
  "ImageOrientationPatientDICOM": [1, -4.59504e-07, -1.24617e-05, 4.6189e-08, 0.999451, -0.0331466],
  "ImageType": [
    "ORIGINAL",
    "PRIMARY",
    "M",
    "ND",
    "MOSAIC"
],
  "InPlanePhaseEncodingDirectionDICOM": "COL",
  "InstitutionAddress": "Street_StreetNo_Bei_Jing_District_CN_ZIP",
  "InstitutionName": "BeiJing_Normal_University",
  "InstitutionalDepartmentName": "Department",
  "MRAcquisitionType": "2D",
  "MagneticFieldStrength": 3,
  "Manufacturer": "Siemens",
  "ManufacturersModelName": "Prisma",
  "Modality": "MR",
  "MultibandAccelerationFactor": 3,
  "PartialFourier": 1,
  "PatientPosition": "HFS",
  "PercentPhaseFOV": 100,
  "PhaseEncodingDirection": "j-",
  "PhaseEncodingSteps": 100,
  "PhaseResolution": 1,
  "PixelBandwidth": 2380,
  "ProcedureStepDescription": "BNU_P2018_64CH_Zhen.ZongLei",
  "ProtocolName": "bold_100x100_s3_2x2x2_retino_150",
  "PulseSequenceDetails": "%SiemensSeq%_ep2d_bold",
  "ReceiveCoilActiveElements": "HC1-7;NC1",
  "ReceiveCoilName": "HeadNeck_64",
  "ReconMatrixPE": 100,
  "RepetitionTime": 2,
  "SAR": 0.0808055,
  "ScanOptions": "FS",
  "ScanningSequence": "EP",
  "SequenceName": "_epfid2d1_100",
  "SequenceVariant": "SK",
  "SeriesDescription": "bold_100x100_s3_2x2x2_retino_150",
  "SeriesNumber": 4,
  "ShimSetting": [-5467, -11522, -1299, 496, -16, -246, -103, 19],
  "SliceThickness": 2,
  "SliceTiming": [1.485, 0, 0.99, 0.0825, 1.0725, 0.165, 1.155, 0.2475, 1.2375, 0.33, 1.32, 0.4125, 1.4025, 0.5775, 1.5675, 0.66, 1.65, 0.7425, 1.7325, 0.825, 1.815, 0.9075, 1.8975, 0.495, 1.485, 0, 0.99, 0.0825, 1.0725, 0.165, 1.155, 0.2475, 1.2375, 0.33, 1.32, 0.4125, 1.4025, 0.5775, 1.5675, 0.66, 1.65, 0.7425, 1.7325, 0.825, 1.815, 0.9075, 1.8975, 0.495, 1.485, 0, 0.99, 0.0825, 1.0725, 0.165, 1.155, 0.2475, 1.2375, 0.33, 1.32, 0.4125, 1.4025, 0.5775, 1.5675, 0.66, 1.65, 0.7425, 1.7325, 0.825, 1.815, 0.9075, 1.8975, 0.495],
  "SoftwareVersions": "syngo_MR_E11",
  "SpacingBetweenSlices": 2,
  "StationName": "AWP166078",
  "TaskName": "retinotopy",
  "TotalReadoutTime": 0.0534586,
  "TxRefAmp": 214.219,
  "dcmmeta_affine": [
    [-2.0, 9.237798792582907e-08, -2.494008731446229e-05, 100.09884643554688],
    [9.190073910758656e-07, 1.9989010095596313, -0.06629329174757004, -95.54011535644531],
    [-2.4923319870140404e-05, 0.06629329174757004, 1.9989010095596313, -63.81886672973633],
    [0.0, 0.0, 0.0, 1.0]
],
  "dcmmeta_reorient_transform": [
    [0.0, -1.0, 0.0, 99.0],
    [1.0, 0.0, 0.0, 0.0],
    [0.0, 0.0, 1.0, 0.0],
    [0.0, 0.0, 0.0, 1.0]
],
  "dcmmeta_shape": [100, 100, 72, 150],
  "dcmmeta_slice_dim": 2,
  "dcmmeta_version": 0.6,
  "global": {
    "const": {
      "AcquisitionMatrix": [100, 0, 0, 100],
      "AngioFlag": "N",
      "BitsAllocated": 16,
      "BitsStored": 12,
      "BodyPartExamined": "BRAIN",
      "Columns": 900,
      "EchoNumbers": 1,
      "EchoTime": 34.0,
      "EchoTrainLength": 100,
      "FlipAngle": 90.0,
      "HighBit": 11,
      "ImageOrientationPatient": [0.99999999992225, -4.595037e-07, -1.246166e-05, 4.6188993e-08, 0.99945049901382, -0.0331466441894],
      "ImagePositionPatient": [-900.09889233151, -901.91111318248, -30.728547747005],
      "ImageType": [
        "ORIGINAL",
        "PRIMARY",
        "M",
        "ND",
        "MOSAIC"
],
      "ImagedNucleus": "1H",
      "ImagingFrequency": 123.257765,
      "InPlanePhaseEncodingDirection": "COL",
      "MRAcquisitionType": "2D",
      "MagneticFieldStrength": 3.0,
      "Manufacturer": "SIEMENS",
      "ManufacturerModelName": "Prisma",
      "Modality": "MR",
      "NumberOfAverages": 1.0,
      "NumberOfPhaseEncodingSteps": 100,
      "PercentPhaseFieldOfView": 100.0,
      "PercentSampling": 100.0,
      "PerformedProcedureStepStartTime": "110417.131000",
      "PhotometricInterpretation": "MONOCHROME2",
      "PixelBandwidth": 2380.0,
      "PixelRepresentation": 0,
      "PixelSpacing": [2.0, 2.0],
      "ProtocolName": "bold_100x100_s3_2x2x2_retino_150",
      "RepetitionTime": 2000.0,
      "Rows": 900,
      "SAR": 0.08080550004819,
      "SamplesPerPixel": 1,
      "ScanOptions": "FS",
      "ScanningSequence": "EP",
      "SequenceName": "*epfid2d1_100",
      "SequenceVariant": "SK",
      "SeriesDescription": "bold_100x100_s3_2x2x2_retino_150",
      "SeriesNumber": 4,
      "SeriesTime": "111522.698000",
      "SliceLocation": -60.61821340579,
      "SliceThickness": 2.0,
      "SmallestImagePixelValue": 0,
      "SoftwareVersions": "syngo MR E11",
      "SpacingBetweenSlices": 1.9999999932748,
      "SpecificCharacterSet": "ISO_IR 100",
      "StudyID": "1",
      "StudyTime": "110417.034000",
      "TransmitCoilName": "Body",
      "VariableFlipAngleFlag": "N",
      "WindowCenterWidthExplanation": "Algo1",
      "dBdt": 0.0},
    "slices": {}
  },
  "time": {
    "samples": {
      "AcquisitionNumber": [1, 2, 3, 4, 5, 6, 7, 8, 9, 10, 11, 12, 13, 14, 15, 16, 17, 18, 19, 20, 21, 22, 23, 24, 25, 26, 27, 28, 29, 30, 31, 32, 33, 34, 35, 36, 37, 38, 39, 40, 41, 42, 43, 44, 45, 46, 47, 48, 49, 50, 51, 52, 53, 54, 55, 56, 57, 58, 59, 60, 61, 62, 63, 64, 65, 66, 67, 68, 69, 70, 71, 72, 73, 74, 75, 76, 77, 78, 79, 80, 81, 82, 83, 84, 85, 86, 87, 88, 89, 90, 91, 92, 93, 94, 95, 96, 97, 98, 99, 100, 101, 102, 103, 104, 105, 106, 107, 108, 109, 110, 111, 112, 113, 114, 115, 116, 117, 118, 119, 120, 121, 122, 123, 124, 125, 126, 127, 128, 129, 130, 131, 132, 133, 134, 135, 136, 137, 138, 139, 140, 141, 142, 143, 144, 145, 146, 147, 148, 149, 150],
      "AcquisitionTime": ["111520.232500", "111522.232500", "111524.232500", "111526.232500", "111528.232500", "111530.232500", "111532.232500", "111534.232500", "111536.232500", "111538.232500", "111540.232500", "111542.232500", "111544.232500", "111546.232500", "111548.232500", "111550.232500", "111552.232500", "111554.232500", "111556.232500", "111558.232500", "111600.232500", "111602.232500", "111604.232500", "111606.232500", "111608.232500", "111610.232500", "111612.232500", "111614.232500", "111616.232500", "111618.232500", "111620.232500", "111622.232500", "111624.232500", "111626.232500", "111628.232500", "111630.232500", "111632.232500", "111634.232500", "111636.232500", "111638.232500", "111640.232500", "111642.232500", "111644.232500", "111646.232500", "111648.232500", "111650.232500", "111652.232500", "111654.232500", "111656.232500", "111658.232500", "111700.232500", "111702.232500", "111704.232500", "111706.232500", "111708.232500", "111710.232500", "111712.232500", "111714.232500", "111716.232500", "111718.232500", "111720.232500", "111722.232500", "111724.232500", "111726.232500", "111728.232500", "111730.232500", "111732.232500", "111734.232500", "111736.232500", "111738.232500", "111740.232500", "111742.232500", "111744.232500", "111746.232500", "111748.232500", "111750.232500", "111752.232500", "111754.232500", "111756.232500", "111758.232500", "111800.232500", "111802.232500", "111804.232500", "111806.232500", "111808.232500", "111810.232500", "111812.232500", "111814.232500", "111816.232500", "111818.232500", "111820.232500", "111822.232500", "111824.232500", "111826.232500", "111828.232500", "111830.232500", "111832.232500", "111834.232500", "111836.232500", "111838.232500", "111840.232500", "111842.232500", "111844.232500", "111846.232500", "111848.232500", "111850.232500", "111852.232500", "111854.232500", "111856.232500", "111858.232500", "111900.232500", "111902.232500", "111904.232500", "111906.232500", "111908.232500", "111910.232500", "111912.232500", "111914.232500", "111916.232500", "111918.232500", "111920.232500", "111922.232500", "111924.232500", "111926.232500", "111928.232500", "111930.232500", "111932.232500", "111934.232500", "111936.232500", "111938.232500", "111940.232500", "111942.232500", "111944.232500", "111946.232500", "111948.232500", "111950.232500", "111952.232500", "111954.232500", "111956.232500", "111958.232500", "112000.232500", "112002.232500", "112004.232500", "112006.232500", "112008.232500", "112010.232500", "112012.232500", "112014.232500", "112016.232500", "112018.232500"],
      "ContentTime": ["111522.701000", "111524.197000", "111526.196000", "111528.197000", "111530.197000", "111532.197000", "111534.197000", "111536.196000", "111538.196000", "111540.196000", "111542.197000", "111544.197000", "111546.197000", "111548.196000", "111550.197000", "111552.196000", "111554.196000", "111556.197000", "111558.196000", "111600.197000", "111602.196000", "111604.197000", "111606.197000", "111608.195000", "111610.196000", "111612.197000", "111614.196000", "111616.197000", "111618.196000", "111620.197000", "111622.196000", "111624.196000", "111626.195000", "111628.196000", "111630.196000", "111632.197000", "111634.196000", "111636.196000", "111638.197000", "111640.196000", "111642.196000", "111644.197000", "111646.197000", "111648.197000", "111650.197000", "111652.197000", "111654.196000", "111656.197000", "111658.196000", "111700.196000", "111702.196000", "111704.197000", "111706.197000", "111708.196000", "111710.197000", "111712.197000", "111714.197000", "111716.196000", "111718.195000", "111720.197000", "111722.196000", "111724.197000", "111726.196000", "111728.197000", "111730.197000", "111732.196000", "111734.196000", "111736.196000", "111738.197000", "111740.196000", "111742.197000", "111744.196000", "111746.197000", "111748.197000", "111750.197000", "111752.197000", "111754.197000", "111756.197000", "111758.196000", "111800.197000", "111802.196000", "111804.197000", "111806.197000", "111808.196000", "111810.197000", "111812.197000", "111814.197000", "111816.196000", "111818.197000", "111820.197000", "111822.197000", "111824.196000", "111826.196000", "111828.195000", "111830.196000", "111832.197000", "111834.196000", "111836.196000", "111838.197000", "111840.196000", "111842.197000", "111844.196000", "111846.195000", "111848.197000", "111850.196000", "111852.197000", "111854.196000", "111856.196000", "111858.196000", "111900.197000", "111902.197000", "111904.197000", "111906.197000", "111908.197000", "111910.197000", "111912.196000", "111914.196000", "111916.197000", "111918.197000", "111920.216000", "111922.196000", "111924.196000", "111926.197000", "111928.197000", "111930.197000", "111932.196000", "111934.197000", "111936.197000", "111938.196000", "111940.197000", "111942.197000", "111944.196000", "111946.197000", "111948.197000", "111950.197000", "111952.196000", "111954.197000", "111956.196000", "111958.197000", "112000.196000", "112002.196000", "112004.197000", "112006.196000", "112008.197000", "112010.197000", "112012.197000", "112014.197000", "112016.197000", "112018.197000", "112019.870000"],
      "InstanceCreationTime": ["111522.701000", "111524.197000", "111526.196000", "111528.197000", "111530.197000", "111532.197000", "111534.197000", "111536.196000", "111538.196000", "111540.196000", "111542.197000", "111544.197000", "111546.197000", "111548.196000", "111550.197000", "111552.196000", "111554.196000", "111556.197000", "111558.196000", "111600.197000", "111602.196000", "111604.197000", "111606.197000", "111608.195000", "111610.196000", "111612.197000", "111614.196000", "111616.197000", "111618.196000", "111620.197000", "111622.196000", "111624.196000", "111626.195000", "111628.196000", "111630.196000", "111632.197000", "111634.196000", "111636.196000", "111638.197000", "111640.196000", "111642.196000", "111644.197000", "111646.197000", "111648.197000", "111650.197000", "111652.197000", "111654.196000", "111656.197000", "111658.196000", "111700.196000", "111702.196000", "111704.197000", "111706.197000", "111708.196000", "111710.197000", "111712.197000", "111714.197000", "111716.196000", "111718.195000", "111720.197000", "111722.196000", "111724.197000", "111726.196000", "111728.197000", "111730.197000", "111732.196000", "111734.196000", "111736.196000", "111738.197000", "111740.196000", "111742.197000", "111744.196000", "111746.197000", "111748.197000", "111750.197000", "111752.197000", "111754.197000", "111756.197000", "111758.196000", "111800.197000", "111802.196000", "111804.197000", "111806.197000", "111808.196000", "111810.197000", "111812.197000", "111814.197000", "111816.196000", "111818.197000", "111820.197000", "111822.197000", "111824.196000", "111826.196000", "111828.195000", "111830.196000", "111832.197000", "111834.196000", "111836.196000", "111838.197000", "111840.196000", "111842.197000", "111844.196000", "111846.195000", "111848.197000", "111850.196000", "111852.197000", "111854.196000", "111856.196000", "111858.196000", "111900.197000", "111902.197000", "111904.197000", "111906.197000", "111908.197000", "111910.197000", "111912.196000", "111914.196000", "111916.197000", "111918.197000", "111920.216000", "111922.196000", "111924.196000", "111926.197000", "111928.197000", "111930.197000", "111932.196000", "111934.197000", "111936.197000", "111938.196000", "111940.197000", "111942.197000", "111944.196000", "111946.197000", "111948.197000", "111950.197000", "111952.196000", "111954.197000", "111956.196000", "111958.197000", "112000.196000", "112002.196000", "112004.197000", "112006.196000", "112008.197000", "112010.197000", "112012.197000", "112014.197000", "112016.197000", "112018.197000", "112019.870000"],
      "InstanceNumber": [1, 2, 3, 4, 5, 6, 7, 8, 9, 10, 11, 12, 13, 14, 15, 16, 17, 18, 19, 20, 21, 22, 23, 24, 25, 26, 27, 28, 29, 30, 31, 32, 33, 34, 35, 36, 37, 38, 39, 40, 41, 42, 43, 44, 45, 46, 47, 48, 49, 50, 51, 52, 53, 54, 55, 56, 57, 58, 59, 60, 61, 62, 63, 64, 65, 66, 67, 68, 69, 70, 71, 72, 73, 74, 75, 76, 77, 78, 79, 80, 81, 82, 83, 84, 85, 86, 87, 88, 89, 90, 91, 92, 93, 94, 95, 96, 97, 98, 99, 100, 101, 102, 103, 104, 105, 106, 107, 108, 109, 110, 111, 112, 113, 114, 115, 116, 117, 118, 119, 120, 121, 122, 123, 124, 125, 126, 127, 128, 129, 130, 131, 132, 133, 134, 135, 136, 137, 138, 139, 140, 141, 142, 143, 144, 145, 146, 147, 148, 149, 150],
      "LargestImagePixelValue": [3241, 3149, 3139, 3161, 3168, 3190, 3126, 3145, 3089, 3086, 3157, 3097, 3135, 3106, 3112, 3094, 3079, 3115, 3069, 3066, 3103, 3059, 3027, 3089, 3042, 3083, 3063, 3050, 3055, 3047, 3057, 3083, 3088, 3068, 3060, 3054, 3039, 3107, 3055, 3058, 3105, 3033, 3037, 3051, 3074, 3084, 3107, 3094, 3077, 3123, 3106, 3116, 3119, 3107, 3094, 3112, 3131, 3096, 3105, 3149, 3120, 3126, 3068, 3094, 3131, 3095, 3124, 3145, 3127, 3121, 3128, 3111, 3092, 3120, 3087, 3142, 3167, 3081, 3122, 3096, 3140, 3096, 3103, 3125, 3134, 3137, 3135, 3090, 3098, 3149, 3070, 3153, 3142, 3101, 3152, 3153, 3135, 3120, 3067, 3142, 3047, 3113, 3046, 3128, 3045, 3086, 3148, 3098, 3091, 3066, 3148, 3148, 3117, 3080, 3058, 3114, 3089, 3097, 3097, 3066, 3104, 3059, 3086, 3130, 3051, 3094, 3090, 3090, 3172, 3070, 3104, 3104, 3150, 3126, 3105, 3144, 3072, 3134, 3080, 3096, 3142, 3130, 3166, 3079, 3139, 3120, 3172, 3079, 3135, 3132],
      "WindowCenter": [761.0, 759.0, 759.0, 760.0, 761.0, 760.0, 759.0, 757.0, 757.0, 759.0, 760.0, 759.0, 758.0, 757.0, 757.0, 757.0, 757.0, 757.0, 756.0, 756.0, 756.0, 755.0, 756.0, 757.0, 756.0, 755.0, 755.0, 755.0, 756.0, 755.0, 755.0, 756.0, 756.0, 755.0, 755.0, 755.0, 756.0, 756.0, 755.0, 754.0, 755.0, 755.0, 756.0, 756.0, 755.0, 755.0, 755.0, 756.0, 756.0, 756.0, 755.0, 756.0, 755.0, 755.0, 755.0, 756.0, 756.0, 756.0, 756.0, 755.0, 755.0, 756.0, 756.0, 756.0, 756.0, 755.0, 755.0, 755.0, 756.0, 756.0, 755.0, 756.0, 757.0, 756.0, 754.0, 755.0, 755.0, 756.0, 757.0, 756.0, 756.0, 756.0, 756.0, 755.0, 755.0, 756.0, 758.0, 758.0, 757.0, 756.0, 756.0, 756.0, 755.0, 756.0, 756.0, 755.0, 756.0, 756.0, 756.0, 756.0, 756.0, 757.0, 756.0, 756.0, 756.0, 755.0, 756.0, 756.0, 756.0, 755.0, 754.0, 754.0, 756.0, 757.0, 757.0, 756.0, 755.0, 755.0, 756.0, 757.0, 756.0, 754.0, 754.0, 755.0, 755.0, 755.0, 755.0, 756.0, 756.0, 754.0, 755.0, 755.0, 755.0, 755.0, 755.0, 756.0, 757.0, 758.0, 756.0, 755.0, 754.0, 755.0, 756.0, 755.0, 755.0, 755.0, 756.0, 757.0, 757.0, 755.0],
      "WindowWidth": [1660.0, 1655.0, 1654.0, 1657.0, 1660.0, 1659.0, 1654.0, 1650.0, 1650.0, 1654.0, 1657.0, 1654.0, 1652.0, 1650.0, 1649.0, 1651.0, 1651.0, 1650.0, 1647.0, 1646.0, 1646.0, 1645.0, 1648.0, 1649.0, 1645.0, 1644.0, 1644.0, 1644.0, 1646.0, 1645.0, 1644.0, 1647.0, 1647.0, 1645.0, 1644.0, 1645.0, 1646.0, 1645.0, 1642.0, 1641.0, 1643.0, 1645.0, 1648.0, 1646.0, 1644.0, 1645.0, 1644.0, 1647.0, 1647.0, 1646.0, 1645.0, 1646.0, 1644.0, 1644.0, 1645.0, 1646.0, 1648.0, 1648.0, 1645.0, 1644.0, 1644.0, 1646.0, 1647.0, 1646.0, 1647.0, 1645.0, 1645.0, 1645.0, 1646.0, 1647.0, 1644.0, 1646.0, 1648.0, 1647.0, 1642.0, 1643.0, 1644.0, 1646.0, 1649.0, 1646.0, 1646.0, 1647.0, 1646.0, 1643.0, 1643.0, 1648.0, 1652.0, 1652.0, 1649.0, 1647.0, 1646.0, 1647.0, 1645.0, 1646.0, 1647.0, 1644.0, 1646.0, 1648.0, 1648.0, 1648.0, 1647.0, 1648.0, 1646.0, 1648.0, 1645.0, 1645.0, 1646.0, 1646.0, 1647.0, 1643.0, 1642.0, 1642.0, 1646.0, 1649.0, 1648.0, 1647.0, 1645.0, 1645.0, 1646.0, 1648.0, 1647.0, 1642.0, 1642.0, 1645.0, 1644.0, 1644.0, 1643.0, 1645.0, 1646.0, 1641.0, 1643.0, 1644.0, 1644.0, 1643.0, 1643.0, 1647.0, 1650.0, 1651.0, 1646.0, 1643.0, 1641.0, 1643.0, 1646.0, 1642.0, 1644.0, 1643.0, 1648.0, 1650.0, 1649.0, 1645.0]
    },
    "slices": {}
  }
}